394.1085523
659.9783663
687.119146
486.6727165
403.4814249
291.9063822
32.25844456
-129.4126915
-228.4227221
-442.7697752
-579.1780538
-535.6242373
-472.7352173
-237.5171692
362.0510058
963.4015263
1231.533837
1387.638764
1594.132384
1667.463903
1610.013779
1595.439209
1543.772989
1367.059163
1269.073318
1352.654882
1385.605438
1218.083085
1021.189525
947.5334781
863.1252577
611.5601867
336.5507859
218.1678487
68.56202308
-312.0797107
-659.1868653
-776.3246783
-1010.547266
-1505.130565
-1861.674816
-2025.967141
-2296.815891
-2475.56366
-2325.754804
-2216.237928
-2288.054285
-2169.795281
-1910.150524
-1838.176576
-1785.654354
-1533.974923
-1275.159316
-1097.518568
-915.1487408
-842.1490786
-883.7646754
-768.8838352
-512.2239281
-393.0431422
-323.9899337
-46.75240863
283.0793557
410.2427763
469.5483691
652.13586
835.5788394
879.4430772
909.0623315
1063.544875
1212.760369
1175.945418
1069.248309
1087.974614
1093.023629
913.3141527
781.0493809
835.0381114
752.3316722
512.6060335
561.8101613
789.7624405
678.1293807
413.730708
428.1628382
501.870057
431.3110728
438.4356248
473.2867013
345.5827951
253.5997062
271.8212658
144.8305702
-55.63706622
-75.74925274
-66.29458454
-177.2273561
-194.9861285
-88.48791432
-102.7598977
-193.0625199
-167.1048461
-164.7560491
-325.1987428
-419.4099584
-297.639677
-192.4121231
-263.8220841
-305.1096697
-141.1322901
28.57681463
-28.59105122
-134.2225734
-17.27620787
135.3718998
46.99628187
-41.073665
119.9642702
223.647537
115.9201252
145.5291179
279.2784825
128.1164841
-115.9544944
-116.0425857
-136.2788207
-308.5923717
-298.9811334
-132.2891601
-89.02226978
-50.7887681
90.42104157
137.4659663
111.5661201
159.2673867
121.6437522
-48.24425166
-64.53014826
69.36678045
52.77476731
-53.13986074
-7.23126645
36.24060446
-143.0701638
-361.5713941
-398.5854646
-364.4354215
-398.4863417
-408.8483855
-322.1699156
-291.2404598
-419.1932874
-495.5018196
-356.0462604
-268.4019704
-429.7011673
-473.3407224
-182.2565927
-15.85045888
-173.2066701
-177.2144957
66.83044767
153.0148854
147.5912027
282.1200481
288.60501
93.81869642
81.99465439
267.4398374
381.7986551
469.8900117
536.604275
404.9726907
246.8564961
324.9867337
453.7678499
464.8877695
531.3979139
615.6154048
476.4248417
279.8103864
338.1676554
499.9722912
496.5110937
421.2858914
380.1639269
211.8264848
-135.1502956
-418.1001476
-494.7717871
-561.8632076
-802.1665105
-1037.020446
-1027.756089
-903.256155
-849.7158843
-703.7509714
-418.9278891
-355.8573017
-531.1687861
-506.6110886
-359.3163943
-493.6450711
-649.9553647
-464.8009169
-258.7779448
-233.0469677
-98.85119784
106.3586662
131.7743693
139.581575
261.8603856
315.7228185
345.2863705
515.3458055
646.6418647
625.4767169
682.5485501
832.1409679
820.0651151
693.7822894
652.3656425
584.4805622
383.5761003
264.7506295
338.7556772
382.4704178
283.0349001
250.8059202
410.8431099
538.3792815
436.0156648
306.9890515
377.7810535
416.0454577
183.3847136
-21.51641373
25.52779168
-18.60809588
-247.6826125
-246.8638317
-100.0707133
-253.40316
-444.0722836
-268.9068855
-101.7471686
-237.3154244
-328.2001313
-254.7493631
-247.1285466
-253.7582765
-186.2129691
-191.8055099
-244.4020525
-223.7190701
-259.8747405
-377.913252
-358.9305133
-254.838227
-292.2950917
-340.1366423
-224.4668098
-183.9447977
-379.1731465
-516.7584424
-408.1079803
-299.2542921
-366.7608546
-420.2555501
-310.6908079
-214.7841153
-272.2539107
-268.0659116
-40.38172156
113.3612501
-34.85711398
-145.9751692
-4.539390176
1.533488988
-232.2815523
-237.0666306
-27.93279156
-64.11985994
-188.6042322
-50.50569137
80.49413558
28.21090374
97.50421089
293.3669444
368.8919288
406.4515154
472.6379698
426.3223984
384.3085226
503.7952546
557.077903
438.7623503
428.2441124
553.4610336
546.8155311
466.0824108
517.8072304
542.0935221
374.1301888
249.4386073
353.319573
477.6138507
427.7208258
333.2331202
355.1781524
398.6475011
326.2746695
243.7805313
268.6169728
224.8021601
12.01846133
-70.49551622
60.99120731
-30.84269291
-412.9436705
-591.9489497
-571.4547269
-762.0843853
-969.9721078
-885.1767998
-839.3237694
-1002.005453
-1025.123439
-914.1493994
-947.3421535
-970.7268101
-782.3784371
-534.8843163
-297.1199842
-33.56263182
88.79871842
56.0182551
147.0236965
350.7060795
389.8899914
344.8168778
462.593669
604.9979468
559.1746919
466.3016305
470.0561088
424.5243833
243.4589543
110.3233854
139.2862895
156.0295315
34.93596765
-14.14168215
159.347917
249.311679
19.99901117
-170.9405057
-50.54763284
38.78456155
-26.37935659
157.6585318
517.8854286
572.5313194
492.6921488
666.3738123
842.777216
805.7369483
791.1740366
785.634588
603.0680557
419.1715735
349.4437434
205.3948243
10.42865136
-85.35409231
-203.8367692
-388.9650535
-464.3929493
-545.9534523
-866.6459695
-1152.339173
-1035.195398
-745.6511871
-660.3788265
-683.726665
-617.5792647
-582.6743503
-701.9818467
-836.9530885
-893.4394836
-1031.050884
-1317.70715
-1463.867855
-1260.404962
-999.0783305
-948.0739213
-823.7810581
-441.2881964
-198.3512447
-209.357032
-1.576935507
434.1175085
638.2146872
715.8037461
970.6467983
1146.506248
1102.417426
1143.957076
1267.307316
1250.987928
1212.596038
1214.057159
1072.817027
882.702826
841.1614084
796.400879
675.1798238
719.1804337
903.0004815
922.6067499
800.474742
735.8922537
635.4793834
418.0070141
309.3402228
386.9003331
346.0526365
13.14342069
-353.0771874
-495.8924841
-553.8189227
-755.6642745
-984.9661136
-1028.27514
-1010.220877
-1069.587413
-967.1596462
-638.8814195
-507.5687183
-627.4967181
-529.7848925
-290.6070351
-374.6065305
-534.1205763
-351.6470336
-157.6290417
-231.4066379
-263.2683495
-152.9165288
-95.60128264
-26.8710887
97.67723137
109.8088906
79.87665836
166.139025
212.2641617
144.6031739
163.7337208
210.5084941
51.30779404
-132.1267334
-66.2661736
29.82013269
-99.02583465
-221.2622624
-108.0130601
21.88614172
-38.24974451
-82.26645979
92.54911119
264.7588933
182.2446799
64.25689049
198.1856534
349.7943575
238.3219014
153.1303611
308.9301655
303.5239201
4.155076745
-99.14002382
43.05793417
7.358548059
-71.10235469
118.5721801
285.230615
239.8545323
264.6412237
349.0471026
275.5893458
198.6415539
219.1549242
125.4239655
-60.45405253
-160.683318
-294.5866575
-519.6458313
-587.5024583
-470.8356292
-394.1794774
-313.4543886
-110.3550099
-8.395444908
-162.5249603
-307.484249
-245.7124664
-160.5090758
-188.2277954
-156.1684776
53.36040537
233.3423148
191.7612209
112.9617063
220.2172989
323.6104798
230.0319431
214.5018739
404.8400776
382.4867213
93.3916255
68.42209613
269.2986072
152.3336099
-150.0164092
-206.3641294
-188.1205884
-265.876425
-222.9453457
-131.6482129
-234.1666647
-380.9608797
-425.4893847
-476.8697318
-471.0150997
-320.1084739
-241.9330591
-285.221182
-163.9269962
107.8457863
234.4149913
273.2122761
442.4471018
590.8491239
531.3323266
455.7019896
543.7693878
631.837417
573.3867802
523.9293644
627.1164338
709.0491668
557.3750364
297.7782494
131.9890762
-59.85673107
-351.2189196
-406.1625021
-122.389108
41.21227613
-17.21950556
123.8951087
337.3620109
167.2502688
-69.12008127
57.71635232
138.5320585
-146.0788428
-400.6461034
-399.6921648
-311.8783627
-150.6487693
70.93761038
203.3966734
306.492323
426.9375112
314.1366138
-48.399393
-312.6562327
-459.1795177
-758.1095024
-1094.625873
-1190.525512
-1173.925616
-1236.463229
-1220.441326
-1022.11242
-866.0587241
-889.6903953
-926.9230182
-874.4453861
-866.0808297
-898.990063
-669.3754298
-114.8820025
263.0566364
142.6026448
-16.2041613
226.6733348
578.443559
780.656338
1064.913929
1359.83749
1323.36399
1167.070535
1185.178302
1118.377398
895.9081556
857.6794313
943.9177331
895.3532489
883.7475786
1019.94321
1058.047768
987.4261581
995.4432032
988.0920985
878.7280594
800.0233881
655.0643465
222.6114343
-288.8672988
-563.6076646
-746.6110893
-1056.929633
-1339.954968
-1457.568144
-1577.149794
-1773.888176
-1811.321176
-1542.905803
-1184.103352
-935.9530506
-627.151649
-106.3131956
328.0189871
442.9597325
566.4145579
885.3579024
975.8690901
720.2244752
612.2094736
694.509621
558.6323938
349.5425972
370.6248101
352.2613697
150.5406177
63.0609926
71.39240871
-57.61560058
-218.2265639
-337.7188215
-538.2437706
-667.8762545
-549.5336641
-410.8890189
-381.0507767
-235.0604104
20.37944895
144.1896345
214.707471
390.566689
461.2969703
279.5743841
116.97745
147.8121843
141.4066232
-57.50462094
-230.456271
-180.2100103
-78.04971241
-172.8985317
-384.3123726
-524.5217511
-696.1573722
-976.1521663
-1064.70214
-874.7975071
-833.1517562
-979.8773851
-812.423314
-404.780857
-285.9055003
-315.0473431
-128.0471324
29.61090257
12.57797073
131.3628301
364.5317797
454.2597866
525.6331116
706.1526331
837.1171915
913.4433212
1009.745747
986.3453946
878.9657745
949.8858839
1078.725484
931.7304158
656.8057841
581.8543484
590.0819793
485.4585605
440.2599048
582.0927799
691.0431397
615.4219322
517.4964806
506.7781192
405.4068828
110.3849999
-108.9259552
-28.85648929
104.5205765
58.79915658
85.64095335
293.2578307
261.9547316
-86.78762258
-272.9764946
-277.8045489
-474.3319945
-692.8255113
-681.905438
-743.0313336
-954.5224729
-963.2450403
-847.9000242
-937.2159626
-1121.361117
-1232.660025
-1333.231227
-1317.50744
-1092.636822
-885.0346111
-721.7520949
-317.2773369
221.3336196
495.5270147
574.4764972
756.5722737
914.9920472
827.0480776
650.6776573
550.8886581
386.7892928
85.84974709
-145.4161447
-202.9349379
-299.9953385
-556.949972
-705.754195
-592.2933413
-600.5828749
-982.0510624
-1281.37081
-1174.450021
-1077.721034
-1181.143775
-1042.257642
-653.3710325
-473.4682711
-390.1629853
-76.82044299
231.2530763
353.9594547
507.5636374
672.3172817
714.5461265
811.005958
997.3100288
1058.074524
1074.497145
1211.01852
1262.665525
1109.958863
998.6822029
1032.377512
1131.917481
1415.107453
1870.244213
2056.454926
1763.936036
1400.082988
1285.207389
1203.12101
944.0928489
706.8352725
678.7036479
643.0625387
341.8876442
-58.10208957
-288.7226209
-489.1473282
-831.2454434
-1046.011921
-986.8830282
-998.134387
-1119.138738
-961.2207762
-682.3982402
-719.7103334
-783.7622452
-531.4089612
-376.6371898
-563.6520301
-717.2135108
-736.2510156
-836.0756112
-949.1810116
-997.6198599
-1083.715602
-1101.006105
-943.2908768
-838.565231
-865.4315197
-795.2207502
-693.1377553
-830.0858852
-1041.269806
-997.3363564
-814.0583585
-728.285895
-625.7199094
-362.2177228
-84.14881704
67.15425917
190.4014425
373.154921
484.0471712
425.0759573
384.2531765
524.0230689
642.1305795
591.3295122
647.2827897
886.1044196
893.3862014
663.7260029
695.7198205
874.9555448
703.7900401
450.4369946
565.6504715
744.834688
697.9113459
644.2511962
613.3939209
491.9457576
477.370401
614.0970735
633.4730022
540.845577
489.0963589
353.9035652
137.0219289
121.0480199
256.8113845
221.1999158
73.0446453
48.04976541
16.09659544
-187.9632668
-370.0189916
-381.9620112
-415.4587551
-604.295452
-777.7556621
-803.9333171
-812.4165214
-857.4609516
-695.6331708
-256.434528
30.37414849
-93.19560027
-214.9357839
-66.39134058
-39.12589142
-256.1599492
-294.0906148
-221.0210042
-474.2929918
-839.1270243
-962.7069652
-1094.011784
-1302.981009
-1228.407152
-943.3343921
-769.3285963
-586.0646986
-267.3957051
7.74517512
263.2914638
645.269781
1007.830866
1266.235171
1586.187871
1896.643306
1975.429759
1968.061382
2072.664086
2075.015265
1822.653195
1615.581061
1666.215974
1745.253149
1670.333299
1616.233638
1667.936397
1508.413206
911.1558397
208.5342671
-201.1556396
-482.3895459
-902.3776658
-1229.772751
-1318.685111
-1548.839473
-1986.130491
-2180.619342
-2185.20903
-2395.609911
-2550.423182
-2311.29663
-2042.770891
-1967.258546
-1764.10494
-1400.134885
-1131.394869
-947.9530457
-836.0192084
-879.9321554
-874.187051
-656.1736796
-510.9803164
-603.992597
-687.5076008
-677.2491701
-698.3115382
-606.6618359
-251.3781087
103.8499671
226.3154545
297.9395128
466.3543659
548.4127944
447.1892179
418.9742532
677.8453063
1021.950069
1142.390089
1108.942781
1150.456967
1169.751846
1027.599631
953.9475624
1029.656718
901.3951724
614.5769906
698.7230556
1081.30642
1245.944039
1288.933606
1467.173878
1492.811058
1260.406498
1076.831177
884.420659
495.7323267
180.8707647
104.1091709
10.81192973
-178.11949
-369.9506339
-665.2320787
-1005.93441
-1088.979291
-989.7776456
-1050.465307
-1129.615239
-792.0846661
-50.98771614
733.3860887
1372.211629
1826.785435
2015.846921
1940.301995
1758.589233
1554.038552
1215.342574
752.804237
519.2308154
733.6458891
1032.251823
1037.08996
954.325864
941.1737255
621.9305937
-57.78713306
-567.6164634
-834.4799091
-1230.53583
-1632.30298
-1816.010129
-2051.287688
-2370.714773
-2414.124556
-2255.925566
-2197.662345
-2142.03851
-1992.050467
-1863.708084
-1650.64135
-1251.670071
-944.1843255
-860.1260692
-733.8693323
-503.2561253
-392.7103271
-424.5903417
-546.6535826
-907.3797761
-1455.335623
-1762.210451
-1622.343894
-1359.942453
-1314.411201
-1355.94295
-1092.80316
-400.8700693
465.5236521
1221.032633
1677.519806
1648.203505
1253.864815
1060.214604
1274.006729
1373.124561
1105.345929
848.2155645
666.6881232
341.1846964
156.4920211
355.2265869
556.2664159
574.0816355
656.2910293
744.2265694
664.0589702
550.1656889
319.8069712
-314.248276
-1093.141874
-1498.834118
-1483.566798
-1157.724217
-483.2957011
300.4144281
826.3546374
1236.083061
1865.143931
2577.746172
3082.873472
3455.483744
3855.264262
4188.391218
4355.950763
4447.997791
4465.558927
4154.929542
3384.671829
2448.787973
1630.363321
736.9836402
-418.16641
-1492.351008
-2205.640586
-2781.787003
-3204.356759
-3094.374122
-2698.424876
-2651.081798
-2846.32797
-2853.349869
-2752.481189
-2623.501925
-2301.911917
-1945.963854
-1768.674397
-1560.025554
-1178.27533
-761.860307
-307.5638756
147.7688584
307.5109558
178.0790913
133.1189199
190.640898
84.62111047
-81.81222863
-79.26751455
-61.29424444
-197.2424874
-320.1019881
-341.4024372
-468.8269679
-769.8009767
-981.6789743
-940.6426632
-855.0473376
-922.6199547
-950.9194508
-730.7812358
-510.4391507
-551.376321
-603.0869349
-478.9360513
-484.7543043
-643.0714462
-541.8329143
-311.7642622
-390.9564371
-504.1289912
-273.8569412
-33.10798942
-4.812579693
93.97112691
275.3797229
348.5068887
442.3854278
615.686066
691.9297161
744.4375988
909.0347889
997.8905505
946.410373
999.7409332
1146.597262
1157.159993
1136.537985
1280.200008
1398.096546
1288.199997
1119.865894
1051.036287
954.0321093
753.1766249
612.7672067
617.4121662
589.95683
436.2483713
387.8632928
564.3058929
616.6667999
319.570046
67.88549321
154.1514607
250.8118525
206.5523274
322.6992323
495.4496591
356.1824885
111.4110426
33.13225923
-131.8162679
-450.4215013
-653.0312023
-822.7987825
-1088.341921
-1152.200017
-929.7831693
-759.0103105
-692.7957238
-522.7368444
-294.6989525
-80.64796561
232.1330697
571.4896086
759.3518205
930.7792216
1236.689183
1447.402737
1365.19694
1169.041125
1020.954602
810.9071084
471.1617905
131.1605614
-165.9736643
-579.2246504
-1129.520762
-1516.956057
-1572.349447
-1585.654144
-1738.229105
-1669.421431
-1199.164157
-780.5734682
-667.8108105
-628.8167064
-706.9097812
-1002.766987
-1064.751753
-738.8305559
-603.9235328
-762.3416344
-679.8116414
-350.5270825
-120.7519666
147.2025009
658.9390411
1277.418288
1934.17493
2583.860472
2962.68927
3033.57349
3067.564678
3025.066137
2638.168587
1997.777113
1293.541412
363.118862
-860.8708918
-1996.485854
-2796.029868
-3564.334574
-4628.185916
-5786.257208
-6612.384635
-7054.341744
-7363.023547
-7551.006967
-7325.614472
-6453.795328
-4830.532251
-2529.854156
-151.8802402
1584.216879
2883.506154
4454.102154
6100.820514
7130.880012
7614.763097
7831.063794
7517.001902
6695.570493
5916.559736
5331.334944
4710.799569
3990.971959
3033.496769
1646.127062
44.1742717
-1508.239931
-3133.390905
-4826.516334
-6249.705373
-7310.887259
-8124.986062
-8481.135719
-8105.143571
-7143.603381
-5857.283815
-4276.407705
-2438.420039
-484.7793116
1604.492618
3950.63431
6366.515191
8365.058876
9746.434417
10827.90631
11744.61857
11966.7731
11113.10915
9666.35969
8136.116842
6365.253307
4383.342009
2720.223938
1396.283501
30.00391297
-1184.040935
-2013.674444
-2898.915231
-4092.014446
-5247.878233
-6159.44361
-6749.102822
-6750.30911
-6195.469821
-5449.597443
-4595.735417
-3614.641002
-2755.776425
-2073.573708
-1323.206186
-601.0795812
-242.9102083
-156.8241563
-42.22087615
54.83197283
-1.389317903
-105.4262258
-220.4060361
-509.5797729
-942.620931
-1238.625449
-1365.55203
-1688.32211
-2378.926333
-3043.334966
-3323.244569
-3465.395198
-3721.398925
-3730.921377
-3222.629244
-2559.70168
-1941.756551
-1172.096105
-534.3348235
-485.3079876
-663.2313202
-555.8527656
-349.5105763
-206.5048562
63.8109602
356.5637724
499.5672167
739.3930663
1203.970345
1646.105982
1953.822542
2147.543126
2171.121784
2190.466777
2446.799199
2693.542948
2567.054829
2253.31673
2018.928107
1629.078701
899.112438
151.9473147
-396.0148285
-1040.156601
-1960.389012
-2734.85465
-2845.349846
-2247.544291
-1101.197512
596.1980232
2599.541816
4159.617736
4872.003802
5174.958326
5271.595965
4540.860104
2837.144834
1077.372907
-87.68567861
-730.2662617
-767.6316852
-134.416772
684.4016187
1314.553496
1789.349425
1961.595731
1645.34569
1033.001961
412.3805008
122.0401188
616.3036736
1746.74858
2636.715961
2872.811338
2863.929262
2838.554171
2620.336676
2288.900229
2041.625982
1734.7091
1307.136155
1131.807643
1400.070326
1687.957161
1534.054598
1018.343798
402.2936485
-482.2113881
-1983.788208
-3907.707786
-5610.459811
-6743.534595
-7344.659869
-7478.675524
-7400.937878
-7487.925472
-7505.497517
-6923.792315
-6079.514372
-5658.507869
-5404.504054
-4727.761522
-3671.992496
-2335.258203
-614.9976383
1206.657788
2781.48973
4126.340078
5045.382688
5098.627984
4352.25018
3212.136573
1842.555466
425.7050853
-704.3009983
-1540.436109
-2280.092378
-2816.668796
-3041.439876
-3222.605675
-3486.945141
-3471.988286
-2911.06079
-2032.894742
-1148.441878
-321.5207955
393.9356175
839.1409699
1118.80994
1678.419304
2622.595929
3375.656613
3544.281921
3537.867903
3692.869125
3646.185985
3229.593076
2832.044453
2499.448782
2014.931727
1659.011244
1602.433721
1427.991757
1159.118134
1427.714958
2278.602938
3104.499688
3542.611715
3587.56842
3416.462484
3381.203286
3577.956117
3712.055758
3708.186764
3707.675248
3464.103208
2708.230495
1842.191535
1338.468456
923.8576777
100.7473638
-1116.463218
-2476.611454
-3855.277287
-4997.171172
-5466.111071
-5182.094264
-4641.869523
-4315.148085
-4120.193667
-3833.014688
-3592.526103
-3441.058428
-2934.746637
-1926.675051
-944.4378993
-169.234322
786.5923943
1762.877085
2179.031743
2125.438006
1963.834033
1579.496364
925.939434
218.4737524
-570.6054313
-1351.596933
-1632.990237
-1330.851555
-920.2379636
-603.485486
-292.799215
-64.44329898
109.1851029
416.4441199
679.396066
557.4137794
165.1821217
-253.3486544
-804.5950106
-1480.856386
-1867.818456
-1803.797502
-1712.729021
-1950.72169
-2334.896818
-2573.564838
-2720.871516
-2847.064995
-2634.240195
-1865.564757
-985.8880329
-454.5833279
17.99917654
797.2678796
1618.87874
2290.354884
3042.516268
3768.498348
4188.401173
4610.034605
5304.251067
5883.648598
6069.155166
5927.101528
5253.236601
3874.024932
2118.388716
309.5317137
-1453.116058
-2971.158581
-4217.599502
-5474.004206
-6663.970915
-7333.438618
-7443.225837
-7261.556507
-6675.847063
-5535.666356
-4284.026764
-3467.626796
-3032.643993
-2591.969659
-1971.630755
-1206.737429
-344.5490595
535.5556846
1303.047186
1915.830184
2412.591931
2637.06463
2288.435599
1522.513774
994.9166517
925.6404105
921.549346
1057.938958
1911.791764
3347.210998
4698.609909
5887.802373
7034.99775
7816.935945
8166.792907
8494.828073
8916.707542
9227.735191
9257.710097
8711.73225
7434.778727
5857.101699
4420.44618
3037.795519
1624.864592
363.7772144
-766.244257
-1882.567075
-2768.289094
-3284.74624
-3803.385527
-4645.042814
-5602.644537
-6400.558239
-7102.530525
-7786.363385
-8236.15658
-8248.402191
-8004.998446
-7819.971498
-7662.504811
-7322.281699
-6830.228939
-6197.928358
-5157.142114
-3766.199996
-2561.92239
-1610.852344
-514.1429081
499.0493478
914.9393936
1007.871258
1204.695087
1316.572709
1284.602856
1376.627217
1453.380057
1269.08033
1009.965918
752.0527509
292.9097074
-267.4612305
-702.7403907
-1086.490841
-1394.016397
-1377.660389
-1128.861438
-977.3954073
-898.0476525
-669.9045414
-242.4065503
525.2311024
1945.242369
4009.847108
6290.858928
8435.145593
10338.92972
11764.74017
12193.47464
11349.71786
9642.109559
7677.13305
5584.75344
3340.721283
1256.472028
-552.5908238
-2444.942059
-4397.240341
-5954.028744
-7236.650212
-8597.061363
-9602.937624
-9732.807882
-9191.455119
-8205.797049
-6816.353248
-5487.946105
-4657.950479
-4175.712585
-3935.404373
-4081.476886
-4367.031336
-4341.463411
-3972.194163
-3384.094163
-2538.601275
-1521.930968
-536.9734175
385.3182694
1202.837042
1746.487435
2101.12674
2601.15078
3311.083988
4006.094519
4669.856665
5573.00174
6818.740344
8117.585346
9156.396758
9951.204272
10526.66344
10547.4258
9816.893001
8732.750026
7585.659824
6076.844404
4119.401336
2095.379972
59.39515138
-2045.025823
-3718.659268
-4709.059799
-5552.763481
-6484.678149
-7014.253741
-6731.985349
-5512.199443
-3458.025118
-1199.248252
596.1508005
1903.022887
2785.079963
2943.027338
2425.974196
1800.411283
1334.854619
907.2573137
538.9199455
250.3502428
-181.3602432
-812.1538493
-1429.679577
-2081.979003
-3123.501281
-4653.402787
-6355.806432
-7900.811749
-9170.992557
-10022.329
-10092.00261
-9126.386879
-7341.169784
-5128.19881
-2734.562503
-584.2287439
801.8035759
1597.7461
2431.914099
3335.209423
4056.131317
4805.191713
5587.774792
5926.863307
5820.75461
5569.382671
4885.781452
3560.834376
2175.750685
1215.92544
548.7840026
34.7845267
-385.0987383
-939.2433076
-1671.442003
-2422.157367
-3314.415523
-4441.455582
-5278.921861
-5235.361919
-4426.066645
-3329.049111
-2174.124169
-1039.294043
-82.29909799
578.7677861
994.4861587
1313.115048
1659.740975
2116.881096
2748.217125
3483.459906
4100.109971
4583.224492
5142.191702
5522.747818
5089.052159
3982.87359
3060.043559
2539.888387
2050.486055
1589.28118
1194.248503
652.0958899
254.89982
496.985392
1020.550358
1154.793305
893.5767396
494.4252404
2.011749353
-583.6691104
-1409.792321
-2649.451012
-3890.956172
-4531.053927
-4837.369883
-5547.40904
-6600.254182
-7259.376096
-7122.716469
-6238.03724
-4684.386622
-2600.351151
-279.1114308
2014.31479
4070.780175
5587.398881
6318.415891
6456.101284
6535.189511
6705.176493
6469.967263
5590.421773
4703.361417
4437.627876
4661.901997
5103.740652
5619.139141
5680.985307
4929.101986
3860.269047
2799.914922
1247.206248
-995.8168888
-3434.576413
-5727.312143
-7716.590232
-9210.644908
-10447.9086
-11769.32624
-12701.33324
-12455.4919
-11023.39943
-8907.985495
-6346.141351
-3387.738672
-248.0598995
2619.711654
4567.750445
5175.220415
4777.790715
4071.420243
3203.603773
1868.905964
213.689406
-1032.041189
-1417.905987
-1250.663857
-973.1185292
-523.6929738
206.5571732
718.193165
446.8769376
-416.6338475
-1324.14178
-1941.192461
-1849.464785
-779.3143376
634.2791486
1584.32611
2210.97213
2823.780754
3025.458628
2468.365451
1303.283606
-255.0109475
-1761.352107
-2450.062527
-1955.598939
-421.2307499
1999.307614
4924.31291
7573.673909
9409.308572
10274.60494
9935.635505
8456.915488
6702.671113
5478.606151
4603.210625
3495.900959
2046.455309
408.080213
-1401.677812
-3243.218869
-4662.328116
-5342.136227
-5510.884738
-5596.633058
-5679.784821
-5635.901844
-5495.252429
-5141.650659
-4180.163512
-2770.200315
-1821.698372
-1777.418601
-2234.150169
-2915.637886
-3713.825202
-4184.720645
-4235.96865
-4396.703305
-4766.647233
-4947.528537
-4888.851819
-4616.977507
-3844.056782
-2547.974272
-984.7517878
857.1027686
2878.35888
4541.871102
5626.739857
6473.111283
7202.595163
7589.103502
7595.954183
7274.963977
6520.409827
5453.804771
4533.232303
4020.546
3841.651513
3984.715197
4554.742253
5432.163289
6231.413179
6685.525811
6820.495018
6571.614756
5596.259443
3868.717838
1936.046153
91.52296008
-1887.519079
-3812.552179
-5124.745194
-5963.652652
-6830.663954
-7641.378791
-8247.41684
-8787.21184
-8930.330093
-8283.177357
-7454.653587
-7297.777774
-7745.729449
-8320.127335
-8830.141795
-9188.735205
-9363.413009
-9391.333133
-9051.444516
-8064.288812
-6593.525425
-4820.904706
-2415.691906
786.9730406
4128.362734
6783.924586
8515.14571
9429.10082
9595.236363
9144.000524
8324.860597
7295.615092
6065.915619
4758.886897
3720.244388
3121.361156
2719.326478
2397.9672
2457.583391
2873.645117
3092.710726
2998.553925
2927.148352
2693.319436
2046.380271
1570.545865
1742.71553
2102.781906
2204.201774
2112.880457
1863.142626
1540.82719
1365.744468
1104.651778
322.8606719
-793.6209525
-1775.75826
-2527.2664
-3042.976158
-3272.606912
-3497.730186
-4041.092477
-4733.376058
-5253.822761
-5496.43259
-5202.108708
-3935.73498
-1750.356449
698.6341058
2836.570849
4525.407181
5706.61774
6132.341514
5696.741202
4739.335742
3625.667661
2292.590865
676.8666433
-891.1777559
-2269.235744
-3667.3617
-4790.577222
-5028.718255
-4633.357565
-4291.442738
-3974.168472
-3485.166985
-3053.634269
-2560.136202
-1581.54474
-330.1053936
711.9416312
1564.52524
2368.308172
3071.59649
3699.028334
4187.008849
4284.571061
4056.585534
3849.108553
3687.88551
3397.297905
3040.589505
2663.274401
2097.792134
1399.235819
880.0564444
527.6572211
-66.98261433
-1152.897751
-2607.592944
-4277.448274
-6181.024933
-8218.738358
-9931.46199
-10897.04756
-11138.78937
-10671.15595
-9099.043064
-6310.992998
-2880.475881
727.2857479
4279.633932
6992.176538
8048.141199
7645.18811
6382.765916
4548.896317
2668.535503
1390.49233
680.273837
204.777312
-8.742943432
113.1593551
565.4652055
1461.826459
2626.256641
3533.560106
4072.64497
4523.859345
4766.494796
4449.484562
3683.795
2783.533941
1778.069982
706.1648315
-152.5040359
-648.1564915
-916.7600489
-1105.993484
-1325.111597
-1824.537142
-2843.484285
-4202.358023
-5385.006409
-6206.06499
-6945.924527
-7531.665854
-7358.96312
-6414.491
-5486.651334
-4761.416072
-3579.765431
-1803.739892
89.57625606
1964.903273
3757.922427
5104.506403
5996.52631
6704.288253
7102.47715
7069.111963
6833.945929
6362.795054
5413.328339
4227.489079
3235.74114
2485.574127
1938.36248
1673.832214
1646.739897
1884.190751
2607.941815
3592.926688
4041.372465
3564.468425
2592.083938
1553.93285
377.6649829
-996.8643417
-2197.462606
-2764.808476
-2578.015344
-1755.446613
-491.9719855
701.0208217
1044.402908
298.170779
-965.4671991
-2344.159335
-4031.935733
-5944.541134
-7625.143474
-9027.422302
-10049.561
-9958.691756
-8584.447892
-6854.647257
-5315.249864
-3642.469931
-1782.53801
-155.2916666
978.9484213
1532.901723
1478.118972
833.6633328
-542.0494526
-2552.30484
-4243.700935
-4630.520609
-3917.951625
-2882.831045
-1626.065573
90.65481904
1992.626798
3550.394319
4442.644442
4398.488674
3294.817861
1670.94538
548.7363681
453.9315177
960.22454
1420.278525
1802.719759
2459.233839
3446.305914
4563.409833
5585.436558
6035.631362
5565.262228
4827.989903
4750.925475
5051.575412
4951.506675
4650.874545
4639.486345
4719.637974
4694.567276
4720.108441
4746.661981
4654.381416
4493.241022
4110.169547
3357.211407
2548.327996
1895.931007
1054.940128
-240.8381453
-1829.813927
-3504.186407
-5009.838547
-5993.03416
-6568.370176
-7355.643534
-8536.031872
-9557.595843
-9969.094775
-9870.576188
-9474.358901
-8808.14909
-7947.682792
-7108.689131
-6319.346751
-5325.875947
-4094.228631
-3020.229581
-2270.535526
-1514.503048
-733.0035723
-352.1724242
-219.9193532
291.8370167
1135.682326
1910.477591
2766.421536
3786.261709
4539.309389
4881.697356
4980.854861
4788.420807
4536.357815
4819.618517
5574.470974
6122.458918
6211.171799
5992.051822
5513.145999
4950.547147
4594.810998
4351.57146
3989.823454
3670.709176
3574.211465
3491.494658
3265.638544
3057.035282
2933.141393
2765.991806
2602.357699
2611.1997
2620.35587
2198.657678
1377.101807
787.5451599
676.8304086
342.1669336
-827.0543513
-2441.698045
-3949.29169
-5407.232907
-6820.48285
-7951.382482
-8983.184363
-10020.24688
-10454.811
-10083.29755
-9725.198024
-9982.859776
-10718.5008
-11703.41852
-12591.58598
-12876.10542
-12489.86372
-11588.38763
-9897.492878
-7205.635813
-3914.73118
-504.7606264
2713.959702
5168.040889
6313.480581
6309.698458
5725.206623
4974.700091
4516.841708
4958.397438
6444.18025
8330.831764
9762.721282
10390.35265
10433.94901
10246.40481
10028.46159
9834.994656
9514.00823
8794.707532
7839.09977
7285.467643
7264.813457
7137.351739
6582.218693
5829.96605
4814.376524
3442.865035
2192.7846
1312.784748
512.111162
-62.3454361
5.486509812
412.5918407
587.5242022
470.3415134
174.9400829
-226.4970233
-539.9166288
-807.068921
-1327.382478
-1961.969058
-2269.160302
-2349.043361
-2639.632102
-3131.254862
-3537.246686
-3813.812987
-4043.86791
-4318.586238
-4914.674432
-6080.109997
-7619.979511
-9080.403064
-10285.12308
-11363.39845
-12240.71063
-12479.83325
-11867.17448
-10747.15515
-9404.133519
-7729.723899
-5915.510024
-4485.748713
-3280.988349
-1709.082916
-24.39157851
1091.8723
1702.026613
2153.510738
2541.599182
3233.784484
4543.57049
5978.371138
6966.641357
7591.034593
7970.332818
8002.95242
7850.290735
7700.269033
7334.796381
6527.74031
5377.10061
4113.683286
3107.823761
2765.852598
2926.112168
2880.59222
2324.468487
1651.919758
1171.150263
721.0650202
194.5002009
-159.5495402
-212.9181655
-377.1374675
-1163.032769
-2450.226886
-3610.271225
-4226.220992
-4221.605688
-3633.764213
-2845.43053
-2444.86272
-2388.105302
-2152.985749
-1705.177524
-1204.290866
-409.8648251
539.617345
925.9473987
626.4766537
150.6651944
-306.308638
-651.4008733
-544.8634826
-40.35965545
392.6979217
630.1906319
846.5011732
1092.781868
1448.593102
1977.012091
2422.829757
2581.651873
2652.199473
2683.958933
2300.397628
1420.3984
567.461012
157.2098239
60.85159592
17.86652687
2.056829631
53.26405197
108.4384993
199.6197015
517.442523
966.962403
1045.875549
651.2035766
469.0502404
992.6180033
1936.254895
3021.693183
4147.640556
4690.51455
4089.303732
2814.929109
1615.312308
719.8131025
345.4974982
641.8863822
1088.900589
1041.356455
411.6635381
-623.3418591
-1763.368633
-2556.214661
-2973.816432
-3444.605464
-3978.268682
-4222.198101
-4378.581649
-4951.130775
-5770.017508
-6218.10074
-6113.715532
-5746.395088
-5448.963452
-5462.61848
-5792.22339
-6041.641462
-5758.489656
-5022.160067
-4387.629011
-4155.070671
-4032.162657
-3709.961418
-3268.6452
-2645.601648
-1463.022996
98.73430104
1280.70152
1990.773922
2750.022448
3450.523794
3731.334968
3980.656463
4526.533639
4914.198042
4835.904854
4497.40159
3992.733302
3404.41545
3015.75937
2884.816684
2911.343641
3153.238603
3432.617349
3306.25615
2812.598136
2411.510901
2222.019278
2127.221779
2190.591958
2271.114916
1908.990609
1101.629569
442.6815214
218.2093497
96.26266205
-162.7428621
-349.7785112
-298.1713905
-194.5568347
-158.6128706
51.9348601
546.6769117
950.1419713
1024.512605
1069.944788
1210.694937
1154.323985
1015.539876
1177.764412
1356.017119
1158.890866
970.1595744
1068.450699
1034.140503
734.3972398
551.42665
640.6156725
1030.139044
1773.393892
2429.475115
2372.784858
1662.055131
787.1706242
15.09072331
-543.8384124
-959.8361566
-1657.250989
-2817.958986
-3914.662623
-4456.376808
-4606.467166
-4612.642729
-4350.651089
-3752.777882
-3045.295496
-2360.453503
-1584.752116
-730.3697765
-98.7289966
145.0965509
267.6105204
491.169816
581.2336813
376.9352089
145.338912
-133.6853542
-905.4971014
-2000.492122
-2683.304535
-2828.627156
-2718.88863
-2264.582461
-1635.948791
-1506.064252
-1954.589009
-2483.617206
-3048.089426
-3822.824363
-4553.456739
-4930.480341
-4892.077216
-4454.327296
-3841.751977
-3357.374687
-2820.785961
-1817.527232
-427.2450026
999.7635236
2380.91887
3657.332965
4619.946844
5293.393252
5836.878009
6034.723552
5546.978939
4563.475614
3640.560477
3024.128416
2638.158174
2640.473882
3357.461663
4520.496098
5305.719899
5489.356109
5657.439896
5893.670929
5545.599752
4610.951798
3773.737666
3079.387122
2228.478971
1574.889445
1382.653549
1181.508725
699.3873458
181.4686121
-289.1092032
-776.1644846
-1289.815584
-2012.059344
-2975.788798
-3747.449596
-4103.585634
-4359.142123
-4693.225723
-5033.010098
-5527.144831
-6230.289592
-6719.231145
-6761.758393
-6739.315368
-6890.250044
-6855.261248
-6314.807913
-5429.099104
-4416.355774
-3212.118638
-1783.722929
-389.2092971
795.6678363
1953.200046
3092.36314
3694.721231
3498.926222
3065.838583
2935.979468
3049.628586
3447.711936
4353.835681
5388.45507
5959.640791
6089.721006
5952.32962
5579.46487
5366.411241
5584.331356
5693.686411
5201.558121
4378.637716
3601.590702
2994.62501
2660.03108
2418.933702
1827.041072
882.5457731
-34.21047647
-896.6396546
-1868.215725
-2762.826069
-3411.466051
-4027.218267
-4679.955454
-5033.37209
-4957.406576
-4829.05339
-4952.317927
-5110.975319
-4965.771913
-4577.605755
-4187.920673
-3735.56001
-3046.196927
-2242.278871
-1479.362462
-705.8196353
-109.6994713
-19.00967753
-108.0482961
129.0318428
270.7549779
-244.556489
-925.5465297
-1149.22113
-1148.022679
-1285.481108
-1588.694062
-2059.764171
-2491.34684
-2503.972575
-2161.564763
-1770.778498
-1300.555687
-711.9089672
-192.3508803
346.8622498
1158.678753
2044.629882
2673.737257
3175.998672
3772.999944
4360.118687
4841.217605
5282.240788
5601.660232
5639.977624
5504.574164
5426.921716
5326.060243
4837.141411
3837.675971
2661.783204
1583.337211
483.3248739
-599.1036778
-1241.727996
-1457.413237
-1790.178653
-2235.364072
-2322.465505
-2219.7536
-2326.626302
-2381.988914
-2194.608739
-2122.217867
-2176.734864
-1981.137447
-1557.189513
-1087.377235
-519.9310141
46.93825261
394.2884651
549.2119755
515.860667
176.8060553
-280.0704289
-578.1547993
-845.823774
-1180.660647
-1247.092512
-929.7986952
-696.8962263
-875.9045514
-1243.759626
-1529.141624
-1712.456783
-1753.757228
-1496.863307
-931.9891891
-266.8716944
358.9674878
981.2554559
1478.958351
1527.361395
1190.802894
973.8113418
920.1953129
550.5314055
-78.5566125
-475.2666616
-739.562399
-1142.372063
-1366.456228
-1290.587273
-1353.789746
-1606.839974
-1730.663469
-1769.291811
-1747.589214
-1357.727475
-623.1987561
62.22301859
531.0635637
731.6696947
567.2364664
269.4622543
196.3765133
263.5750491
278.9655084
411.2874247
723.0256004
899.7444025
857.914435
910.0305205
1128.491586
1198.479571
979.6372403
697.8789738
513.2314297
287.9582406
-56.60867206
-273.4649912
-177.5424012
44.35476336
311.248161
898.751275
1754.229714
2370.143875
2668.383787
2967.102275
3203.459564
3359.002082
3888.94389
4737.747977
5201.227707
5194.262807
5219.181855
5348.372534
5423.13209
5494.646438
5440.971816
5034.014593
4375.718032
3586.194197
2576.217674
1453.936549
407.4354527
-759.1470927
-2247.581382
-3798.227249
-5124.223602
-6232.951751
-7063.045196
-7477.035003
-7653.751437
-7860.255469
-7934.711186
-7534.431109
-6788.559982
-6236.70254
-6118.369381
-6166.047875
-6236.006894
-6572.538064
-7121.002168
-7332.219325
-7063.410773
-6718.509071
-6305.466663
-5618.396909
-5120.003551
-5212.246118
-5357.179553
-5060.493939
-4500.257743
-3656.418724
-2267.563412
-567.7333145
1027.111512
2362.787206
3276.68312
3795.252017
4428.346309
5492.460767
6728.747692
7952.982892
9223.150852
10358.91904
11125.48599
11597.28807
11760.89567
11339.00449
10378.50938
9359.858975
8546.460339
7787.168248
6972.529465
6194.107413
5426.218725
4464.353189
3327.949588
2364.150789
1692.805767
982.8669473
122.2560527
-550.8822165
-1057.096134
-1836.783776
-2737.317132
-3184.827064
-3278.280398
-3405.720626
-3432.788146
-3338.179753
-3495.656413
-3837.594612
-4043.228592
-4291.444065
-4744.436115
-5093.604052
-5198.810185
-5236.597269
-5234.742635
-5197.094282
-5202.737883
-5049.506397
-4522.21543
-3899.262539
-3445.771995
-2874.381118
-1924.586536
-813.6061166
268.0574698
1393.742679
2472.324526
3207.796039
3526.592117
3617.044705
3574.507408
3326.138487
2921.734284
2577.15943
2279.804045
1760.570298
1120.807208
859.9020212
975.8306246
964.1859582
859.2975235
1032.349074
1185.895448
932.4825953
623.2114492
470.8572336
88.1008431
-546.2017423
-1055.106701
-1473.447753
-1989.665841
-2511.139849
-2999.261889
-3438.909164
-3598.366065
-3481.821839
-3450.674557
-3571.434665
-3599.941524
-3540.645692
-3477.533389
-3222.820528
-2701.109991
-2140.556729
-1593.640011
-880.9304402
-55.95904892
649.8725747
1264.923113
1997.397593
2794.970551
3353.772309
3612.766623
3886.3854
4284.907034
4453.09087
4253.779954
4041.242866
3867.003479
3426.659061
3012.556668
3159.184728
3507.969265
3483.394662
3349.57148
3403.608373
3378.631726
3227.360392
3095.443315
2683.944317
1765.111924
636.9298051
-472.4706281
-1575.998673
-2563.599388
-3388.140375
-4183.100164
-4888.455455
-5372.087522
-5804.146398
-6292.706866
-6564.145821
-6461.65377
-6161.662067
-5674.861319
-4823.060193
-3776.691285
-2988.449046
-2568.689491
-2145.217804
-1345.280628
-139.9541961
1338.435554
3039.381473
4829.881735
6404.694706
7704.580022
8954.968041
9977.389747
10264.89289
9881.326705
9173.887131
7896.060868
5882.348058
3730.640498
1800.291498
-132.7597909
-1879.360864
-3046.777596
-3915.533941
-4871.707036
-5776.851684
-6497.491672
-7085.098581
-7440.769568
-7540.746881
-7541.966655
-7379.022323
-6933.268964
-6431.716542
-5997.429156
-5326.343004
-4342.403393
-3427.045271
-2662.521708
-1648.243472
-200.3876933
1490.090742
3342.831378
5336.485403
6993.688722
7575.026752
6995.936814
6043.833046
5376.342534
4852.904482
4212.116222
3581.351905
2872.793167
1760.741671
560.756958
-141.7827236
-557.4406679
-1064.772592
-1364.84642
-1355.217201
-1490.87161
-1761.501731
-1777.750852
-1652.874718
-1629.677489
-1578.452011
-1452.332435
-1355.891595
-1199.66385
-965.5668201
-805.821208
-577.8504543
-21.55016843
670.559626
1172.182064
1525.426061
1778.485156
1710.419929
1277.65236
740.3547084
204.4873744
-447.4110128
-1173.176903
-1736.410579
-2052.256697
-2248.838912
-2318.345747
-2034.646582
-1422.387125
-882.80494
-527.7174344
-15.9361348
621.2527873
947.6391251
1077.477349
1405.322119
1633.528364
1446.790851
1347.252123
1677.600264
2051.278193
2275.483672
2532.609747
2862.47808
3393.529241
4303.137383
5241.704916
5749.224297
5926.141209
5953.900704
5730.714981
5354.565351
5052.942679
4693.799397
4165.78637
3749.349965
3464.217242
2792.969091
1511.801178
4.012295819
-1499.354018
-3230.896127
-5260.411469
-7178.283624
-8635.010409
-9753.579835
-10720.15151
-11390.85314
-11717.38325
-12022.5781
-12322.61073
-12152.96518
-11585.0133
-11277.26461
-11183.95926
-10655.72506
-9717.740383
-8726.354944
-7455.954064
-5774.052858
-4074.94907
-2458.932805
-745.9984753
867.8907251
2159.209418
3235.491545
4184.152345
5146.018421
6442.05059
7976.388929
9196.903819
9917.408827
10345.0249
10454.65462
10160.15814
9675.137682
9113.459485
8349.530464
7567.765076
7229.685377
7382.617409
7614.429686
7660.603633
7573.66326
7357.390213
6866.490522
6153.294523
5526.508268
5015.505939
4212.654423
3018.832812
1929.256637
1199.17421
619.1334995
284.0366918
384.6105193
479.1809721
226.2449915
-1.80223809
-166.230401
-805.4589369
-1850.994457
-2728.569336
-3352.766096
-3862.8448
-4186.467298
-4439.07622
-4826.943379
-5197.179471
-5356.08569
-5315.810192
-4986.607042
-4392.424612
-4027.376851
-4222.345048
-4587.943564
-4643.105524
-4379.360111
-3921.290937
-3351.119029
-2998.36262
-3253.577918
-4011.021576
-4734.801734
-5107.390232
-5272.438136
-5388.304556
-5372.050044
-5320.507183
-5624.881711
-6240.425112
-6567.596734
-6489.890043
-6491.930674
-6493.399394
-5933.067834
-4915.466761
-3861.111331
-2661.525776
-1271.080123
-8.208085917
1182.594128
2520.5581
3757.791346
4753.118808
5858.998502
7257.704795
8775.659366
10214.62308
11246.92892
11573.53863
11433.64422
11248.26174
10982.826
10528.30346
10097.70238
9672.413726
8818.964979
7433.791341
5943.522604
4629.229212
3363.864708
1999.687852
559.9937424
-886.5452054
-2230.146963
-3247.506236
-3795.016142
-4115.259354
-4610.370536
-5177.412502
-5327.022562
-5105.346149
-4987.292847
-4854.850358
-4320.125614
-3692.258659
-3306.012204
-2811.572685
-2157.91089
-1895.24295
-2064.776085
-2213.778992
-2218.92968
-2037.517877
-1453.321076
-548.8591998
403.8989711
1305.425947
1920.319766
1950.236068
1627.271922
1385.027991
1172.033484
832.211733
554.136657
367.3991706
-56.45044151
-774.6865873
-1429.92308
-1756.569707
-1666.711587
-1025.503006
149.7502092
1417.914159
2262.724698
2719.402576
3300.92079
4173.557059
4867.466241
5054.655433
4908.84863
4414.174726
3366.862619
2200.786836
1470.314772
786.9830942
-320.7813479
-1377.32414
-1963.377339
-2413.58247
-2913.462391
-3276.017463
-3549.95533
-3907.083553
-4481.981028
-5554.426172
-7106.754049
-8528.551198
-9346.859381
-9567.947724
-9174.481338
-8195.603517
-7072.312395
-6152.594547
-5277.217308
-4316.221305
-3388.651289
-2367.571803
-989.7583066
521.0833092
1652.259404
2352.049978
3026.734087
3837.505425
4466.223477
4688.786091
4766.138091
4995.048566
5338.269313
5881.495035
6965.452301
8387.594057
9380.845283
9693.757331
9594.673989
9011.956226
7914.300042
6825.809945
6012.316214
5238.722649
4526.718753
3909.867624
2972.604343
1606.477655
260.7082705
-907.2491841
-2051.246002
-3071.787392
-3902.973729
-4726.243879
-5487.110701
-5987.995739
-6374.255631
-6772.347607
-6919.463197
-6738.330624
-6584.095907
-6561.231457
-6333.973341
-5762.884442
-5081.508422
-4429.900868
-3734.962853
-3046.948741
-2559.041331
-2193.589533
-1550.363865
-494.7611903
602.9527394
1486.690488
2272.285163
2856.722661
3004.809236
3101.669888
3641.931423
4299.463603
4665.612595
4959.85474
5164.726282
4920.915664
4555.186634
4655.63076
4974.675781
4928.460048
4418.338469
3641.104516
2939.662291
2734.720425
2998.930882
3315.94322
3590.176987
3939.190917
4150.820954
4021.675061
3745.399358
3398.515378
2660.852631
1370.49001
-266.280815
-2115.500012
-4171.604927
-6140.389368
-7485.262898
-8023.493211
-8130.839686
-8204.54823
-8280.953841
-8406.793329
-8848.022614
-9493.433835
-9719.784381
-9315.730918
-8667.981986
-7836.972692
-6662.282862
-5570.558472
-4935.017024
-4332.91427
-3454.050851
-2600.792313
-1898.417241
-1221.154007
-580.9696289
242.5263119
1608.174792
3292.782336
4788.825513
5956.406395
6700.736579
6797.151493
6384.691486
5838.713709
5276.263813
4805.431524
4738.037842
5113.429029
5631.501885
6181.906988
6813.225249
7292.868952
7282.815476
6839.904623
6350.904666
6031.734373
5744.5835
5338.781388
4898.678192
4443.755422
3732.620629
2713.027532
1656.40116
518.3666108
-1014.69225
-2686.26196
-3964.992245
-4926.771204
-5729.550507
-6068.019366
-5997.927382
-6014.529644
-6083.174387
-5913.982787
-5685.135985
-5501.224169
-5100.444741
-4502.110059
-3951.862157
-3443.444681
-3001.32251
-2795.367692
-2684.692556
-2404.028809
-2049.073832
-1703.355098
-1081.555905
-67.85081862
1015.92108
1988.531331
3050.701976
4302.733993
5482.660372
6254.479934
6478.353811
6162.333991
5392.508178
4458.370611
3780.076919
3424.331762
3044.498574
2608.234324
2521.640031
2710.182825
2585.297804
2086.820958
1505.7876
586.8807329
-826.766226
-2104.511024
-2866.196187
-3495.685649
-4222.454044
-4957.477039
-5726.669085
-6383.623706
-6680.491722
-6860.52828
-7272.618946
-7739.544816
-7951.360132
-7781.261329
-7044.533583
-5790.300827
-4588.066369
-3798.440348
-3100.961817
-2201.178471
-1275.299069
-494.3987992
182.7878484
732.5738737
1140.430752
1632.349551
2433.403143
3405.384865
4202.830543
4763.538479
5367.502961
6095.411893
6624.020464
6821.747667
6966.924181
7105.409657
7038.176118
7008.008618
7298.343771
7491.201483
7214.885364
6737.323558
6096.047575
5005.780685
3788.543613
3005.612347
2587.941873
2245.325949
1895.224102
1409.131361
790.2938609
286.1617986
-189.8440317
-984.2362801
-1959.03808
-2751.016504
-3517.14083
-4593.010244
-5888.062349
-7157.595483
-8263.992032
-8955.042177
-9029.146024
-8723.275448
-8422.427846
-8122.116665
-7563.686164
-6753.025518
-5987.522618
-5357.018738
-4589.611273
-3594.42541
-2694.13665
-1995.970453
-1203.74901
-372.6451897
116.3129015
465.8709391
1138.991198
1909.954673
2460.339683
3092.940664
3939.446539
4658.797385
5205.643513
5701.152296
5952.730697
5917.397332
5812.678225
5583.253033
5142.366739
4738.351329
4449.747305
4063.049241
3642.667843
3383.526704
3143.738863
2842.214984
2721.888541
2707.638171
2291.345541
1350.054209
312.5333217
-547.6447281
-1308.266598
-1943.140569
-2254.701847
-2302.815918
-2470.942781
-2937.359351
-3420.883513
-3698.253745
-3931.571001
-4138.964851
-4005.478473
-3614.145606
-3471.725837
-3590.83092
-3617.687179
-3629.454035
-3703.376587
-3479.357025
-2942.198671
-2485.006393
-2063.655799
-1489.739546
-1021.400158
-794.8846027
-568.5442047
-273.7856616
84.11951246
691.6939735
1442.516795
1933.87674
2182.923412
2512.696529
2910.557467
3233.016626
3573.927919
3925.188704
4079.154355
4090.451806
4220.967925
4428.489742
4430.696331
4180.186031
3895.770315
3684.487957
3391.104772
2861.88587
2141.402344
1271.437225
208.7806819
-850.7793187
-1606.450276
-2281.957765
-3256.172004
-4094.446069
-4113.428032
-3512.245561
-2774.812894
-1890.578973
-1002.185757
-486.4168267
-173.0209558
236.1646889
503.4023453
474.9790066
336.9403538
-16.98974027
-794.5374166
-1780.087372
-2750.911518
-3722.754257
-4514.024971
-4913.284286
-5108.444205
-5206.657289
-4867.445998
-3976.29736
-2969.542104
-2136.146545
-1287.775859
-269.7210065
774.7339061
1690.301741
2451.386969
3007.248613
3291.173183
3440.453667
3708.956464
4023.945271
4027.97131
3756.178051
3646.05528
3688.879912
3491.521373
3179.165881
3050.912883
2722.304254
1832.494443
766.4579812
-159.5057462
-1037.633905
-1748.162792
-2207.641385
-2729.486214
-3363.69576
-3783.992897
-3944.389256
-3905.843041
-3495.6396
-2813.291141
-2256.652916
-1814.099317
-1214.859116
-571.6062706
-97.9302174
316.3072107
725.0694494
970.6165203
1147.628667
1539.936713
2040.87801
2229.603673
2003.13811
1667.168362
1403.738493
1080.490259
723.7522528
701.3675686
1084.489388
1361.778161
1232.003222
992.7524772
804.2099981
554.6135854
530.4322588
990.8039744
1459.926035
1622.265148
1920.926943
2461.144997
2770.188853
2830.856549
2920.42451
2916.913133
2754.717723
2657.56459
2590.567172
2411.040957
2257.900296
2127.756826
1733.968881
1012.398122
32.52526206
-1322.591576
-2913.548221
-4173.422268
-4871.605575
-5358.6674
-5851.880094
-6190.114677
-6312.295002
-6359.724331
-6317.909969
-5999.013593
-5426.587747
-4920.443639
-4633.91014
-4305.139759
-3741.735851
-3122.906986
-2467.171773
-1477.69479
-281.9880134
583.5744034
1059.337048
1364.818609
1307.762015
890.8628176
688.0091103
864.0967112
1075.492086
1395.365745
2035.205276
2712.40623
3182.58999
3501.812856
3562.73675
3293.36125
2945.420734
2615.564809
2229.655058
2064.055085
2356.33105
2724.692143
2792.298449
2779.888614
2905.033709
2953.923137
2791.666755
2587.751053
2404.558661
2110.398035
1702.54521
1330.281747
1004.8454
582.0756764
95.20962933
-233.1221997
-498.200394
-1132.887516
-2103.892151
-2809.674941
-3094.948613
-3381.12732
-3692.334
-3755.762273
-3747.620224
-3786.34736
-3528.84534
-2996.975081
-2581.38737
-2166.534203
-1447.837807
-543.727299
430.6252369
1461.045314
2248.547218
2638.701091
2922.379673
3154.388296
3054.613409
2711.320846
2431.574476
2134.970963
1662.611195
1164.528158
688.4079944
59.79511644
-603.1850911
-955.7311364
-1048.432585
-1258.652806
-1611.165574
-1687.899094
-1288.309302
-751.2012206
-411.3196919
-153.9545959
149.7350484
288.1480397
231.1980419
306.6002552
470.5127954
365.7943172
226.3652772
504.3921703
924.5881226
1131.386947
1390.235055
1768.32501
1884.36605
1718.305436
1462.041647
1023.193471
457.7250614
27.09504695
-331.995748
-737.6520398
-1010.90926
-1152.992964
-1371.971003
-1522.166701
-1407.35397
-1319.038035
-1490.962731
-1646.67382
-1640.427976
-1766.963271
-2127.221601
-2434.991018
-2552.358025
-2626.632324
-2727.904395
-2783.105284
-2837.62682
-3045.316256
-3320.641161
-3312.439543
-2924.339118
-2466.718422
-2040.646363
-1416.841459
-741.8587644
-382.2878621
-46.5781803
716.9523001
1560.69826
2067.566867
2469.159043
2834.941462
2896.752278
2819.203195
2849.550166
2766.507308
2523.849394
2453.104369
2600.82179
2825.622621
3169.998904
3497.857643
3519.368318
3361.923146
3296.847465
3185.215866
2896.685561
2653.729235
2479.086706
2079.234479
1488.546989
1045.421724
737.1728167
260.484148
-370.6941538
-837.6409693
-1056.467455
-1239.032932
-1402.057029
-1296.164851
-968.4433915
-804.1911112
-778.3414691
-464.6962945
20.2484542
154.8090397
48.30308142
63.65526483
-91.8316398
-633.0691565
-1077.470642
-1238.629205
-1487.588638
-1833.140787
-2042.20547
-2199.658163
-2330.568205
-2320.731526
-2333.225559
-2456.288663
-2432.878581
-2262.530286
-2211.066275
-2149.095033
-1813.653431
-1393.46171
-1074.674669
-625.8711294
31.6412631
569.1332776
823.1376074
948.139691
989.3809308
867.9525126
703.0457512
724.0121137
907.0398494
1000.150686
940.3390023
937.9889988
1011.626199
892.203866
627.9911268
597.6535275
695.3040599
477.2590612
126.8544301
63.8520281
23.06873629
-276.6024746
-496.4158779
-526.7038186
-673.9558635
-858.2995962
-864.7647461
-865.3983529
-918.8119681
-861.1692523
-799.9612564
-820.8978815
-695.0839167
-445.3390307
-359.9075918
-328.0180196
-78.25649053
220.9860686
374.4103352
583.0014965
928.4560134
1148.854345
1176.147686
1209.482705
1246.808636
1129.275575
947.7134861
940.6002987
1063.497108
1041.426225
872.7206059
876.4054158
1080.344438
1087.256145
811.9209213
634.9299389
595.7243934
399.3852912
222.1505183
360.1763784
507.591712
443.0471596
478.6339894
609.3766397
526.6811733
418.5757595
509.0886993
521.4225068
391.4672591
413.7708603
493.401372
334.4144702
51.00001222
-124.9915209
-141.5816372
55.37897123
330.7779664
259.2929788
-253.0381795
-836.9399127
-1393.825115
-2114.511419
-2722.944833
-2638.137018
-1882.141877
-1063.545174
-535.0584786
-155.1841916
196.4307432
387.6532624
379.7392692
358.4053777
342.8338459
126.703015
-194.0577228
-283.5329661
-289.237334
-602.1333549
-1007.137354
-1163.660359
-1361.948436
-1754.163604
-1920.690015
-1843.405235
-1914.200653
-2021.502667
-1938.390954
-1914.009157
-2040.717048
-2059.164957
-1937.702615
-1685.338364
-1084.901845
-253.7351249
373.7185545
800.8081434
1304.318852
1789.940501
2102.747682
2428.595707
2833.138047
3061.788763
3061.274271
3050.033265
3043.502507
2869.322318
2570.679431
2352.817312
2195.375423
1872.623279
1380.059867
989.0922479
754.3074234
418.3784283
-15.66950427
-268.0297726
-438.6869973
-773.2223278
-943.330088
-668.6189037
-427.2456983
-493.2208025
-427.4877735
-186.5547336
-233.7337756
-501.4259718
-634.9217645
-703.8807896
-798.3381149
-818.292967
-857.584806
-962.425968
-923.793351
-789.6531023
-808.7999672
-844.0894393
-689.4012281
-580.3553197
-673.0662108
-671.5001559
-442.0604238
-233.2096495
-102.4963844
113.5962666
299.5014665
211.3852683
0.959023302
24.65063592
239.3235195
288.3593328
151.8137427
160.4263964
295.7706093
173.8642052
-125.352963
-113.927734
115.7996548
83.70645883
-52.88141303
58.92454213
118.8789492
-55.7966072
-45.67350309
162.9387528
134.8160679
-26.53656808
-5.326275155
40.45690274
-5.971881826
22.16022358
83.66449322
76.48548067
112.3955703
136.9079617
-13.84880452
-141.2442478
-46.84843417
22.15699882
-74.67465392
-56.96267315
135.9377337
194.6703169
86.67448282
86.55585024
198.9834913
189.0050848
65.69739317
44.38017196
123.336261
92.11153029
-49.48711865
-69.55711268
17.38790145
-55.05771124
-195.7334085
-51.5977646
197.126005
117.1251606
-52.28529971
65.10769511
123.3128379
-123.5498463
-245.3735732
-125.2299888
-130.4563967
-228.8824271
-210.4340806
-216.4660232
-279.6287406
-239.3019329
-207.9959863
-279.4798536
-255.0595271
-156.4629976
-213.986887
-296.1513597
-184.42662
-63.59970724
-62.840815
60.69313974
339.407506
447.7589325
336.2039314
294.3362436
381.0850768
395.152975
318.2966406
309.7408178
338.6455368
227.5099827
62.00350877
129.7597382
352.828556
332.829842
114.4400959
131.1852266
293.6090587
173.3512042
-37.23787901
35.13429801
107.1745759
-44.89515267
-88.42229062
-6.848212674
-113.1920905
-231.8039215
-116.5278832
-16.08846874
-66.03764126
-91.30121291
-117.4547126
-198.7667086
-183.1253693
-133.7698312
-237.3457241
-305.9636109
-163.8975331
-88.31595889
-219.4383903
-252.5737098
-114.9827949
-106.0417049
-222.7502541
-166.7123857
28.61327969
75.58230753
1.802719165
83.80852034
309.6623379
376.8530615
240.7085494
202.1763906
315.0419872
266.831937
56.58994035
34.94159795
115.2543919
-53.99184547
-237.1057372
-113.0801588
-59.0212273
-315.8835449
-448.31555
-329.7611084
-304.0756675
-348.3164709
-305.3289575
-332.2413871
-403.7041127
-308.8747023
-184.5907923
-181.4254475
-121.1250091
-1.40497895
-24.68109668
-70.82443169
31.79003401
75.87433433
-38.63296922
-35.31948122
139.7210965
200.4182216
117.5601979
128.4931673
226.5697131
213.1015113
119.3762754
144.6026583
264.0993378
256.0634955
133.0089752
163.3350329
336.943092
324.7924914
161.9143167
228.3952864
413.4719624
313.6923322
147.5720942
262.1185912
303.6102127
32.32951462
-123.8239325
-52.70924791
-104.0979306
-211.8917638
-148.1470129
-67.44306623
-32.84274441
96.53110044
206.859624
188.4989752
204.1258856
252.6162487
206.1668834
238.0986445
443.8924405
494.4033961
268.5971824
116.0948105
151.7762118
103.7663564
-48.19212376
-54.59603829
51.27935765
4.981169342
-191.1647683
-279.3026803
-201.8640978
-184.5189065
-311.3140022
-377.8499523
-329.2329903
-382.4226676
-492.8071851
-362.817372
-143.9549754
-215.917787
-359.8296772
-239.6392893
-149.5273672
-267.1105205
-227.7660269
-27.41600459
-6.86826931
-33.1918178
98.59964804
164.8335207
99.49526474
79.98143534
20.92595894
-127.5871736
-143.6472567
-105.0982825
-325.5488532
-663.5733494
-768.2330988
-680.9281238
-531.1222633
-230.9057835
128.9504864
255.94069
173.7788655
168.4643377
274.5359366
290.5669751
196.9020447
180.7943345
264.4093866
238.4945035
83.92112267
79.31660058
255.3407729
270.562871
100.452479
85.4912072
136.368393
-68.90923137
-249.0763992
-91.56139173
-13.17823793
-256.9946312
-394.7059335
-340.2045965
-409.6466146
-450.3518763
-209.3504015
104.9708969
362.0765884
632.2014238
734.6604022
571.5587911
412.7808399
330.996015
148.572729
-16.28491427
14.73111661
49.36187892
-21.2182349
51.10150774
306.7411626
454.6883147
450.5939516
536.0463311
740.0960779
867.732231
883.965751
920.3452339
956.1457463
807.4085425
479.1593417
208.0122459
16.59940334
-329.6642446
-728.8319196
-788.0512195
-631.4084391
-720.2760448
-918.8342372
-854.6607763
-729.1873433
-728.7536678
-588.5676819
-349.3761999
-322.4663155
-374.8527801
-341.6218963
-439.8119973
-651.628392
-698.55761
-638.9470699
-612.8221878
-507.9379881
-363.3893629
-324.5645345
-208.3011768
105.9165431
299.0533113
234.0804501
237.3495207
408.0374642
450.3750632
299.2779228
182.391263
127.22078
-18.15570912
-197.9742105
-213.1763283
-101.2097277
-99.85657271
-202.3432029
-121.9204367
162.0452814
313.7100776
296.9029288
426.047332
620.8689728
562.1141576
483.6279157
687.5814486
823.1578401
675.4278255
623.7554122
725.7480447
664.2116217
541.62684
564.3427492
584.3837829
583.2737534
694.2916179
773.1401938
741.8216533
800.8504681
897.7040585
802.2364952
643.7457215
574.0411798
354.6427569
-116.0741767
-534.2590378
-761.4966094
-951.5611416
-1088.122701
-1046.212861
-967.008658
-1072.699497
-1284.130166
-1359.217088
-1287.525157
-1273.837995
-1347.814729
-1310.21714
-1166.33561
-1162.232244
-1230.158228
-1054.7792
-781.189728
-762.1997322
-783.6965353
-585.416711
-500.3200397
-637.0387975
-567.8913854
-309.4511888
-228.6101758
-185.8973627
10.30078022
115.5995535
100.9700226
219.2981197
401.8065667
507.9605348
654.3510901
797.7093134
781.6822761
795.8336067
1010.849214
1181.365573
1186.051723
1272.624993
1461.999088
1483.263065
1353.964946
1329.267775
1396.54704
1353.400941
1207.87178
1118.063003
1063.440504
893.15141
678.08867
648.857568
696.2403185
456.6845397
33.22378345
-136.2220562
-176.7128289
-489.0244879
-795.8615402
-709.715567
-581.024182
-674.5450203
-656.135894
-515.8787912
-592.9031279
-757.7298457
-788.8131527
-862.0071482
-996.3128431
-997.9760511
-964.1191448
-983.9303564
-868.1026791
-643.4623085
-531.836562
-439.8801592
-230.5329084
-93.26887396
-83.98806904
41.54764086
253.0957614
257.6369413
103.0137869
70.3496009
127.0298308
56.55704405
-79.54505645
-52.28291165
102.5026043
126.8468175
-0.587530598
-21.69993806
91.50108003
72.02887646
-53.84698716
-7.317641825
53.14727296
-173.9075092
-367.4482485
-215.2367751
-126.0408739
-319.7910763
