167.7567183
94.91841542
232.1970283
354.7280641
357.5186258
370.9658006
404.5520825
246.2942223
-124.6947727
-386.8881683
-415.2103331
-515.0081761
-770.2568107
-837.1649638
-716.3734569
-771.9173551
-865.4384797
-666.9055702
-500.5698235
-663.3342147
-785.2521567
-743.5640677
-885.3615185
-1095.91157
-1031.835254
-859.3057004
-771.8424614
-644.6093627
-515.8072924
-472.5265811
-328.9096323
-74.1545174
58.94622781
173.295777
479.8103513
726.7427479
672.5733642
576.5010456
620.2809154
582.6868959
435.7171028
479.5473562
726.2371479
832.2042997
692.5297295
558.4390911
521.7628614
349.1121057
-27.72152898
-317.1148352
-432.1163924
-686.6160229
-1068.873435
-1106.787601
-816.6934697
-721.5416593
-768.4907162
-533.2421127
-230.646094
-198.1873418
-177.5141038
-58.97425136
-102.6937779
-143.292723
114.720303
432.3852387
594.1791755
730.7936373
786.7641289
657.6995818
558.2747869
543.6495234
388.1932679
194.3703658
228.5973815
332.0291074
302.7878657
346.2241468
559.1564329
670.5705253
629.1255226
724.2994118
994.6985339
1137.335279
1034.505918
896.4301731
836.8700074
680.6671992
344.7714431
60.71897443
-62.88496511
-261.1084412
-536.4756571
-533.9690051
-340.8900576
-435.1576425
-702.8671191
-760.4295858
-922.9781155
-1501.781065
-2021.424767
-2196.921364
-2394.053541
-2693.352039
-2826.813078
-2755.202884
-2396.753446
-1606.518279
-697.4853776
-19.21706662
622.9243368
1381.68928
2001.48679
2408.256486
2745.147351
2877.997862
2688.086751
2448.320677
2290.691898
1897.178989
1078.662016
34.19755886
-1058.167143
-2111.859139
-2836.107601
-2895.56588
-2360.967689
-1617.543525
-803.8327722
263.9249568
1484.828121
2326.322093
2583.543326
2615.543411
2540.823247
2136.189242
1636.42289
1453.896416
1373.57907
1154.934379
1070.590038
1066.075506
712.055761
145.1695563
-322.2301405
-942.1999638
-1813.874833
-2471.324743
-2695.540648
-2675.443619
-2477.199904
-2153.122967
-1858.890698
-1512.840153
-999.6936072
-572.4068189
-417.7342379
-318.7204354
-211.2021465
-354.4311925
-679.113023
-744.1399435
-456.3686295
-156.7233094
3.270702443
207.0213221
506.7877476
688.6800772
690.2961828
729.4884522
827.9488882
692.0701036
342.0308898
190.5350172
216.9125116
-3.755953454
-350.0300144
-418.6805676
-434.6249772
-659.1262873
-731.3433611
-535.9986478
-449.1648897
-401.4509148
-62.64191986
388.7810391
685.5995862
868.6761941
909.5905587
822.8565034
877.0647784
1060.188029
1054.881031
945.5769564
1026.4425
1119.68497
968.7752799
793.8160387
784.9779798
735.2104724
580.149553
577.8968974
764.5332005
849.5836831
718.919807
578.5666292
535.3691493
392.5328835
37.92543131
-286.4105207
-413.9226641
-556.9281368
-785.6159524
-817.908646
-714.8474035
-859.8542067
-1058.621091
-889.6415073
-696.5199305
-879.76126
-1031.039778
-874.1017112
-770.1999097
-798.2520852
-726.2334245
-655.3772844
-649.534807
-508.9842965
-326.3185761
-310.6615464
-287.4017823
-137.6502152
-53.6718663
-4.759605058
176.0929058
278.6021869
130.9387277
56.14920741
255.2759165
422.5964108
385.7649439
384.5506144
520.744703
594.7827793
547.3644826
537.5580126
561.4127638
426.5844654
180.2177832
133.307647
278.1425269
201.5856687
-139.3013201
-273.6699058
-148.6968902
-207.2349059
-396.0664942
-352.2752712
-312.5778618
-524.7832934
-588.3139283
-389.6727788
-373.6768636
-508.6486621
-428.9173949
-267.5413691
-229.5711701
-167.375226
-63.52091484
1.415382448
173.5948766
415.1810318
440.5023206
349.5486936
451.1252059
596.7833994
534.6045359
460.5396456
556.1294007
619.8594671
566.1511828
602.4165431
727.285034
681.020145
454.2230265
333.8135133
393.7588735
360.0947677
113.6037399
-78.08251453
-92.57882759
-225.8122428
-546.4559339
-669.0135793
-590.4622369
-759.0732259
-1048.739418
-969.1864584
-761.2528913
-865.8162898
-999.2434268
-906.6290535
-852.2816496
-842.7311119
-673.9354149
-512.7044682
-443.8846334
-252.9534027
-30.19677742
17.21005472
86.05452935
286.3330825
358.1086144
302.0667548
382.8050428
517.328236
510.863601
529.8286835
690.7110575
771.3775684
733.7049127
868.0236742
1220.004492
1469.842051
1451.778656
1325.628755
1195.805637
949.6449597
601.1698479
432.8814844
520.0168714
519.1497699
305.8043875
223.2561968
309.4876695
191.3440071
-20.59690314
56.88511618
162.4700192
-5.090177105
-57.65588803
143.2027071
120.3062793
-182.4081743
-424.519617
-642.6424887
-884.1232775
-918.6027903
-845.8824571
-989.063143
-1284.846221
-1562.954509
-1845.774474
-1989.773163
-1827.145128
-1614.291022
-1582.769748
-1470.253805
-1092.732064
-727.597229
-544.3516245
-372.5778929
-209.4615654
-278.8905981
-511.1805978
-524.4835745
-216.6361324
39.75043047
-55.21874021
-336.9517142
-562.6218606
-760.0976489
-851.3136459
-546.2198286
-12.38839168
207.5679688
184.6254231
398.4635578
744.5760933
984.195407
1411.897652
2044.844424
2381.053466
2404.19437
2468.506426
2481.051908
2284.032796
2038.28183
1745.704459
1346.657858
1086.543584
1007.028631
778.9617597
433.2396774
327.0136531
411.360505
424.7252426
435.5318942
497.6153948
365.3849627
-2.284954885
-299.1590742
-414.2935882
-527.6170001
-657.9988227
-626.6514949
-458.0534192
-388.3293353
-409.1048573
-210.1595397
233.0173909
493.7851132
427.3214365
414.2794796
529.5917475
403.6724844
120.5306093
36.16449816
-134.6021982
-726.670311
-1321.832549
-1590.561766
-1745.454247
-1744.156623
-1439.759073
-1221.543077
-1363.750668
-1568.796757
-1694.562181
-1878.19867
-2009.868222
-1982.923492
-1954.673261
-1891.611263
-1613.410204
-1298.180045
-1169.488958
-1028.932584
-710.1754777
-422.1275684
-254.4885325
19.27123345
464.4415912
863.3019756
1110.077805
1312.369357
1489.117589
1482.032704
1265.840512
1076.223726
1008.016565
836.6953356
578.6686385
644.606963
1022.346766
1203.77039
1204.73979
1426.808514
1618.967745
1384.625937
1056.543697
896.4263636
621.4822467
284.8467491
218.9205413
278.3086
255.3524487
275.9932795
277.0036819
99.55448744
-35.83556618
11.1250407
-0.812241941
-98.70259977
-66.63559138
-13.74883964
-124.797642
-198.1426686
-91.36869875
-48.2401351
-167.9431687
-194.8454406
-26.16316848
143.1014626
219.9220048
316.0275476
444.5224611
446.9396124
312.2613871
283.6032363
429.4795748
452.7220034
259.7818125
178.7948933
231.1029275
36.35850383
-296.3565209
-344.7009947
-327.0506613
-591.3459379
-835.126898
-903.5283788
-1159.430691
-1562.486447
-1752.039906
-1814.460246
-1874.296611
-1722.657998
-1374.8667
-1032.927391
-633.2051585
-206.7014827
-38.32059102
-70.6280057
-9.120072019
36.13345132
-132.4912237
-266.4988039
-170.0213258
-115.700455
-272.4641941
-383.4569071
-283.4068626
-134.3323443
-23.79814013
180.113706
480.5006094
647.8466854
626.482383
702.0515174
990.8350933
1172.885507
1123.062318
1203.716835
1487.051993
1569.701575
1461.836878
1485.128512
1399.809756
958.721488
622.7966454
600.2001547
422.9155428
34.35224327
-161.2994469
-175.6742697
-166.9700323
-22.71835686
183.9861604
252.1423601
299.9273452
387.4140233
297.1171315
100.8457491
99.08298048
208.7295643
230.9900948
329.8109431
583.4825947
687.6607676
535.9550104
409.2758008
384.2040935
194.8059164
-223.7151568
-573.6350334
-681.445989
-754.3940636
-960.2792544
-1103.93656
-1059.417889
-1108.14704
-1369.664607
-1490.129882
-1411.625509
-1554.889054
-1857.397189
-1839.57447
-1629.711631
-1587.577665
-1496.321509
-1247.261578
-1192.999942
-1288.177449
-1218.716973
-1136.453818
-1152.024718
-979.1719257
-655.4240514
-484.5122001
-328.225792
38.75216772
435.7592105
759.5028319
1136.107029
1432.556165
1459.602535
1430.649125
1543.424476
1603.027426
1493.044887
1403.996616
1373.970357
1190.75237
845.1291458
605.7283942
573.1532297
531.0947702
365.559311
281.9109611
354.4644739
275.488027
-59.32549678
-292.4027248
-356.9370501
-611.7106915
-929.1392131
-866.0677879
-675.3356126
-761.837756
-761.1644591
-348.099354
189.463489
768.3574075
1519.724164
2131.679909
2325.971752
2293.776784
2151.099627
1916.275019
1864.883204
2054.527946
2129.35018
2034.927311
2013.392073
1895.588788
1384.061902
736.4794966
347.4833936
142.5776407
-58.83915281
-166.299086
-150.2385595
-218.2109178
-446.7419348
-632.1083028
-667.5441066
-774.0414449
-1136.553224
-1560.327339
-1822.091629
-2063.989096
-2388.601093
-2533.469688
-2452.382686
-2477.669749
-2536.860724
-2268.218443
-1901.608578
-1790.709579
-1658.943619
-1376.769861
-1342.930955
-1548.705504
-1626.185976
-1648.022678
-1728.72437
-1609.518447
-1273.093958
-975.1507138
-671.2711045
-275.7518812
31.31850907
264.3820131
627.7507836
989.9211161
1157.097475
1340.807067
1673.828457
1833.961453
1651.936059
1454.257893
1477.468894
1507.947958
1314.902254
1013.663892
801.9584214
635.9277717
429.3296769
323.73748
388.6500578
362.2515515
170.4451135
202.9186806
549.1254096
764.7725975
798.103721
1008.056607
1223.809989
1105.994922
926.3341189
858.1582348
568.1260859
81.80466358
-271.2502691
-590.046087
-953.9717516
-1073.169841
-986.7194444
-1004.777813
-1008.051386
-828.8959264
-745.8620642
-890.2306603
-989.4214488
-967.1515284
-958.6587628
-855.5060528
-521.6615133
-97.6977904
320.4355276
806.9105128
1239.477322
1332.191549
1115.233893
964.9250712
1078.048779
1225.090959
1175.538757
1077.560798
1105.636684
1077.489742
894.7419317
867.2206774
1063.842487
1107.428764
1006.54718
1088.125505
1110.418255
759.4259663
426.7785259
322.5111311
10.27129147
-525.0521315
-833.3890229
-976.5214856
-1253.135362
-1568.440623
-1816.099538
-2029.673515
-2091.724888
-2030.61489
-2097.106355
-2147.990404
-1794.077169
-1175.066042
-691.5730788
-285.8847157
234.9682737
686.6681689
901.6286859
1079.292569
1382.992437
1650.738425
1686.385108
1496.515185
1146.588372
673.3806402
280.4130163
302.7061665
679.0038517
825.7229183
441.7914086
-117.4033658
-692.1726795
-1581.775092
-2553.373306
-2943.273338
-2914.675278
-3083.909334
-3267.478067
-3006.541407
-2414.470267
-1632.034947
-636.0968552
311.2179254
1057.418673
1802.304088
2433.928385
2634.79483
2585.065599
2575.2335
2471.589535
2209.501455
1964.576202
1623.560735
979.0808106
249.6674292
-339.1885487
-977.4731341
-1740.851058
-2291.827957
-2443.678001
-2411.890613
-2334.117009
-2061.369693
-1571.371033
-1161.856775
-985.3465258
-750.8785206
-271.8645893
98.21181745
107.279751
100.67686
265.4162078
231.9790059
-53.58181772
-204.7901154
-282.523472
-496.6130235
-486.2342593
-67.928179
358.7027759
786.2447182
1588.070598
2587.146803
3368.276598
3894.000589
4153.076967
4117.015267
4051.166752
4053.321366
3830.320264
3382.766345
3027.226882
2695.386151
2151.539745
1597.505446
1262.400339
931.8256743
437.2311786
-33.17954
-411.2521599
-882.8973543
-1395.301874
-1609.023455
-1485.109633
-1455.844483
-1779.331764
-2105.271315
-2047.904544
-1805.640296
-1712.741764
-1683.358866
-1657.559031
-1842.775154
-2075.00594
-2000.405862
-1937.479056
-2293.577598
-2682.664837
-2789.423789
-2979.229213
-3378.697917
-3726.893112
-4042.359991
-4233.724835
-3849.597398
-2938.909849
-2039.154339
-1254.493908
-431.3048413
271.8613386
786.0768083
1296.276934
1689.904598
1713.954467
1547.011469
1457.072249
1339.596681
1136.048392
1102.181917
1314.196015
1473.212293
1389.469201
1242.71263
1243.86881
1317.049075
1281.570256
1160.955031
1039.664788
822.6763538
538.2884877
509.1476524
730.3404541
729.7958699
471.4238734
406.9372622
522.6559574
543.8528179
650.9678887
894.6693316
904.1260363
774.03519
930.4388079
1225.560509
1353.93696
1453.075595
1584.851689
1606.11671
1638.82235
1786.132798
1845.14343
1826.26389
1946.065829
2006.27408
1697.464729
1256.115811
1005.887845
754.1190182
244.8032324
-373.8661523
-875.5193446
-1231.538128
-1445.393486
-1495.325005
-1458.35735
-1464.771817
-1541.217624
-1665.68733
-1971.983089
-2559.857915
-2972.920093
-2519.362475
-1425.920096
-680.1406201
-432.8994357
36.76115038
722.7277803
969.098597
809.0083128
684.0496439
634.2150854
673.8177132
850.1738016
852.1927581
579.0299402
404.9910464
304.8656095
-141.7196206
-846.1140027
-1455.296663
-2034.310306
-2665.908308
-3126.275158
-3366.593738
-3521.269448
-3479.604245
-3139.799165
-2720.124788
-2333.459577
-1807.105418
-1192.816817
-840.3766756
-810.030389
-750.2353204
-494.1492316
-347.0199814
-558.0907948
-868.3290942
-981.1808963
-1132.462499
-1619.865047
-2193.73114
-2536.871289
-2720.437894
-2735.044286
-2446.87748
-1976.793779
-1112.6003
800.7972547
3411.693013
5358.342777
6278.423153
6976.305494
7729.734615
8168.251463
8188.618153
7845.090419
7167.611838
6399.71523
5629.01709
4571.894177
3268.686909
2193.863163
1461.546725
820.1949032
297.0450678
14.70260574
-248.5708387
-665.5237209
-1001.762803
-1026.050623
-812.6504916
-502.2588133
-177.3372973
-18.33768247
-246.1915537
-787.6156757
-1222.645559
-1296.081218
-1268.958266
-1434.105904
-1686.625011
-2008.810777
-2648.007771
-3378.409719
-3659.325434
-3682.810606
-3957.703505
-4229.624062
-4079.696244
-3695.476118
-3246.088335
-2672.236553
-2175.40792
-1847.353598
-1391.624517
-814.8295993
-446.0002881
-259.3003774
-137.0232391
-309.7183062
-816.1045252
-1263.642813
-1426.485421
-1314.876586
-804.1813876
92.31206345
998.774235
1711.666086
2383.376554
2955.086686
3085.606318
2777.604277
2497.248351
2547.589663
2735.155805
2822.102637
2958.233872
3325.967306
3692.845021
3819.045401
3851.768397
3745.549048
3082.738672
2023.622586
1288.672074
916.8961598
409.8939374
-170.442533
-577.4072234
-1011.448783
-1520.544141
-1925.341719
-2464.674358
-3424.186986
-4622.167947
-5886.293391
-7175.909743
-8164.609025
-8535.121953
-8309.800134
-7456.486118
-5926.500203
-4133.458305
-2545.023665
-1099.129378
269.0369573
1149.216962
1269.886038
894.6784743
304.4218226
-446.340808
-1154.290996
-1442.457008
-1217.140121
-785.9951661
-439.8991774
-225.9971184
-290.829382
-954.4170071
-1942.648346
-2142.249154
-861.902151
1351.122064
3731.621264
6063.566134
8132.654057
9727.972162
11040.51853
11997.66513
12072.33773
11328.00842
10324.73064
9072.225615
7382.320215
5601.535003
4114.678509
2989.246537
2278.106379
1841.740833
1276.717605
552.9993912
-9.750207339
-488.6902397
-1195.717553
-2007.117378
-2655.432893
-3219.471517
-3710.039196
-3776.991019
-3314.504433
-2827.326033
-2849.128644
-3369.588319
-4076.757055
-4853.400779
-5673.613285
-6204.005829
-6035.562565
-5248.11404
-4230.208299
-3186.789404
-2350.724371
-2043.860978
-2005.696983
-1649.182285
-1180.979348
-1180.686209
-1428.114001
-1472.82689
-1473.137963
-1564.40509
-1592.865119
-1683.230972
-1974.222839
-2237.693821
-2373.903666
-2454.302341
-2281.592048
-1765.348548
-1208.876892
-667.4719696
90.84466409
824.5821642
1050.477394
890.9661225
798.0558886
846.3190963
963.0688334
1286.421208
1829.785304
2316.385347
2596.852981
2814.645107
3041.173943
3098.47684
2903.389167
2690.708063
2602.040775
2357.283055
1773.125304
1169.426322
738.2355912
253.2347172
-123.6247414
100.1869939
666.8717214
936.5470738
984.1576432
1008.024504
685.8128565
53.21976809
-365.1390332
-505.8971043
-554.4348409
-332.4877876
228.6262109
920.0846756
1760.213624
2728.09713
3397.355093
3520.37515
3248.119827
2565.150214
1411.82482
175.613392
-803.49514
-1756.769729
-2868.353559
-3785.343979
-4210.752797
-4334.955639
-4360.536868
-4152.698115
-3643.884502
-3160.773983
-2976.993087
-2810.252996
-2208.909691
-1191.014855
10.17143692
1410.779718
2883.086092
3970.624262
4599.246872
4986.896259
4777.192348
3640.478305
2290.854227
1481.861602
914.108955
69.84892779
-1121.641855
-2621.127709
-4085.19962
-4871.450623
-4953.713387
-4838.580591
-4523.244626
-3706.226682
-2583.948384
-1462.157419
-286.0567256
919.4127289
1938.954926
2753.345653
3325.919463
3339.989431
2738.418352
2033.127099
1677.046077
1587.950268
1483.786964
1313.76805
1263.586891
1584.208383
2477.293031
3907.11246
5342.36317
5987.556801
5642.667692
4912.991017
4138.767538
2919.442362
1189.339262
-418.493304
-1643.236367
-2694.289397
-3436.29004
-3753.198511
-3984.301388
-4160.862316
-3939.858719
-3439.395465
-3002.941248
-2620.99726
-2317.443161
-2269.340695
-2411.784857
-2741.604912
-3541.507693
-4718.223657
-5741.542292
-6443.546273
-6919.496316
-6782.542847
-5465.17013
-3018.284983
-25.97110723
2872.088132
5124.680737
6451.215179
7030.145068
7197.665712
7007.691672
6329.414814
5302.237871
4380.268551
3756.820321
3073.12239
2078.724903
1080.13475
175.8152383
-1108.154639
-2747.696557
-3965.543925
-4544.597287
-4999.088356
-5424.052034
-5526.435248
-5230.882248
-4366.020232
-2752.077831
-770.9999001
1158.002711
3076.377075
4798.657047
5829.136381
6174.87377
6162.590154
5797.389444
5103.494716
4349.869746
3518.286178
2391.211338
1125.637741
-44.88997067
-1284.215449
-2703.931361
-4004.274489
-4981.569326
-5805.145154
-6510.687978
-6730.450919
-6212.348599
-5262.756058
-4333.385517
-3414.636275
-2303.68427
-1207.924226
-409.7160018
330.86404
1265.291478
2117.714061
2742.633453
3372.478007
3844.881899
3876.208665
3911.638038
4343.175981
4704.604611
4664.920395
4578.650073
4641.523921
4700.714459
4647.415202
4248.871107
3324.568088
2267.394778
1588.351345
1309.579307
1349.370029
1722.659276
2126.042476
2197.1338
2062.819976
1896.161415
1426.450602
496.1127227
-545.9350343
-1425.36788
-2279.882725
-3191.225025
-3960.926683
-4548.450719
-5285.243249
-6389.435555
-7576.916515
-8483.477214
-9153.859361
-9665.808957
-9736.948039
-9282.479804
-8674.770056
-7934.858708
-6704.833698
-5257.190792
-4228.790473
-3650.032408
-3448.058125
-3846.445893
-4376.558156
-4025.665303
-2691.495444
-1067.884934
485.0949553
1904.416399
3111.682096
4229.64697
5330.994181
6209.5404
6974.253135
8130.965291
9767.118855
11510.34537
13208.40209
14807.66687
15911.04879
16166.00446
15687.54037
14702.64844
13232.30866
11338.29736
9271.302524
7155.923064
4760.94953
1839.868648
-1390.105258
-4414.50251
-6949.11746
-8873.340988
-9934.18115
-10128.92572
-9895.315437
-9388.395367
-8429.667221
-7380.33812
-6772.080918
-6297.730004
-5500.80735
-4657.181529
-4024.631374
-3474.502404
-3146.107486
-3144.826725
-2980.865681
-2295.25391
-1387.226248
-673.911866
-450.4855563
-910.4511548
-1762.209072
-2443.269229
-2904.791767
-3389.172018
-3703.360128
-3577.884114
-3245.455467
-2936.2522
-2363.879984
-1218.972285
301.5054121
1741.297715
2836.574079
3585.427217
4117.922481
4677.612616
5509.036623
6426.179233
6761.173502
6244.662751
5461.875817
4784.314605
3701.693069
1965.994882
181.929452
-1307.999766
-2638.568841
-3464.356596
-3335.217241
-2572.070716
-1699.948141
-922.172323
-469.5707009
-404.4832666
-396.8826213
-370.5051392
-560.2412227
-819.9437119
-847.0933559
-731.3081791
-554.3445898
-200.3979292
68.1446437
-232.7260305
-1036.662795
-1906.143894
-2656.909765
-3196.239677
-3333.629506
-3207.597495
-3251.565051
-3440.846229
-3180.125115
-2181.052102
-957.1061392
-150.5086201
250.6414206
615.6328887
981.9900549
1305.427306
1987.908855
3366.423041
5174.066194
7132.258346
9217.602178
11029.86959
12070.41429
12467.45568
12308.50444
11158.06521
9058.727043
6662.993475
4139.975315
1286.168874
-1713.666329
-4583.471482
-7168.524412
-9059.162602
-9953.629671
-10107.35849
-9737.491026
-8748.882166
-7380.415198
-6141.638354
-5085.041888
-3998.082187
-2990.176992
-2201.403448
-1422.923275
-488.3194588
405.6536843
1012.596304
1341.141075
1531.216444
1632.302067
1649.190947
1684.933719
1760.402737
1627.650965
1197.558781
846.1464697
735.5332246
468.2384386
-9.364485757
-209.5705266
-176.6762057
-383.9721554
-660.028578
-632.5892502
-547.8422397
-586.8937027
-490.6143863
-250.6651154
-14.71872552
332.0301825
670.1327384
613.3465927
255.0574744
-53.45362642
-405.41664
-1006.948786
-1747.498323
-2516.831905
-3228.420961
-3552.421779
-3328.628567
-2914.406803
-2588.641728
-2140.094657
-1394.407115
-565.5822708
141.9663206
793.6439897
1411.191995
1752.560842
1659.65033
1415.359983
1377.0913
1426.50547
1298.161681
1151.2632
1168.266858
1154.872711
1175.025572
1651.433085
2453.504322
3098.286179
3658.341974
4202.698463
4248.682638
3775.428309
3437.947561
3392.406312
3254.60546
2894.427557
2296.802737
1425.58743
615.3556845
224.0970654
81.32760033
-105.3433369
-432.6636605
-1117.313171
-2257.711374
-3389.245661
-4089.404643
-4591.372901
-5164.835998
-5582.277733
-5684.247934
-5720.794333
-5768.222009
-5458.399206
-4567.148405
-3349.614626
-2021.228546
-390.8916524
1587.157148
3399.822974
4677.36957
5666.339822
6331.45229
5982.407803
4565.768238
3007.025695
1701.033684
252.4062931
-1231.680302
-2242.825545
-2761.445252
-2868.05144
-2487.38271
-1954.10819
-1623.476014
-1163.622718
-153.1219638
1304.687167
2879.433544
4083.608453
4341.59422
3735.892407
3035.799377
2597.927406
2078.193168
1244.835775
201.7243671
-978.4870085
-2139.005769
-2895.969932
-3041.457316
-2735.522334
-2161.669685
-1376.660679
-556.5440886
-51.35768124
-24.04681201
-205.6603856
-264.7122728
-269.0159528
-386.529864
-433.1832521
-289.0863135
-214.4039019
-196.3060153
79.09877499
321.2404667
45.09070635
-319.5795599
-194.7330435
78.86392066
111.7642498
143.6832733
290.3964485
397.3316335
505.7677465
575.2164163
414.8142761
211.6132831
288.7019744
561.2582173
877.2546727
1253.632669
1464.310592
1230.291365
797.8229242
546.0628926
356.0375598
-2.699682921
-403.4836369
-739.1005275
-1176.845555
-1734.003369
-2122.833326
-2252.76017
-2460.579692
-2936.017598
-3243.080177
-2885.459743
-2084.626469
-1368.449553
-767.4043047
-194.3631306
36.33517973
-96.76017605
-73.94636248
150.9031678
152.5029741
52.47562422
138.8769848
86.74777942
-323.6184934
-757.6008942
-1046.407179
-1212.504683
-1044.990189
-522.9495227
41.12740214
556.456092
986.9059335
979.0771126
498.3912166
174.7681607
468.6503817
1229.759063
2175.099451
3043.266989
3511.108664
3613.456707
3827.686685
4310.081884
4583.229124
4269.122261
3626.541993
3121.319895
2855.878933
2698.170008
2648.484116
2642.699014
2304.722148
1532.450867
934.2723463
923.2077125
1040.027025
923.3161994
874.1083691
909.3081544
675.5976223
387.2657559
387.6024395
340.5043921
-35.52856312
-512.1014835
-1056.284958
-1759.874494
-2360.157202
-2809.061278
-3569.467628
-4883.124745
-6530.207527
-8142.028057
-9193.034619
-9360.159253
-9106.269156
-9000.57728
-8666.819999
-7433.910542
-5576.460208
-3924.935753
-2749.507364
-1797.52003
-960.748262
-331.4817177
102.1295231
436.2517205
660.2054735
745.8310679
847.4854215
1105.10892
1356.201631
1476.890802
1736.987981
2251.279539
2687.62921
3148.066306
4283.589503
6010.700073
7494.817398
8490.545026
9256.108454
9695.468943
9722.012421
9445.60749
8566.733281
6766.042754
4418.25192
2080.197791
83.83863437
-1147.409637
-1467.84037
-1418.456738
-1404.749108
-1206.690159
-815.426236
-751.7018858
-1303.953222
-2307.252516
-3524.485626
-4570.604102
-4919.943899
-4527.856342
-3957.430158
-3600.776807
-3267.13566
-2718.79488
-2152.75938
-1878.960768
-1844.869453
-1863.286605
-2042.55885
-2460.170243
-2753.943107
-2705.158589
-2672.481693
-2788.950916
-2651.565582
-2248.160478
-1925.516563
-1492.611799
-726.103484
-64.27362596
293.3084061
783.4919576
1506.093661
2125.65376
2502.140299
2507.189997
2016.692189
1455.660968
1392.969229
1806.624076
2491.483506
3460.454845
4481.363964
5136.782847
5452.692
5619.532321
5344.935392
4212.58226
2305.138259
46.76375825
-2102.563604
-3590.439915
-3925.783898
-3170.216223
-1999.76805
-1000.774427
-75.00225428
1128.545385
2485.660939
3684.247596
4806.73302
5830.162464
6197.04006
5703.076133
4828.412793
3643.395166
1767.249664
-520.0693483
-2616.038221
-4468.065369
-5948.508992
-6520.79297
-6124.86526
-5139.695911
-3609.193933
-1519.906263
762.858159
2803.037032
4114.160918
4081.936443
2558.568777
28.37505511
-3038.526622
-6202.861156
-8648.500451
-9778.248751
-9936.538124
-9800.055847
-9557.935052
-9212.60619
-9028.361778
-9171.475672
-9352.000825
-9185.783018
-8645.947098
-7873.519117
-6766.038228
-5201.681229
-3528.229143
-2194.254213
-1048.732406
238.5612405
1472.170796
2513.124198
3834.500245
5764.193399
8158.324055
10971.19194
13917.15801
16047.14843
16760.46869
16372.31677
15281.88846
13709.2922
12023.17358
10402.52419
8789.365566
7442.892151
6633.637423
6052.688468
5356.877208
4674.708876
4064.341541
3290.332744
2300.80503
1153.544578
-316.6732707
-2081.155435
-3605.092508
-4475.884316
-4888.295718
-5205.827897
-5476.520066
-5593.566265
-5581.282071
-5451.140443
-5001.822437
-4143.497712
-3235.966295
-2593.263158
-1993.566766
-1389.532415
-1465.477184
-2618.809393
-4324.178443
-6150.462311
-8034.761197
-9366.166168
-9435.172731
-8462.803864
-6879.573184
-4571.732233
-1659.14197
1176.747317
3379.735109
4696.863214
5092.260273
4931.438115
4674.943446
4499.712781
4650.008405
5439.33589
6529.395178
7072.157374
6691.143134
5574.111401
3922.243492
2064.649745
604.8683779
-198.2335037
-732.2903822
-1394.175885
-2162.645141
-2960.355484
-3880.993321
-4812.287453
-5341.375172
-5489.017082
-6099.717569
-7793.530238
-9938.774346
-11491.35593
-12205.35148
-12178.0453
-11352.53968
-10268.22406
-9773.523068
-9544.672532
-8460.416625
-6213.769203
-3263.320571
-41.69454798
3039.283169
5787.897307
8425.640667
10872.46771
12540.23355
13163.82239
12935.99829
11956.0613
10288.65615
8129.100906
5656.374176
3386.286094
2375.775586
3167.072106
4973.733533
6643.617071
7806.573774
8556.613498
8751.410538
8190.87506
7078.779705
5891.699417
4865.892177
3826.725633
2539.229161
1007.781882
-581.90922
-1901.275206
-2599.366186
-2840.533088
-3276.180295
-3961.19663
-4195.795527
-3853.402272
-3545.615272
-3456.656294
-3513.196631
-4112.611595
-5358.285776
-6604.825006
-7417.251097
-7783.262681
-7563.414164
-6835.631039
-6092.804069
-5488.207385
-4748.451895
-3785.355573
-2579.308668
-991.5468381
725.9985922
1947.827748
2390.503314
2145.911429
1311.328194
277.6416931
-129.0614365
591.3939637
2116.40623
3823.627492
5365.188027
6573.809257
7234.728731
7260.984309
6895.542635
6413.0246
5799.949629
5137.928711
4920.493226
5318.385179
5684.361952
5522.158664
5068.716132
4376.318392
3114.638853
1438.266218
-330.5080993
-2331.508624
-4384.243162
-5869.35174
-6999.785416
-8637.023435
-10821.42299
-12778.64737
-13870.28696
-13828.29896
-12856.44662
-11656.44006
-10685.86285
-9753.569966
-8667.946558
-7498.893048
-6101.52948
-4236.761307
-2116.64198
-265.9379898
871.3341768
987.1648417
172.3590762
-748.5440686
-757.4626429
338.8220185
1849.894529
3244.036217
4829.574729
7107.357128
9817.950862
12199.43643
13883.1463
14848.19555
14987.79223
14486.55602
13859.07399
13069.61068
11729.31701
10161.7099
8849.889695
7396.901791
5316.942144
2857.019454
366.792362
-1960.902558
-3774.698541
-4983.508406
-5941.655181
-6797.322045
-7476.336804
-8131.009011
-8787.616937
-9123.315296
-9102.996704
-9027.55127
-8838.066813
-8271.947164
-7527.790042
-6980.940085
-6590.746746
-6134.758497
-5599.227626
-5017.166498
-4300.155344
-3415.442854
-2470.667323
-1465.485644
-147.1667524
1585.682359
3274.292655
4394.702597
5077.672281
5685.669372
6134.95685
6413.086169
6911.836286
7546.551153
7760.843279
7654.58079
7687.500367
7660.128153
7232.349808
6510.373979
5479.118405
4045.729979
2562.423674
1304.443235
107.9934547
-987.6105749
-1751.206495
-2362.607098
-3047.874716
-3588.938241
-3831.962905
-3981.584166
-4156.830897
-4354.278008
-4691.75718
-5117.354833
-5305.13866
-5217.836551
-5232.72514
-5497.326388
-5670.017602
-5461.261328
-5057.837482
-4787.344685
-4596.977436
-4239.79957
-3804.148135
-3466.568077
-2941.613117
-1978.061506
-995.1980784
-348.3555
276.2882204
999.4388469
1463.738324
1759.128052
2260.941488
2809.064931
3226.44666
3796.129831
4578.396325
5354.70302
6169.037537
6971.09276
7391.133638
7389.565392
7242.018292
6962.964649
6567.680054
6318.330661
6148.154748
5690.800579
5058.763281
4665.014161
4434.075943
4036.763121
3529.694131
3093.453745
2572.50738
1772.670574
899.8617557
330.8123659
52.48622977
-383.8658071
-1336.836877
-2808.503457
-4663.577043
-6614.044789
-8140.448939
-9104.324702
-9989.820854
-10778.7563
-10560.34674
-9062.510281
-7226.230576
-5806.700322
-4929.310493
-4817.897611
-5460.851663
-6181.914191
-6418.723104
-6072.974898
-5083.168818
-3581.270813
-2021.688862
-639.2767464
615.7122098
1762.241773
3027.913884
4769.945373
6750.93065
8326.2059
9368.992247
10119.64594
10461.02494
10221.88388
9728.02188
9356.337514
8963.201142
8121.762606
6543.020201
4134.455019
1040.019788
-2207.653673
-4869.475661
-6640.260333
-7954.331519
-9279.011154
-10371.92333
-10828.06962
-10874.91891
-10843.67343
-10607.6068
-10222.51732
-10020.76449
-9778.189264
-9035.704273
-7888.807062
-6415.547197
-4346.44457
-1893.471455
358.8845162
2359.917425
4374.853956
6455.392897
8610.365871
10631.842
11852.54981
11906.69658
11212.01077
10230.52584
9098.686017
8073.653813
7342.658049
6547.579416
5367.098915
4178.475109
3474.673865
3137.405373
2796.958654
2450.6516
2292.658345
2227.004759
1987.149528
1623.919531
1383.198734
1147.102416
629.0232414
21.72470089
-342.3949091
-655.0843268
-1078.517057
-1251.213334
-1131.458208
-1162.08863
-1193.778473
-706.5330712
82.06470635
666.5094458
1031.645745
1168.488597
891.7766532
281.1235356
-588.8762489
-1827.201254
-3152.269896
-4028.635785
-4411.24728
-4557.032694
-4551.375092
-4579.330694
-4934.857219
-5495.411415
-5890.074779
-6053.109285
-6014.973244
-5601.622177
-4836.851019
-4106.288895
-3581.584726
-2966.933874
-2059.583445
-1173.685293
-709.3961139
-548.0235389
-295.9960728
56.20621866
325.8629996
734.605872
1478.769381
2109.921007
2264.494209
2297.418708
2423.950712
2362.962212
2219.147829
2351.503212
2561.585065
2613.298537
2741.032571
2940.188829
2887.706887
2608.729672
2207.021939
1475.108471
385.7140926
-801.174037
-1944.073377
-2828.187911
-3109.831926
-2958.852296
-2941.821615
-3115.432256
-3138.720906
-3075.238813
-3187.615839
-3311.372918
-3139.503691
-2720.056891
-2240.65413
-1713.316777
-1139.112895
-674.4037351
-386.1401041
-37.64040104
570.2393824
1206.13467
1603.44321
1977.14662
2505.302828
2807.340323
2716.844122
2711.708692
2889.203338
2769.389762
2407.501846
2214.781535
2007.173363
1583.395206
1317.618211
1332.957089
1297.79832
1231.100033
1474.93124
2229.888807
3595.878915
5334.140167
6660.535254
7041.185666
6718.277316
6003.678671
4898.916366
3594.358402
2426.304665
1430.966871
694.033134
717.8998093
1778.31011
3381.057526
4824.319786
5928.277889
6916.582276
7843.242994
8448.57778
8514.561417
8033.984461
7058.091103
5814.344989
4795.992007
4064.643594
2858.876844
674.4730569
-2040.488932
-4913.40893
-8077.158282
-11241.58975
-13885.45594
-16174.26711
-18379.32899
-20240.8835
-21659.7685
-22813.83893
-23543.78733
-23716.07008
-23590.3476
-23141.957
-21963.89225
-20011.22911
-17527.37552
-14533.81646
-11048.17227
-7212.989753
-2908.874722
2046.840092
7269.784303
11922.27085
15273.36639
16935.89898
17046.1593
16358.14413
15677.66422
15090.9125
14079.05234
12462.34692
10885.65997
10038.07651
9662.890082
8975.671228
7843.003608
6705.759229
5707.855331
4881.948731
4538.134433
4588.876845
4493.795531
4266.7757
4232.647073
4096.251026
3564.204615
2997.63572
2625.44384
2306.867938
2158.345701
2264.696193
2264.488338
1944.383988
1460.433706
872.1174661
282.512211
13.2450052
-7.739523794
-312.3670069
-1035.998667
-1808.444928
-2439.974513
-2924.213018
-3066.33109
-2778.165644
-2388.02634
-2226.170251
-2220.476391
-2151.730636
-2066.093506
-2190.798264
-2537.02027
-2897.427186
-3226.871989
-3586.584309
-3792.70536
-3761.397976
-3902.157633
-4380.635766
-4681.078207
-4640.105124
-4737.541986
-4930.611731
-4694.667955
-4102.755734
-3469.014971
-2646.083831
-1574.785332
-479.5875374
649.3248446
1792.368697
2622.28014
3086.062979
3433.870492
3651.48033
3738.949336
4047.488945
4610.318344
4906.387006
4689.431422
4204.537737
3543.822213
2626.895765
1665.88376
967.7431574
470.9845838
-90.9570828
-757.895023
-1360.250863
-1836.956592
-2241.185695
-2474.878475
-2440.433006
-2460.183619
-2924.40647
-3548.399393
-3771.384418
-3648.007433
-3439.381269
-2963.789764
-2208.674583
-1524.783276
-759.6834082
442.850567
1686.944584
2462.886287
2880.349527
2952.515499
2384.377782
1247.895148
-220.002225
-2001.989488
-3815.704062
-5106.356643
-5688.88239
-5605.1482
-4744.965493
-3212.937794
-1395.637175
546.4956232
2475.625448
3808.105529
4122.977413
3839.986537
3587.432857
3384.05836
2968.388995
2448.410824
2125.55944
1949.835815
1616.115009
1126.778441
800.8032345
741.0269077
830.3025522
1138.116243
1625.367683
1795.081282
1481.00805
1286.836725
1463.492466
1479.932604
1164.038724
865.2885476
594.8849734
297.2607138
249.0878758
394.1933139
357.8802687
218.0749433
256.0769124
463.3337518
882.9351034
1560.046905
2096.326566
2136.435264
1870.652655
1466.688902
844.1754429
296.9481325
325.9735079
814.7727306
1255.479443
1548.420298
1855.428248
2042.903231
1861.99415
1393.591934
882.5583817
296.3977997
-569.346357
-1631.737075
-2648.028723
-3744.826856
-5134.164414
-6394.199252
-6930.180521
-6920.031255
-6838.865158
-6648.228114
-6343.929577
-6259.613457
-6261.046038
-5923.03358
-5411.327039
-4965.99526
-4288.993507
-3248.051509
-2054.743608
-644.4585259
1007.37517
2482.03269
3570.293448
4457.59035
5099.63183
5377.589498
5562.18256
5837.584984
5958.893323
5803.452055
5510.943886
4999.428777
4092.322503
2975.487906
1958.017427
1060.720689
186.151435
-598.8294804
-1141.875725
-1369.593299
-1252.705237
-723.0799112
163.0511979
1020.162532
1463.739927
1588.042045
1587.278116
1230.032621
491.0517734
34.7573598
212.6419142
586.6866037
959.234957
1558.930303
2264.91602
2902.222648
3627.582046
4249.91502
4242.118133
3547.271584
2403.556241
926.035467
-567.6501525
-1755.004295
-2867.29052
-4135.991137
-5229.007316
-5966.193839
-6688.560439
-7453.852978
-7844.077587
-7719.130382
-7300.029459
-6651.081941
-5765.225295
-4860.081666
-4080.040467
-3206.806658
-2055.242205
-927.2431588
-248.9164492
137.6017744
747.3708448
1521.292721
1918.659022
1974.496975
2247.168998
2778.537434
3228.144478
3636.772845
4002.489549
3980.97101
3727.987439
3796.09864
4083.655946
4136.246943
3938.735686
3568.473815
3009.610606
2495.499956
2150.213404
1762.078088
1394.626861
1324.436461
1379.184607
1277.791669
1170.219245
1138.205572
941.3442388
627.4462691
493.9848377
423.9683088
135.3320045
-156.498562
-87.62060706
181.0117333
217.6398633
-44.94131876
-351.1579053
-605.8192076
-908.8579927
-1166.573533
-1149.373164
-960.6552366
-855.9892216
-676.0144675
-269.9592435
-157.8493313
-720.3049465
-1371.306183
-1593.839494
-1746.325969
-2101.333905
-2459.092155
-2880.860262
-3485.876839
-4000.017106
-4316.060566
-4561.06052
-4517.672343
-3989.317777
-3234.623313
-2414.419318
-1496.677337
-778.2325553
-508.8381276
-378.6052733
-133.9090672
40.79434251
179.6671188
627.3892002
1294.345091
1688.776157
1642.952913
1355.281915
956.9672928
545.8054466
406.8117034
766.6699242
1386.032306
1742.107195
1679.62893
1487.554658
1248.171316
740.2957521
99.69930324
-241.0907671
-243.9328718
-14.73491167
694.8846686
1872.499498
3000.627837
3920.273884
4732.840995
5022.728069
4507.798952
3756.955279
3362.737143
3389.095419
3754.171353
4150.564178
4081.804376
3591.260792
3138.536686
2781.971044
2390.289321
2110.749513
1880.269986
1302.958757
408.5608181
-385.0591428
-1058.561052
-1845.931971
-2607.876069
-3130.284677
-3632.766674
-4390.634264
-5228.672509
-5809.383943
-6168.324922
-6609.721448
-7176.142941
-7619.567293
-7894.600539
-8142.865425
-8201.042232
-7866.376785
-7482.228894
-7353.416572
-7099.150912
-6494.252023
-5939.185395
-5427.376351
-4417.649508
-2870.395206
-1086.153753
910.6113927
2896.105191
4402.892417
5471.392311
6441.587818
7354.188465
8192.846209
8926.016699
9190.754351
8811.306274
8258.511743
7922.885867
7654.075937
7364.515915
7200.45856
7056.862975
6741.413104
6424.370887
6297.112261
6145.388452
5701.552723
5041.963171
4344.622004
3585.280642
2735.818772
1990.22256
1430.699713
692.7691735
-512.7437089
-1789.224099
-2654.771331
-3335.500015
-4145.391183
-4833.92758
-5354.7097
-6110.717981
-6925.057674
-7240.148035
-7264.737195
-7472.901248
-7702.608324
-7800.029906
-8005.22105
-8286.49608
-8399.893711
-8343.539995
-8019.102297
-7160.564416
-5855.203233
-4383.118502
-2816.982834
-1338.489241
-270.6707001
492.8514576
1269.185445
1872.861253
1972.110904
1824.292782
1906.953688
2247.805151
2651.10078
3126.739821
3692.583325
4116.758672
4222.158456
4235.949326
4458.077303
4728.959578
4725.822468
4594.223639
4575.599092
4375.054846
3825.141567
3517.628527
3794.860018
4111.848257
4077.476128
3848.70696
3410.670599
2740.322379
2154.502878
1706.107737
1191.944029
799.9524793
703.3036312
591.3663619
303.4504849
0.564358896
-409.8664567
-1028.875087
-1551.373511
-1867.678186
-2328.116473
-3000.786638
-3572.056132
-4031.052007
-4558.805074
-4966.316466
-5010.455776
-4908.360211
-4951.89654
-4966.202992
-4602.582746
-3932.459604
-3352.982382
-2985.356694
-2588.350587
-2069.732637
-1506.05519
-630.3022475
894.379185
2705.259708
4127.859364
5007.254223
5362.435375
5083.93991
4537.129196
4238.326546
3928.725718
3216.917259
2443.307474
1967.615532
1688.849799
1580.167807
1610.822618
1463.297993
1049.572731
600.3030765
134.7619065
-306.0832184
-353.4998458
-12.49960078
100.7227123
-283.4410193
-778.428091
-1141.281552
-1505.217567
-1884.541242
-2153.227634
-2345.321505
-2535.102859
-2635.469927
-2588.877194
-2580.824365
-2822.680308
-3199.369625
-3414.228913
-3445.628321
-3433.082384
-3202.729091
-2574.617846
-1918.076303
-1561.269893
-1185.292605
-640.3891157
-357.0949454
-342.9384058
-103.1923463
383.4131158
900.9432431
1565.162361
2274.92879
2665.339655
2807.981277
2918.348726
2878.592534
2717.542564
2616.117057
2324.049356
1600.859736
821.3637368
316.4032775
-111.9106064
-527.7885468
-637.6144579
-380.447363
87.96148444
815.655133
1785.885753
2598.050174
2915.967466
2906.223341
2944.355539
3125.435784
3278.421879
3342.584337
3425.358277
3470.307172
3316.334932
3115.502689
3045.704695
2763.385317
2010.841652
1274.955201
911.502765
538.6092986
-28.96528766
-528.2645667
-1040.861423
-1726.094812
-2307.593524
-2716.629996
-3228.010001
-3750.517973
-4085.969731
-4442.272296
-4900.273734
-5243.524542
-5590.861382
-6226.389382
-7002.06567
-7651.205438
-8116.43058
-8185.949177
-7629.516245
-6795.293367
-6243.442911
-5905.59097
-5274.45907
-4170.772189
-2835.457343
-1506.995046
-264.1704177
833.1846678
1759.202702
2711.726386
3954.561801
5348.673837
6451.875355
7148.09312
7605.61356
7779.791164
7761.839451
8110.802876
8923.040171
9464.159557
9382.807617
9027.193145
8474.250978
7648.006964
6894.687051
6386.054703
5848.55535
5209.2356
4514.28847
3576.819251
2448.205864
1473.920554
655.0895926
-195.6318384
-975.2500969
-1681.716659
-2629.660973
-3845.825373
-5002.70494
-6019.488847
-7016.454678
-7901.515959
-8564.144302
-9109.74248
-9556.700652
-9666.950814
-9250.407044
-8383.106688
-7223.606191
-5780.679257
-4104.584167
-2653.465018
-1966.854813
-1893.83623
-1798.805883
-1496.077198
-1194.392834
-902.340319
-724.2626659
-960.0079986
-1370.703758
-1455.535461
-1343.931198
-1237.958688
-827.8177595
-134.8969047
384.5056059
837.1183087
1645.237701
2677.883382
3619.408946
4421.591396
4962.809911
5154.103483
5291.864777
5597.599908
5895.42782
6121.305783
6418.780805
6642.444269
6530.465004
6255.77853
6186.174453
6311.874601
6333.154178
6112.664529
5736.994275
5212.999262
4405.533725
3377.11528
2453.530442
1756.98293
1097.674131
443.076739
-158.0661408
-1069.463609
-2618.247285
-4468.658892
-6251.109392
-7985.573126
-9373.174284
-10007.23334
-10306.32785
-10824.34461
-11289.99328
-11391.83388
-11348.81984
-11234.19407
-10926.46855
-10515.87872
-9919.976321
-8826.328575
-7351.319687
-5845.810781
-4224.800406
-2345.301067
-537.828084
902.2647133
2173.806274
3583.84642
5218.698946
7015.002275
8755.05499
10148.03962
11140.6769
11919.06151
12515.98174
12677.2893
12243.99289
11482.13847
10792.93721
10186.96871
9423.863692
8563.633663
7782.125669
6880.369769
5789.877524
5032.201534
4791.379527
4489.849836
3930.855027
3456.811137
2836.134002
1557.785374
-193.2586938
-2015.835755
-3812.121218
-5366.156902
-6518.408934
-7571.656534
-8698.917325
-9642.106782
-10336.22622
-10940.78705
-11380.71253
-11599.1045
-11755.15238
-11754.10119
-11327.34669
-10658.08905
-10118.50482
-9560.152947
-8586.437719
-7231.654939
-5806.079806
-4360.532102
-2750.209478
-1035.631214
586.1032701
2152.332078
3766.99615
5115.171994
5790.173618
6063.796853
6504.402769
7005.988749
7197.164146
7320.928256
7622.892115
7735.496684
7506.500832
7236.579851
6866.570826
6237.265817
5688.627187
5415.121466
5193.636187
5072.047997
5206.351389
5344.414573
5319.676044
5287.015427
5141.298952
4616.622669
3778.286685
2671.166166
1086.005595
-860.4212029
-2714.307012
-4377.111457
-5986.395153
-7296.092993
-7968.60218
-8209.535107
-8489.065441
-8870.52124
-9062.942155
-8982.149497
-8846.358107
-8716.797231
-8378.149664
-7773.073119
-7035.699089
-6035.334292
-4608.598303
-3163.647976
-2148.092257
-1305.419635
-377.5816518
358.6664337
983.5758306
2030.202109
3442.921869
4804.174277
6121.079537
7334.659054
8044.042259
8178.193089
7915.249776
7231.156764
6291.947298
5505.545506
4897.622589
4325.164427
4008.893214
4055.098283
4129.008104
4120.006694
4275.718671
4492.698305
4332.922509
3683.378508
2740.91939
1612.052872
393.2629682
-681.725388
-1526.55906
-2402.096342
-3543.559871
-4714.884728
-5489.463519
-5934.700118
-6481.939222
-7114.52429
-7455.952255
-7577.760161
-7720.164701
-7578.221829
-6961.078133
-6347.044748
-5886.188048
-5095.289324
-3905.182712
-2633.013318
-1274.092929
83.28672174
1061.513931
1709.637437
2376.517801
3095.211078
3880.666481
4876.859924
5858.369257
6497.847422
6942.147693
7320.370474
7317.532453
6850.549685
6366.022178
6146.978909
6076.819499
6057.502185
5987.612957
5536.919541
4470.752636
3009.457306
1560.911175
250.9175023
-1061.993504
-2406.250681
-3637.522986
-4751.492226
-5804.453197
-6525.461081
-6676.705595
-6660.115011
-6868.35977
-6889.993788
-6366.409213
-5727.55206
-5239.91318
-4635.454603
-4007.564744
-3658.062393
-3409.435973
-3142.67913
-3086.626699
-3103.184706
-2787.182951
-2118.35961
-1202.164697
-41.53059389
1072.73075
1808.083931
2325.258472
2872.390894
3387.303484
3923.078447
4652.185539
5293.383843
5389.233141
5054.845215
4721.62279
4439.922491
4034.373345
3609.287973
3378.749022
3188.671942
2654.958204
1740.025221
754.8655103
-227.7867265
-1368.947398
-2447.438424
-3067.945369
-3432.344675
-3928.850498
-4323.72721
-4385.70011
-4445.512479
-4496.252154
-4063.618757
-3311.075669
-2788.024286
-2393.911486
-1793.291312
-1031.183103
-158.1520688
789.806044
1556.854289
2129.242749
2802.982848
3552.397915
4166.495431
4770.373008
5455.041669
5974.442648
6281.369686
6578.79844
6710.486421
6358.5716
5709.674962
5157.230244
4659.975025
4007.687972
3345.098514
2922.12307
2599.620116
2057.760212
1384.286063
988.3472352
893.9471787
661.0217922
85.78540108
-716.8378173
-1875.003802
-3470.113222
-4993.771862
-6107.03069
-7195.523888
-8382.198517
-9248.077539
-9830.332831
-10410.20124
-10662.71943
-10274.09153
-9538.835411
-8717.085621
-7854.217389
-7169.465051
-6754.127041
-6394.993708
-6017.104174
-5563.147783
-4701.72438
-3417.831166
-2250.009932
-1388.013888
-378.656911
1003.974656
2477.746546
3864.759389
5225.626243
6514.287971
7638.778755
8660.476279
9580.819606
10156.78457
10252.0794
10190.57676
10313.30536
10292.13288
9571.113363
8437.711837
7686.730502
7323.556951
6795.553073
6128.627559
5523.342214
4619.733911
3294.665109
2031.136427
965.2155758
-106.3098615
-996.3145033
-1541.045343
-1997.690234
-2496.725859
-2992.556079
-3579.888943
-4159.502958
-4462.729888
-4657.779292
-5060.573395
-5477.911577
-5637.947096
-5677.683399
-5659.667186
-5419.336336
-5137.632431
-5182.951528
-5395.906955
-5352.652316
-5160.14187
-5262.954011
-5612.44913
-5626.90329
-4992.103972
-4045.598463
-3204.130735
-2432.910239
-1566.47049
-682.3930999
153.2949297
930.5011487
1366.224904
1328.627183
1356.741078
1818.871455
2259.679082
2384.745218
2526.74013
2775.730717
2956.135997
3193.144588
3503.872176
3638.035708
3687.785048
3854.151445
3935.194177
3852.295702
3861.616928
3876.184406
3582.274387
3109.321289
2701.004539
2250.866116
1768.631506
1530.699886
1470.620356
1237.770244
863.0758469
636.8859977
516.4526566
245.4111438
-146.4907832
-398.867
-450.4688784
-458.7421162
-401.9572782
-70.75220485
427.3817314
694.4318566
741.9801594
945.1919435
1236.299933
1282.966877
1267.505616
1463.695016
1662.808817
1828.883054
2230.980031
2614.40225
2521.38209
2078.95905
1457.400743
497.1622172
-676.036857
-1813.320465
-3119.031515
-4737.831477
-6329.644996
-7570.526312
-8247.899116
-8068.928317
-7207.302695
-6431.344143
-6085.491614
-5761.880364
-5235.05953
-4761.510501
-4378.386123
-3777.106156
-2891.514138
-2022.618365
-1406.167373
-1022.107366
-823.934336
-850.7485053
-1009.372337
-1067.883535
-1009.843223
-928.4863861
-495.6822972
686.2453959
2221.416735
3429.59063
4406.541901
5443.071024
6197.47483
6490.35073
6688.324032
6766.1709
6443.214895
6060.709506
6016.925543
6058.967085
5856.378383
5345.896598
4504.273047
3542.549754
2798.834178
2156.140974
1373.469857
740.4061677
546.9892762
486.8414523
212.5163417
-261.6846353
-963.0118899
-1953.672064
-2965.13529
-3744.262425
-4503.565576
-5481.853434
-6402.28629
-6817.840498
-6737.320589
-6481.250409
-6027.359798
-5045.174903
-3679.996667
-2591.708552
-1956.690602
-1295.970892
-478.1365992
193.2628533
802.3944616
1510.456906
1934.576703
1884.383489
1744.703954
1596.287031
1176.120122
557.6572639
-125.1460101
-836.7751923
-1095.316315
-383.4662318
1046.702367
2653.882819
4169.384292
5234.37667
5489.901883
5110.393984
4454.738138
3598.494253
2724.446558
2208.440733
1995.026753
1657.116964
1116.860758
642.0245786
294.1800928
-67.671455
-409.8215262
-560.0001629
-552.3541539
-635.2193862
-889.7898257
-1135.243355
-1315.176412
-1549.363797
-1700.569748
-1556.180554
-1430.51419
-1660.910989
-1822.896729
-1546.156845
-1309.182404
-1398.533999
-1351.04341
-1022.014305
-743.8861499
-511.5753283
-243.6469134
-169.1202504
-305.8269742
-462.7124541
-684.6306193
-934.8517151
-969.6622391
-891.5255836
-964.2199821
-1012.420106
-837.2108604
-697.3898308
-744.8038148
-717.2882586
-535.301193
-426.1114703
-390.0536483
-237.4333621
-39.9095278
-2.780525961
-50.7048209
53.15156608
269.9834902
321.7818073
191.4793603
177.6870442
305.7829148
239.2509993
-17.90547508
-91.39245252
-38.66862468
-197.9092685
-375.1713244
-291.5631656
-251.3525843
-394.8933469
-354.9062219
-139.6166762
-48.76607968
68.35560567
333.4434784
442.4350478
341.8982498
250.4603609
105.2856737
-120.020986
-184.9108466
-126.0310081
-162.0982564
-145.0893554
53.00466452
142.7978269
41.86294419
107.280709
406.1921333
613.1521715
687.7910891
865.0494183
1100.222766
1158.906569
1090.686104
1144.08857
1318.04922
1384.072757
1345.713115
1438.166805
1575.387312
1395.698221
1009.428152
885.8978946
931.2278039
733.9546299
513.4545911
622.5304997
767.9469573
785.4071091
1035.358783
1451.173232
1614.163602
1670.777398
1917.081364
2166.036165
2250.804749
2231.481137
2068.200116
1850.455423
1812.598145
1793.037336
1513.620305
1206.813343
1100.502128
886.6229333
392.6445813
-79.39396762
-514.9517169
-1341.267534
-2605.995417
-3828.989458
-4705.550197
-5322.346087
-5739.355511
-5865.262214
-5756.256987
-5644.784589
-5564.826445
-5308.971071
-4904.185257
-4638.233453
-4453.185815
-4033.776546
-3563.208255
-3401.437527
-3219.248681
-2622.90086
-1998.741422
-1663.175365
-1286.000728
-794.5405491
-496.3449687
-303.7708605
44.74860497
607.9357957
1554.435523
2845.655902
3834.86881
4140.521626
4157.914349
4161.372749
3979.507578
3645.907586
3317.006779
2853.667802
2257.523286
1926.390117
2040.69541
2373.43321
2794.861907
3326.296234
3823.350421
4107.092709
4223.156591
4242.946682
3985.098259
3237.791792
2210.459889
1407.604659
971.4202115
635.0961608
426.0418489
642.6934044
1071.079522
1252.992522
1348.959878
1599.016879
1623.561612
1285.208161
1034.083977
858.8625585
374.5999381
-246.0052789
-774.9105787
-1512.327546
-2525.442191
-3414.223874
-4001.122556
-4304.665629
-4274.853288
-4107.013331
-4069.43797
-3984.072263
-3635.798237
-3265.283725
-3072.486349
-2943.262296
-2946.391423
-3240.472971
-3469.717838
-3105.262809
-2281.13044
-1619.116222
-1382.161637
-1312.116493
-1195.855265
-1119.03604
-1092.91849
-902.1919391
-540.1074694
-269.4454905
-25.68619254
525.3836668
1219.356473
1631.085038
1913.149699
2315.048432
2505.221923
2352.696657
2269.536016
2260.01808
1999.234849
1682.213011
1576.928939
1519.439407
1522.025407
1788.855008
2124.061114
2293.507105
2413.546959
2441.521086
2168.485982
1779.029511
1543.006965
1326.722269
1064.841727
1028.579642
1221.831704
1276.623684
1076.851067
812.136004
522.8838167
139.3765823
-209.0352696
-340.8830728
-368.4262528
-572.650492
-934.5805876
-1138.287587
-1144.676241
-1272.351962
-1532.697536
-1593.390702
-1533.263986
-1681.95069
-1820.161155
-1649.167552
-1504.853572
-1589.229586
-1541.226326
-1344.337128
-1306.793169
-1239.586592
-913.4214237
-625.072314
-546.1988328
-509.8409771
-529.6988986
-613.6470629
-542.7863285
-371.8293882
-365.6658068
-403.7743055
-264.7536939
-115.7147253
-78.40667336
48.20949953
276.9330627
373.7087787
381.0698512
526.8285197
737.8363074
785.385937
724.3875894
784.6412282
960.9815493
1027.287891
926.1401942
830.374377
755.3284488
532.6830738
288.9113003
327.5898086
462.7972678
327.404419
170.1803599
306.728211
395.143195
255.5390655
310.0637175
600.8276797
741.9147422
803.1080966
982.3756402
1060.483385
965.8039638
924.2025243
908.4421196
804.8578439
708.7000754
567.1987997
256.7037232
17.28459676
45.2214545
59.79898051
-136.6914761
-337.1200057
-479.9610976
-749.7908544
-1069.462108
-1203.743495
-1242.582326
-1405.467704
-1559.402014
-1390.10781
-926.7872421
-517.8876221
-303.5932038
-104.9112186
83.83029717
19.44643554
-209.6660461
-241.1941172
-193.3315883
-424.4820733
-689.6577328
-659.4271349
-685.5513889
-986.1318735
-1141.036446
-1027.493408
-913.5535644
-692.8683425
-256.4667129
78.66898051
212.5425573
312.0435156
254.3245155
8.460018775
-44.22607695
204.0096701
480.3402836
774.2087191
1117.096987
1123.052363
609.2772609
34.13509805
-261.5209622
-508.9642269
-914.6537152
-1316.994256
-1565.845156
-1719.973001
-1839.557273
-1924.920664
-2023.397493
-2066.694389
-1620.829763
-291.8285249
1488.875746
2733.790202
3150.631733
3276.268755
3293.872817
2926.385205
2422.374206
2255.708213
2244.387919
2150.489744
2216.133208
2383.958343
2262.879051
1926.95333
1607.699364
1217.696595
828.6320314
641.6515333
474.1101042
157.0117033
-127.0300143
-390.2433078
-845.0342087
-1366.70356
-1814.551482
-2421.16706
-3182.125371
-3618.448055
-3562.65367
-3332.504641
-3011.832637
-2405.011642
-1647.794427
-1125.454635
-838.7594158
-398.0467336
326.6873462
964.8553123
1207.288683
1222.44647
1233.565186
1155.653949
1003.088001
1004.915966
1030.272395
773.8092808
501.7048607
545.4803415
551.3380405
276.9454951
112.4686089
143.732838
40.72623832
-96.76523048
-41.23087272
7.875189806
-62.57699511
-125.4088381
-259.0952445
-489.8225915
-577.0590914
-550.2437031
-651.557693
-739.0103547
-605.5138559
-472.7343676
-472.4260697
-341.3459505
-61.16045997
29.88741633
-70.1442752
-27.01043057
160.4462537
179.4587843
12.19196305
-31.30606075
125.1062824
194.3645614
59.81673738
-18.3437475
58.8262788
31.54824979
-104.5813577
-23.87803397
163.2422972
55.08076132
-143.381547
-47.76654901
51.41226052
-89.92982485
-97.19239276
110.8125935
170.1144392
128.830287
204.391847
241.9983384
190.050708
212.4082355
218.5548315
128.903401
123.2608311
133.3278278
-81.72510583
-320.8321447
-285.3534113
-164.6521176
-162.7194263
-92.68127744
92.54198881
130.1400661
18.96052323
40.0720666
195.0851252
222.0070559
101.9225297
75.64146959
182.4347096
191.8820931
75.47158285
104.1775316
282.1683069
253.7481098
31.71548775
43.22900906
254.7601125
266.9444772
216.3809139
389.4544406
453.4984735
202.7794172
49.67893875
76.40256465
-48.47029319
-192.7009034
-92.69851332
49.0661618
92.79634858
143.4549233
117.6414671
21.68579534
128.4469236
348.9820223
325.2449971
185.0792336
235.2368137
300.9559747
187.7214658
128.5477095
237.6594942
282.0157277
204.7430598
164.8491913
126.3799566
5.476196047
21.27891125
411.9535094
963.4432667
1207.073365
1026.921615
703.8327148
332.4581767
-275.3029841
-960.4106994
-1250.451666
-1210.514498
-1298.940701
-1420.943132
-1271.069518
-1127.177351
-1193.301769
-1137.427975
-967.2766483
-1048.433462
-1248.762684
-1295.863635
-1321.080773
-1320.29251
-1119.77301
-944.5379394
-1026.422289
-1149.145544
-1177.562671
-1197.851387
-1043.458791
-576.8017383
-101.271694
201.840617
578.8864091
1035.686383
1212.317069
1113.632476
1156.988415
1470.586084
1780.3894
1929.870904
2030.322467
2104.719366
1970.663636
1616.664138
1342.265731
1270.042537
1155.343548
966.5124339
978.0202407
1053.941896
811.2152235
495.5930123
501.7290445
489.0754706
166.5506319
-56.50595155
-25.73441257
-87.33759021
-235.1409129
-299.9830395
-432.7098138
-602.990372
-594.829598
-592.9356526
-781.9654156
-906.8624798
-898.6553356
-1011.973224
-1153.676779
-1080.905777
-995.75559
-1082.617363
-1053.736619
-763.8408638
-525.9415516
-477.51767
-375.0741581
-150.1471562
-41.58349863
-124.9787118
-185.999538
-133.9482472
-148.2202722
-244.5679346
-128.7037269
211.304838
334.8172078
160.489736
151.4967349
352.7849688
334.8150644
196.5066368
313.9359417
437.6743705
304.7655316
252.4268597
369.7466043
319.3840193
176.8706231
191.3030774
205.5532961
123.8243686
90.45197904
53.86588128
-14.28984933
80.20932818
239.6834512
171.317666
31.47272838
95.61349491
171.2097721
75.14415244
34.47537712
128.5861627
100.9469317
-60.65501439
-80.25507149
63.83987503
126.1357093
43.35497612
-1.401876812
78.78584698
141.9073775
99.53391224
84.17698343
135.2691097
69.0519764
-58.44812299
54.59448564
248.5333078
96.60337838
-151.6844349
-2.999468985
272.5599345
269.8237306
203.8199552
194.1144977
38.68286432
-110.9467485
-65.51179864
-86.55341326
-274.184798
-390.7758023
-451.7169923
-555.997519
-547.6437124
-459.0472179
-526.5430893
-630.0232273
-557.9368836
-509.2367744
-618.5420037
-620.0549252
-451.1672783
-401.1629649
-470.4897716
-378.7207385
-179.7353425
-160.8111614
-251.0610667
-117.6029833
234.6923324
454.4140437
450.3227568
521.3973289
739.6745108
779.2631473
609.1020331
613.5129366
787.3961963
773.9101608
697.3095819
800.4083528
740.8725411
397.4115216
314.982581
568.5319517
634.8864059
498.2791971
449.3060705
363.5404442
162.8572509
33.19211239
-95.01162958
-330.6172853
-468.6769295
-483.0067958
-591.647339
-681.1532588
-551.832975
-436.4428201
-512.2949904
-515.4297454
-356.3881564
-342.0496819
-526.5348817
-612.9531754
-551.236796
-575.7056076
-704.8493606
-729.8461159
-654.1767887
-702.629321
-847.1386897
-762.8170916
-421.1621206
-200.7887993
-170.2086642
10.79217349
269.7825721
214.7117175
56.25925811
214.3721585
420.0889195
404.87773
522.8607726
857.6650332
1038.540493
1102.040509
1236.95205
1220.899948
988.4506344
809.4919586
688.1881685
536.6981526
527.9730934
624.1827794
546.9556259
404.0966102
461.3579045
549.9602293
470.4937926
420.9538663
486.302754
407.5992701
139.5230484
-52.36044355
-118.4022538
-268.3149229
-519.6285281
-648.0615404
-588.4540024
-554.0138377
-664.1244151
-755.8651137
-760.7814426
-869.282671
-1040.607429
-961.9621437
-759.2112838
-844.1918911
-1009.170006
-844.9432339
-661.9734222
-776.5030065
-821.5756136
-654.8186766
-621.5311458
-672.1621109
-539.8237185
-362.0851778
-246.9450797
-75.04747088
53.30663382
55.22134161
147.4768384
325.9203471
343.7759228
313.5556343
456.3239714
574.102469
512.7615171
526.9316979
689.6234468
703.805566
536.6583156
488.8859157
598.4075926
612.1336784
497.9184887
483.242106
600.2341432
599.7083177
417.0163603
329.0081413
415.9014869
358.3960387
105.6565453
43.16663141
162.5765008
59.31749742
-112.6198022
55.0154189
263.5422369
140.4115611
-4.866040112
12.97928338
-60.61273273
-166.6861033
-120.7732108
-112.2214109
-188.2810494
-140.1195942
-79.75410655
-169.0546275
-198.1396225
-104.943846
-116.1989378
-165.0226922
-66.69537263
-22.11726698
-165.3155712
-199.4532743
-30.71722338
-6.228948461
-232.3351293
-410.9419632
-421.5008311
-427.6506925
-462.2333444
-404.548378
-316.5199581
-402.1795504
-589.8539946
-535.3306039
-208.4575767
-2.65442891
2.492447097
195.3240034
579.7261253
747.2555537
791.0365391
1036.621323
1195.321304
1004.04287
824.3761886
762.962356
514.0484
243.0245318
255.9165228
312.56201
232.6439704
222.2306168
274.4151528
249.6926049
275.5041433
368.8910439
327.3322623
224.3518699
219.0780342
78.98618696
-389.5499075
-906.6318472
-1186.708472
-1252.716819
-1117.253307
-771.5444333
-479.3605277
