1053.941896
811.2152235
495.5930123
501.7290445
489.0754706
166.5506319
-56.50595155
-25.73441257
-87.33759021
-235.1409129
-299.9830395
-432.7098138
-602.990372
-594.829598
-592.9356526
-781.9654156
-906.8624798
-898.6553356
-1011.973224
-1153.676779
-1080.905777
-995.75559
-1082.617363
-1053.736619
-763.8408638
-525.9415516
-477.51767
-375.0741581
-150.1471562
-41.58349863
-124.9787118
-185.999538
-133.9482472
-148.2202722
-244.5679346
-128.7037269
211.304838
334.8172078
160.489736
151.4967349
352.7849688
334.8150644
196.5066368
313.9359417
437.6743705
304.7655316
252.4268597
369.7466043
319.3840193
176.8706231
191.3030774
205.5532961
123.8243686
90.45197904
53.86588128
-14.28984933
80.20932818
239.6834512
171.317666
31.47272838
95.61349491
171.2097721
75.14415244
34.47537712
128.5861627
100.9469317
-60.65501439
-80.25507149
63.83987503
126.1357093
43.35497612
-1.401876812
78.78584698
141.9073775
99.53391224
84.17698343
135.2691097
69.0519764
-58.44812299
54.59448564
248.5333078
96.60337838
-151.6844349
-2.999468985
272.5599345
269.8237306
203.8199552
194.1144977
38.68286432
-110.9467485
-65.51179864
-86.55341326
-274.184798
-390.7758023
-451.7169923
-555.997519
-547.6437124
-459.0472179
-526.5430893
-630.0232273
-557.9368836
-509.2367744
-618.5420037
-620.0549252
-451.1672783
-401.1629649
-470.4897716
-378.7207385
-179.7353425
-160.8111614
-251.0610667
-117.6029833
234.6923324
454.4140437
450.3227568
521.3973289
739.6745108
779.2631473
609.1020331
613.5129366
787.3961963
773.9101608
697.3095819
800.4083528
740.8725411
397.4115216
314.982581
568.5319517
634.8864059
498.2791971
449.3060705
363.5404442
162.8572509
33.19211239
-95.01162958
-330.6172853
-468.6769295
-483.0067958
-591.647339
-681.1532588
-551.832975
-436.4428201
-512.2949904
-515.4297454
-356.3881564
-342.0496819
-526.5348817
-612.9531754
-551.236796
-575.7056076
-704.8493606
-729.8461159
-654.1767887
-702.629321
-847.1386897
-762.8170916
-421.1621206
-200.7887993
-170.2086642
10.79217349
269.7825721
214.7117175
56.25925811
214.3721585
420.0889195
404.87773
522.8607726
857.6650332
1038.540493
1102.040509
1236.95205
1220.899948
988.4506344
809.4919586
688.1881685
536.6981526
527.9730934
624.1827794
546.9556259
404.0966102
461.3579045
549.9602293
470.4937926
420.9538663
486.302754
407.5992701
139.5230484
-52.36044355
-118.4022538
-268.3149229
-519.6285281
-648.0615404
-588.4540024
-554.0138377
-664.1244151
-755.8651137
-760.7814426
-869.282671
-1040.607429
-961.9621437
-759.2112838
-844.1918911
-1009.170006
-844.9432339
-661.9734222
-776.5030065
-821.5756136
-654.8186766
-621.5311458
-672.1621109
-539.8237185
-362.0851778
-246.9450797
-75.04747088
53.30663382
55.22134161
147.4768384
325.9203471
343.7759228
313.5556343
456.3239714
574.102469
512.7615171
526.9316979
689.6234468
703.805566
536.6583156
488.8859157
598.4075926
612.1336784
497.9184887
483.242106
600.2341432
599.7083177
417.0163603
329.0081413
415.9014869
358.3960387
105.6565453
43.16663141
162.5765008
59.31749742
-112.6198022
55.0154189
263.5422369
140.4115611
-4.866040112
12.97928338
-60.61273273
-166.6861033
-120.7732108
-112.2214109
-188.2810494
-140.1195942
-79.75410655
-169.0546275
-198.1396225
-104.943846
-116.1989378
-165.0226922
-66.69537263
-22.11726698
-165.3155712
-199.4532743
-30.71722338
-6.228948461
-232.3351293
-410.9419632
-421.5008311
-427.6506925
-462.2333444
-404.548378
-316.5199581
-402.1795504
-589.8539946
-535.3306039
-208.4575767
-2.65442891
2.492447097
195.3240034
579.7261253
747.2555537
791.0365391
1036.621323
1195.321304
1004.04287
824.3761886
762.962356
514.0484
243.0245318
255.9165228
312.56201
232.6439704
222.2306168
274.4151528
249.6926049
275.5041433
368.8910439
327.3322623
224.3518699
219.0780342
78.98618696
-389.5499075
-906.6318472
-1186.708472
-1252.716819
-1117.253307
-771.5444333
-479.3605277
-566.0737088
-978.4486357
-1381.301494
-1610.894341
-1771.775234
-1883.528871
-1750.600167
-1362.883363
-1024.010265
-797.6277826
-417.3356955
2.115480563
65.70832664
-37.07405589
77.55154333
133.4698048
-74.31534673
-83.66672332
211.8580177
350.9265125
349.1704659
515.1675483
695.178427
747.6845008
858.8038899
996.8926851
1017.476987
1058.418053
1150.193362
1113.78555
1077.218816
1256.597242
1425.158558
1359.999865
1294.950925
1379.093201
1381.851406
1243.947417
1200.833448
1256.242218
1161.504344
903.5179179
718.9909659
651.7326239
495.4942576
219.3196336
53.43038194
-13.5447755
-325.6398661
-864.8310268
-1164.820448
-1215.331335
-1456.077929
-1751.354728
-1657.577486
-1437.050477
-1461.338845
-1420.834358
-1151.005683
-991.1884693
-938.0514448
-749.1733875
-553.9143888
-435.9862796
-232.2485846
-41.67412678
-19.41799695
13.33453676
100.0495482
22.20631459
-139.4494048
-170.7040342
-221.876017
-389.0662982
-377.0675584
-123.5897174
-4.041622041
-123.5933166
-177.5398758
-78.62408126
-31.763429
-35.15151674
126.6383137
419.9831733
544.3320109
449.2326488
450.2707869
633.0174499
655.7348028
452.4604992
414.7565716
554.1652971
468.6028506
274.0647604
346.0077485
419.4302609
199.0431402
33.26089942
64.30594455
-23.01340238
-138.1961773
-20.74700108
87.64186768
-7.228402006
-106.5878401
-167.7693692
-246.1305302
-175.4082425
11.23448018
46.12573682
23.78450529
165.5369693
248.0363126
80.70267614
-43.19329986
12.24196559
-83.61390846
-412.2271533
-594.915613
-500.0165307
-440.7577381
-555.6296768
-582.6153049
-382.550233
-202.7872864
-201.3768113
-153.6823165
49.71497369
128.328044
28.46860145
110.8689703
352.3079007
350.4575607
275.0457318
531.6179021
769.5372706
595.468027
418.8268525
510.1869727
522.7263872
405.0766649
421.64867
502.9020426
545.1387635
626.8200127
617.8533035
434.1745473
350.4907702
412.3033722
293.8800586
-2.642903088
-194.9148626
-308.3300974
-438.9282262
-412.5104549
-230.4141402
-205.1084042
-366.3153794
-405.3798496
-276.3447051
-240.544947
-331.4853486
-280.909222
-9.063810285
214.3174621
232.5397145
244.6668371
335.5224964
232.7551284
-113.6056207
-361.2640833
-532.1311048
-1013.502801
-1640.222852
-1933.003328
-1972.825341
-1861.462561
-1239.921213
-273.2188591
275.9098119
292.0605013
203.4090491
66.36245328
-127.8497423
-130.3514853
44.07082217
184.5587789
319.1270496
425.9083511
352.4633738
285.4598946
485.5553823
719.0451046
714.1357979
682.2144693
802.3597867
866.4668659
793.2677558
795.9311603
885.7196682
810.831635
520.1490155
221.933986
-26.69648668
-400.684767
-891.2095231
-1192.165424
-1212.812827
-1244.678284
-1324.989186
-1100.592186
-618.7125413
-299.0635523
-21.40681645
526.8986781
932.1311545
808.7647089
599.4046438
612.4992709
578.0537014
526.4261708
701.3549056
913.5409305
997.1370332
1102.794119
1174.727413
1087.337659
1045.953602
1120.469856
1063.680015
906.2973922
872.4674133
819.8107013
566.4380001
324.0756941
207.0506579
-44.9806818
-498.7343414
-856.7580739
-1006.274785
-1161.825144
-1416.774914
-1597.67783
-1627.08148
-1679.625261
-1814.73078
-1807.755827
-1631.56321
-1621.049414
-1769.947765
-1590.097127
-1072.983551
-766.2953201
-668.0747643
-343.5377084
30.28315095
103.7035603
132.3233399
271.6664939
260.9127013
198.9419529
345.4454822
492.6154138
501.1433442
583.7999032
687.0902082
618.4771876
549.3934936
595.1979334
571.4142419
525.976942
648.6441068
735.5424877
556.8318298
342.1598702
303.9570731
278.1776085
173.0388053
148.840302
232.1030994
266.1779255
240.9803724
301.7567918
438.8831826
451.7002041
320.8937028
335.9908127
595.4086983
762.5073674
702.4412636
749.788319
928.8275888
840.1055757
586.4677694
595.5687378
666.3241446
481.9449474
334.2054421
324.436302
84.09597918
-307.7696911
-492.6551717
-594.1521409
-771.2026127
-847.6851579
-827.3976153
-832.201252
-733.0511011
-554.7536368
-566.7068578
-662.4330566
-524.8022664
-293.2265247
-238.291164
-218.1615924
-90.47548024
-41.47665188
-125.3772162
-115.20201
34.61927872
117.5373051
91.39791893
151.2248041
348.562331
457.8378767
365.7064341
294.1854918
356.3432687
273.8702514
-57.7368984
-295.6653737
-374.5623654
-638.7149318
-965.594114
-924.7890311
-724.0223516
-730.9560563
-694.6540368
-462.8033814
-355.1711528
-395.1457938
-399.8466155
-515.0293532
-725.6409441
-713.5843941
-568.1991933
-589.429457
-633.5240931
-515.6319126
-379.6650906
-224.1328505
76.81482842
308.1828472
294.386871
330.8940191
594.7056318
772.6148874
688.540557
593.9014892
628.9647454
621.7856742
510.9047081
481.6579454
589.5372975
607.9642508
425.7798203
280.0558696
305.5043907
245.3278345
6.759972252
-80.65178603
17.27390694
-73.90569646
-269.8169875
-174.8897385
29.6835136
37.06252733
76.07280398
226.2415747
221.0708419
205.7239884
421.8751
584.2389839
525.8984317
507.3144568
530.674607
443.4009516
446.7251233
615.9038197
639.6287745
503.9383645
520.9013207
649.1801442
645.3352275
574.9484477
535.2053549
398.7733648
202.1302045
193.9925857
354.1699493
391.7183834
232.1165314
89.75680253
56.86955112
-35.88778536
-254.6320262
-389.7607655
-369.1971055
-433.7772152
-582.3705214
-458.6115946
-139.149601
-127.9204237
-360.3842354
-397.2694301
-404.0745911
-636.994989
-732.9934027
-575.0990464
-604.6927606
-827.1608063
-905.1429355
-939.6094452
-1055.44565
-1062.350483
-1038.463338
-1227.792042
-1484.058327
-1645.953957
-1852.824068
-2053.554859
-2041.492485
-1971.659598
-2002.839791
-1791.387144
-1057.944432
-121.7727812
610.3349703
1110.791336
1444.767525
1562.887422
1533.159724
1582.512144
1762.875819
1838.125063
1686.386834
1552.752614
1602.835186
1595.836292
1420.215911
1381.25964
1520.090744
1496.551369
1383.986391
1440.968715
1316.204299
761.2202368
322.9781417
280.6484363
206.7341867
20.07179593
-20.04914898
-95.95648116
-395.4773494
-674.4678591
-832.2398527
-966.6778045
-949.8938394
-756.055562
-654.7679109
-656.822363
-530.6562776
-354.8948264
-305.0735754
-244.3617111
-101.9367076
-107.6812854
-307.1774972
-431.3444942
-380.3686604
-337.6109622
-394.707661
-430.8794285
-378.6728733
-352.699382
-397.2776358
-333.0943248
-115.8987692
-34.43540251
-166.6435891
-163.6887738
23.03270452
39.91957039
-27.24149652
139.4070667
261.7921421
105.5594715
107.5041734
358.2431447
339.6385394
75.32053168
-4.101714446
-1.416434106
-113.7043896
-146.2036387
-80.31543282
-73.35889963
18.97720007
250.9804445
333.521945
244.7146039
248.1967677
286.297078
182.1873194
89.82543967
104.4977025
17.06374391
-170.2745123
-170.9792057
4.961566085
50.25757578
-60.09363565
-38.82608298
172.7669432
284.1412773
168.7741803
96.83798269
219.0386972
273.141369
164.9441863
207.2679654
387.1360332
314.1162158
137.0593038
288.9265934
477.8728914
291.4479751
78.55759599
100.5601493
40.63285066
-111.430299
-88.33673602
-39.20746228
-82.59115545
16.01480272
191.8366947
150.2396308
-12.13489548
-131.9790909
-329.0293529
-538.8021402
-527.2755546
-434.9632881
-503.2484064
-577.5424782
-517.1962973
-539.2323009
-737.5313171
-875.1975233
-847.4869259
-816.0877252
-849.716292
-834.4237073
-736.2868181
-671.7543666
-661.6011177
-548.375176
-326.704898
-248.3555622
-312.7829553
-171.0568791
139.9692699
216.4850091
214.687622
562.0822209
961.406806
1030.020487
1130.22755
1444.198195
1548.513969
1418.02329
1363.68069
1241.425625
934.597122
748.875673
694.9597634
466.0300928
113.8269673
-175.5217938
-463.890395
-690.4093589
-670.99023
-548.5615823
-516.8151234
-411.4086461
-136.8867867
68.56396493
135.8280346
286.2435626
527.7982456
623.1783606
539.3683692
450.9221827
358.2739501
89.85939803
-309.0116752
-541.1191707
-549.8569739
-647.8970264
-897.7940379
-953.9068924
-835.1599074
-961.8326918
-1215.602126
-1160.732121
-1035.483214
-1185.830068
-1246.320972
-996.3642011
-754.1262722
-411.8513644
391.214172
1337.550023
1946.267437
2246.46667
2296.895355
2081.42842
1884.436273
1871.304799
1790.709717
1563.753865
1370.298047
1123.532456
701.0198463
367.6574975
282.2297845
152.8296136
-172.9941998
-454.2860893
-611.6628121
-871.0801809
-1256.912744
-1499.456298
-1524.785728
-1588.324045
-1782.707036
-1833.621669
-1655.864248
-1620.295516
-1848.966102
-1913.28694
-1710.451025
-1674.09835
-1750.679377
-1458.53932
-977.0001232
-736.7778886
-482.5342711
14.00184951
413.2382528
656.6347104
1018.261103
1366.853735
1497.377631
1554.256647
1568.468957
1462.059641
1420.88525
1498.732261
1444.881047
1306.444663
1338.527322
1368.850947
1135.867682
852.585516
722.3888648
538.047199
229.4368421
73.05238889
116.4247334
79.57061683
-96.96104689
-176.7612096
-117.1166498
-171.0376566
-418.3566902
-587.2836113
-544.5454658
-542.3941847
-657.6101096
-578.5647881
-333.883354
-356.5663952
-549.9251468
-461.4441674
-280.1121952
-341.8661719
-326.6777195
-80.53513687
-19.16168586
-139.5212545
-67.17180774
58.02212196
-25.62473179
-133.2245039
-144.9251914
-163.3264518
-117.4548411
-0.892862498
-28.76669097
-131.3195711
-56.12122128
35.35768517
-101.9791034
-247.4048319
-195.5631256
-171.5786147
-285.4202292
-289.8026172
-148.5054266
-153.5339894
-347.1419729
-411.6465692
-225.361953
-56.59126196
-62.53518897
-18.84138572
187.7792726
262.4996966
88.85461802
-3.673140845
25.42317687
-170.2718843
-420.54149
-271.7671755
-12.19357219
-74.46614044
-110.016275
133.0926468
255.7520774
191.0597361
274.6200293
403.3588953
370.6950066
371.4306708
482.6372969
570.5590193
739.6946005
1029.73602
1169.503561
1144.694723
1224.060788
1337.571087
1267.454569
1167.349937
1177.590032
1067.60404
757.1474691
536.6654347
493.8821629
364.6250262
81.62981105
-82.23779504
-10.96068481
55.58919926
-42.03641913
-134.9003758
-156.6731149
-373.8032608
-798.3722415
-985.2809663
-874.6713513
-950.0015898
-1221.638227
-1268.814105
-1260.645796
-1532.325312
-1731.565721
-1613.974843
-1558.274409
-1622.918153
-1478.580783
-1230.030635
-1107.444871
-970.3071144
-765.0539357
-589.4633537
-310.3714654
95.62599929
353.656309
474.0851488
704.2920309
892.2972279
766.9539588
517.2438934
369.1618396
145.999214
-244.2668448
-525.7269619
-562.6492856
-572.4944312
-683.6201214
-745.0426118
-666.7609731
-579.5673247
-527.969664
-342.9317363
-46.30540118
26.90639237
-148.4197148
-131.736745
130.5209296
184.0625622
70.30801514
230.92691
466.9211897
371.9133875
223.4096649
257.8482317
146.0472703
-187.8102126
-488.6683598
-728.035742
-699.4582786
39.87378962
1249.950966
2214.115204
2804.342373
3253.413408
3485.346282
3465.784647
3377.819682
3155.140052
2692.436419
2312.591422
2253.364935
2199.176184
1899.998118
1610.031674
1536.024862
1479.203091
1269.066133
1038.249875
855.3478604
479.6046183
-230.4021697
-969.5572914
-1439.668599
-1814.265617
-2264.316565
-2552.625006
-2648.701714
-2926.869986
-3321.987933
-3403.695352
-3312.974798
-3340.621376
-3170.296216
-2684.014791
-2358.393563
-2242.664837
-1954.958663
-1594.625138
-1421.861383
-1297.092299
-1133.394849
-1004.993073
-775.9285887
-418.2879476
-196.6587564
-86.26388599
195.5075665
547.3927342
718.3846112
851.3919211
1080.886243
1162.059629
1003.827211
908.7661529
997.6264582
1017.097136
850.8930331
702.4844279
672.3742102
569.2448664
316.0005119
185.7372828
320.3173102
400.8944398
247.0953448
194.786805
357.1365172
347.9463374
163.6455372
178.8369408
210.7128659
-47.63308438
-193.9959568
42.51021549
237.9170724
277.9315656
518.7487302
899.5884388
1128.221212
1214.744572
1151.469801
907.2578718
757.9569183
840.3694709
893.6990954
884.1666371
1039.768938
1213.355653
1114.624848
899.1190609
785.4932264
605.025823
241.2350743
-101.1297845
-352.082939
-703.3093281
-1138.804803
-1356.657257
-1277.841936
-1204.523077
-1296.737721
-1306.496351
-1127.304988
-1094.997576
-1286.662272
-1234.460671
-887.826843
-826.6319003
-1038.764831
-886.0954417
-446.6850393
-276.8511378
-229.6074073
15.57010603
214.8921922
280.5888436
465.0339567
658.1931428
645.5069263
580.8279255
550.1503968
473.6667844
472.0481336
568.7444916
518.9175308
371.8698581
404.7222867
474.0359205
305.3283437
97.71176005
89.11342396
78.79273965
-89.44113612
-216.7778175
-217.3967936
-281.8759345
-438.0928311
-465.2915718
-332.7875014
-297.7185761
-424.8226811
-410.6479383
-152.4906165
-20.14567628
-142.6933661
-77.49384819
295.2779315
484.559117
427.7664871
559.5265961
754.2023687
654.99495
580.1461587
785.7060696
887.2199116
794.9435154
841.3213006
936.0253217
853.0332501
759.2095045
712.0967275
564.8867256
460.5692143
525.6986444
536.4315684
450.8700994
475.9249189
473.3734773
167.542556
-300.38797
-735.9400488
-1272.939723
-1904.302583
-2294.023894
-2350.037688
-2383.423213
-2566.546846
-2720.865901
-2721.444621
-2703.627153
-2701.352798
-2444.270193
-1835.089678
-1249.326734
-922.659126
-577.1012881
-117.6196068
169.2123729
461.0733439
1194.407964
1994.955319
2258.180145
2233.559409
2229.116148
1932.429407
1359.278985
993.6623349
854.141207
716.9931263
700.9831017
819.1538147
858.5076776
879.3406878
971.4470649
924.2767608
715.685884
601.4614633
578.5565418
558.6539612
784.8887562
1338.750757
1766.005239
1732.899207
1449.920439
1154.062549
760.6622614
199.8560953
-358.2605877
-775.1915425
-1147.353285
-1531.573077
-1695.707447
-1466.519725
-1064.349145
-665.2688443
-90.28822357
582.9861578
895.7858035
903.8329221
1042.187788
1059.365125
533.3006193
-69.554826
-250.8206104
-329.7817104
-547.3429469
-709.8500493
-893.0792741
-1227.183319
-1461.837583
-1518.586349
-1623.834989
-1751.659899
-1787.962854
-1842.380665
-1836.208443
-1530.468645
-1120.217718
-958.8660255
-916.4728668
-749.5093773
-599.6470972
-582.4270747
-522.8406059
-421.3415159
-516.0052261
-699.4264119
-487.6984598
255.5202406
1069.431389
1581.556244
1961.177882
2365.561015
2501.852217
2258.272175
2083.343909
2123.345371
1904.032608
1392.095625
1133.078487
1126.09736
981.1954617
840.5811285
855.7418346
706.2031818
414.8345436
339.0343014
316.773076
59.99107482
-216.3343826
-350.778061
-475.1444988
-534.6945047
-496.3594192
-646.1154442
-1034.18841
-1334.137046
-1479.535651
-1631.375335
-1674.3851
-1494.619672
-1357.070041
-1439.188004
-1482.139544
-1263.360831
-950.4988211
-772.5462966
-690.6235299
-563.5897185
-410.8911424
-291.3305762
-91.65968934
229.2688453
416.9958357
414.9506535
637.1831217
1167.007932
1457.867178
1366.702554
1341.34182
1366.579892
1138.855013
961.8312004
1114.888559
1225.158493
1118.04695
1037.483048
906.1794327
581.5788996
317.7828073
205.2809109
47.25997706
-56.72638143
70.15669404
251.5865515
387.3565457
613.7285476
811.258803
758.275118
630.3482879
643.9432828
612.9534473
358.7733807
29.25383712
-275.9572846
-678.273241
-1180.489611
-1575.869608
-1792.806129
-2016.601136
-2319.78038
-2448.146044
-2268.401972
-2115.638804
-2236.386716
-2336.474119
-2223.322733
-2162.905589
-2137.459497
-1827.384319
-1435.245345
-1211.275012
-695.9306641
264.6919073
924.9762947
967.25463
946.0313549
1195.557564
1633.000642
2199.095269
2647.047968
2685.405562
2503.536524
2369.122799
2157.607485
1851.436454
1699.271735
1635.27019
1387.858285
1052.754282
863.6209652
787.4781139
801.532379
1020.84333
1316.708223
1353.487422
1081.587021
758.7356543
481.6191762
53.98297627
-602.7330562
-1224.6992
-1636.639791
-2060.728264
-2576.959077
-2787.565204
-2565.661538
-2347.455772
-2179.986529
-1627.70497
-860.6572705
-459.4574308
-385.3385942
-368.7370341
-469.7197162
-527.0832797
-272.8596257
2.836850883
60.59086845
280.2736907
846.0672752
1428.499602
1887.560227
2254.469639
2337.954467
2081.024423
1674.394736
1083.178187
254.0922556
-413.7737689
-597.2957471
-589.1208587
-716.6559301
-843.9320966
-841.0853924
-896.9674843
-1088.7836
-1169.425927
-1005.386584
-842.9240432
-885.7402372
-914.6096492
-697.5674079
-450.339548
-374.9600657
-224.1917462
74.85418438
140.8280986
-0.707822152
88.1277837
235.3883104
35.16053668
-170.1190424
-44.63943036
27.75031679
-112.8240138
-134.6443259
-78.53995734
-165.9018123
-214.1687055
-105.7766839
5.126989245
174.953241
481.1680292
695.4992467
770.5121325
950.019229
1158.700756
1122.296627
976.7037857
972.7043867
945.1060674
689.6513089
376.8465102
183.9323605
9.765387952
-197.2227702
-256.589567
-107.0419838
-9.357845581
-137.3617775
-241.8739654
-97.47254392
53.99953662
34.96416258
175.6603449
574.3866206
746.029274
615.5627098
663.0031842
779.5787222
466.3059164
-48.94515242
-308.2891092
-398.212084
-283.6797535
368.206402
1392.185627
2313.672
2969.914857
3250.166149
3023.342451
2493.927969
1870.080694
1089.725961
357.3315814
109.3203029
251.9194825
338.1765514
326.1337094
345.2953183
154.1103265
-527.9125512
-1654.109385
-3144.450494
-4979.805313
-6830.447931
-8102.762502
-8537.634517
-8429.389755
-8098.766845
-7491.623549
-6580.87606
-5730.0184
-5138.545999
-4432.788335
-3406.861214
-2434.769058
-1641.431697
-726.7799448
221.4431374
1037.017523
2149.508024
3673.945897
4886.406598
5457.916347
5809.374772
6090.606124
6153.612702
6079.857561
5873.396445
5426.999871
4950.443837
4577.962646
4004.520864
3184.4552
2572.002239
2312.151281
2108.20307
1867.796959
1619.248287
1178.64618
713.9014705
1051.443816
2639.277383
4720.555624
6142.185831
6523.404702
6143.836381
5191.890927
3783.405469
2353.186374
1255.889223
235.1153913
-996.2204729
-2134.759852
-2990.974615
-3953.514252
-5023.062228
-5610.625617
-5748.482766
-6018.233816
-6367.125267
-6431.414764
-6329.763883
-6174.118759
-5904.764876
-5801.090665
-6019.03751
-6148.188918
-5966.329293
-5646.474899
-5060.612756
-3966.703325
-2548.362015
-980.3401664
812.7622537
2595.021695
3919.084233
4790.814715
5430.452929
5701.481324
5415.028058
4723.967498
3824.983113
2786.59664
1852.540856
1394.257507
1380.441489
1280.840737
729.3056667
-10.7833885
-556.5815344
-1001.718336
-1471.25029
-1612.109276
-1262.408087
-909.5747175
-791.5306223
-567.5677544
-253.4624471
-179.6992326
-178.9575211
-80.86806768
-228.2859595
-643.978613
-875.4074541
-857.3154908
-753.3527586
-421.0571404
148.5738161
682.6257722
1132.386108
1501.784902
1557.922867
1340.787758
1256.930085
1435.775856
1801.817336
2584.806464
3919.844827
5324.633129
6212.895038
6479.817093
6254.047348
5589.245172
4613.212319
3589.812528
2662.733669
1737.468601
748.7864566
-131.0567857
-799.0597215
-1497.761323
-2370.38141
-3154.85202
-3837.661588
-4834.56754
-6001.721644
-6670.095188
-6942.966989
-7442.363574
-7999.422725
-8107.02654
-7836.186184
-7241.992207
-6118.804589
-4698.721138
-3387.906664
-2206.891333
-1247.82979
-740.1510909
-414.7101983
186.7346718
1008.909089
1789.381458
2429.493004
2739.958096
2578.181279
2168.539076
1623.867923
627.0784001
-810.1631673
-1934.130751
-2147.547476
-1759.01256
-1405.746099
-1141.517837
-519.932473
620.3212817
1938.009773
3134.923282
4171.909657
4929.606604
5283.188984
5403.069736
5355.57024
4895.380152
4242.630171
4130.300986
4692.625743
5504.267523
6556.001452
7901.827537
9031.284401
9523.968563
9344.534712
8323.291669
6406.763524
4021.776914
1561.11729
-757.1687079
-2587.610397
-3881.078663
-5057.271877
-6199.984293
-7042.720361
-7908.692582
-9437.308078
-11403.50054
-12861.68296
-13181.95071
-12194.6382
-9885.362218
-6602.311974
-3069.942917
220.1103585
3259.666007
6003.745002
8053.471117
9137.398382
9511.951068
9453.383209
8759.812598
7346.474162
5764.147797
4365.237211
2742.905706
705.3812054
-1317.735814
-3226.981291
-5180.190071
-6714.270424
-7363.553347
-7432.408172
-7213.074597
-6619.316633
-5853.690599
-5233.200213
-4724.496987
-4382.258687
-4397.524412
-4555.108652
-4552.822045
-4457.464255
-4200.10818
-3462.986053
-2389.798968
-1437.822895
-592.4406305
338.2805097
1027.874887
1045.478706
494.5189856
-295.5390451
-1201.8729
-2109.230275
-2759.993515
-3059.746176
-3140.720395
-2857.689865
-1644.601545
655.8151447
3243.485877
5285.049435
6859.687703
8275.958911
9310.00721
9898.809442
10448.77721
10917.97456
10895.9213
10527.97169
10088.47288
9380.64434
8438.970424
7649.209359
6973.876329
6214.055813
5510.918278
4823.568691
3868.918871
2744.648027
1628.570857
317.8777966
-1166.198515
-2355.605436
-3120.187489
-3735.737259
-4173.483605
-4215.433936
-4015.61525
-3869.792694
-3841.130965
-4005.389541
-4553.794914
-5405.837634
-6150.803404
-6535.358206
-6696.678511
-6768.264339
-6593.564007
-6168.0535
-5956.30497
-6148.315238
-6101.059391
-5293.37088
-4102.452251
-2926.21661
-1654.253263
-443.7080928
365.1076031
1001.450407
1643.265801
1876.534439
1649.68193
1463.348466
1397.3712
1223.119255
987.5886759
630.6343513
-57.6689689
-874.0431596
-1562.940711
-2352.301129
-3395.917275
-4443.662648
-5395.666207
-6287.922148
-6815.221853
-6717.308732
-6233.724156
-5516.352628
-4211.4673
-2088.022377
548.6196225
3298.594288
5953.513254
8219.183638
9626.325333
9974.528488
9678.134514
9402.639379
9465.191987
9855.885298
10458.14645
10769.97016
10097.33659
8576.698517
7012.129917
5462.606837
3377.562631
892.102819
-1478.092129
-3652.030052
-5464.030807
-6550.66313
-7094.286989
-7447.715187
-7424.1547
-6882.728894
-6184.810979
-5657.905706
-5452.134752
-5737.75415
-6359.9816
-6823.709089
-6899.603882
-6539.888395
-5406.707901
-3361.998749
-971.6176015
1261.693315
3535.52923
6028.244049
8290.171499
9879.053972
11011.01798
12153.85744
13365.26423
14378.24941
15009.64707
15048.41047
14075.28919
12008.30839
9462.217114
6931.95645
4258.849856
1439.16055
-1136.393665
-3565.592438
-6167.222142
-8544.073625
-10313.00706
-11918.20685
-13676.73166
-15244.72617
-16354.53374
-16858.85918
-16449.52944
-15172.58398
-13429.8945
-11348.20023
-9060.196245
-7065.578492
-5520.056145
-4053.301185
-2661.798904
-1705.257973
-1047.93632
-262.9576574
617.8374854
1377.804735
2097.311586
2789.170045
3158.901473
3087.74535
2839.689993
2618.208138
2372.586064
2205.329019
2558.523344
3669.15089
5165.822903
6625.954405
8075.260558
9416.226339
10146.7376
10229.17254
10141.45663
9778.048424
8736.099972
7437.159365
6434.90768
5446.99126
4212.201633
3018.239081
1899.549771
623.4487231
-705.859653
-1899.789497
-2899.179826
-3504.455424
-3663.111301
-3689.095282
-3628.353333
-3167.831343
-2433.874854
-1939.738477
-1771.770983
-1689.847703
-1719.255474
-1956.202557
-2267.145626
-2619.633426
-3169.191849
-3801.681955
-4128.103439
-4085.736983
-4089.532536
-4370.214561
-4557.397751
-4317.325546
-3978.830934
-3871.551694
-3586.141215
-2735.77914
-1664.81051
-562.1684317
958.9772224
2772.274403
4183.975787
5085.003504
5709.69284
5825.893582
5320.58764
4583.747994
3824.293775
3041.616859
2356.419021
1586.593025
317.4731906
-1308.255587
-2773.447143
-3879.750021
-4563.917928
-4739.91384
-4684.367162
-4721.419786
-4616.249003
-4124.778921
-3617.751903
-3353.857281
-2902.347543
-2010.348212
-1239.67823
-1113.330247
-1300.95144
-1195.950336
-802.5277567
-511.4640072
-345.8181984
-30.16381766
503.2312051
1390.707714
3168.971737
5960.62183
8968.555429
11549.76419
13745.63959
15292.82538
15604.50077
14807.65768
13375.5882
11342.10489
8876.717803
6443.569091
3986.691863
1183.149959
-1798.819814
-4632.080339
-7118.745549
-8913.123908
-9904.227371
-10562.18174
-11185.00738
-11523.67389
-11479.80445
-11226.2705
-10660.24165
-9683.151327
-8734.13212
-8251.510629
-8025.088009
-7592.107702
-6749.377253
-5360.297907
-3204.891969
-341.0072914
2737.16023
5553.808765
7974.167598
9810.539823
10563.54581
10092.75325
9005.202865
7730.232198
6035.205001
4083.410398
2669.971929
1876.966056
1033.578772
35.6504766
-854.685511
-1869.026881
-3128.184179
-4244.490271
-5082.926406
-5801.671559
-6357.767072
-6786.915142
-7258.753557
-7597.298378
-7569.001969
-7285.59059
-6655.434898
-5244.396219
-3085.58289
-713.0682815
1609.936561
3814.662261
5542.453334
6548.535252
7133.420079
7659.914743
8156.133603
8612.932181
9091.218174
9345.986356
8807.179381
7221.99596
5078.865399
3068.251646
1376.34296
6.339919172
-657.215017
-396.2402193
330.7325734
1171.031468
2205.074008
3078.727007
3263.660687
3180.013247
3502.661364
3920.857812
3771.096915
2834.712473
1004.766888
-1592.058788
-4233.644836
-6230.286303
-7386.573948
-7665.16001
-7210.987562
-6434.415824
-5475.524391
-4251.022597
-3174.448057
-2811.582469
-2926.954301
-2842.334621
-2371.171533
-1657.634273
-707.079834
346.9010992
1090.821222
1282.863901
1029.407132
428.6301494
-550.7140525
-1703.616137
-2459.811932
-2471.409213
-2085.425557
-1772.836605
-1497.247888
-1285.241349
-1689.532496
-2875.909263
-4195.777714
-5188.377481
-5802.592268
-5769.063536
-5164.408018
-4813.020126
-4964.82492
-4794.971347
-3691.334212
-1690.59409
1096.11508
4360.026822
7536.388627
10342.07122
12637.7709
14074.26315
14634.25181
14806.71813
14755.35222
14195.61631
13119.56373
11684.31129
9658.444921
6826.826754
3506.39373
61.58354543
-3540.276468
-7232.539001
-10408.0489
-12408.73158
-13184.00668
-13109.53523
-12375.72068
-11031.18555
-9435.781304
-8024.627971
-6848.992577
-5985.044979
-5757.484302
-5859.067621
-5350.04429
-4131.813146
-3045.505413
-2425.407085
-2014.272204
-1734.845428
-1381.042478
-612.2645063
257.0746552
682.7104452
858.8513786
1315.002842
2331.98975
4176.320776
6870.412882
9728.876584
11910.80097
13022.32854
12891.18895
11605.52156
9840.214789
8306.461825
7074.256207
6038.723409
5507.587859
5720.701402
6258.332095
6417.02813
5904.3036
4829.165222
3242.059783
1156.464913
-1090.57396
-3119.56055
-5061.192783
-7099.764572
-8753.499979
-9524.820111
-9721.5679
-9703.029485
-9226.914022
-8239.050558
-7058.632902
-5614.499514
-3837.467274
-2282.592581
-1295.245983
-582.3645064
-6.290547859
378.1779505
731.178489
921.834421
472.3601646
-549.6409924
-1597.957949
-2464.39961
-3147.754322
-3526.859155
-3784.306755
-4332.628895
-5050.682732
-5440.17395
-5496.813469
-5642.418326
-5953.79219
-6028.423946
-5425.51932
-3911.313265
-1496.961838
1455.70667
4263.328254
6351.63216
7646.910212
8282.816637
8153.197051
7294.702082
6330.301293
5746.409366
5238.557237
4464.068668
3535.056221
2343.503829
729.2787795
-665.9324978
-1089.980061
-664.7838271
231.6501605
1377.259379
2203.917385
2270.411687
1952.88651
1675.326471
1292.823339
705.5309271
42.42653676
-748.0546736
-1631.500889
-2208.357462
-2166.449488
-1418.153095
195.2695137
2597.530616
5169.02163
7391.712971
9311.990607
10887.77392
11504.81448
10611.74867
8392.508705
5462.666254
2225.717651
-1120.371618
-4212.100365
-6682.084452
-8551.99859
-9933.947384
-10641.93625
-10692.62662
-10558.29623
-10311.01093
-9537.453448
-8474.091629
-7797.92727
-7363.395855
-6672.132243
-5872.586489
-4998.9659
-3424.004634
-858.7681362
2236.99396
5193.856694
7233.807119
7712.52894
6749.072282
4924.856939
2586.32087
120.1276642
-1797.400265
-2866.600676
-3419.342839
-3796.83334
-4094.651353
-4361.077615
-4463.220081
-4050.122117
-3006.482229
-1563.882654
156.164123
2233.524855
4503.510795
6491.002783
7983.678182
9264.750825
10411.32274
10780.83377
9841.171329
8087.899175
6320.092079
4588.198432
2703.536159
903.4225273
-663.9877493
-2000.203792
-2702.90391
-2622.077129
-2514.918861
-2972.268253
-3708.402441
-4379.609144
-4881.118309
-4963.78883
-4511.896264
-3657.86595
-2333.088171
-544.8081602
1174.252847
2389.515978
3210.698322
3688.79238
3659.714597
3286.944782
2862.816656
2269.106798
1361.38215
426.2035707
-304.5065354
-1044.211312
-1961.022778
-2794.149625
-3247.555987
-3372.518882
-3278.090986
-2790.169824
-1818.682348
-784.4287858
-115.8314121
299.9065895
511.6161071
122.5410185
-692.9740437
-976.1600739
-494.7384214
22.88986508
361.8887326
855.1569386
1345.107274
1500.035719
1286.919981
511.2669096
-954.8774616
-2605.158623
-3884.95105
-4667.980408
-4799.872586
-4158.273792
-3034.481672
-1652.675233
72.50099546
1847.475657
3008.047654
3367.510656
3151.039585
2344.274327
964.5320144
-508.2922725
-1692.851359
-2757.193897
-3767.256246
-4104.259305
-3091.756193
-970.5964238
1216.550918
2622.24564
3052.240737
2627.37371
1650.83211
622.0076015
-318.4830211
-1555.385851
-3036.939073
-4044.697058
-4344.855799
-4302.427491
-3866.744791
-2838.210046
-1528.921409
-30.71487544
2068.781291
4726.099266
7425.219786
9889.794871
11846.2019
12871.61304
12966.76544
12375.53383
11060.01154
9189.463906
7378.362524
5850.302118
4392.587567
3295.53406
3113.138562
3550.138709
3695.249841
3159.792626
2179.124621
936.0877166
-586.5227309
-2355.942721
-4322.444877
-6504.055048
-8714.280936
-10429.71226
-11365.24778
-11937.58665
-12561.48852
-12848.27088
-12262.79977
-10994.00151
-9382.171017
-7409.514291
-5399.785465
-4017.103439
-3336.457003
-3043.542251
-3020.652325
-2901.861388
-2212.450247
-1267.64305
-689.9026638
-480.2860198
-537.6966997
-1036.736788
-1737.060743
-2093.220844
-2029.177819
-1661.983666
-857.9914796
255.301684
1175.882112
1764.260559
2319.702545
3015.179892
3887.140392
4956.747477
5900.79152
6178.957506
5775.377766
5272.205929
5051.107739
4913.640401
4662.420469
4599.184713
5007.717919
5498.031024
5549.61738
5326.09258
5105.811565
4536.555094
3373.4919
1992.840123
495.523917
-1340.049205
-3027.912832
-3836.733643
-3886.141637
-3609.039956
-3123.991412
-2661.135105
-2356.96545
-1811.379601
-851.5930422
42.40935198
555.946118
716.1960996
325.5264738
-735.5494448
-2057.149389
-3229.509332
-4157.175415
-4608.305439
-4286.30562
-3350.165667
-2171.648284
-828.0066774
677.9618446
2121.910356
3332.966051
4348.78768
5055.8956
5057.666749
4216.784426
3084.038615
2395.865753
2347.618731
2806.89332
3786.982047
5007.756667
5700.676777
5673.4435
5579.912915
5595.304918
5242.774431
4583.063779
3970.239163
3215.259043
2318.243322
1826.810462
1704.28048
1226.181577
60.82375882
-1621.153382
-3515.62144
-5068.359109
-5841.798142
-6058.388969
-6113.905041
-6077.655715
-6090.713741
-6406.916651
-6900.43178
-7377.57995
-8084.572852
-9049.318652
-9455.882299
-8481.179238
-6276.304859
-3644.92704
-1296.232335
239.9743599
498.7074207
-624.2395525
-2630.66498
-4805.838342
-6703.757011
-7970.206952
-8135.720932
-7188.901772
-5807.991016
-4425.036686
-2891.405082
-1347.00565
-108.368973
1175.156901
2788.047723
4099.210477
4628.531546
4700.580727
4485.688021
3902.296413
3396.593159
3530.831694
4260.231307
5214.953925
5953.709922
5993.181456
5372.154304
4762.997851
4576.75548
4659.952654
4902.669948
5242.044397
5277.627011
4732.444415
3929.380988
3199.667442
2341.264227
1134.223276
-103.0425544
-854.0864096
-941.0845859
-399.4421048
862.5972286
2761.05793
4553.61687
5340.644637
5008.578067
4071.392384
2964.469747
2152.798835
2091.260339
2466.515669
2611.920551
2729.289508
3275.857456
3717.003042
3275.765195
2028.596827
567.093758
-390.3496092
-222.8445431
818.9799724
1738.489606
2055.776264
1995.242452
1713.693073
1357.337972
1202.843654
1009.848441
139.3259223
-1352.087908
-2722.063684
-3655.61277
-4501.897427
-5646.741332
-7317.544031
-9611.948439
-12177.35874
-14189.93149
-15059.2335
-14974.63538
-14506.7107
-13903.30554
-13129.03304
-12293.59048
-11446.89204
-10299.55748
-8865.44798
-7762.151576
-7076.703221
-5950.928428
-4004.283904
-1825.203833
211.1411239
2113.200352
3676.984415
5049.47708
6916.421594
9330.042062
11476.30703
12662.86401
12662.43845
11696.7872
10545.07543
9837.822875
9356.327411
8702.795554
7930.625041
7028.039862
5798.647049
4481.794881
3499.995462
2699.449845
1723.831779
813.1071677
480.3379466
710.0633576
1005.364553
1006.417113
713.9964893
253.7344846
-226.9008101
-462.1965236
-275.0702044
118.6307538
463.9533451
902.862334
1422.835663
1453.843808
857.9737458
386.2110827
407.1353932
489.2155039
541.5437389
837.4241467
1216.673213
1562.063662
2151.245922
2842.750952
3134.937132
3025.114889
2755.364068
2301.089419
1700.217988
1041.894879
131.0881148
-1048.667714
-2048.782003
-2660.24102
-3116.634963
-3447.544464
-3546.573301
-3711.360178
-4228.087087
-4788.540941
-5024.334792
-5120.583323
-5376.218788
-5688.618691
-5922.333876
-6310.232809
-6979.267752
-7455.517
-7294.027785
-6871.519655
-6690.935551
-6276.734022
-4854.131067
-2637.369066
-354.5383172
1646.541109
2933.885217
2984.540451
2180.172057
1367.941864
628.1318984
-283.5955315
-1175.66025
-1866.481076
-2239.753302
-1831.57678
-402.2034054
1609.625035
3759.21751
5886.534976
7747.054283
9218.803173
10469.26024
11336.28932
11261.08363
10127.78361
8394.889347
6420.86477
4371.54605
2522.961709
1021.985746
-393.9495897
-2048.719759
-3915.664216
-5744.167037
-7381.150711
-8728.77776
-9529.872836
-9627.150045
-9411.220432
-9427.829909
-9598.205078
-9516.285683
-9143.965637
-8396.376383
-6852.971368
-4669.921922
-2612.702165
-828.8444835
1068.866237
3060.111449
5043.345435
7110.52636
8878.112568
9822.078011
10162.96446
10308.50305
10183.16852
9798.727311
9425.88038
8989.780406
8227.460875
7216.746335
6207.77674
5471.957176
5400.474166
6013.029001
6588.196281
6465.068387
5764.085574
4839.403468
3684.946375
2304.966803
1068.198035
290.8162691
-179.7935643
-653.9122166
-1108.528105
-1362.378519
-1527.028337
-1772.371226
-1920.255791
-1947.115399
-2391.266092
-3468.450186
-4592.495495
-5396.731042
-6027.745926
-6304.601513
-6117.213345
-6194.753346
-7056.68002
-8152.293321
-8869.452306
-9193.453523
-9261.383878
-9328.388433
-9740.666183
-10389.49942
-10879.2873
-11105.24165
-10939.4426
-10028.04006
-8533.336791
-7218.983346
-6471.444284
-6025.920736
-5540.762998
-4720.733713
-3274.116954
-1334.696711
530.4778598
2067.490587
3627.443604
5505.342087
7369.187933
8583.296761
8885.300404
8517.508375
7945.340032
7797.672831
8634.20412
10139.49227
11149.48106
11159.1599
10844.99829
10598.89867
10031.94717
9147.433345
8343.603499
7555.330922
6702.236468
6035.991126
5385.179535
4335.98769
3073.156758
1933.390228
851.7718142
-121.9015106
-782.8685374
-1298.501025
-1852.289823
-2248.602403
-2485.243044
-2884.586353
-3388.402324
-3632.281087
-3642.41133
-3661.99792
-3639.594357
-3486.680138
-3364.212955
-3334.466673
-3191.608016
-2861.005184
-2571.028896
-2409.890018
-2051.788716
-1327.507718
-796.733534
-1080.407604
-1851.92262
-2358.425664
-2553.675724
-2726.918405
-2745.929269
-2596.5201
-2575.266104
-2464.191853
-1867.443046
-1145.631571
-744.709831
-481.8447106
-260.4081598
-248.670737
-274.8609091
-160.826451
-102.581688
-92.50623844
110.3267643
364.0321696
411.2240367
367.4622884
346.2406079
320.6281894
565.3475843
1338.176651
2191.697144
2454.912617
2154.423205
1805.018021
1630.678487
1471.054275
1187.96283
832.1837171
528.539065
436.8165341
770.8953972
1517.408419
2134.023722
2025.149875
1290.124449
396.2463335
-554.3376929
-1472.734166
-1956.728904
-2067.925642
-2320.704617
-2593.705957
-2459.055818
-2238.291563
-2370.603712
-2653.118499
-2947.783374
-3402.329369
-3789.454073
-3726.525973
-3187.930346
-2254.273149
-1086.658875
-114.4323972
498.5258639
1067.091757
1609.295768
1745.283397
1556.350075
1544.482443
1766.932229
1876.60668
1793.13025
1688.134702
1651.300359
1815.753251
2452.290101
3579.712231
4720.720835
5345.319339
5405.673588
5141.478611
4603.751777
3860.719237
3308.912361
3064.801626
2584.129847
1652.065801
836.643236
291.5531864
-546.7909257
-1701.967901
-2604.525474
-3087.326651
-3154.169103
-2593.306778
-1597.457066
-702.3508761
-86.69501086
180.5846299
-91.59831244
-655.9651362
-1015.810099
-1180.970619
-1328.302985
-1223.673271
-709.8395993
-91.92750847
294.8748839
242.9620846
-469.0284918
-1725.334658
-2917.547011
-3601.301368
-3899.959429
-4050.659691
-4028.611516
-3803.591495
-3599.989327
-3627.245807
-3721.452812
-3606.258077
-3376.888927
-3192.822936
-2736.521619
-1781.058503
-867.1293881
-483.5664815
-342.5928877
-264.9443039
-543.8143483
-994.5050265
-1134.64093
-1121.892702
-1162.927294
-836.0352766
117.207573
1447.217872
2983.491668
4549.09936
5783.652066
6658.806
7395.386643
7867.007897
7874.899
7539.383496
6891.421524
5848.996512
4758.008134
4073.919024
3672.976442
3259.419339
2974.054926
2934.48126
2788.980315
2276.657583
1691.249628
1376.008558
1170.655576
742.2578598
185.813119
-177.5560744
-440.6825121
-958.7580985
-1711.130672
-2483.28234
-3327.076643
-4152.214357
-4602.381979
-4874.433238
-5501.813957
-6238.854389
-6575.331951
-6774.114472
-7097.38704
-7209.096205
-7126.619349
-7262.969159
-7442.373031
-7216.59487
-6649.039233
-5964.339115
-5234.992264
-4590.490999
-3950.229775
-2949.429909
-1657.481975
-576.6216949
269.4615357
1287.36715
2461.06988
3472.747535
4370.293822
5352.432963
6242.238706
6710.814952
6755.467814
6638.43818
6533.416368
6478.905914
6551.643874
6740.508349
6763.565727
6521.15542
6491.168381
6942.251242
7237.305135
6807.339395
6004.540062
5208.662409
4304.750549
3426.947989
2773.01799
1954.074571
807.9177679
-106.1178385
-559.0272249
-868.7744089
-1099.201477
-1294.099186
-1791.873622
-2484.925654
-2858.78174
-2983.300294
-3315.949478
-3835.877311
-4309.808943
-4775.668552
-5189.728136
-5346.02929
-5336.520404
-5422.259317
-5606.812474
-5847.74041
-6294.424206
-6917.097833
-7331.484659
-7327.766361
-7236.544824
-7432.194748
-7702.122084
-7539.341614
-6900.313652
-6097.5983
-5151.712195
-4003.983952
-2968.09679
-2091.573085
-811.5767695
953.5667933
2533.266121
3747.444328
4943.055576
5945.965418
6411.175085
6544.289171
6588.749526
6589.329796
6796.10925
7319.788337
7800.969091
7939.056827
7624.99022
6692.264833
5376.459974
4416.443009
4049.671052
3770.881836
3358.029347
3106.80837
3049.311112
2923.275884
2747.653229
2675.052173
2557.46118
2188.78802
1699.9188
1338.427975
1052.782687
628.5579953
140.2773954
-139.1050663
-254.345504
-454.3869036
-632.3366689
-590.5590539
-601.4408857
-881.9818096
-1140.562205
-1381.323718
-2051.558547
-2992.23818
-3645.773808
-4101.338095
-4640.479415
-5125.620692
-5641.255121
-6475.079649
-7354.439174
-7862.898819
-8036.644902
-7824.471529
-6967.383824
-5658.585814
-4361.408083
-3230.584087
-2355.420589
-1902.070757
-1676.966974
-1327.087398
-943.76762
-744.2069868
-529.9165273
-111.3966942
257.0284538
388.8572647
605.5582314
1279.030123
2332.021876
3499.647322
4745.695179
6003.004137
6801.265738
6825.084331
6597.24763
6762.675105
7085.209909
7077.90869
6860.627588
6522.408747
5807.316548
4959.146973
4499.99715
4315.670828
4186.170328
4291.907622
4407.398358
3973.759314
3112.916371
2263.649632
1370.184853
359.0046575
-554.492604
-1427.211364
-2450.167594
-3410.913699
-4086.627542
-4646.175639
-5232.184993
-5844.238856
-6684.446296
-7873.243736
-9000.909883
-9564.212363
-9558.808318
-9269.47992
-8840.79135
-8348.711935
-7982.313308
-7773.091825
-7272.336811
-5980.666618
-4106.432659
-2349.807412
-1040.722542
-183.3311203
77.41538158
-51.88760322
180.932369
912.4513137
1451.133356
1650.82874
1978.451268
2372.365679
2554.622747
2780.421919
3267.48635
3891.090159
4649.12768
5438.55005
5883.207294
6023.546206
6279.089361
6653.614745
6928.366118
7156.525846
7203.250627
6675.098871
5778.225931
5234.905117
5210.490224
5256.843823
5137.688571
4914.331989
4527.201703
3901.631852
3231.446666
2779.635287
2517.737949
2199.887808
1739.825708
1241.003102
688.3924587
45.92097987
-433.2352898
-626.1881516
-987.5633179
-1825.572171
-2767.831819
-3620.618207
-4660.209808
-5720.465403
-6385.697102
-6876.506527
-7472.868641
-7925.23149
-8224.352405
-8706.369391
-9258.815348
-9558.846106
-9609.363488
-9378.725421
-8801.707528
-8218.417206
-7845.885951
-7234.215951
-6016.824048
-4455.658763
-2802.279869
-1004.445152
822.0604967
2457.300522
3991.432402
5537.130561
6808.513975
7437.083324
7429.175428
7031.175386
6390.909768
5632.785689
5092.420729
5029.208113
5123.323291
4836.031219
4271.564218
3970.701223
4033.14817
4282.653352
4786.089695
5409.81296
5751.828165
5921.110126
6184.753732
6095.017528
5227.979199
3970.67058
2740.296144
1556.810971
527.2620515
-326.7011961
-1255.962008
-2202.831441
-2920.535871
-3658.378793
-4713.117111
-5779.719128
-6550.361977
-7155.959424
-7558.398987
-7452.267024
-6911.476924
-6273.677319
-5541.277296
-4588.041236
-3629.895118
-2965.790753
-2554.798414
-2214.409566
-2014.168921
-2120.040447
-2356.627922
-2379.602067
-2252.189212
-2251.451558
-2226.734888
-1969.407726
-1849.057552
-2051.480572
-1909.325947
-1043.665108
-53.62880041
658.4802264
1329.802585
1967.325231
2409.056657
2785.804045
3081.624957
3143.072152
3227.919937
3567.23917
3915.645481
4191.587391
4647.768127
5231.223568
5706.132316
6100.984266
6372.62395
6333.864924
6226.684664
6469.140374
6863.004778
6942.677997
6786.814868
6689.888294
6492.877179
5913.644572
5144.663087
4590.841459
4237.761651
3685.714803
2703.651272
1345.569837
-390.6420549
-2430.269927
-4250.820135
-5446.496624
-6434.583068
-7684.600911
-8840.543337
-9530.500572
-10021.99633
-10424.0079
-10540.04855
-10570.7654
-10705.16551
-10617.6213
-10195.09718
-9733.018848
-9233.056732
-8539.338915
-7737.011934
-6754.125396
-5352.12456
-3591.914879
-1500.46122
1169.966244
4144.189145
6513.755904
7887.608635
8636.996215
8895.090065
8375.949405
7148.439386
5734.747804
4540.50212
3715.842623
3382.478241
3562.339263
3962.080851
4208.764256
4324.704056
4550.617138
4689.501455
4282.657605
3446.198302
2677.659956
1984.639904
1189.659527
589.0418173
329.7964714
27.31023315
-394.7346087
-706.2962725
-1160.879711
-2013.7282
-2897.204975
-3488.341976
-3792.498803
-3712.72789
-3360.214689
-3178.714729
-3138.942623
-2845.386074
-2461.848204
-2347.276969
-2239.28162
-1810.948671
-1287.707753
-877.9106123
-462.1662043
-92.38709379
31.43761286
24.09675375
98.74814776
141.8333057
-16.31496219
-192.5510472
-100.2532454
158.6857905
234.5126112
139.1814491
214.8516206
417.9813549
346.4659638
83.75981462
114.4601028
429.3823289
697.9968562
946.2285643
1161.785949
1068.663179
844.2228179
906.4434667
1096.339453
1205.897029
1483.053971
1862.159942
1949.306379
1881.005796
1973.805806
2045.145759
1916.162841
1706.459518
1377.300936
890.2592704
505.5015045
248.7883581
-182.3598966
-650.8056055
-677.5674911
-327.77323
-50.07792912
135.2432645
480.7336259
901.6574978
1138.649173
1217.136786
1312.127259
1363.099189
1193.064247
916.251466
795.2336805
726.8234365
446.1096877
148.3845194
151.2675311
249.1188668
287.4096485
660.3076195
1363.20319
1739.780679
1753.082705
1992.14173
2418.350445
2608.742655
2615.652508
2526.909699
2164.185951
1541.277393
679.2108188
-615.2052644
-2199.655434
-3689.645638
-5157.496364
-6760.740759
-8100.061454
-8814.84312
-9176.218981
-9571.832091
-10101.67045
-10762.54183
-11314.31281
-11172.87791
-10046.99492
-8368.581773
-6742.686233
-5353.585541
-4104.547835
-2969.435766
-1939.126375
-769.8177439
885.6022424
3054.224344
5484.583335
8011.555147
10310.70083
11648.15242
11771.30056
11454.14315
11264.43782
10808.82749
9819.441017
8607.782096
7318.332389
6053.687798
5196.909527
4721.644821
4178.107057
3555.850645
3081.394093
2605.842241
1983.440671
1277.705064
367.8273705
-815.4166459
-1997.814597
-3130.628098
-4483.811282
-5862.531213
-6725.912202
-7105.565499
-7424.08277
-7636.00212
-7399.783138
-6757.877841
-6002.01196
-5188.129211
-4254.04206
-3384.843816
-2834.706789
-2479.427813
-2021.294923
-1616.591809
-1659.722129
-1976.202288
-2065.043824
-1935.995807
-1723.707559
-1057.632494
180.2424192
1479.851278
2744.232155
4325.30779
5972.689869
7182.173854
8010.244389
8538.655768
8565.401837
8177.217518
7611.90963
6904.757772
6292.76581
6089.216297
6016.899426
5643.886455
5110.785934
4636.710316
4066.220277
3415.573453
2978.987721
2727.957494
2418.25571
2090.024229
1765.248265
1089.928777
-104.8970457
-1306.236556
-1890.804851
-1921.233548
-1964.94426
-2296.426288
-2755.115328
-3313.673429
-4125.649302
-4994.831157
-5607.943789
-6233.5542
-7284.47799
-8539.942556
-9653.054414
-10617.32225
-11181.40042
-11029.56929
-10568.42334
-10276.61028
-9912.795976
-9252.371259
-8489.779137
-7619.140005
-6552.278731
-5528.948043
-4668.747554
-3851.455722
-3172.117422
-2636.935568
-1844.195033
-727.8319461
205.4128108
866.3672146
1793.716455
3157.76422
4538.784673
5696.579711
6772.112684
7866.083444
8952.487347
10026.71968
11002.44385
11602.8966
11608.45565
11145.85665
10460.73371
9481.624535
8089.004521
6718.44654
5935.873993
5573.298333
5198.63702
4956.045148
4966.395897
4817.51005
4410.124885
4065.840903
3637.60133
2840.548457
1953.048566
1208.816376
447.7007392
-332.6365026
-1104.733016
-2103.500893
-3269.113892
-4213.327997
-4949.857181
-5747.888274
-6530.381287
-7115.764319
-7462.883857
-7388.052418
-6843.362932
-6401.871878
-6615.298938
-7188.847284
-7512.030844
-7557.192748
-7649.646518
-7779.072048
-7675.499859
-7305.325908
-6804.009146
-6021.846865
-4656.311216
-2841.513669
-1027.316969
672.0802776
2284.070743
3446.564604
4038.420961
4698.271875
5688.206592
6305.56689
6178.927793
5709.512234
5048.51195
4146.468148
3348.877784
2833.292897
2379.568317
2062.610543
2101.165592
2345.389517
2732.193335
3469.071013
4429.337921
5272.022862
5988.784277
6576.910674
6759.153486
6539.60794
6284.239835
6054.168369
5591.460337
4860.316908
3981.331273
2896.754784
1551.998692
144.5067023
-1070.229621
-2031.542572
-2789.646938
-3316.080159
-3626.112213
-4015.790426
-4742.646535
-5487.777654
-5771.764351
-5769.648436
-5928.877203
-6288.921359
-6982.113493
-8331.457551
-9808.615466
-10366.30359
-9956.298845
-9255.910941
-8476.452632
-7602.536626
-6782.511963
-5928.830086
-4913.322687
-3951.241096
-3132.444299
-2291.81881
-1515.397218
-898.157979
-122.009089
973.1049843
2067.575912
3053.796038
4183.234164
5393.484263
6371.607553
7181.022873
8081.485411
8976.438961
9593.501049
9932.594865
10126.75028
10083.74295
9621.843837
8833.805802
7952.030816
6942.407436
5698.779815
4502.001665
3621.124412
2738.337182
1621.749375
781.1762147
527.6564162
364.2002244
5.840420578
-317.0757633
-705.5131564
-1350.538387
-1953.205179
-2389.365216
-2969.942678
-3683.400713
-4243.369703
-4615.703843
-4780.472717
-4703.744929
-4746.902752
-5215.325006
-5775.512843
-6053.290471
-6151.183781
-6109.876387
-5727.958584
-5131.409112
-4686.625315
-4390.136466
-4020.664685
-3654.192248
-3491.616877
-3432.332457
-3225.343606
-2861.714116
-2448.905444
-1802.57001
-654.5971585
753.5244528
1956.295537
3087.341403
4481.169563
5660.200532
5928.228177
5548.354644
5138.136201
4743.545511
4399.138271
4362.939633
4468.018113
4459.58846
4519.414323
4634.499452
4501.469785
4270.20995
4226.120827
4172.831441
3977.332811
3852.309717
3762.78475
3511.111681
3178.606853
2687.115074
1614.333999
6.619127975
-1491.652901
-2551.89961
-3355.603108
-3976.00097
-4329.623622
-4510.569822
-4615.390444
-4483.477353
-3982.823426
-3354.01768
-2946.073446
-2720.776058
-2428.538498
-2235.778859
-2567.773146
-3318.402199
-3990.082339
-4483.423717
-4843.990538
-4737.428183
-4130.050089
-3558.411017
-3095.35686
-2393.394883
-1731.69249
-1485.721289
-1240.40737
-654.9509081
-51.07549408
431.7827523
1006.996056
1666.260624
2373.713129
3242.19306
4108.288041
4724.799599
5265.42285
5906.179218
6375.907892
6424.679125
6116.405829
5503.500228
4699.726633
4153.851533
4186.423795
4459.353153
4387.294315
3829.020391
2975.850189
1747.391872
-195.8319689
-2754.937667
-5217.87696
-6990.617837
-7954.170528
-8021.537692
-7196.992438
-6068.141171
-5220.865094
-4457.887295
-3552.741654
-2901.782074
-2630.867411
-2342.156254
-2049.872332
-2011.49863
-2004.254938
-1798.394727
-1490.714794
-1021.094931
-391.6692889
-47.31906441
-202.3654661
-491.0098101
-586.5014741
-309.2592577
612.6704157
2062.204846
3405.340435
4362.430724
5200.984055
5902.45264
6076.926346
5708.930131
5201.993328
4795.363745
4473.897619
4269.78629
4244.528442
4267.509427
4139.251673
3932.000968
3843.254519
3657.11071
2881.52613
1512.204984
-11.71324213
-1521.109517
-2940.531809
-3867.306703
-4274.81015
-4754.065284
-5368.310537
-5558.758332
-5305.55261
-4945.339247
-4378.424065
-3598.90887
-3003.133889
-2663.517279
-2376.225762
-2207.011146
-2162.747131
-2046.691441
-2000.15225
-2294.965137
-2737.261778
-3052.872233
-3296.333224
-3362.314243
-2906.179868
-1994.885692
-1031.414228
-111.3704265
833.9789905
1563.232331
1817.613704
1791.762843
1849.38177
2000.159906
2052.508567
2118.189265
2469.687842
2956.51206
3205.661021
3359.449349
3778.549732
4187.561437
4148.974671
3933.421077
3865.599445
3682.014118
3326.02904
3134.811649
3023.406215
2775.370753
2623.773459
2604.603705
2401.058735
2124.223508
2048.077824
1966.077051
1743.209167
1615.205615
1496.544399
1052.654172
389.7037404
-249.5470403
-983.0938687
-1846.497828
-2575.309959
-3148.538203
-3818.660416
-4584.373164
-5241.414387
-5774.810429
-6255.207386
-6564.937063
-6536.919818
-6240.633217
-5904.348297
-5576.152609
-5114.198361
-4552.430225
-4075.637079
-3578.717474
-2853.585249
-2150.156548
-1753.410697
-1367.55138
-786.6113411
-362.0476624
-134.7418004
271.1525904
732.361515
964.9551966
1286.943232
1958.538074
2706.367733
3356.893207
3897.559805
4161.394897
4244.953437
4484.211432
4716.994626
4551.474421
4176.543599
3993.150191
3969.633482
3979.703467
4065.552886
4102.183794
3926.772054
3726.030859
3668.466153
3463.20214
2784.790981
1777.412981
774.3076342
-173.353525
-1173.424839
-2115.937043
-2804.817945
-3372.10979
-4054.40692
-4614.031703
-4668.881187
-4421.044511
-4167.172317
-3575.824199
-2461.568493
-1362.620081
-526.7495691
367.0235474
1210.3553
1665.502386
1953.176693
2258.225265
2305.519837
2090.08261
1877.328094
1582.189152
1103.691811
703.4314257
559.5775245
665.5621377
1069.167084
1528.270863
1476.438043
825.2518083
53.13312125
-657.1893037
-1501.96486
-2366.19614
-2899.832175
-3141.657969
-3416.621961
-3755.664357
-3912.918903
-3887.949548
-3961.71073
-4141.052822
-4085.137985
-3759.81085
-3527.815056
-3420.634712
-3142.557092
-2799.307199
-2590.634355
-2111.227237
-1078.934105
28.87290528
952.3245005
2002.306186
3084.379211
3811.502308
4294.922214
4698.404998
4856.600984
4835.580074
4838.484513
4730.283956
4449.900762
4197.902362
3892.995942
3355.417468
2839.552573
2535.619429
2128.211176
1451.21555
773.4939679
137.2943627
-722.7447457
-1741.218787
-2537.772691
-2968.720628
-3136.180598
-3024.609579
-2533.100995
-1774.438723
-1010.930753
-282.9039536
551.8710504
1355.941339
1800.617467
1988.050087
2267.720185
2478.195766
2300.843043
2021.353424
1913.668691
1654.912466
1181.941335
901.2626964
715.3112423
207.2440646
-529.4413499
-1288.999701
-2093.328545
-2707.313561
-2870.388914
-2790.468326
-2647.143625
-2357.975653
-2118.373112
-2193.912716
-2353.870374
-2354.732199
-2400.901789
-2552.687761
-2498.410011
-2207.021126
-1983.19296
-1866.744661
-1678.905928
-1478.693413
-1430.0141
-1432.413377
-1274.203645
-1003.336702
-832.3016409
-739.5655601
-522.9073893
-243.5726486
-107.7824092
92.44281107
692.3926925
1409.266219
1796.910531
2048.698502
2366.967496
2398.726353
2117.141195
1994.181799
2002.919008
1850.485077
1765.29904
1892.47502
1901.238805
1761.000403
1741.663718
1760.542466
1672.499264
1589.503476
1455.823449
1134.664063
830.5999885
656.7248385
307.5970134
-282.5080317
-723.381039
-884.2313078
-1016.766166
-1166.741115
-1181.996004
-1134.830299
-1183.820527
-1218.159482
-1025.814395
-676.6788497
-427.4713077
-278.3642613
21.40991972
472.2695927
832.9464388
1187.123369
1759.099383
2226.991808
2200.277493
2020.562094
2022.782709
1858.54228
1452.256695
1304.934906
1443.658492
1535.302947
1710.193771
2041.010542
2098.284275
1662.915602
853.3261669
-307.7203153
-1579.713885
-2443.918666
-2818.666312
-2991.198394
-2936.802699
-2534.642318
-2006.296733
-1564.019459
-1240.027752
-1219.238486
-1601.591909
-1978.917063
-1941.75464
-1686.842844
-1588.847972
-1565.180809
-1313.028811
-899.9283022
-710.319146
-869.0431472
-1119.362134
-1359.208889
-1797.958091
-2426.369106
-2977.287087
-3453.386523
-3887.700864
-3887.17874
-3333.702823
-2792.990264
-2505.586148
-2149.816477
-1782.652822
-1618.123051
-1330.551152
-703.1939743
13.94771612
865.1507484
2086.804806
3414.393939
4487.129123
5307.021252
5811.842579
5853.43264
5590.980817
5172.517335
4502.721515
3801.646956
3582.789732
3804.95711
3881.823297
3551.454306
3025.146317
2464.866258
1868.990256
1242.725077
534.9055541
-340.4233961
-1166.126729
-1381.906673
-751.0090312
124.4758396
463.8356354
312.4660912
191.2447611
58.19004754
-376.9013894
-807.8578788
-927.8142988
-1030.004928
-1141.461491
-852.8274382
-367.6810761
-231.8362052
-326.746107
-351.5548553
-430.3123716
-616.6706408
-834.3370339
-1219.537723
-1734.991309
-2117.21942
-2515.477312
-3218.914291
-3924.939034
-4200.848505
-4126.667509
-3841.041724
-3245.683341
-2482.263083
-1857.692357
-1279.249195
-505.3023626
263.1671866
656.8915706
741.8862719
881.8247862
1173.825569
1386.347436
1402.095286
1357.716198
1294.330695
1131.643596
1061.401964
1303.728999
1506.205277
1285.6368
1039.098565
1167.956812
1282.736525
1122.306573
1038.457732
1079.782593
979.8206398
861.1250323
826.0403408
648.7265446
410.8277636
382.2771708
398.9768172
269.3479108
169.0880947
155.1426173
132.1772265
255.1526278
564.3519167
695.8704417
536.1106199
436.4442867
492.735301
421.6480213
174.6245678
-60.74051685
-317.2955249
-731.8666804
-1181.035971
-1448.686005
-1595.623546
-1834.124848
-2108.315776
-2157.743179
-2023.671742
-2007.349427
-2049.297268
-1827.231942
-1465.345573
-1263.844273
-1006.809197
-529.035616
-244.7316025
-270.606379
-179.6351305
27.76602799
58.46590729
94.3875642
281.7760975
334.5725094
225.7349179
207.2581755
235.1413892
235.4291018
326.1841764
371.7712754
167.7614716
-37.31048781
1.902071255
86.42100783
150.2282948
473.4617823
1022.031243
1435.390564
1707.985721
2110.285488
2579.536884
2814.962164
2793.169444
2727.15331
2661.710482
2494.015415
2326.405589
2381.362955
2535.120228
2445.240097
2196.727378
2127.99968
2048.126941
1555.063678
879.3274516
390.4211118
-77.44376692
-577.1733071
-851.7624215
-1138.807799
-1858.660222
-2803.437337
-3683.511447
-4567.813103
-5286.147415
-5533.821783
-5431.614125
-5076.99644
-4236.215741
-2957.333403
-1565.851341
-82.18871748
1491.070588
2754.978722
3445.904344
3743.867361
3751.899275
3388.673159
2799.78566
2202.502668
1494.082635
537.3406705
-415.6900341
-1016.0842
-1360.059375
-1862.185106
-2638.940345
-3409.031642
-4022.807834
-4538.090807
-4692.201082
-4071.073562
-2872.839183
-1610.622908
-320.7911507
943.46813
1639.979344
1694.62843
1698.052686
1718.340956
1382.75752
870.5806157
510.6920522
196.4007012
-75.75887564
-133.0832571
-125.827388
-209.0041508
-246.8737919
-292.7298481
-551.5234559
-887.8125853
-1149.954936
-1522.74943
-1983.606662
-2141.160238
-1913.728053
-1557.846774
-1007.128043
38.99529446
1502.251854
3023.163243
4475.769064
5886.885351
6994.348742
7386.226588
7117.756968
6701.702257
6348.649691
5803.640121
5058.147675
4382.750884
3602.537485
2403.462094
1133.671511
143.842156
-952.5993267
-2346.332417
-3566.044633
-4463.550381
-5211.064926
-5509.775026
-5124.033216
-4454.075901
-3827.795111
-3227.994248
-2749.043323
-2411.105314
-2022.262791
-1686.044468
-1639.738463
-1657.429929
-1457.959149
-1221.595776
-1058.878019
-733.3121251
-282.1969639
-55.84265916
-39.54527316
82.51928461
291.2315262
288.3952984
33.88406614
-217.5303556
-311.7520374
-303.5911006
-196.0424545
83.73523192
370.8083404
383.9962277
274.3555188
391.4709508
514.5368147
265.7486049
-8.25762905
88.27467435
183.1398207
29.90222232
13.41417845
193.2374569
256.3449271
297.0886435
455.2215936
533.5735907
578.7195315
791.5693544
952.7202537
872.6359896
781.0200938
750.1949159
624.999703
536.9401732
612.0502941
575.645984
305.740258
108.0948631
78.27965896
-36.42490417
-242.8247584
-301.2902922
-248.4467631
-325.333521
-503.0187231
-534.2272958
-401.5216829
-329.236201
-332.5891352
-170.7543425
129.4229557
240.9049839
200.2730706
362.2298364
597.6552741
524.1550516
367.9738916
467.9001891
535.5619702
405.9340906
429.4714544
593.9591167
583.0138898
533.6403194
590.5697536
500.8930166
266.9677769
152.8365914
92.43527255
-11.17391621
-0.177649609
47.03639772
-88.82191109
-217.5518432
-146.326555
-155.9207859
-392.1441995
-530.1699292
-452.5650309
-436.1640311
-543.0561359
-586.6463928
-608.5031423
-767.2215787
-936.743608
-894.2560567
-742.4563469
-739.6978544
-803.5499919
-628.7342766
-299.9132589
-209.4157539
-314.6024021
-252.759903
-152.0707552
-314.0080244
-412.1996222
-160.9552491
2.293722949
-93.00108807
23.99583259
327.8686696
350.2171433
210.1749484
222.587653
255.9024099
259.0629898
361.6884467
399.3421152
273.8433911
231.5132272
274.3269641
164.6310017
18.88936333
29.94607057
22.46488479
-69.70749454
16.55030423
265.6699308
340.1042916
208.7387619
109.778587
43.93878261
-120.1240633
-267.5530608
-209.3243776
-57.19917743
-67.45039853
-184.1293264
-115.0552539
108.6612499
149.8492796
31.61628488
91.01465374
239.7124481
182.9983825
143.6225061
335.2516391
399.3989811
257.5561112
348.0587291
599.2541299
599.6609901
522.2241445
613.1531494
628.0732256
502.0369133
462.4423158
441.1814611
347.1336861
381.0249941
519.5979329
518.0190455
475.3447041
561.3652748
566.9873342
376.9653872
244.765442
230.4256277
97.82547031
-134.3361562
-216.1500145
-155.1807853
-155.9027872
-220.6417355
-191.4584581
-80.63336052
-54.76591481
-105.7288759
-53.52070078
57.18493514
-8.287255456
-153.223148
-98.89907622
-63.91059218
-416.2492568
-887.1957402
-1136.406458
-1403.759366
-1714.535913
-1640.786815
-1315.180946
-1239.477493
-1298.269943
-1232.125735
-1236.353451
-1322.243642
-1219.27791
-1017.223781
-902.8486424
-746.3341207
-555.83002
-529.8683619
-538.5807705
-386.7110217
-275.5900588
-356.3069987
-419.6641748
-385.9966311
-400.3668603
-378.5050035
-128.7063234
202.1893282
337.8440128
333.69421
443.0730821
680.307141
849.9324205
972.4097737
1298.853774
1790.193649
2076.494011
2104.851605
2129.933415
2009.762403
1506.585772
1060.955303
1082.836699
1144.666551
931.2077971
807.0056049
874.7026626
940.6638341
1258.278723
1951.260851
2478.630068
2496.894294
2191.999318
1660.830421
971.674621
390.4654742
-59.71042416
-551.6110341
-939.6774924
-1070.356223
-1190.176697
-1427.896475
-1543.225584
-1514.317968
-1590.666519
-1717.950721
-1661.158408
-1539.309885
-1597.812548
-1694.678031
-1549.590727
-1294.316691
-1287.628569
-1492.46918
-1558.619043
-1512.041788
-1691.476203
-1935.788196
-1721.291436
-1152.294053
-743.1255905
-431.5608489
11.06214971
273.1394664
270.5816045
459.2961386
794.5643669
803.0771482
586.4491263
472.6775249
387.0749674
320.9842129
421.8420772
539.2035982
550.9596588
631.3945755
738.4509975
675.2154168
631.8629739
799.1406716
894.7333663
762.236814
716.7915578
873.9475278
955.9762191
917.2113547
985.8287718
1119.380521
1062.029081
843.1585972
722.2272296
711.8272536
579.3402468
332.3144228
260.9886062
390.866462
419.9900887
338.5535116
410.9466257
498.3224396
331.8794897
237.9272566
494.7725509
622.1036682
314.9488821
-28.85111914
-257.8020782
-563.5832251
-757.9073277
-684.5949749
-636.1777618
-693.3259656
-673.8742989
-702.5025492
-874.3181549
-943.3524394
-907.3729161
-1012.04291
-1121.23725
-1007.51034
-901.9764917
-1016.754186
-1143.514787
-1163.572052
-1229.137425
-1291.2109
-1139.793552
-862.2316801
-708.5344596
-647.3814759
-477.166237
-239.4163979
-148.13432
-161.3669308
-34.17668742
158.314427
87.69928711
-139.4999266
-98.52052543
105.0917947
70.90308136
-17.08312946
134.1095364
212.2660635
79.31466147
141.5908881
369.8400096
343.6649435
178.1945912
155.6792132
138.4959761
80.75954705
132.3860089
166.7164791
74.89250123
33.24887201
15.56235694
-172.5512384
-411.6593116
-565.9072567
-726.0920478
-639.2555386
175.7407356
1438.522078
2277.866078
2462.652982
2504.412153
2685.202036
2839.683297
2929.108372
3131.041763
3413.966316
3524.190207
3416.585875
3269.864401
3013.653382
2381.970323
1547.331485
952.3188731
452.6786312
-368.6778058
-1231.337986
-1703.728397
-2092.075915
-2652.458959
-3027.988391
-3177.709179
-3477.823605
-3855.968585
-4064.290898
-4204.94495
-4247.026524
-3963.249191
-3444.378318
-2841.236046
-2084.971114
-1319.875152
-788.8427393
-292.5475639
390.8846149
975.2273248
1224.20815
1339.92766
1401.944724
1230.701238
936.4636868
832.1361646
859.5955965
727.3849085
462.1036354
324.0479667
303.968538
149.197885
-121.6290108
-190.2403622
-32.73056341
16.58120541
-40.32494029
132.415862
404.6712362
406.5637271
409.4080522
763.2018227
1053.415743
984.7403127
985.9435075
1178.573505
1184.334376
1047.135014
1006.556095
914.321366
709.9895815
563.6536941
401.1173689
158.206376
41.03405174
7.407733863
-188.8294234
-387.5086821
-353.2792718
-339.0473768
-565.5784065
-785.8969168
-849.1450263
-934.8112095
-1023.604635
-879.3671841
-575.2766038
-429.2594399
-474.7909199
-454.1408348
-302.4821427
-252.1073248
-377.1259213
-427.7187891
-319.6896919
-297.412164
-348.2609767
-160.162413
129.1455976
112.0549246
0.998905782
180.235385
371.8975564
356.2164907
487.6055087
773.9867907
790.4312137
584.0164862
436.9546722
300.5491522
191.3854644
230.7782887
227.3100949
77.62634012
49.72663874
162.5067306
160.5981908
148.5672184
319.8634686
429.2876367
298.3522028
191.1498963
209.9851497
105.9643113
-113.2136206
-164.047639
-71.49708966
-112.7916698
-269.5090569
-277.5906855
-155.5668013
-182.5975029
-320.6906105
-212.2782279
102.4127328
152.2913712
-79.31403767
-121.2733871
14.53349376
-48.10012252
-121.1063515
71.97196566
121.7398039
-176.9880638
-311.4142452
-150.0724536
-89.46954869
-96.50284268
18.85100718
29.15792507
-129.1667504
-189.7397842
-160.6751541
-159.6791296
-63.36405256
95.6496167
132.7323738
184.5236995
364.3493
356.3347848
45.08799961
-171.0259331
-138.9313274
-175.1582882
-361.8624022
-432.3958724
-338.928738
-284.7144146
-291.2660864
-199.5093896
-29.17109322
21.35270365
-43.13943307
10.16871904
166.3193256
140.3505977
2.073655432
117.1260283
340.4763873
243.6044161
37.65155954
107.2657554
173.158488
20.16232146
1.1886906
140.2651042
101.5856207
23.88594922
115.5872538
134.1754566
38.87551955
69.67468482
96.41125999
-54.66604552
-150.3141209
-118.3096983
-196.8780861
-321.1957766
-275.2659221
-206.0972702
-258.4456583
-256.0728124
-176.9163822
-234.6244689
-350.703695
-255.6878805
-44.14465119
-27.38328768
-181.9607406
-215.7419091
-83.3218895
-33.61139535
-113.2681406
-49.62912075
194.2517317
289.4687993
217.4145486
318.5350126
481.6041491
332.639095
159.0618382
374.6408427
596.8830164
480.0072992
394.6577014
479.1570519
429.0540057
344.3069318
455.6937451
554.9135198
525.3666899
528.0605722
507.2520315
384.3745074
314.4633359
244.2607448
-8.500460725
-223.1887203
-179.0014003
-163.7476333
-362.6265978
-461.4392277
-336.3726686
-299.8799885
-440.8624369
-505.7338617
-446.620184
-455.0772829
-531.4106742
-491.2237565
-352.7179231
-346.8946448
-485.11479
-486.3752756
-306.5485899
-255.2658491
-338.8704234
-192.8728251
112.9099048
170.8064903
114.2242714
244.8925637
288.6151197
132.2044982
228.522344
555.872177
600.2646006
405.7341913
296.5749413
191.434418
47.85988388
9.199840095
-48.16611622
-212.4980763
-260.2665246
-204.2655546
-274.700238
-322.0543866
-137.0235964
36.13954369
20.68998619
46.97226079
151.6623109
60.50320269
-191.8138603
-310.0283559
-337.4562029
-555.5586696
-920.9657963
-1101.114259
-1008.213785
-914.7711246
-966.7036296
-951.7268405
-768.2609539
-656.7036519
-650.1765535
-450.6171778
-119.9897233
18.25565306
179.5778233
680.2096419
1137.015122
1234.607946
1329.548307
1540.959635
1562.528247
1481.448593
1510.068969
1453.966514
1252.040347
1112.996188
975.0044011
745.1327995
622.042969
598.1428808
430.7462594
214.9921775
146.178086
52.37120148
-150.9364937
-184.1640139
-10.54934435
41.1897279
-88.79286397
-153.0251687
-126.6140304
-194.4412918
-355.6451051
-459.9245793
-531.1056114
-727.1647779
-969.8241181
-966.8704891
-749.7971224
-701.2150848
-821.3169969
-709.2017258
-467.361833
-560.1267539
-778.3785557
-644.9430467
-424.4329584
-456.5579741
-440.2574468
-256.0424853
-185.4500007
-136.3537676
80.41494647
232.9468194
224.2765438
231.9981787
185.6592285
23.39618909
-29.14222492
16.02124862
-47.5280678
-40.30105997
212.3806479
363.1581621
198.0088123
59.47474693
113.6192448
78.51605519
-97.5540849
-146.5924247
-74.19731573
-123.3947761
-247.1942276
-181.0196562
38.21926085
87.39449422
-79.64949693
-135.5644231
-3.829701269
-19.40188842
-212.633578
-207.6385267
-69.93626106
-205.4514184
-396.5516653
-210.1034022
45.85555622
11.4750306
-23.03735687
69.46833201
45.76943443
28.0257873
191.1769426
283.3380461
239.4391079
299.1663461
400.7644862
414.4352403
497.9276749
619.4673379
553.8371328
455.1753846
548.6451285
613.6925639
509.6624671
532.8267688
758.2462509
842.9928048
715.5555426
675.6813869
788.1186601
836.9325256
805.9511808
880.3195174
1012.625829
923.8411207
611.7724285
435.447511
499.0646639
478.5957562
325.2137496
379.8609927
543.1160014
375.1894843
45.52250283
-71.26144325
-284.6088626
-821.3325192
-1207.927689
-1303.450961
-1526.121236
-1842.04944
-1934.318092
-1917.48169
-1946.841419
-1961.511353
-2035.290769
-2135.973177
-1968.491367
-1585.035326
-1330.6209
-1133.916955
-778.4192059
-487.5951744
-430.8080067
-328.6576491
-103.8137168
-93.40159573
-322.3595753
-393.0782344
-192.3917115
-13.8088145
2.475128586
16.42633465
117.7207794
238.9284219
453.0119616
927.4100675
1459.907834
1590.266366
1383.378222
1369.771319
1527.740526
1361.717825
986.9115736
850.380751
765.1461226
490.1402267
367.3786019
493.9575859
520.5973986
483.0323268
600.3786483
723.8335781
780.0586411
893.6292121
933.92015
794.8085845
658.7277189
480.5431717
56.09333028
-369.527885
-500.9552548
-591.7022907
-858.5961995
-1017.905798
-924.1388132
-813.5374075
-699.9077715
-384.434702
-39.08302115
-17.58924515
-202.6430959
-155.7981212
180.8431998
449.7334206
532.0418596
700.2339084
978.7773347
992.396302
725.3931342
629.9610039
721.092338
605.3423965
429.5577046
528.2106817
548.8413668
207.3135377
-40.89477906
2.533616381
-60.82381329
-311.8094086
-551.3712651
-827.4238594
-1088.112553
-1139.645169
-1109.879396
-1121.234272
-984.2045927
-755.2642653
-737.9141626
-827.0003715
-773.145303
-748.4716027
-869.5672232
-837.1895887
-589.133869
-486.2613495
-585.2686639
-545.2138139
-306.2594503
-151.0148048
-127.3218708
21.14183018
335.3131267
501.7691332
367.8407053
196.1478766
156.8627763
41.96661881
-184.5846853
-217.4023531
-100.4570976
-174.2397643
-250.6572809
22.74233331
328.2013277
341.1285427
340.3933257
396.5110973
241.3519344
69.62272361
173.9747668
309.5254077
288.2358481
274.1071291
258.7435199
177.8431425
187.3859819
236.4115643
115.2513318
27.69498561
235.4131471
464.94906
441.0290368
381.8019771
429.1696566
358.4780798
143.5305706
65.41956821
165.3486839
198.850036
127.9273305
175.2712657
361.1756775
399.3515431
200.4986531
69.10025158
137.8222056
122.6606534
-21.89710083
65.76633187
342.7022372
371.5503103
264.0211583
406.75793
555.1819102
424.0316244
341.4683344
432.5463499
372.2564672
195.5250737
143.8484618
135.9600338
157.884526
315.0692618
382.1626461
205.8329216
73.2712469
80.6804434
-10.38704934
-148.3168843
-162.9682993
-260.0223905
-553.5855877
-722.488334
-654.5503185
-662.6510027
-821.5886961
-866.2757488
-779.7523734
-805.7397845
-931.6820691
-904.6414363
-726.2943415
-672.017038
-767.4311691
-705.8419136
-446.5060497
-341.6255934
-423.82929
-309.2980313
-41.08043848
-40.46028054
-193.1108728
-168.7044358
-230.0298455
-546.1772187
-670.0994766
-517.1540423
-498.303162
-523.4096991
-266.9532498
69.6806179
244.9589248
348.9839179
376.3643237
327.4041898
425.3396245
624.1382505
611.2028481
463.6143888
449.7020391
436.1063218
266.4079008
183.1444104
316.7025723
421.9084479
409.8765125
491.9290193
714.7446276
878.2650498
908.3807039
942.1133372
1029.483315
1021.922527
866.7541447
751.9473453
742.5035223
642.2399933
501.6050732
646.2612331
915.5913135
802.609403
468.1155766
429.4208211
524.0530967
410.2615411
296.7187151
266.097602
45.84772501
-295.5257071
-594.9044636
-1035.900505
-1548.629052
-1760.85964
-1749.203734
-1792.888103
-1794.087594
-1710.033989
-1736.512456
-1748.74529
-1499.775327
-1207.025349
-1112.5721
-997.4609434
-728.7798937
-559.9177818
-548.5654847
-414.0333408
-104.40204
113.9947942
156.0936037
237.3713262
468.643817
695.753018
847.3550846
1100.591765
1478.202357
1681.204457
1630.692667
1615.985225
1627.716815
1375.06224
1046.684723
980.0494823
905.1680498
614.9147143
509.4397431
682.6159396
733.2397815
655.0104524
642.7646657
523.5288907
254.4689938
61.95556465
-131.8192377
-444.8677777
-614.5389016
-559.3123155
-566.3425968
-648.7551757
-619.213529
-621.1405073
-786.6054676
-864.4677857
-740.7918523
-678.3077638
-774.7350287
-832.2544024
-806.7029371
-848.5199527
-946.2067055
-921.6073704
-763.1560922
-670.4244571
-683.4121808
-561.4298897
-243.2220609
-31.31850997
-5.891070802
144.5920549
401.847483
407.5250919
292.5774987
411.7563114
551.7376404
501.0040029
554.4753389
713.214101
645.6738543
522.5539218
601.3828846
602.7154073
404.823398
304.7677497
298.8854029
188.4714653
91.11280112
63.46234272
-79.57713953
-251.3957456
-232.5854902
-183.1542522
-280.5681437
-323.3138818
-208.8709979
-165.8889903
-253.0675895
-260.7213976
-154.2749983
-101.510173
-121.3441698
-73.47611413
47.34507008
72.46218001
-31.59225941
-57.93577121
69.40317111
151.2449691
183.348405
410.6370891
665.9409474
519.3765705
170.4903017
88.47493518
102.6912169
-12.26176943
59.65253126
349.1373059
448.8358868
384.5675358
381.5555185
285.6239679
83.11764834
26.38714157
13.93844013
-137.0901454
-207.6772693
-104.7240556
-62.89437203
-43.18701542
143.1066409
292.6971993
208.8872884
134.6602563
223.7052746
245.9012954
108.5370634
7.164188922
-17.29597358
-129.609866
-348.368744
-540.736903
-718.0220304
-1010.712241
-1324.555818
-1383.351083
-1277.117626
-1484.464158
-2040.758639
-2337.188805
-2072.638266
-1520.29177
-753.7651116
218.358875
858.8817278
882.9478074
819.8625539
945.0720489
952.3538726
898.8187099
1057.580784
1252.327987
1343.640112
1502.936572
1667.350358
1684.224059
1698.172142
1700.924945
1429.829272
984.2392255
678.8246057
444.6514024
129.1203445
-101.7649343
-187.4842311
-351.4318133
-607.6178136
-745.3647971
-822.7618143
-1089.151107
-1478.634163
-1643.192533
-1475.382996
-1243.667821
-1119.968492
-918.7346045
-531.6647606
-193.831963
12.85874581
321.9334363
646.0175427
647.2499066
534.137537
675.7043363
782.3622372
625.4946655
612.5226392
783.533742
652.4645851
299.5860683
152.7031962
122.8153653
41.557041
43.94393783
63.1378176
-64.44143784
-166.5136796
-124.2204108
-84.21593873
-20.17098983
138.3314389
126.1055698
-181.3169424
-412.5028078
-340.3120101
-218.7381719
-221.2410189
-221.5140227
-194.1613555
-253.8722416
-327.1076752
-219.044397
15.81613723
102.5543388
-7.746779645
-58.5175172
-2.698684595
-126.2869061
-407.8531187
-453.3748073
-328.5960439
-472.4455178
-719.7921737
-660.0975091
-591.153176
-793.3591542
-803.2295688
-445.3608858
-193.7544203
-95.64595668
189.5455537
557.8915261
775.987278
889.6808677
868.9860075
692.4508991
591.6881129
589.3934884
432.6346887
213.15705
235.3489698
420.6376756
577.8820023
801.1117324
1075.996224
1137.391998
1005.27581
997.6886425
1138.076176
1138.557733
933.9244996
745.7566363
629.929475
365.0781756
-106.2073797
-498.9674587
-672.5324064
-848.0793339
-1049.65444
-1007.736438
-905.5183725
-1211.163244
-1642.845906
-1605.458918
-1384.431398
-1520.392105
-1816.784801
-2051.198099
-2398.785751
-2717.078496
-2750.029141
-2680.554147
-2491.328395
-1760.060502
-561.4942548
529.6098037
1241.136496
1605.742278
1705.818041
1785.556283
1952.349769
1894.596382
1478.422486
1099.385717
1020.38212
1063.842805
1163.925244
1486.88966
1941.012823
2189.853644
2156.81098
2072.553112
2033.067893
1870.306269
1539.270806
1278.328949
1152.418992
847.912038
272.9285727
-211.0932932
-511.2092868
-909.6948328
-1277.054372
-1301.055533
-1271.641491
-1449.483639
-1444.614213
-1126.091225
-884.4463993
-677.1315399
-184.0844676
413.9647557
810.1842466
963.5833073
796.3570744
369.9010456
59.78831105
-57.62074061
-269.5836012
-518.7451126
-539.0505104
-462.3887652
-476.9776577
-418.486778
-268.4945183
-348.3546925
-709.3655682
-1037.40086
-1222.298527
-1398.831605
-1508.604364
-1362.1566
-1069.684448
-948.1721165
-968.9225246
-750.8802219
-273.7267702
-55.59420796
-306.8577515
-620.2999309
-840.4728882
-1224.965096
-1536.13041
-1281.605562
-725.2605303
-330.952067
85.59224799
619.9160204
914.3177883
985.3977393
1119.285963
1189.293786
1047.858641
880.0387896
790.1377433
822.710252
1120.427497
1491.862702
1523.566679
1291.948089
1127.717403
958.6501904
680.5942296
579.6566048
769.5235929
930.713798
946.2272251
1065.689072
1316.45314
1385.691829
1128.728695
732.6170586
328.0088897
-216.3837583
-970.854128
-1716.277789
-2277.894283
-2699.234949
-2776.203
-2071.725971
-779.7338326
327.5478262
1031.227271
1610.510607
1906.702912
1732.195739
1497.148916
1449.860127
1400.456204
1453.027384
1717.048199
1716.075852
1100.289991
144.528999
-776.145875
-1294.310297
-1035.493713
-261.3066107
252.274682
279.8821779
163.9519394
-8.986182123
-312.0390605
-559.6011934
-687.3527533
-934.9262009
-1308.791215
-1529.855664
-1593.550849
-1757.010996
-1997.224443
-2013.505602
-1783.867217
-1683.916387
-1913.869924
-2194.236829
-2299.449743
-2430.319279
-2660.124882
-2668.159349
-2463.411074
-2456.982412
-2572.961878
-2457.204445
-2312.021952
-2246.884355
-1709.508695
-648.2263206
107.6868203
138.081975
-216.2768819
-484.3333302
-111.2856279
1204.31719
2827.476253
3833.189349
4069.474786
3864.211553
3491.548782
3323.148047
3572.531699
3889.318178
3938.177718
3918.753748
3986.212261
3901.056181
3614.546012
3420.379463
3310.439838
2860.065357
1916.36148
898.6625517
251.4959909
-15.14347879
-32.46914073
259.3074506
783.963459
1145.758465
1238.380287
1410.729313
1620.590935
1402.606435
938.0599691
865.8804741
1120.387407
1285.585447
1419.276133
