1883.108437
1599.58371
1228.127275
772.6103566
598.2274091
605.7785863
339.2889937
-55.99233119
-189.4224393
-329.7934288
-767.4180523
-1187.140411
-1471.868195
-1857.535341
-2172.220866
-2187.117839
-2169.791788
-2243.064259
-2147.547793
-1867.405887
-1547.753295
-1138.14494
-728.6578052
-532.6570108
-375.0131606
36.00412447
608.8694582
1247.736607
2079.866042
2889.079454
3140.334375
2795.744637
2335.479436
1957.452056
1456.249595
842.8491361
468.6483497
463.0889012
515.8708448
407.091863
342.801486
474.4157978
561.1437491
470.8697876
403.2611506
336.2679716
100.5092656
11.85283332
348.6114112
638.7494344
547.8050215
476.547861
520.2356871
238.184707
-342.195075
-835.6442094
-1195.490484
-1465.391905
-1655.620061
-2003.298781
-2512.547698
-2731.9807
-2544.744429
-2305.209933
-2083.896257
-1763.164531
-1583.190246
-1707.161872
-1781.070524
-1532.723362
-1151.492412
-781.5412874
-324.3322253
173.6637413
529.8500264
799.6617125
1190.990234
1651.370806
1920.722068
2002.23329
2162.229344
2346.398327
2151.344537
1607.534458
1242.047545
1128.009935
848.6160799
428.5743763
125.5976162
-312.837866
-1031.467766
-1595.129759
-1889.436135
-2234.037571
-2508.952779
-2454.617557
-2293.098054
-2159.550384
-1841.964572
-1353.837445
-836.0491281
-216.6028604
419.814683
856.169473
1298.82659
2037.342788
2806.95595
3270.51546
3566.864908
3810.448624
3784.026955
3477.803408
3204.711399
3030.00532
2691.174948
2109.732499
1516.842641
1048.953663
582.4149163
68.41686941
-308.8075784
-505.8508228
-736.3428328
-962.634791
-888.9245453
-676.17085
-760.813193
-950.7707314
-848.2062406
-753.2258098
-957.256906
-1076.651594
-959.923768
-953.9470265
-1038.061649
-998.9272048
-1021.455263
-1203.900724
-1339.487591
-1433.784053
-1545.02416
-1477.871303
-1267.795731
-1219.240603
-1268.938637
-1180.506891
-1120.739073
-1244.971089
-1265.705845
-1025.648108
-805.0838766
-734.0315412
-610.0284966
-417.4443903
-393.2147354
-533.7761349
-533.4662945
-276.1064085
-0.69798932
141.483684
307.354618
533.8372977
578.2380898
471.7141936
567.8849336
786.3495992
718.3149262
516.6314034
551.0078048
580.1618828
401.4535981
391.2158271
614.7770481
694.2069577
677.6176394
762.0497038
750.0140499
645.8643129
745.8848745
918.3235629
896.4471547
873.5052416
975.2959089
965.1341478
850.9095584
831.4317921
736.7898098
396.388796
103.4306403
39.517414
-101.3643269
-471.7035429
-748.4491853
-705.1731492
-524.9156115
-428.7071004
-446.1350174
-613.4167316
-977.4050897
-1271.046064
-1043.529251
-377.4177699
73.27885352
92.83968956
185.5247131
539.4015202
778.8027153
906.2105077
1201.947477
1392.634709
1169.022236
820.9486757
515.4243898
81.90946532
-293.5767809
-354.1945376
-286.166702
-170.5671238
133.8231288
373.7932983
205.701255
-206.4724866
-613.2942183
-1003.798584
-1248.422259
-1248.269079
-1290.45461
-1537.889494
-1644.118859
-1379.299251
-975.1758752
-579.3562859
-79.05122584
434.1260746
665.2097486
623.136564
631.5816352
771.0790114
724.8703434
358.5342547
36.35010417
27.57375127
87.39694467
39.41807011
74.07053224
79.96014478
-312.9792646
-811.3584423
-817.2282
-479.0264569
-136.1888064
433.9921857
1238.277912
1816.962828
2134.46066
2421.232872
2505.573927
2275.307517
1980.753655
1705.674612
1411.400381
1229.912964
1060.141259
582.6140023
-59.37893753
-458.4818406
-675.2122329
-975.597279
-1305.829983
-1629.696321
-2146.711593
-2798.250412
-3205.679533
-3263.526006
-3234.084724
-3216.286805
-2997.142904
-2507.145702
-2039.044595
-1825.855178
-1719.085499
-1517.571872
-1196.326148
-566.2291654
603.9534916
1877.110735
2505.159547
2546.229926
2506.621705
2329.420785
1935.243938
1762.40198
1845.400783
1702.138464
1379.533902
1224.904471
1095.710013
837.0777101
636.1407219
492.4402977
302.7117173
235.3740778
301.6330926
233.1474564
87.4559213
117.7081744
168.501419
17.2907164
-135.2667379
-141.3338272
-236.4275108
-511.2329481
-716.5322474
-764.327562
-846.1416623
-1002.346108
-1027.940135
-855.936337
-675.2624834
-551.0876104
-292.550529
74.89934747
178.32064
-32.29786488
-136.6166031
-71.55980424
-179.0517658
-333.235547
-214.6867702
-138.1905602
-364.8001369
-457.427363
-262.4773519
-220.1071851
-365.9416377
-410.4139092
-447.4444117
-537.3004708
-425.7380568
-131.9639527
118.8222994
374.4101602
650.2947532
765.7657169
816.9514672
1027.308422
1227.71983
1234.82973
1286.528083
1498.334935
1552.236558
1326.740854
1128.41033
1097.314576
1020.042152
814.1776652
677.0636168
668.6742366
557.3458244
247.2975772
1.500334169
-26.76708407
-73.98842697
-241.1516534
-277.6752162
-223.7278381
-408.7885304
-643.7709294
-532.957618
-367.5457129
-523.7051643
-727.4912921
-819.0920412
-1042.875074
-1273.87367
-1253.28934
-1217.122301
-1356.447048
-1534.659908
-1832.711173
-2312.215555
-2559.621927
-2344.723549
-2001.222852
-1710.766952
-1334.533276
-957.5830608
-705.2968622
-330.7304712
340.2937308
1052.867692
1594.323827
2047.604015
2416.344466
2521.039764
2331.157215
2026.295501
1687.716942
1209.071899
621.3478997
207.7968574
22.27873789
-326.014337
-987.5739039
-1520.274893
-1661.767358
-1633.44185
-1402.527945
-761.2150542
-60.09547152
333.5197656
707.3949676
1224.225939
1558.663003
1668.38618
1730.337922
1624.101857
1362.502403
1225.70045
1160.548204
984.0151998
862.5956831
838.0765108
635.4188053
311.1801521
169.2416614
97.21499213
-140.1794245
-360.3140323
-392.3644582
-431.5267857
-552.3091612
-542.5858307
-397.8056865
-370.9870784
-498.7348058
-564.5628666
-528.889005
-584.1680549
-715.334908
-629.912388
-332.9015587
-248.2209273
-443.0568895
-460.5776265
-272.9707259
-376.146014
-716.4952448
-803.5870071
-753.606469
-888.7972669
-968.6695418
-873.4308141
-912.7555048
-1000.349773
-809.1649343
-502.7861531
-299.8420992
-74.13405143
161.0637598
293.6704317
480.1371389
746.1676208
839.9052159
813.7575061
917.2482779
1007.553781
889.6164137
802.0525225
904.2408695
921.8890567
725.903466
563.1142425
513.477243
362.3610899
75.86437482
-119.4020985
-167.1628423
-279.8785449
-513.6149425
-622.8232754
-539.598538
-553.7679552
-712.1187588
-662.8399391
-426.6438069
-419.2571043
-527.5010654
-351.1749879
-157.2428693
-292.0492064
-390.1641054
-224.9905894
-131.580587
-123.4770917
48.03721121
202.1544838
176.8726843
195.9918891
289.2198447
294.1037848
316.760039
413.5477074
394.2488965
335.2400575
482.2179176
675.844886
681.8902178
701.9443973
896.3262346
1015.090202
946.2941578
945.9862843
1090.704148
1125.271586
957.9131304
812.179253
802.6694565
738.5599988
507.1544523
324.0985277
330.5060618
318.5398305
214.3934653
262.829331
354.4042118
42.32771112
-524.3170254
-836.311348
-1043.463798
-1462.031051
-1764.621999
-1741.247435
-1735.577178
-1822.837732
-1796.462404
-1754.398196
-1738.863669
-1537.736079
-1231.07172
-1013.807381
-709.2704501
-237.5088443
109.9845947
288.1576248
522.5026998
707.4577813
632.0812994
475.0679273
393.6979251
179.2181527
-226.1417594
-528.891691
-643.5774445
-796.1174411
-931.3540413
-618.7945866
254.2110921
1175.701559
1674.824707
1858.226626
1911.710659
1618.475693
924.0469259
316.6782162
57.1895593
-129.6379934
-247.4783723
-62.4987059
96.24076819
-146.3021813
-450.8021989
-546.662178
-690.7169219
-859.5528873
-768.5517107
-532.2346926
-289.9385661
107.6411692
552.3722086
754.221564
769.793155
686.1955412
375.7033979
6.720985497
-60.40770898
42.81599476
-26.47779395
-152.6851905
-111.536889
-60.2200644
-121.7338763
-73.17108331
204.1066119
492.2025811
623.4662207
670.6093951
660.5912683
470.1964291
153.0477916
20.79468931
144.3558458
177.4650712
8.875815574
-12.87545556
131.1979184
16.22771465
-293.248911
-354.2256682
-286.4781125
-362.2857763
-320.2834937
-102.517344
-113.7322054
-299.561624
-304.6964288
-283.4901601
-434.5573251
-521.6068785
-453.133609
-380.5085766
-240.3182729
-3.876112501
116.0129099
149.2253759
316.1040542
482.8900564
456.7765421
469.7777427
679.8414706
770.7419957
556.1984561
326.384611
282.1855026
235.0305419
52.0618889
-95.23139979
-91.52733231
-118.7661591
-307.1238215
-444.8756859
-368.5631774
-294.1532194
-332.6282458
-216.325005
37.35283862
36.51481216
-97.14459132
80.3093447
327.2474495
237.2297133
135.711205
294.2960916
388.931555
355.831719
452.120394
553.3834434
480.8218618
366.8367623
178.2067636
-198.7594197
-505.0375205
-574.7280586
-665.4508174
-830.683476
-820.6595782
-718.8564291
-790.3148176
-907.1879716
-852.6768655
-751.0919394
-697.6021767
-519.3966093
-201.7722286
-20.69232483
-83.98367489
-163.9968874
-115.0499283
-107.4112376
-237.5860741
-242.8269633
40.64123751
326.6381301
445.710859
677.1005711
1037.860402
1141.946355
1097.188648
1318.626555
1523.817766
1312.342589
1090.468547
1183.913273
1203.41193
987.1146514
800.9498296
616.2445267
326.4749303
85.97941608
-150.8807741
-561.1301197
-960.7200215
-1175.0729
-1389.822154
-1648.582044
-1754.296966
-1758.912402
-1779.038398
-1602.908211
-1139.747588
-745.2613525
-635.2876092
-574.6862038
-397.4221013
-257.7555364
-244.5899479
-222.8504542
-158.5704199
-229.0564926
-448.3047832
-536.4370647
-438.6088757
-516.2433027
-813.0826112
-807.4984636
-383.365691
-97.85911915
-97.03058018
42.79059934
371.1030151
716.7987016
1236.485951
1803.631013
1920.952318
1673.986272
1505.24592
1343.426751
1050.640727
890.5540848
931.2856062
968.726113
1039.594766
1185.917417
1216.929658
1175.38174
1265.730092
1270.33218
885.125067
347.7131002
-14.57899563
-333.2479442
-725.3031561
-915.244034
-745.660952
-490.4413175
-393.9932846
-348.24964
-227.9716341
-196.1377884
-404.8421501
-665.7757641
-796.0281451
-977.9444853
-1284.46407
-1350.544396
-1073.165034
-857.6070137
-757.6778464
-476.5233659
-236.7926027
-356.4891657
-501.1293384
-463.2596161
-583.7093095
-818.0082543
-747.3964972
-443.577413
-167.7543662
148.7259549
476.8436252
637.5748881
735.6275693
863.1494037
825.8770737
640.8169863
560.3902115
501.8286586
265.7229758
90.56517
274.0947045
666.1028891
1011.009661
1274.582322
1403.849851
1288.406994
1059.803985
1005.001729
1117.029499
1063.547313
716.5148833
380.1943538
245.8195957
47.06631109
-337.4411093
-558.5821707
-563.6232548
-771.9228269
-1088.782408
-1009.678233
-776.7933653
-953.7619532
-1290.88454
-1340.987805
-1247.353126
-1136.821346
-936.1359515
-845.2055876
-962.4150975
-1009.06495
-943.9179599
-957.8626729
-931.5667374
-757.034154
-657.0210835
-636.8890759
-428.0793359
-114.1335443
55.07677217
229.1915496
560.7835664
751.2706013
592.0595507
349.9464909
236.3732811
88.10112351
-202.3338978
-415.5339392
-320.1385961
52.07093924
571.8812203
1201.082724
1811.827902
2103.616114
2035.034597
1938.57668
1853.178362
1448.482026
863.7074953
552.6642346
337.7571271
-132.7197892
-550.8701362
-682.9641142
-863.1762252
-1152.189554
-1289.253407
-1381.063374
-1541.829142
-1543.06265
-1419.39024
-1456.659224
-1566.759164
-1554.640979
-1535.588329
-1528.790162
-1375.74203
-1214.560957
-1241.13108
-1216.938712
-908.5444387
-532.0935045
-258.945521
89.6924031
551.3721231
876.6116681
1052.190595
1406.487664
2044.108418
2629.312948
2933.249485
3188.529043
3580.408034
3839.511609
3787.325716
3683.128663
3543.235662
2993.126014
2165.670312
1580.809254
1138.857522
549.3574251
146.6279631
79.17785246
-152.9154061
-659.2700471
-1059.542056
-1381.313525
-1809.572376
-2166.540135
-2362.60749
-2479.42561
-2375.91031
-2061.412237
-1916.967446
-1952.581122
-1703.966613
-1103.289264
-526.8582428
-93.09997569
252.7311891
324.141313
18.48777
-395.859603
-688.0173021
-887.6461738
-963.4987812
-763.5042723
-390.3848595
-230.3968068
-412.2217815
-578.1625337
-496.8834307
-491.1571408
-798.722647
-1092.812954
-1174.947519
-1277.955875
-1248.109666
-645.0398289
210.5293063
678.4218692
877.9247572
1097.095502
1143.459795
1057.606774
1178.654466
1408.032804
1524.084313
1657.252474
1808.806903
1791.313168
1688.681045
1543.246552
1096.196874
397.8321276
-134.8423462
-453.0511457
-815.8026678
-1189.701778
-1457.861705
-1755.275005
-2024.537733
-1864.906424
-1229.049246
-640.4306027
-449.9647071
-426.1774866
-285.3001938
-144.753356
-177.6184425
-248.789374
-320.877372
-779.3820043
-1747.893265
-2613.536784
-2921.798956
-2989.608502
-3046.139887
-2827.332612
-2305.994462
-1619.153234
-527.9733738
1004.668204
2506.396209
3774.91151
4847.524677
5404.592355
5292.546557
4932.455273
4592.233852
4207.127895
3918.389848
3834.757018
3691.133758
3361.276378
2977.184357
2360.017126
1234.434503
-121.9655383
-1263.707254
-2214.64264
-3078.261261
-3581.811729
-3535.544734
-3258.008579
-3181.666235
-3368.565068
-3642.959678
-3922.595793
-4119.079864
-3925.921312
-3141.214006
-2023.517042
-871.2189155
351.6875701
1489.788705
2093.480469
2308.788838
2742.038452
3289.257292
3449.841029
3379.899789
3317.479334
2927.952823
2109.538758
1239.274483
438.9946705
-339.6190649
-974.8060426
-1528.065006
-2152.867494
-2657.043769
-2900.423683
-3087.232474
-3191.622678
-2941.772894
-2485.815014
-2160.937229
-1827.480801
-1240.566011
-619.2641665
-230.8255698
28.86738727
258.6494626
324.305265
229.3630882
222.1078231
353.4857661
312.3315826
-71.59088217
-483.3213357
-612.5870952
-614.0049694
-604.0755045
-250.7506703
531.0420147
1259.257862
1774.470355
2365.173603
2863.101707
2946.625235
2952.851239
3154.800099
3189.395799
2934.437103
2657.28659
2273.857093
1675.365267
1179.225854
895.0492383
579.8134776
254.4713258
34.01696809
-243.628939
-562.2949387
-641.4845439
-557.5146152
-597.9922383
-621.1525833
-359.675668
20.50661874
293.9301983
591.1136697
1007.08637
1304.820789
1285.881468
1050.388123
714.7687788
215.5095062
-399.1516051
-820.0388099
-973.8502653
-1295.297059
-2015.209495
-2727.889815
-3237.888682
-3960.741209
-4918.280373
-5521.473175
-5664.02789
-5729.819911
-5767.178056
-5797.795716
-6064.247689
-6305.31118
-5984.885314
-5172.223321
-4110.29875
-2702.916936
-1102.190832
366.8641162
1939.436469
3871.704015
5643.088646
6640.428135
6845.551162
6368.29639
5289.028798
4079.868574
3267.766361
2853.280376
2681.570715
2874.950732
3417.678072
3904.425166
4087.598763
4193.896663
4393.966388
4371.67299
3836.437581
3146.761161
2836.194505
2794.269709
2623.113003
2383.544574
2197.431096
1783.923897
1082.027242
375.5251917
-477.3675121
-1723.52244
-2938.653716
-3728.64411
-4301.60283
-4667.879073
-4564.341745
-4191.578151
-3842.313942
-3436.529301
-3119.854263
-3252.307246
-3659.869619
-3937.226496
-4080.726507
-4071.538205
-3614.357411
-2677.646873
-1469.504967
31.93062075
1721.059478
2952.562697
3204.110475
2688.529875
1854.973816
786.9539183
-548.3096041
-1827.729364
-2535.556677
-2525.689924
-2123.087286
-1664.438711
-1261.679647
-916.9305284
-409.2616609
645.5272377
2097.40609
3225.673668
3811.553533
4233.945536
4430.083829
4170.667335
3983.925593
4350.076363
4811.697994
4881.534805
4652.592397
4173.031129
3379.401523
2431.95618
1438.779443
431.1168148
-375.5883564
-989.0462074
-1778.465974
-2695.436292
-3223.308283
-3301.303649
-3334.38377
-3417.855024
-3443.440787
-3582.028539
-3938.002526
-4222.535547
-4225.624671
-4070.481774
-3752.129284
-2985.292936
-1763.171862
-599.6961727
115.6974078
611.8298549
1164.119909
1515.885951
1482.005925
1487.539358
1764.945871
1903.483293
1857.281379
2147.242946
2676.742641
2829.800726
2605.716717
2281.056778
1718.822557
935.0957203
225.7503188
-431.1590406
-1031.299524
-1230.542443
-1100.016843
-1142.25045
-1361.627127
-1396.858169
-1265.047803
-1162.572354
-1143.598808
-1348.516065
-1793.421999
-2014.989109
-1662.673316
-1049.905539
-540.7738136
-8.712948617
646.6394931
1093.991054
1044.523642
622.2303213
-6.876424259
-935.6823688
-2104.951318
-2982.417572
-3176.891785
-3032.043514
-2983.980502
-2828.036308
-2355.654457
-1947.552655
-1816.533352
-1704.613921
-1701.191778
-2060.571913
-2381.873962
-2197.372845
-1554.562717
-270.3635492
2010.375587
4790.460704
7073.56862
8388.368173
8688.507973
8081.36243
6921.20439
5441.134837
3742.126627
2550.274536
2822.446511
4296.847308
5685.598536
6253.348148
6028.818471
4905.422153
2749.046829
25.45168802
-2527.139647
-4513.957767
-5735.080244
-5895.380734
-4933.816395
-3354.789701
-1804.304769
-504.9385638
517.5367521
1012.939917
897.8306193
627.8620725
535.6732311
430.3566715
328.2211853
515.7254002
646.7485148
119.0163486
-855.0087589
-1799.742317
-2771.099694
-3737.157585
-4362.775591
-4652.466424
-4702.760506
-4275.797463
-3358.130768
-2292.437055
-1171.261947
3.357388679
901.2945572
1307.174975
1369.03967
1141.849928
644.6799242
239.3120862
183.6126154
178.6486928
-59.92995001
-334.5040644
-461.8574832
-638.1322432
-1031.033844
-1482.565698
-1812.241911
-2079.286995
-2355.389945
-2509.587781
-2486.597731
-2485.307337
-2481.474255
-2091.642228
-1413.553093
-1152.759788
-1372.346634
-1286.158171
-588.8036868
396.2860331
1634.412366
3058.474847
4148.52572
4783.411451
5356.850184
5858.315841
6035.994336
5994.897459
5776.413517
5187.555192
4343.964573
3505.667469
2606.17799
1581.00436
572.1535205
-470.3276498
-1665.905015
-2771.473865
-3543.558567
-4150.702642
-4707.881983
-4959.20455
-4786.597127
-4482.009299
-4298.616233
-4179.033909
-4066.826839
-4114.546146
-4341.127467
-4371.632229
-3938.798355
-3401.124519
-3209.431105
-3213.316323
-3102.074394
-2876.534415
-2363.052553
-1320.22643
-204.1961885
590.0016967
1803.070119
4051.699255
6511.66934
8100.396398
8636.791673
8335.981227
7527.654721
6757.881
6328.826553
6287.092528
6854.191544
7971.802579
8935.534833
9221.043716
8883.743807
7891.606628
6119.213959
3990.887962
2156.045794
725.9975011
-512.3527478
-1583.187179
-2507.48297
-3527.216487
-4811.551853
-6248.770946
-7639.936427
-8813.619196
-9463.206846
-9202.822005
-8067.054842
-6640.152915
-5274.553443
-3688.131324
-1909.800181
-730.6046723
-442.4951152
-301.5962537
139.2754964
526.2401876
612.8026639
341.0360458
-420.4750185
-1318.528379
-1753.125492
-1874.988507
-2191.699135
-2676.016243
-3136.707245
-3572.639946
-3801.383576
-3656.050039
-3342.173392
-2937.912558
-2214.041481
-1312.523362
-741.270813
-596.6553675
-537.491008
-330.6483619
129.3194264
929.1591178
1880.495207
2581.437751
2940.84288
3279.782722
3796.594668
4251.613444
4391.611511
4415.054573
4613.343436
4798.014139
4653.60035
4296.549666
3824.657246
2978.032997
1879.838036
1057.579335
366.0962906
-729.8511361
-1978.083412
-2891.972979
-3680.592703
-4506.722419
-5021.632895
-5113.341471
-4924.316399
-4388.301552
-3621.273234
-3049.915724
-2794.873115
-2694.358207
-2687.660144
-2561.609034
-1978.320068
-1080.099455
-285.4373278
424.9484034
1252.742801
2098.665828
3016.638553
4420.395733
6299.46645
8033.387768
9356.096104
10718.11101
12354.48417
13644.32043
13799.12662
12726.22722
10781.27542
8168.977195
5217.370877
2647.249206
748.6608424
-1011.892853
-2895.358357
-4484.145018
-5729.935626
-6950.193441
-7863.875096
-8078.732589
-7868.58279
-7488.706546
-6912.672034
-6517.475426
-6676.531763
-7029.545252
-7126.167669
-6954.954457
-6461.358427
-5575.747037
-4613.725178
-3845.316666
-3151.751401
-2480.882849
-1898.277392
-1192.963413
-235.7067107
542.3223101
705.4941865
424.4099578
86.97444803
-206.6484964
-489.0512629
-716.2105688
-927.2651273
-1297.064179
-1816.329125
-2156.014197
-2127.938818
-2005.701681
-1975.62019
-1691.243958
-925.8141676
-10.50676656
918.4139618
2100.911462
3277.032723
3976.440226
4522.617045
5334.152304
6006.858458
6211.578814
6266.063958
6314.135991
6240.562377
6190.326785
6177.437369
5861.12637
5135.515849
4130.258946
2824.116058
1360.073382
144.5886411
-756.1204279
-1559.008318
-2127.179941
-2197.938295
-1953.530784
-1680.744973
-1304.151528
-732.5509379
-181.4060755
165.1465372
403.7094345
596.7052263
533.5540572
96.43955992
-385.4919348
-585.5480343
-728.7111219
-1098.581558
-1425.801942
-1511.329401
-1721.780419
-2099.653072
-2104.299072
-1790.377933
-1825.768829
-2294.830736
-2906.288767
-3727.642924
-4605.749938
-5006.718358
-4885.920456
-4517.922422
-3800.606357
-2657.313377
-1300.430203
270.3508981
2053.885143
3572.381634
4471.499426
4983.837955
5309.611321
5358.111265
5211.375504
5008.511531
4550.743979
3687.91491
2699.006633
1836.859017
982.2622956
21.50517903
-899.2154753
-1691.577981
-2496.657463
-3278.991873
-3590.103711
-3173.655198
-2504.433958
-2144.774171
-1994.10751
-1863.721397
-2046.389317
-2561.549974
-2894.336598
-2977.534245
-3088.454641
-2894.876018
-2125.647895
-1433.75449
-1327.6732
-1433.747299
-1406.882135
-1257.752279
-892.5458881
-363.9614187
-29.22443926
-42.21602022
-383.4836408
-1126.874882
-2020.126473
-2478.625875
-2380.340058
-2038.748422
-1448.392294
-498.3365793
421.3672098
942.0628569
1389.788458
2227.599563
3300.451903
4154.453646
4719.467429
5264.752218
5913.742665
6580.045324
7260.866046
7954.964099
8373.627452
8266.845059
7843.595809
7265.458069
6234.571678
4715.012757
3170.112075
1666.516486
-13.89829303
-1446.556316
-2143.081679
-2430.861675
-2697.13
-2866.793588
-3043.283754
-3402.708823
-3696.911994
-3789.215738
-3881.721396
-3829.391055
-3297.836374
-2515.252271
-1942.106384
-1631.414506
-1454.946885
-1312.145639
-970.020145
-365.1119127
119.053553
194.4317206
44.33175848
-170.8706443
-602.0159913
-1277.970921
-1891.785611
-2202.944006
-2343.904613
-2589.388956
-3028.907876
-3637.090476
-4396.188769
-5007.749044
-4894.345454
-3997.364792
-2942.452922
-1939.619347
-592.8725637
878.0611402
1686.297399
1736.08402
1433.700571
919.768331
533.6888259
805.8187845
1494.083085
1878.687982
1759.334074
1255.324235
455.427111
-288.8712496
-647.4828667
-764.2292414
-771.0807573
-545.9783671
-320.040085
-543.3333342
-1047.729931
-1276.084593
-1113.935748
-733.3738959
-121.7732456
637.8947652
1210.077088
1544.620852
2032.820884
2838.425385
3546.656377
3802.393944
3858.731851
3978.049173
3735.364519
2699.336834
1339.164961
357.9806424
-211.8431332
-442.3445352
-126.0358088
444.1333392
685.3430723
796.0093188
1222.920714
1689.40871
1861.581984
1857.849125
1625.100356
1040.469486
395.4762823
-134.184325
-748.073086
-1417.636843
-1956.49152
-2430.360015
-2719.910305
-2421.031493
-1673.273501
-1125.955932
-936.456857
-770.7122374
-598.809849
-582.5144242
-532.4051557
-198.0986105
256.2524879
502.8583112
476.4322048
344.2707044
317.8276261
642.5873225
1512.913986
2730.938801
3702.767508
4158.297414
4474.889578
4791.851564
4578.49746
3725.685074
2916.731909
2343.59238
1460.263081
121.6109195
-1512.643346
-3659.950451
-6232.223274
-8446.152982
-9741.209614
-10021.74413
-9195.447624
-7443.862752
-5313.105284
-3065.70618
-719.1546165
1450.538805
3199.374068
4528.383108
5180.104664
4782.157348
3575.157045
2102.476824
450.4988515
-1398.25363
-3011.875974
-4011.625289
-4533.501422
-4698.761812
-4237.150531
-3104.103077
-1979.350003
-1556.147551
-1569.3657
-1192.295387
-251.8813898
757.5518747
1639.895943
2457.756476
2908.620405
2791.0155
2468.752459
2167.098096
1838.247805
1855.919113
2536.191938
3407.379727
3988.938442
4314.012707
4277.201017
3715.765873
2953.523655
2299.447838
1671.304732
1094.374873
651.0262953
88.39267607
-721.8476579
-1512.166082
-2246.12836
-3120.047404
-3841.916295
-3913.794219
-3486.24792
-3053.004564
-2647.821881
-2037.49442
-1291.324128
-632.0325345
-32.41399413
673.2538493
1453.467523
2139.449877
2684.155808
3019.785309
2869.05934
2223.543039
1642.494137
1396.667152
990.7627945
252.9431903
-224.2675377
-298.5199974
-430.6279671
-498.9533898
-80.91876775
574.1930642
1158.821673
1835.231386
2486.70915
2713.005259
2536.740277
2131.340504
1493.176578
836.7185924
379.6497301
-148.9154063
-930.1217245
-1595.205735
-1931.119453
-2173.984527
-2349.512014
-2221.911686
-1827.468788
-1311.562968
-591.0653092
261.2400932
793.5090014
736.0852721
320.9563151
-226.0855485
-1083.860541
-2392.173596
-3735.257117
-4567.426782
-4932.377877
-5138.997767
-5044.899863
-4451.232506
-3696.418897
-3066.655335
-2452.589108
-2092.40739
-2366.274421
-2781.248921
-2609.802278
-2007.781331
-1325.865841
-428.2868025
656.331305
1666.900999
2654.388405
3641.401454
4380.191007
4894.280302
5358.766557
5552.435816
5280.152821
4824.226245
4423.393384
4046.33786
3839.417487
3964.034994
4142.355178
4101.516138
4065.108844
4231.378467
4309.430974
4028.477878
3583.155894
3171.03015
2500.143363
1189.505668
-620.423288
-2542.244804
-4524.938012
-6499.050854
-7867.9347
-8257.12891
-8166.624547
-7932.055763
-7008.87153
-5089.523582
-2656.682827
-139.0952767
2100.183599
3410.17028
3709.162898
3698.015242
3662.723576
3331.847161
2709.485936
1871.181804
677.0228035
-587.9259652
-1265.490282
-1180.579635
-591.4003522
310.1965184
1216.795856
1726.361862
1856.892512
1816.7823
1403.950058
402.1028243
-815.2515345
-1786.119443
-2621.570249
-3621.329869
-4648.816666
-5339.730896
-5619.68469
-5582.885344
-5095.945815
-4066.383351
-2908.898218
-2075.089367
-1419.236217
-790.9048028
-620.5663668
-1050.660868
-1482.196816
-1701.116792
-2094.951625
-2485.135501
-2320.525961
-1736.930495
-1093.84826
-312.5732595
582.5795926
1375.324481
2175.667302
3130.981502
4102.021274
4982.717122
5593.427841
5544.722096
4981.611393
4694.169857
4915.104061
5044.679944
4817.035749
4565.988679
4329.585381
3810.649752
3113.806834
2668.522282
2597.874942
2689.854449
2770.486
2759.685151
2545.737584
2130.561066
1804.232979
1789.616064
1791.177017
1419.416955
872.070405
496.5021675
119.2490266
-402.0212901
-776.8706327
-1075.331066
-1706.593318
-2399.815017
-2641.578847
-2728.921681
-3119.446436
-3645.356573
-4062.053332
-4288.116459
-4192.159757
-4026.924388
-4304.814974
-4803.598462
-4811.917522
-4291.083122
-3700.839249
-3162.359626
-2601.602984
-1999.018016
-1123.574329
154.2092811
1311.512414
1723.315939
1448.636263
851.6213276
-36.71249951
-1250.996643
-2469.032771
-3304.404427
-3729.573606
-3865.402851
-3564.936575
-2625.877985
-1265.46145
134.552362
1508.169248
2715.975035
3288.321337
3361.435015
3878.039602
5059.118245
5972.764878
6035.340068
5496.457274
4618.886721
3617.51533
2717.889842
1680.390894
232.5467995
-1205.131789
-2131.761338
-2620.135629
-2920.299851
-3314.741441
-4207.83959
-5491.142104
-6431.574751
-6749.976943
-6872.175592
-6903.928107
-6466.118635
-5543.297118
-4507.696005
-3479.957937
-2378.998071
-1271.685675
-174.7205421
1131.828532
2703.81661
4113.908165
4902.22562
5170.685761
5305.253645
5338.200894
5238.741453
5480.640219
6369.890588
7284.176198
7578.801544
7462.004889
7201.126622
6679.58607
6085.581766
5662.065594
5104.456919
4331.674811
3822.401597
3601.210621
3232.118371
2721.002401
2273.11642
1849.647725
1609.835306
1793.636465
2099.801087
2120.514895
1939.117617
1625.520392
938.9081402
-102.7210956
-1241.782319
-2591.317465
-4395.865871
-6430.215288
-8331.629701
-10138.63117
-11935.76453
-13350.80303
-13893.64108
-13517.65054
-12410.83054
-10540.29562
-8063.721925
-5926.922534
-5100.355969
-5343.487938
-5632.637615
-5404.421771
-4490.996294
-2723.850733
-473.9953839
1539.459373
3317.927018
5221.404142
7030.64616
8557.328346
10112.86782
11646.08076
12649.3169
12898.30875
12256.37209
10436.24546
7615.447601
4448.826872
1457.902594
-911.7872368
-2318.222769
-3156.126431
-4199.246277
-5376.543941
-5887.153137
-5390.795168
-4191.479892
-2686.22385
-1410.17923
-1058.329235
-1765.608528
-2773.457793
-3301.142859
-3456.160974
-3867.403005
-4650.893836
-5290.672934
-5414.475675
-4999.026632
-3971.657822
-2427.854317
-891.4014474
425.9168593
1849.393965
3199.130522
3853.421652
3980.039705
4114.739616
4012.078207
3361.179546
2602.226885
2171.958286
2178.857791
2846.221572
4159.11882
5652.308575
7099.730446
8441.348926
9127.612222
8687.620842
7512.378992
6210.77667
4892.216928
3558.954826
2338.152868
1109.171662
-318.8416172
-1669.520625
-2439.747717
-2558.347931
-2416.950782
-2392.722233
-2615.114382
-3072.165272
-3605.214954
-3833.440917
-3529.776289
-3066.678652
-2918.979498
-2874.562537
-2513.816671
-2079.721927
-1961.902102
-2025.069545
-2198.920939
-2611.793904
-2830.558082
-2348.416725
-1511.383004
-772.9243717
-36.72893996
567.7819701
612.5434091
153.0611608
-542.9494632
-1461.508562
-2352.298591
-2714.799737
-2494.80304
-1982.027706
-1344.511522
-833.015486
-775.6880718
-1093.781898
-1533.621045
-2221.639462
-3248.266869
-4124.00106
-4345.577172
-4075.209817
-3786.236803
-3631.487314
-3488.839993
-3321.52077
-3157.510798
-2863.573963
-2314.035273
-1685.14053
-1127.582369
-402.237497
525.984755
1091.698051
1123.070193
1311.131148
1991.642563
2783.786597
3703.912492
5032.81287
6398.566303
7403.265548
8221.957411
8775.855326
8641.390547
7934.347526
7138.424285
6516.8006
6296.971379
6560.585469
6868.308683
6833.047694
6635.514904
6414.366902
5965.113664
5324.347781
4743.879945
4109.469083
3198.154825
2233.652522
1547.354551
1070.221747
579.6759291
55.0248488
-532.0926543
-1488.539639
-3106.248719
-5192.837381
-7265.240642
-9122.067779
-10699.57449
-11622.81633
-11747.38603
-11702.55394
-11908.28469
-11873.64786
-11374.87001
-11023.45588
-11024.87068
-10818.10568
-9948.345935
-8094.503459
-5003.24737
-1188.657618
2318.806707
4963.832831
6555.893293
6896.614018
6129.376547
4613.624282
2540.532682
497.0685445
-381.9845494
304.1026576
1742.853352
3259.46194
5081.354325
7441.670634
9895.458087
11712.61923
12336.99225
11569.38503
9811.871555
8010.745501
6909.784625
6340.058635
5568.943934
4281.438587
2716.929091
980.3421268
-934.8852643
-2550.023264
-3364.929978
-3704.518886
-4121.284253
-4627.348756
-5359.820431
-6766.944562
-8563.594485
-9991.615428
-11094.50784
-12373.0874
-13797.39659
-14941.69911
-15148.3019
-13655.96786
-10609.34707
-7232.526598
-4331.89494
-1710.328372
785.9019015
2872.145227
4411.843362
5584.323051
6712.102203
8045.66635
9199.75125
9213.585664
7891.912475
6429.897015
6020.855744
6560.36145
7212.406091
7495.828555
7337.276892
6649.237929
5456.812269
4231.647784
3527.773618
3291.818006
3058.58319
2690.561972
2242.640155
1498.113077
518.0061527
-26.47406565
164.6534056
725.3120772
1533.676666
2510.164
2912.604708
2256.809062
1057.829617
-166.6697564
-1367.946573
-2319.371249
-2746.260108
-2768.805431
-2548.24517
-2194.085461
-2044.042129
-2220.781806
-2369.833176
-2427.226876
-2786.11054
-3374.818302
-3609.452399
-3370.53215
-3090.711923
-3008.04719
-3070.013758
-3289.288746
-3639.182683
-3853.502286
-3715.43145
-3392.69234
-3196.218559
-3109.181302
-2918.831402
-2717.54648
-2711.625748
-2674.939029
-2351.42738
-2065.318115
-2045.872834
-1844.803102
-1271.606274
-797.1934974
-511.8732481
-53.94891056
499.6786946
956.7118638
1538.836289
2276.733116
2866.354528
3236.969067
3388.883332
3238.420151
3108.152289
3417.545487
3902.979343
4097.477731
4060.726405
3890.099121
3393.280172
2741.977533
2481.989957
2689.245136
2956.430901
3097.197573
3167.563853
3086.650773
2805.888734
2592.83594
2716.533627
3005.2866
3070.829187
2880.915664
2685.823746
2446.028389
1941.063132
1347.550347
907.419342
293.1618282
-760.112609
-1791.606147
-2476.481851
-3162.784686
-4004.52864
-4800.552663
-5631.418395
-6524.107313
-7206.36991
-7804.368765
-8610.293015
-9222.454785
-9111.733016
-8433.153361
-7496.951685
-6360.851128
-5177.801769
-4040.207901
-2738.402299
-1281.314005
-4.035875398
1101.681359
2305.109244
3427.787465
4105.482269
4544.171818
5275.599799
6418.385654
7645.929322
8612.701416
9142.76816
9247.230355
9196.665286
9397.955853
9874.347585
10008.08167
9288.957925
8102.734079
7057.880699
5966.956334
4423.979319
2610.607218
599.7848632
-1944.071566
-4760.717572
-7163.89259
-9200.219133
-11223.59206
-13021.29759
-14405.93613
-15617.18907
-16696.11267
-17376.63195
-17394.92367
-16481.56737
-14721.31438
-12785.13349
-11001.9848
-8842.259254
-6011.379653
-3090.600172
-623.5380566
1416.106461
3126.283308
4642.552022
6473.065606
8984.721802
11733.17637
13914.81305
15267.41383
16088.30088
16586.86294
16725.99491
16657.82866
16708.11833
16775.7588
16386.32839
15429.72243
14075.52889
12168.37013
9705.617388
7365.779138
5584.01817
4029.909814
2525.145862
1147.161544
-468.8916594
-2541.71041
-4552.870267
-6169.513902
-7702.012252
-9427.599645
-11452.29592
-13746.72463
-15672.52859
-16391.71375
-15928.31272
-14929.66393
-13783.37207
-12740.27337
-12141.60122
-11932.77208
-11691.56419
-11295.48291
-10851.32627
-10157.48477
-8930.85756
-7310.098341
-5587.885736
-3661.281285
-1213.199585
1628.444358
4265.113232
6324.961454
7858.983909
8760.050081
8788.179187
8336.605719
8188.156439
8430.427791
8627.090266
8709.918431
8684.07415
8292.808651
7714.455199
7420.073021
7242.148043
6796.715843
6226.2772
5677.09482
5083.609389
4678.557996
4640.711382
4636.461044
4412.114007
4017.975682
3284.960365
2078.192838
812.6645976
-107.793871
-782.4201689
-1273.898196
-1426.367302
-1457.612322
-1883.854103
-2808.442781
-3923.531047
-5045.225693
-6144.551494
-7068.994726
-7679.458268
-8163.067779
-8798.130276
-9402.701119
-9497.503986
-9068.714468
-8524.916239
-7908.894079
-7024.512912
-6129.846642
-5442.611912
-4536.060408
-3271.282938
-2261.009396
-1664.626044
-955.7586812
-26.14719034
912.9711578
1963.265635
3048.256375
3803.223125
4287.171875
4755.56195
5077.48837
5142.541147
5119.81911
5075.78774
5131.925057
5668.645397
6655.476915
7456.203406
7788.584991
8063.222349
8547.790806
8987.732024
9081.202068
8719.419396
7880.752751
6712.584331
5575.963925
4732.609205
4077.18676
3389.868398
2748.942583
2324.18577
1874.587227
1103.013168
365.6412685
109.3525022
-73.11698323
-717.7739172
-1521.477306
-2237.510962
-3354.603889
-4954.89963
-6377.685807
-7413.472551
-8439.503541
-9664.923741
-11137.97116
-12693.64926
-13728.7093
-13973.69445
-13989.23648
-14200.87296
-14349.28737
-14148.09466
-13509.93913
-12326.38596
-10777.34157
-9287.198302
-7802.178439
-5921.45263
-3712.086314
-1461.836417
1042.547321
4031.886559
6959.710867
9049.169538
10338.20993
11489.21022
12731.77318
13679.02255
14202.27565
14682.24624
15153.26618
15078.17774
14261.12692
13042.64687
11545.83615
9790.768104
8187.921748
6888.700598
5509.842989
4115.362302
3091.586719
2087.956628
652.9201828
-775.8693138
-1731.764804
-2416.508162
-3016.989654
-3520.865577
-4045.755016
-4541.140404
-4818.102889
-5104.815941
-5710.804313
-6404.060043
-6863.576748
-7136.12562
-7188.22876
-6807.561154
-6144.292671
-5605.128335
-5268.227547
-4957.497516
-4637.92758
-4335.57551
-3941.664018
-3395.269539
-2890.891189
-2642.649873
-2528.944613
-2315.784369
-2129.419535
-2126.872115
-1891.236995
-1039.854981
-79.66599327
416.0804497
782.9242884
1351.425286
1739.968868
1878.200649
2249.884365
2902.016054
3660.257464
4749.744934
6083.548793
7005.270057
7243.29183
7046.117097
6606.209019
6152.991335
5923.294734
5720.60447
5300.843171
4933.76229
4846.970783
4762.687403
4503.866687
4246.151552
3964.224717
3467.20512
2920.370825
2591.062943
2294.268512
1668.792396
750.2252897
-198.7349189
-1232.651412
-2598.02441
-4108.415024
-5240.668433
-5922.890994
-6508.782366
-6969.886499
-7055.644276
-7072.410253
-7378.131837
-7591.63139
-7384.685841
-7121.199575
-6957.883113
-6619.015603
-6180.343085
-5699.459295
-4675.769902
-2925.97006
-949.7781221
916.042407
2578.647054
3802.253637
4615.157853
5336.775631
5877.780515
5884.099545
5328.284758
4210.084287
2338.866415
-37.47529813
-2178.725436
-3692.630155
-4746.040855
-5523.861383
-6054.156371
-6344.83459
-6324.337884
-5879.004955
-5111.380757
-4353.267941
-3779.725399
-3102.76175
-1881.076119
-142.5216939
1677.584108
3352.490537
4761.103824
5436.115415
5202.203029
4775.125197
4728.690828
4790.28837
4847.594767
5226.352568
5711.074136
5758.627094
5379.541946
4833.993005
4292.284417
4087.753454
4312.804065
4487.699026
4311.399731
3962.639914
3490.990168
2891.817236
2519.550726
2572.115853
2728.312096
2785.193569
2853.051851
2779.543202
2297.033172
1664.872534
1348.060543
1275.178189
1037.440486
548.3647569
21.63104012
-496.650218
-1151.756791
-1935.01388
-2752.175225
-3780.381893
-5167.021693
-6457.250025
-7127.613778
-7463.828398
-7960.477845
-8427.526211
-8634.400983
-8794.304923
-8754.677507
-8118.777084
-7230.261762
-6602.434667
-6038.688954
-5370.335187
-4842.514236
-4308.768556
-3357.173645
-2082.699859
-777.1354319
490.6183349
1527.433529
2112.732203
2450.999846
2845.904854
3356.939404
4146.405313
5372.050794
6586.055151
7109.213713
6949.957203
6623.413016
6316.680256
5855.917769
5237.162581
4656.29018
4123.937572
3491.235067
2852.303648
2449.205948
2141.75764
1595.839619
1002.229711
792.0685223
810.6688497
752.7965705
873.1703006
1237.226805
1286.338553
944.8858658
761.0970847
734.2418007
502.5847863
214.3462541
12.28735066
-403.9430648
-1145.922575
-2054.49826
-3043.352875
-3813.508149
-3987.806152
-3816.760963
-3831.893533
-4025.565437
-4212.871254
-4584.572819
-5257.196609
-6014.617961
-6775.203163
-7542.288315
-7929.519243
-7487.388919
-6366.664904
-5083.038488
-3779.891243
-2177.187869
-177.5930738
1904.486371
3788.918864
5449.695104
6733.613737
7340.183652
7375.630356
7246.888422
7006.608193
6615.609129
6430.788673
6506.571355
6281.906684
5676.991609
5256.337018
5145.797251
5131.142889
5302.735928
5568.439431
5548.013623
5354.96258
5348.711246
5385.140089
5201.741802
4812.280382
4103.038276
2928.637904
1526.998941
70.03551374
-1691.291099
-3778.927815
-5704.113605
-7159.015116
-8326.520829
-9453.572736
-10645.23645
-11937.98901
-13180.11501
-13992.58446
-14131.80874
-13835.71075
-13575.22115
-13442.60304
-13110.51488
-12436.84137
-11555.33818
-10330.63988
-8517.982819
-6380.384164
-4197.589613
-1603.83365
1557.333303
4580.695296
6891.221945
8487.789474
9257.542613
9259.260521
9230.666838
9720.380501
10589.17053
11668.37126
12725.84415
13108.05332
12499.71648
11419.88644
10449.09446
9770.805558
9434.31005
9247.116923
8758.522817
7900.539184
7082.750558
6453.113911
5758.496533
4900.115377
3972.838004
2914.112125
1613.066313
179.2496291
-1239.164786
-2731.211168
-4402.662912
-5980.706846
-7045.435198
-7657.431549
-8224.153588
-8752.860541
-8970.551139
-9041.246411
-9223.727778
-9214.697839
-8770.187934
-8158.288634
-7365.662629
-6131.320634
-4850.684877
-4033.590783
-3454.394212
-2944.012192
-2881.899224
-3323.403338
-3832.129458
-4103.805481
-3931.51212
-3210.660429
-2341.301404
-1766.966739
-1256.782215
-401.5189044
747.9280813
2065.425362
3574.536311
5013.498265
5963.597856
6446.72709
6784.229001
7033.763775
7022.366688
6744.985294
6403.71653
6126.808495
5868.936836
5591.091099
5274.649209
4726.718531
3838.989789
3074.575631
2966.136315
3181.90792
3023.603265
2490.314548
1835.903936
921.5015118
-114.6267427
-772.0639171
-1133.40593
-1597.064779
-2068.2328
-2456.03955
-3006.821634
-3655.42684
-4143.281645
-4595.236411
-5121.396428
-5537.937003
-5881.421734
-6302.790363
-6546.513463
-6363.384039
-5971.762354
-5548.180278
-4965.595493
-4302.020817
-3837.160636
-3502.052224
-2987.389338
-2291.559481
-1674.362475
-1198.510387
-678.6148025
-36.84786324
608.8389151
1268.114179
2104.568809
2992.363587
3568.504155
3865.971625
4171.722961
4288.580345
3915.41981
3426.055465
3203.058281
2987.946357
2741.418418
2879.349621
3286.403696
3491.6667
3509.959991
3430.452733
3083.916474
2621.024269
2347.306183
2159.222505
1963.097855
1928.842136
1949.422942
1784.946339
1637.921572
1730.509522
1800.982537
1635.287048
1416.856325
1249.328684
1042.467649
888.8220011
950.8060561
1142.04556
1346.840317
1697.401839
2278.662766
2728.348652
2506.734942
1607.981123
614.914349
-101.4880334
-732.0067633
-1456.126118
-2239.294843
-3183.568336
-4184.086707
-4616.626698
-4333.135493
-4087.39748
-4212.629496
-4232.75519
-4032.597782
-3868.747562
-3603.319003
-3171.808387
-2917.816356
-2880.231218
-2820.9664
-2825.622021
-2984.113569
-3089.840226
-3098.066892
-3125.253182
-3120.408197
-3199.076016
-3673.344728
-4271.080239
-4220.912449
-3357.048338
-2239.640911
-1248.569515
-418.5541099
53.09394386
-79.41371693
-602.4996796
-990.0319384
-1019.896889
-853.2544477
-552.7196115
-35.84891767
467.316847
610.784878
667.4856751
1208.027005
2108.578342
2911.356906
3736.291871
4693.154875
5319.392793
5569.717324
5982.150801
6430.687962
6279.347085
5516.717888
4466.979546
3235.996907
2098.063204
1339.075346
745.6709728
131.2531771
-243.0066847
-248.1529059
-34.27302452
395.5830234
962.8978474
1289.149526
1275.414731
1268.018588
1394.795355
1456.395836
1445.295545
1506.951511
1568.927439
1498.310006
1383.719738
1314.878514
1103.469297
556.2337618
-88.33182623
-392.6731196
-364.596349
-340.5137572
-272.0692553
76.76815642
358.3238464
124.6842815
-273.1596053
-386.4186502
-478.4116638
-726.7357327
-850.4752134
-919.3008748
-1151.826567
-1247.16152
-1028.237205
-806.2127067
-611.2939493
-243.127882
122.6897876
373.1186839
737.9869658
1098.812808
1051.532447
696.1987046
396.0257486
133.3658124
-215.4589064
-638.4304424
-1338.88087
-2513.36755
-3752.094045
-4441.672574
-4626.425048
-4839.821025
-5276.367169
-5659.794944
-5836.378186
-5995.731145
-6193.788727
-6149.08989
-5762.092337
-5288.202441
-4744.420754
-3856.434368
-2714.537981
-1602.532141
-391.7061616
953.3111684
1996.645358
2724.115872
3600.587136
4479.042778
4878.034721
4934.38327
4885.828971
4549.029426
3905.051263
3119.852718
2141.434301
1134.613318
554.2165186
354.1500287
131.9396398
-18.68369322
209.4533314
655.2654098
1060.950798
1492.698002
1939.053898
2151.003614
2062.423466
1844.011042
1574.53106
1213.832496
770.7747212
265.061631
-346.5173675
-983.1758775
-1268.434119
-899.2114199
-176.063698
381.8523976
937.4545885
2013.825032
3377.433555
4383.353289
5115.141421
5908.950529
6445.119581
6409.945623
5978.184264
5152.827958
3952.073407
2970.664978
2564.282241
2325.507833
1967.003699
1594.734871
1156.55295
588.5479538
-4.580717608
-731.6659012
-1672.121453
-2412.58899
-2684.992186
-2927.949307
-3565.241524
-4476.570797
-5509.575448
-6692.056875
-7867.651916
-8812.679053
-9587.910628
-10310.49885
-10809.08293
-10818.20973
-10338.57587
-9560.100409
-8494.656704
-6992.72933
-5190.318392
-3506.6275
-2086.520815
-849.2837225
-39.09429582
159.7140872
226.6961966
518.8814667
685.1071824
712.6289792
1237.198411
2382.749488
3753.74693
5286.934324
6877.377377
8055.06662
8721.526524
9153.87289
9326.445978
9118.084048
8638.377787
7911.284057
6969.801124
6135.100526
5508.692503
4744.634689
3789.992627
3023.390033
2460.827506
1746.761632
922.7970239
376.7465739
178.9510749
99.99032916
77.30742953
191.5529112
324.8640179
225.2924791
-111.0310956
-484.7287207
-952.5136658
-1730.629831
-2573.916999
-2991.008433
-3079.898941
-3222.426169
-3281.517844
-3177.165177
-3438.357837
-4191.809314
-4841.861981
-5244.33594
-5755.890907
-6317.859133
-6704.563839
-6903.968396
-6673.769062
-5787.317682
-4618.296023
-3577.981738
-2628.909771
-1823.026349
-1367.870572
-1122.982799
-882.5590953
-744.4949618
-597.3610186
19.23720415
1181.431502
2498.417248
3803.334981
5161.93859
6344.127283
6972.972251
7086.730641
7063.381881
7028.083672
6727.261993
6069.181786
5369.454804
4833.730528
4298.621365
3740.895764
3345.135815
2914.085543
2133.275009
1272.251908
607.1943263
-160.175768
-1024.811152
-1486.860006
-1679.282735
-2142.042282
-2686.892629
-2851.381193
-2704.105318
-2431.940987
-2147.646818
-2143.390326
-2455.253828
-2702.845358
-2785.453654
-2877.243487
-2790.957265
-2275.256591
-1600.675905
-1182.17544
-1139.617786
-1499.627826
-2182.728907
-2795.7837
-3012.750573
-2957.321563
-2819.713711
-2455.931131
-1705.683309
-814.169235
-199.7709713
89.58224621
334.3178704
563.2657921
550.4143915
459.9781264
687.5705434
996.4717168
856.6831784
473.8149769
311.533695
217.2134429
92.51341868
355.9467317
1133.597586
2250.505074
3829.841829
5704.541658
7036.961968
7307.202605
6753.783412
5800.998671
4889.950433
4371.441367
4037.507897
3395.709348
2370.912812
1110.790165
-377.1798701
-1849.93458
-2841.923941
-3406.86081
-4087.546566
-5065.845111
-6047.830249
-6884.872161
-7660.400038
-8240.649012
-8274.302995
-7708.271382
-6906.05892
-6095.779942
-5133.851676
-4076.557787
-3372.26892
-3085.54004
-2704.488098
-2047.735692
-1354.186481
-437.1949971
1029.660734
2753.58122
4400.411934
6003.528957
7230.590635
7547.551928
7088.218361
6282.399078
5329.061624
4571.887953
4297.377082
4190.786328
3911.139739
3604.584168
3352.663798
3036.871553
2805.824563
2796.233839
2758.96716
2603.584901
2620.858611
2786.668482
2672.025591
2184.89377
1624.01649
1040.445164
207.123487
-852.8287365
-1821.403089
-2562.976972
-3240.7334
-3884.772297
-4274.812502
-4407.872506
-4536.896614
-4588.703685
-4309.001369
-4016.26569
-4161.235874
-4373.371217
-4158.928453
-3847.053464
-3729.095685
-3475.387235
-3086.664014
-2940.978816
-2901.874044
-2689.816718
-2475.987635
-2340.475289
-2122.528618
-1889.067728
-1675.676554
-1259.647287
-668.7289231
-114.5445736
548.4376968
1449.599261
2248.693023
2757.805051
3302.154188
4021.237442
4630.746839
5062.186995
5543.817024
6013.116364
6107.397878
5752.506772
5287.95484
4960.460815
4687.212243
4450.508564
4460.590328
4643.702808
4535.804112
4020.173454
3436.115536
2762.022947
1703.376039
513.0277497
-458.2814402
-1503.570333
-2785.825375
-3867.629264
-4645.500577
-5413.452772
-6006.541123
-6080.864174
-5657.146348
-4772.667613
-3530.279184
-2437.725247
-1831.305613
-1528.293564
-1449.812345
-1661.931731
-1885.739018
-1958.57294
-2328.714299
-3290.910854
-4396.793902
-5093.817201
-5195.014806
-4589.693796
-3272.140422
-1649.740592
-230.981051
892.4202522
1864.273617
2559.038994
2703.261013
2455.381607
2341.807781
2499.917073
2612.568219
2704.125052
3097.500095
3571.260302
3761.049297
4107.614347
4973.417277
5559.883854
5109.750827
4031.113007
2925.294783
1935.908676
1229.71535
779.095066
129.511641
-825.1438292
-1665.854655
-2123.472831
-2112.035014
-1624.501452
-1140.9469
-1310.051098
-2099.290917
-3050.678055
-3997.593403
-4872.7831
-5529.521819
-6208.43382
-7345.808744
-8711.399275
-9492.50306
-9181.357732
-7771.136124
-5337.989985
-2066.284271
1418.403376
4296.544595
6271.259208
7644.43362
8554.774827
8753.503863
8371.468001
8022.332533
7832.205527
7374.970529
6581.62948
5574.239446
4095.208687
2205.890811
592.6793951
-461.0356119
-1171.713299
-1470.728934
-1351.639249
-1234.759327
-1220.469433
-1034.074924
-765.1074862
-629.9338535
-490.3925633
-267.1402746
-65.20325172
225.7533133
638.4333465
803.216216
607.627433
499.9990458
672.0686372
761.0348765
599.6887772
457.8480598
441.484637
296.7906144
-122.9368495
-624.1794859
-999.4355745
-1293.168805
-1583.527825
-1794.976005
-1959.891413
-2238.180819
-2431.726628
-2172.922606
-1754.164255
-1759.416706
-1977.8894
-1914.874539
-1789.867816
-1819.312108
-1638.620825
-1257.245602
-1148.804008
-1252.016522
-1211.141808
-1080.88384
-972.4049629
-882.6638221
-990.5678082
-1276.670683
-1349.602402
-1149.041341
-959.8982356
-704.1665891
-174.7717599
390.9064094
764.9901386
1127.42394
1514.634005
1644.801942
1522.937546
1464.587687
1481.315666
1282.120276
844.233527
462.4547798
227.6708815
-91.94071265
-545.2611359
-841.2306401
-893.9323352
-952.0828538
-969.1738769
-638.8972395
-209.2344747
-211.7167636
-450.0986034
-448.3245557
-379.4953016
-432.4141712
-290.7614423
43.3918447
223.9079534
370.2097517
680.7184666
899.425396
937.0931212
1023.950403
1127.718169
1180.047348
1414.391731
1835.403794
2141.937896
2359.579673
2700.572682
3045.010508
3271.090935
3555.046658
3895.143388
4030.207899
3993.064299
4038.078095
4074.527482
3811.527937
3329.1879
2955.776649
2672.798835
2153.735532
1417.917007
878.0833296
546.0905782
-115.8573126
-1231.960473
-2274.127563
-3071.573027
-3936.783569
-4730.281889
-5108.301486
-5327.328527
-5593.806335
-5548.885296
-5173.515897
-4890.549425
-4694.777773
-4461.149302
-4461.340051
-4684.998501
-4697.149327
-4447.724965
-4196.380742
-3948.487929
-3677.874651
-3449.578258
-3096.834344
-2532.177034
-2123.261615
-2053.607524
-1836.626527
-972.856106
502.3132669
2335.307386
4316.552516
6147.507796
7480.229896
8155.797083
8251.017165
7917.525405
7299.13856
6621.153229
6101.905929
5549.905826
4380.954669
2369.153202
-61.23481871
-2470.811584
-4540.27258
-5648.54361
-5452.547258
-4504.346863
-3303.923535
-1794.004061
-398.7932037
77.50450471
-230.743753
-525.3085625
-441.4206958
92.53050646
1080.541516
2128.081983
2801.94666
3074.016468
2874.934218
2018.915446
804.4503549
-204.8207309
-858.1279619
-1177.47373
-992.8702646
-400.4965692
48.97918508
-17.60505975
-498.7999154
-1207.746294
-2058.778378
-2858.95984
-3307.833044
-3300.088355
-3001.875426
-2532.054991
-1826.275167
-958.1800507
-164.4723995
674.6681926
1915.715965
3298.467208
4145.742496
4414.111027
4412.323397
3969.05661
3065.351172
2283.901109
1789.216375
1175.821388
447.5051653
-149.1833055
-694.0958821
-1145.030335
-1290.301296
-1329.097487
-1517.172501
-1651.198476
-1579.218437
-1446.20287
-1196.656131
-691.6372529
-165.2012378
129.7286494
285.0225684
341.4430292
168.9729816
-86.42353835
-96.99692478
89.6467968
132.4418029
-34.86702964
-164.7468098
-195.2905472
-378.7463155
-795.8578646
-1146.773761
-1263.703196
-1340.406377
-1372.05311
-1084.287984
-660.3211766
-556.532772
-589.2373351
-385.0472666
-265.2166176
-493.4691719
-654.9919392
-598.0399542
-612.652813
-553.4210062
-182.1393224
164.0489555
205.6370985
88.90357003
-128.132564
-393.4998508
-430.7878155
-234.6252219
-75.56493332
111.2218453
488.2014413
792.9961205
818.122719
815.4306933
914.3840578
873.5951575
654.7930994
518.5124764
501.8723857
404.6359111
241.5689486
224.4067182
315.9138619
219.2287629
-96.69663782
-285.3895461
-242.632035
-296.0325777
-491.2752503
-447.4301056
-187.0963108
-99.10313083
-36.00223727
333.1785428
668.607097
661.0880173
666.942863
817.3197267
786.4176139
617.0952194
507.9569234
298.1136771
2.863814195
-90.71445115
-64.7518785
-123.8434735
-101.6754671
94.23647359
285.4314403
495.5445871
802.7545647
955.6787728
840.0788813
767.5874862
832.8151622
730.9660503
444.3753102
332.487156
476.640804
604.9009224
633.9119755
722.693954
794.2747261
513.6912108
-128.9346785
-693.6537745
-971.2014735
-1220.189547
-1469.87893
-1389.018152
-1091.833369
-1029.97389
-1060.650246
-849.6870196
-748.9250003
-1031.310077
-1234.880366
-1143.258109
-1066.959785
-965.7120127
-665.2008641
-444.2420469
-440.1541411
-382.6130283
-226.1769519
-95.64166398
99.18001747
337.3659045
451.5455493
597.3715764
955.3561155
1242.886913
1252.319785
1277.303726
1475.801146
1553.539515
1355.912565
1035.863279
582.6181691
-163.3447629
-1051.018056
-1659.273478
-1797.177965
-1665.583849
-1514.162642
-1420.789687
-1477.675815
-1778.003995
-2034.823013
-1807.312023
-1272.216139
-936.2474306
-666.9517725
-105.3378787
480.383389
893.7718266
1515.151668
2304.327415
2730.692247
2868.314102
3129.837197
3398.263024
3417.379089
3171.64676
2591.758271
1772.729439
1107.344639
625.7753019
12.41271229
-602.9429232
-857.3440648
-920.9632869
-1193.313282
-1707.340438
-2380.77093
-3211.109914
-3946.539677
-4219.871351
-4076.404438
-3859.882671
-3697.521139
-3515.159709
-3373.212639
-3328.878418
-3030.591669
-1977.725
-300.607007
1300.634973
2541.451011
3683.749493
4609.528815
4900.584695
4811.823778
4872.274104
4913.9572
4700.091558
4574.319596
4630.294916
4513.885102
4228.833114
3893.412111
3249.996092
2279.512474
1334.701552
430.706365
-596.3229005
-1588.10474
-2454.560487
-3374.517706
-4321.401869
-5109.990562
-5716.711443
-5970.566753
-5506.858596
-4440.795927
-3375.581211
-2588.487931
-1921.785731
-1391.661206
-1195.645263
-1203.80957
-1012.676114
-521.601252
-64.88616179
122.25358
207.9629156
337.5626656
366.7615669
322.035517
484.4154939
732.7814487
697.9919117
617.5141461
884.8763921
1141.986707
1037.697531
966.7071422
1138.326846
1226.761998
1232.538984
1347.560924
1366.814499
1181.460619
1015.703305
885.5520144
722.3962803
689.3142004
744.6003766
634.2018566
497.8966432
602.4878852
723.0129958
595.9380867
441.2214579
436.5277006
368.6654153
167.7567183
94.91841542
232.1970283
354.7280641
357.5186258
370.9658006
404.5520825
246.2942223
-124.6947727
-386.8881683
-415.2103331
-515.0081761
-770.2568107
-837.1649638
-716.3734569
-771.9173551
-865.4384797
-666.9055702
-500.5698235
-663.3342147
-785.2521567
-743.5640677
-885.3615185
-1095.91157
-1031.835254
-859.3057004
-771.8424614
-644.6093627
-515.8072924
-472.5265811
-328.9096323
-74.1545174
58.94622781
173.295777
479.8103513
726.7427479
672.5733642
576.5010456
620.2809154
582.6868959
435.7171028
479.5473562
726.2371479
832.2042997
692.5297295
558.4390911
521.7628614
349.1121057
-27.72152898
-317.1148352
-432.1163924
-686.6160229
-1068.873435
-1106.787601
-816.6934697
-721.5416593
-768.4907162
-533.2421127
-230.646094
-198.1873418
-177.5141038
-58.97425136
-102.6937779
-143.292723
114.720303
432.3852387
594.1791755
730.7936373
786.7641289
657.6995818
558.2747869
543.6495234
388.1932679
194.3703658
228.5973815
332.0291074
302.7878657
346.2241468
559.1564329
670.5705253
629.1255226
724.2994118
994.6985339
1137.335279
1034.505918
896.4301731
836.8700074
680.6671992
344.7714431
60.71897443
-62.88496511
-261.1084412
-536.4756571
-533.9690051
-340.8900576
-435.1576425
-702.8671191
-760.4295858
-922.9781155
-1501.781065
-2021.424767
-2196.921364
-2394.053541
-2693.352039
-2826.813078
-2755.202884
-2396.753446
-1606.518279
-697.4853776
-19.21706662
622.9243368
1381.68928
2001.48679
2408.256486
2745.147351
2877.997862
2688.086751
2448.320677
2290.691898
1897.178989
1078.662016
34.19755886
-1058.167143
-2111.859139
-2836.107601
-2895.56588
-2360.967689
-1617.543525
-803.8327722
263.9249568
1484.828121
2326.322093
2583.543326
2615.543411
2540.823247
2136.189242
1636.42289
1453.896416
1373.57907
1154.934379
1070.590038
1066.075506
712.055761
145.1695563
-322.2301405
-942.1999638
-1813.874833
-2471.324743
-2695.540648
-2675.443619
-2477.199904
-2153.122967
-1858.890698
-1512.840153
-999.6936072
-572.4068189
-417.7342379
-318.7204354
-211.2021465
-354.4311925
-679.113023
-744.1399435
-456.3686295
-156.7233094
3.270702443
207.0213221
506.7877476
688.6800772
690.2961828
729.4884522
827.9488882
692.0701036
342.0308898
190.5350172
216.9125116
-3.755953454
-350.0300144
-418.6805676
-434.6249772
-659.1262873
-731.3433611
-535.9986478
-449.1648897
-401.4509148
-62.64191986
388.7810391
685.5995862
868.6761941
909.5905587
822.8565034
877.0647784
1060.188029
1054.881031
945.5769564
1026.4425
1119.68497
968.7752799
793.8160387
784.9779798
735.2104724
580.149553
577.8968974
764.5332005
849.5836831
718.919807
578.5666292
535.3691493
392.5328835
37.92543131
-286.4105207
-413.9226641
-556.9281368
-785.6159524
-817.908646
-714.8474035
-859.8542067
-1058.621091
-889.6415073
-696.5199305
-879.76126
-1031.039778
-874.1017112
-770.1999097
-798.2520852
-726.2334245
-655.3772844
-649.534807
-508.9842965
-326.3185761
-310.6615464
-287.4017823
-137.6502152
-53.6718663
-4.759605058
176.0929058
278.6021869
130.9387277
56.14920741
255.2759165
422.5964108
385.7649439
384.5506144
520.744703
594.7827793
547.3644826
537.5580126
561.4127638
426.5844654
180.2177832
133.307647
278.1425269
201.5856687
-139.3013201
-273.6699058
-148.6968902
-207.2349059
-396.0664942
-352.2752712
-312.5778618
-524.7832934
-588.3139283
-389.6727788
-373.6768636
-508.6486621
-428.9173949
-267.5413691
-229.5711701
-167.375226
-63.52091484
1.415382448
173.5948766
415.1810318
440.5023206
349.5486936
451.1252059
596.7833994
534.6045359
460.5396456
556.1294007
619.8594671
566.1511828
602.4165431
727.285034
681.020145
454.2230265
333.8135133
393.7588735
360.0947677
113.6037399
-78.08251453
-92.57882759
-225.8122428
-546.4559339
-669.0135793
-590.4622369
-759.0732259
-1048.739418
-969.1864584
-761.2528913
-865.8162898
-999.2434268
-906.6290535
-852.2816496
-842.7311119
-673.9354149
-512.7044682
-443.8846334
-252.9534027
-30.19677742
17.21005472
86.05452935
286.3330825
358.1086144
302.0667548
382.8050428
517.328236
510.863601
529.8286835
690.7110575
771.3775684
733.7049127
868.0236742
1220.004492
1469.842051
1451.778656
1325.628755
1195.805637
949.6449597
601.1698479
432.8814844
520.0168714
519.1497699
305.8043875
223.2561968
309.4876695
191.3440071
-20.59690314
56.88511618
162.4700192
-5.090177105
-57.65588803
143.2027071
120.3062793
-182.4081743
-424.519617
-642.6424887
-884.1232775
-918.6027903
-845.8824571
-989.063143
-1284.846221
-1562.954509
-1845.774474
-1989.773163
-1827.145128
-1614.291022
-1582.769748
-1470.253805
-1092.732064
-727.597229
-544.3516245
-372.5778929
-209.4615654
-278.8905981
-511.1805978
-524.4835745
-216.6361324
39.75043047
-55.21874021
-336.9517142
-562.6218606
-760.0976489
-851.3136459
-546.2198286
-12.38839168
207.5679688
184.6254231
398.4635578
744.5760933
984.195407
1411.897652
2044.844424
2381.053466
2404.19437
2468.506426
2481.051908
2284.032796
2038.28183
1745.704459
1346.657858
1086.543584
1007.028631
778.9617597
433.2396774
327.0136531
411.360505
424.7252426
435.5318942
497.6153948
365.3849627
-2.284954885
-299.1590742
-414.2935882
-527.6170001
-657.9988227
-626.6514949
-458.0534192
-388.3293353
-409.1048573
-210.1595397
233.0173909
493.7851132
427.3214365
414.2794796
529.5917475
403.6724844
120.5306093
36.16449816
-134.6021982
-726.670311
-1321.832549
-1590.561766
-1745.454247
-1744.156623
-1439.759073
-1221.543077
-1363.750668
-1568.796757
-1694.562181
-1878.19867
-2009.868222
-1982.923492
-1954.673261
-1891.611263
-1613.410204
-1298.180045
-1169.488958
-1028.932584
-710.1754777
-422.1275684
-254.4885325
19.27123345
464.4415912
863.3019756
1110.077805
1312.369357
1489.117589
1482.032704
1265.840512
1076.223726
1008.016565
836.6953356
578.6686385
644.606963
1022.346766
1203.77039
1204.73979
1426.808514
1618.967745
1384.625937
1056.543697
896.4263636
621.4822467
284.8467491
218.9205413
278.3086
255.3524487
275.9932795
277.0036819
99.55448744
-35.83556618
11.1250407
-0.812241941
-98.70259977
-66.63559138
-13.74883964
-124.797642
-198.1426686
-91.36869875
-48.2401351
-167.9431687
-194.8454406
-26.16316848
143.1014626
219.9220048
316.0275476
444.5224611
446.9396124
312.2613871
283.6032363
429.4795748
452.7220034
259.7818125
178.7948933
231.1029275
36.35850383
-296.3565209
-344.7009947
-327.0506613
-591.3459379
-835.126898
-903.5283788
-1159.430691
-1562.486447
-1752.039906
-1814.460246
-1874.296611
-1722.657998
-1374.8667
-1032.927391
-633.2051585
-206.7014827
-38.32059102
-70.6280057
-9.120072019
36.13345132
-132.4912237
-266.4988039
-170.0213258
-115.700455
-272.4641941
-383.4569071
-283.4068626
-134.3323443
-23.79814013
180.113706
480.5006094
647.8466854
626.482383
702.0515174
990.8350933
1172.885507
1123.062318
1203.716835
1487.051993
1569.701575
1461.836878
1485.128512
1399.809756
958.721488
622.7966454
600.2001547
422.9155428
34.35224327
-161.2994469
-175.6742697
-166.9700323
-22.71835686
183.9861604
252.1423601
299.9273452
387.4140233
297.1171315
100.8457491
99.08298048
208.7295643
230.9900948
329.8109431
583.4825947
687.6607676
535.9550104
409.2758008
384.2040935
194.8059164
-223.7151568
-573.6350334
-681.445989
-754.3940636
-960.2792544
-1103.93656
-1059.417889
-1108.14704
-1369.664607
-1490.129882
-1411.625509
-1554.889054
-1857.397189
-1839.57447
-1629.711631
-1587.577665
-1496.321509
-1247.261578
-1192.999942
-1288.177449
-1218.716973
-1136.453818
-1152.024718
-979.1719257
-655.4240514
-484.5122001
-328.225792
38.75216772
435.7592105
759.5028319
1136.107029
1432.556165
1459.602535
1430.649125
1543.424476
1603.027426
1493.044887
1403.996616
1373.970357
1190.75237
845.1291458
605.7283942
573.1532297
531.0947702
365.559311
281.9109611
354.4644739
275.488027
-59.32549678
-292.4027248
-356.9370501
-611.7106915
-929.1392131
-866.0677879
-675.3356126
-761.837756
-761.1644591
-348.099354
189.463489
768.3574075
1519.724164
2131.679909
2325.971752
2293.776784
2151.099627
1916.275019
1864.883204
2054.527946
2129.35018
2034.927311
2013.392073
1895.588788
1384.061902
736.4794966
347.4833936
142.5776407
-58.83915281
-166.299086
-150.2385595
-218.2109178
-446.7419348
-632.1083028
-667.5441066
-774.0414449
-1136.553224
-1560.327339
-1822.091629
-2063.989096
-2388.601093
-2533.469688
-2452.382686
-2477.669749
-2536.860724
-2268.218443
-1901.608578
-1790.709579
-1658.943619
-1376.769861
-1342.930955
-1548.705504
-1626.185976
-1648.022678
-1728.72437
-1609.518447
-1273.093958
-975.1507138
-671.2711045
-275.7518812
31.31850907
264.3820131
627.7507836
989.9211161
1157.097475
1340.807067
1673.828457
1833.961453
1651.936059
1454.257893
1477.468894
1507.947958
1314.902254
1013.663892
801.9584214
635.9277717
429.3296769
323.73748
388.6500578
362.2515515
170.4451135
202.9186806
549.1254096
764.7725975
798.103721
1008.056607
1223.809989
1105.994922
926.3341189
858.1582348
568.1260859
81.80466358
-271.2502691
-590.046087
-953.9717516
-1073.169841
-986.7194444
-1004.777813
-1008.051386
-828.8959264
-745.8620642
-890.2306603
-989.4214488
-967.1515284
-958.6587628
-855.5060528
-521.6615133
-97.6977904
