-137.6278905
-87.4905703
-44.70893288
-33.37354322
-51.44048013
-108.6495719
-204.7275091
-308.5421518
-386.6984219
-421.2646738
-404.8669461
-355.4506468
-309.8948022
-267.2988964
-188.0241577
-77.14054219
6.753961889
43.44944632
67.08443719
97.36761806
132.0944522
170.4258423
189.5504985
164.4792524
131.5313797
145.4594869
190.6641237
230.4351809
288.3130268
381.6546352
457.7789461
487.9965639
523.6376971
580.506116
581.0548316
479.8001748
339.9450766
235.8786556
171.8666584
122.8977338
73.35913308
4.302617059
-89.33373491
-171.565115
-207.1835417
-210.5779164
-213.9900202
-223.98938
-238.8562364
-261.2802923
-275.1394016
-259.6537967
-225.7963577
-192.543804
-153.1320637
-101.7412332
-51.66756954
-15.55203907
-9.733822671
-45.81354946
-82.56012003
-59.7141913
-2.382162309
4.925977371
-50.45877425
-111.8803816
-165.5283274
-238.3602028
-317.8274044
-374.4844035
-423.2164689
-481.39819
-514.7098377
-485.613649
-404.8358937
-299.8956858
-191.5419163
-112.2310683
-80.8053155
-59.72438207
7.401820167
129.719861
272.2713041
393.4744528
462.9719262
479.9371887
478.3236303
482.8347747
475.3235079
437.0724041
392.6657611
369.9451711
350.6727926
303.2052697
230.4982043
162.8653116
141.5382997
192.8106922
267.7093086
263.6444814
158.0973297
35.73888718
-46.6455574
-110.5839572
-164.1483191
-181.8750649
-175.5259374
-183.3208534
-204.0922939
-215.0282608
-218.0943354
-215.483988
-190.2654606
-149.4152746
-128.2381169
-129.0328192
-114.6640446
-70.87309181
-18.54481072
26.42710448
53.22037633
40.86649134
-10.17911402
-59.99950201
-72.05013889
-41.40197971
25.90727184
116.1002238
192.1319195
221.028462
206.4520312
161.385151
86.06315215
0.913017417
-60.32841224
-107.9662798
-170.7853885
-222.8144216
-223.7449943
-198.095681
-192.4434962
-207.0327643
-223.4095878
-229.7041416
-199.509232
-125.9635783
-63.4291384
-55.05013856
-59.16445069
-21.15421093
37.90934765
66.58738905
57.45845827
32.22722169
11.07116075
16.90876072
51.07567274
72.84618252
61.80132343
58.96899557
87.15175314
102.3303825
82.19848398
71.09198478
85.6083724
78.33533572
35.09662165
3.018589467
-1.969704182
-13.50942601
-35.46896516
-40.76242485
-37.82176443
-52.03162761
-67.87942285
-57.86342195
-28.89152679
2.689048543
34.77470069
63.80202639
90.32550099
130.9682501
192.0271026
255.0763942
301.9549888
322.2763309
305.5416425
262.550888
228.1063602
211.4432858
190.1216688
173.047635
196.2204436
237.4012757
226.8384119
159.8590577
101.8623109
79.01786598
63.61347118
53.50027711
68.63385417
89.25856801
77.68210624
39.41869377
6.719626192
-14.54815172
-40.89507585
-74.15668245
-102.9436286
-134.72553
-200.8324822
-321.9879446
-475.8778692
-607.9898559
-682.7804166
-713.2416602
-724.1508385
-713.7590152
-677.9520699
-630.5132832
-576.4094315
-514.9794404
-467.104178
-435.1534117
-365.4280196
-224.8419967
-65.09816947
61.96580789
181.2122883
316.8462725
426.1599445
478.0760097
507.5035941
538.8560642
548.7020791
533.6418932
515.1114189
469.908803
356.3522467
196.1838741
42.89524899
-94.93728545
-223.7263114
-310.5236264
-326.1714467
-296.9883564
-266.1839152
-240.2738852
-196.3013916
-109.0961393
36.84412616
235.6608016
456.6335593
657.3106391
787.6027504
799.7577667
694.4650629
535.4117888
384.7114506
265.1443032
195.4787176
182.3226453
174.2457224
114.004997
19.74179985
-63.47386875
-137.8766793
-207.5708933
-239.1363374
-228.5079508
-219.6112776
-216.5749355
-175.20136
-107.0679336
-81.11630565
-102.1501153
-103.9077879
-69.53726546
-44.26601362
-38.65454402
-21.55735438
12.53976838
43.63622917
61.27422068
55.33948105
14.29035801
-43.37342935
-81.66776273
-102.3692434
-144.7254673
-226.2605405
-318.8921792
-382.0163412
-395.9578834
-372.6030531
-342.3355614
-315.2583629
-270.6290559
-203.7114038
-138.8236128
-78.87563167
-6.734990203
61.12024098
96.67545744
114.8310123
133.2986713
125.893248
82.38691257
46.76851854
37.67847907
11.08621849
-51.00546755
-103.6780111
-123.4638708
-132.8289885
-122.8138528
-51.36892723
74.63907121
200.1347403
290.9968088
341.1796047
347.8748462
326.6592322
310.0223786
303.1818161
279.7052867
231.2191089
185.4028597
169.3284091
182.1734092
202.7410127
202.4061988
163.1863211
101.387391
49.03248714
6.03564723
-49.74314168
-116.7995485
-180.6903227
-240.1263259
-286.6706535
-305.581377
-309.8542893
-317.0625724
-308.010576
-267.374539
-226.7484705
-214.0670078
-211.5658374
-202.1922619
-196.6526465
-187.9588483
-145.1940361
-71.76166442
-6.191871102
37.89554401
67.00759131
64.61635527
28.18344175
11.8561019
57.16497231
127.5540062
170.9038103
187.9861494
195.783568
192.7650765
192.3901666
218.1489492
246.3326034
227.1864629
166.892974
115.5382827
87.12871705
62.08991088
40.7322861
34.06198354
34.391926
28.39419123
9.809855251
-19.83534369
-43.53760808
-48.60665625
-53.90671454
-76.03450809
-92.41878399
-84.46230725
-72.47883719
-63.18950342
-24.18570567
45.80474867
91.32044274
85.39180748
63.88942412
42.88895277
-4.884168944
-64.80285091
-77.52059334
-37.29502572
9.264052249
53.46185054
115.1885134
168.1699379
165.1647217
117.2449683
78.14501821
67.20485671
60.53152392
40.63418656
10.61115667
-26.28673289
-70.19563427
-118.354023
-164.5692421
-200.1339268
-229.2559045
-271.3394191
-311.7933887
-291.8262992
-201.9454273
-117.285344
-83.14190191
-56.55960312
-7.54901087
27.22392011
25.21128864
11.07698981
-6.983297983
-44.37626778
-84.32753387
-93.4874332
-80.71759026
-74.44794417
-67.63373793
-40.55388874
0.976342333
52.73041329
126.6121125
210.6355541
267.6044895
280.1010483
250.6688714
183.192155
110.7990423
93.28633571
137.2311849
168.1854295
118.8321892
2.055252274
-118.2324875
-188.6637485
-196.6225888
-173.4757639
-167.7721337
-200.5945346
-256.0057572
-304.3392597
-311.588543
-257.9607812
-173.2906559
-106.6812789
-55.06008546
11.81763081
74.68924889
97.62908826
107.9936464
158.5615359
242.4421145
315.7392891
364.0575581
392.8995843
402.7127216
409.9551447
433.9480324
448.0002833
410.9157299
336.8925252
258.3293061
153.5720802
-3.109917711
-162.6898862
-252.9351059
-271.9504603
-278.199108
-324.6095884
-428.2941361
-563.4149715
-667.8201246
-691.3116869
-639.5085235
-541.2097395
-397.5137776
-212.7417272
-39.73553721
74.02104991
150.5704926
231.2273448
305.4081677
334.8366093
310.7353122
265.7908313
244.8695765
258.2825786
272.0290284
260.8096785
240.9588725
234.5031596
242.1051405
260.2879522
280.850093
278.5728361
247.3567624
227.6899537
244.4431904
253.7188415
214.4447765
162.6449826
143.6539959
133.2359259
97.19684411
52.72075323
6.404658492
-80.94395504
-214.1606249
-332.1601324
-387.4066693
-385.760393
-352.1325636
-327.8862213
-373.6879116
-500.5468234
-632.600698
-697.7716643
-704.1579005
-683.654085
-636.2129402
-566.9661818
-499.9335313
-437.7137342
-369.0077734
-296.772875
-215.5798148
-106.0538999
28.51625428
171.1645454
319.3817115
451.5231832
520.3905122
533.6930171
559.0526674
605.7177585
605.8317112
545.0750369
492.4470911
476.1504895
449.7909392
391.3601194
323.5600144
251.8633815
183.2090607
159.8063367
189.418444
212.3743241
198.313723
185.6040153
184.9377737
148.6090228
70.59655176
14.0365919
6.821131199
1.201602443
-42.14896019
-107.8717576
-165.6585788
-198.2338134
-208.2636332
-222.144825
-248.9332863
-252.4994968
-215.6699598
-180.232453
-176.1485472
-183.4689313
-188.0999272
-192.7208949
-178.708122
-139.9462257
-120.2286122
-141.6631594
-152.0955611
-108.9756809
-45.38286186
1.630146546
49.41787871
112.1309342
167.590744
212.0675746
264.1204397
303.2458775
286.1743857
215.1388034
123.0442761
25.51525045
-58.081779
-94.13969553
-96.68746945
-134.153218
-231.2166393
-329.2203619
-372.6549056
-373.0031531
-372.4311282
-394.0281649
-427.5498724
-434.936813
-387.8822595
-308.153294
-241.0911693
-201.7491883
-176.0897193
-144.2375402
-86.63668972
-10.19056831
39.8605073
45.28810356
58.37650659
126.2828657
227.0627089
327.4247287
427.1644011
508.1785811
529.3297921
500.3484054
472.5067865
449.4855306
397.6439202
330.4296288
290.5828517
276.0824071
260.4996274
239.5127044
204.0035496
133.7499458
50.25838141
7.380328635
18.25094233
47.67203636
65.18548706
57.42675108
12.13323834
-65.37654028
-142.504518
-194.8612888
-223.8017692
-231.4849285
-219.6465795
-202.9127875
-180.1913677
-127.9134458
-56.38595208
-10.04883965
10.34104558
47.94048033
110.0247375
168.2478143
217.8289903
259.7536638
264.4034517
222.5794985
181.707578
177.3454581
186.8665994
183.5552241
166.8712004
121.7760377
27.58248804
-83.72513722
-155.1561555
-187.228415
-226.5017941
-288.5124504
-345.099647
-371.597577
-377.4177938
-399.9592097
-465.855827
-545.9861503
-572.5161232
-520.4166176
-443.7532679
-410.9210135
-434.1231615
-478.5459211
-504.5680918
-487.733746
-433.2500035
-372.2803461
-318.6578166
-257.0265835
-188.9538514
-135.8060154
-91.37640373
-33.65544081
34.67984333
115.8105258
236.7417719
380.2767737
466.6494117
462.6227922
431.7963235
429.9973965
436.5919207
428.4989678
430.9809388
458.062742
486.3859921
509.0107603
539.3114209
566.557679
575.5107335
580.1120037
581.5759793
541.5347707
443.3399593
330.9165339
255.6655144
224.1888956
209.1535451
181.4121983
132.5642226
79.40113987
35.04795638
-14.84222239
-79.13156841
-130.3023347
-147.6844694
-153.4750271
-165.1294772
-165.1195262
-144.5482604
-111.052909
-55.30059894
15.84800614
46.56748653
8.278586163
-47.08951715
-70.58404942
-76.82693659
-79.6813594
-62.4983373
-42.37145201
-61.45167307
-98.90794571
-96.13032985
-66.55645778
-79.38971881
-158.9962495
-288.4859908
-458.4436126
-633.3066365
-741.2471119
-763.3523162
-762.0865783
-782.5638735
-799.6018377
-783.8671412
-749.4428463
-719.108858
-688.6643697
-629.6001954
-510.227469
-329.3068043
-130.3570703
35.69149409
147.7155597
203.529207
213.2628598
218.0525948
259.4344057
319.5420988
355.2348847
386.4987756
471.4925608
599.1560242
687.5579193
690.6569459
643.2959938
599.9535928
575.5064731
550.1679551
506.9895343
454.3553865
408.8689565
361.5096323
286.837098
195.7581826
140.3178232
138.0776716
137.5030073
97.08999846
43.24010288
11.40755622
-1.531889138
1.466551542
25.86636806
45.99651794
38.69113871
43.60561557
106.1420772
187.3082776
212.935413
180.282791
143.6759865
133.1663584
143.9722688
161.1977775
159.1008054
120.2159368
64.68816986
26.40178365
14.17315362
12.65230039
-6.149760872
-66.10024202
-151.0118544
-213.212704
-242.4020225
-278.2581275
-339.6309373
-405.6513483
-474.3542229
-563.5002924
-649.8917935
-690.8902853
-704.0297763
-735.3437362
-760.1031654
-717.5123315
-626.6036998
-559.1446508
-520.8487382
-462.0568258
-375.834507
-294.9678662
-220.3181167
-124.3230101
-6.649238614
102.9127321
185.5180806
247.0733753
298.4002977
339.375595
364.0835772
381.1435522
420.4638237
500.1161033
594.0018774
656.9107334
671.8838768
658.7547331
650.029578
653.0194389
625.3239918
523.0584047
379.7142502
273.3804615
211.6627857
132.9990901
24.85437196
-57.73621842
-98.96923651
-147.5079496
-224.3536376
-295.6041073
-340.1405014
-366.0254171
-370.9661741
-354.303434
-341.8843775
-344.4955663
-332.9434503
-293.3817766
-249.9222215
-203.3725642
-118.2387169
-0.146798273
85.6291416
102.1697777
84.24170345
78.24433087
99.47877929
147.9405161
206.1389111
233.8689645
214.1592434
180.3219458
170.0295827
187.4477777
214.9613032
224.1760275
188.9668592
117.0575773
46.59366238
3.636412804
-9.676929848
2.160532137
27.89911771
51.829378
70.62992951
80.72597704
55.96759508
-16.63203081
-92.18105993
-114.1756844
-91.59347047
-74.1619063
-69.39397621
-42.50612134
17.21864422
79.9655654
111.5794405
97.30505953
48.27803265
-6.41403282
-57.33105704
-136.0842823
-269.1234536
-424.5443102
-539.2470014
-588.8851045
-600.0724647
-601.8824138
-594.8576165
-566.0598214
-516.6018791
-467.5277206
-427.2739822
-362.7368177
-247.9869313
-131.6714596
-86.10886595
-102.5129552
-111.8228436
-83.5339357
-31.86678232
35.93488271
111.2015492
172.9704613
238.2916029
360.2957751
533.2747674
676.0730999
744.9239577
778.7315077
810.0112604
820.6591597
796.6946453
745.8736502
671.3816967
591.6953329
547.9601871
540.949488
516.3834811
450.7109275
389.4723961
374.880219
397.2613769
431.6374738
460.7943969
458.8962506
413.7099637
360.5409526
336.1115906
313.5509982
236.8705322
98.92889418
-57.35759056
-196.6619588
-327.6312974
-486.2957732
-679.3970023
-860.7175051
-991.4780022
-1089.622247
-1182.895701
-1263.345878
-1318.766358
-1349.765654
-1343.633901
-1294.637392
-1238.93138
-1204.435726
-1155.911321
-1053.740561
-923.9576126
-806.5970864
-687.7111008
-544.189889
-393.0557922
-236.5879988
-26.35359309
259.1841445
556.4759406
780.8270864
906.9132301
962.0526103
982.1743343
996.0194696
1017.303531
1031.937646
1015.102118
964.7719369
896.9642635
821.6762437
747.452543
683.5871904
619.1194583
531.3578586
422.2020482
321.2844434
261.1008847
255.3717829
278.1740645
276.1377557
230.5473623
175.0296872
125.6283585
53.18942513
-45.83989157
-125.3323655
-160.7462721
-172.3429711
-176.9928292
-187.3363874
-230.9056571
-300.8704946
-333.9895033
-298.0493228
-245.0959019
-229.1801626
-230.0879674
-197.6655962
-120.6965535
-26.38673169
46.53557742
63.84031979
23.04258041
-31.29284401
-49.28222472
-30.30698176
-10.55824342
-5.573084316
1.649438983
17.80648035
17.23677326
-26.69100184
-99.61887136
-150.9979997
-155.82842
-154.1186462
-195.2251306
-267.7653378
-327.1139339
-356.6819206
-356.6587804
-316.1737592
-243.5697666
-181.9377678
-155.3718936
-139.7739284
-111.5136521
-79.9245072
-56.67716748
-40.22920628
-36.01090375
-46.33052583
-45.92150022
-11.15613813
39.28125151
70.86316213
81.44996102
89.9026749
99.36889333
104.7015989
116.1833779
143.8877044
172.3946316
179.007882
166.8742288
157.2990216
159.0831652
160.3619944
140.9855173
92.5696427
36.27392886
6.754275324
12.39879037
30.16040015
33.80533872
12.84276259
-19.58556007
-35.61216045
-27.59685565
-17.49767613
-21.48454419
-41.45138335
-87.49158851
-154.3489631
-190.2862458
-153.7531824
-81.47944838
-36.55387302
-13.81997999
36.80968474
115.1394958
166.8816784
162.1591536
120.7411811
74.36070417
48.20706562
53.06973137
61.59809449
32.43290287
-14.97269111
-2.178545051
103.6228004
238.3360103
319.9849768
335.0426494
325.6280374
328.2096719
346.4253014
365.8108068
381.1841823
400.1600453
411.9450832
384.4435151
316.6656393
248.4979575
199.8584926
156.1258708
108.708206
45.36134342
-69.42312756
-237.8389021
-397.6539213
-500.3996268
-566.4154547
-633.9838765
-718.2512557
-828.4884373
-956.6933994
-1053.062235
-1074.674279
-1036.215572
-959.6039156
-827.779792
-648.166025
-485.2561056
-364.5787802
-229.1013973
-51.34616063
98.89855082
154.9327842
145.9295471
147.2775925
202.2558698
318.2046211
476.7933537
628.5613022
731.8439535
799.6755349
861.8849775
907.8905334
913.7031608
879.5076539
804.5921887
677.347901
506.2609984
322.9737979
164.1585557
58.63425968
-2.283197003
-64.64749814
-143.1242212
-196.6982999
-206.6438354
-210.8279066
-229.6570761
-232.024094
-198.1390256
-149.0983618
-105.5195625
-75.24037327
-78.17790427
-131.2432545
-211.1805891
-270.678629
-292.0077245
-299.9567412
-320.1233756
-342.4857028
-330.7240405
-258.3199388
-134.1864951
2.757316178
110.7124205
163.6369629
157.7029377
121.4915987
104.0754918
122.8792318
141.9335566
129.4000299
103.4458918
90.5747591
84.66438406
81.11111641
101.5272643
154.9419172
216.4157505
255.9936817
258.0573798
223.2140263
175.4699649
144.20681
125.6615129
92.11407936
37.60435593
-23.79982517
-92.45993282
-169.9488388
-229.7905061
-248.8278199
-244.2581976
-238.8206066
-225.7794649
-202.2755052
-186.9513447
-177.3702916
-145.3141306
-86.88992029
-21.24644642
52.05527304
132.8075919
181.9992264
174.223147
157.5743752
184.710513
216.1285769
175.4816855
75.5919964
5.773367449
8.159363394
35.12112525
23.0041224
-34.0307625
-85.95075757
-95.54456198
-92.90604708
-133.6042346
-219.0385191
-299.4573626
-334.3738883
-318.2023711
-279.5486899
-271.4217242
-318.0785851
-371.1061016
-368.5140362
-320.4910686
-278.5074527
-247.6405715
-193.3589229
-103.1244586
21.58178721
195.4640044
404.0769049
565.8311476
605.0288327
531.9001121
406.873486
273.6733689
163.8303574
107.685482
101.5649804
106.0256338
93.79753094
68.62976062
44.51521816
35.47919009
46.16572414
50.57308264
10.94099382
-66.73180184
-131.9897298
-152.4236668
-144.8852516
-144.8790244
-163.9183114
-173.1773004
-135.925624
-66.73370943
-24.40620633
-25.53947422
-19.49932298
21.63482192
56.21974009
52.34841787
42.73470541
64.45447192
110.7822706
165.9950358
223.3381391
259.1496425
249.7960762
214.507011
193.0867504
194.5766525
206.7472633
226.2165971
238.8048039
209.2044972
133.8145441
63.15006789
34.96169798
31.44206399
26.3917281
16.62834997
-8.324735197
-64.28190374
-130.880266
-167.0805007
-168.2857047
-168.7695367
-194.9102121
-234.5659989
-246.0770644
-207.1602384
-156.4096359
-150.8134977
-186.0406125
-205.2491309
-175.0856117
-111.3230781
-50.30633526
-20.39563774
-12.55536315
21.72339636
105.084279
186.6873163
202.3138996
151.5119389
78.81140147
15.51094638
-33.82481263
-85.176156
-163.7684631
-258.1341054
-299.5827926
-237.5493843
-109.6284559
7.972651719
76.40774043
84.70055289
27.61442518
-66.04973533
-135.9503974
-147.0472696
-107.2142556
-35.62836171
41.25760168
82.43057164
74.67684723
63.65670449
93.71422288
141.7675368
155.694014
126.7159106
87.30463257
69.01551009
78.56800267
84.0388872
33.13586716
-81.40290497
-198.7713755
-258.1497418
-255.35893
-222.757325
-197.0919131
-201.0256743
-209.8548078
-161.1164134
-45.5555296
56.38923533
82.84538564
73.96368753
89.20768475
113.6472613
106.8380533
78.94348073
69.62012428
99.07674102
161.2953978
228.3001963
261.0423829
246.7498144
216.9822234
209.8321117
228.9658619
249.0914131
244.5050885
210.4459939
171.095374
157.6309931
168.1047905
171.7778116
155.4929833
131.0821767
108.4226822
95.88229646
91.94352695
54.74518531
-51.86671238
-173.8981539
-220.6648552
-198.64273
-193.2767437
-234.1355766
-276.8170518
-298.5581481
-319.2198782
-342.5406536
-354.6640083
-364.3547823
-380.5818236
-378.6094342
-341.890126
-292.661609
-239.792368
-159.790414
-60.46255549
11.63256911
52.04824565
114.7446361
231.4802704
376.4279275
511.8876102
611.9766586
651.3957825
624.5909818
562.6490544
493.8342137
410.4509873
296.5053742
161.3040876
38.8951307
-33.95610004
-61.14958073
-105.7040375
-218.8058454
-361.9364575
-447.4360517
-435.8406906
-362.5615654
-300.6837136
-305.4929254
-357.5212301
-375.9398996
-322.0253882
-242.1568418
-174.8085421
-95.47445203
-1.98185843
43.68174979
21.04173446
-0.19336821
28.35547616
77.11692837
126.371441
194.4299955
261.1594943
280.6617577
273.4796389
299.6672549
349.2778021
353.3745363
292.3808354
216.7771476
167.4010209
132.714782
84.0456097
15.03520981
-58.68393083
-123.0540861
-181.3815143
-242.2951653
-306.3457311
-383.4085815
-490.2747939
-601.1291871
-654.5860091
-640.1263486
-605.7876441
-566.1845305
-498.141701
-426.2378816
-399.2556047
-391.2386111
-338.468326
-250.1024217
-175.2362348
-101.0818483
13.26119366
151.6698678
281.1271599
417.5478155
574.6620693
714.8357005
810.6128603
882.8545002
939.0037854
949.4325281
907.3610744
845.4681738
789.8417342
746.6648867
713.8053269
666.6557371
564.2673234
396.5488227
195.3240962
-2.7434387
-168.9916228
-282.0884228
-357.5918698
-442.7574055
-548.7369784
-636.7806352
-685.0691617
-706.3437621
-704.6627834
-680.1697283
-649.9814688
-603.6312877
-485.5081645
-276.5381563
-35.6540573
177.8793559
353.4127391
477.9894741
519.3891498
484.1856025
426.3018533
387.4834037
372.3789255
363.5218759
326.1563913
233.1643564
111.1935745
24.94763833
4.42275573
22.50557643
40.62952695
41.19298168
22.07965274
-15.31796923
-82.1075009
-209.3622246
-408.8433391
-626.0994628
-775.9604503
-828.9756658
-827.1756798
-823.7172707
-835.976815
-838.444075
-793.8894995
-714.9088612
-659.826118
-634.6465409
-569.4249259
-429.156616
-263.7529488
-120.902603
5.782304041
129.6235838
248.5447306
368.9608049
490.3111226
582.6596055
630.8272517
669.6895806
732.5829774
808.6256172
885.4313316
974.3004227
1062.275952
1103.958381
1079.561299
1003.853472
891.3209362
768.2328734
675.976537
607.4195764
493.9399532
297.181222
59.58862021
-154.5135181
-310.0380566
-393.3518209
-423.0386368
-466.6771423
-576.0258506
-714.9517885
-815.4435819
-869.1309026
-897.2433566
-879.1074072
-772.7503672
-577.9654873
-358.913353
-218.8561243
-226.3683438
-350.8972816
-506.2004762
-641.230715
-733.7959876
-740.0461043
-634.1963729
-460.5021398
-274.8898739
-84.48514442
99.74531216
225.8426778
277.1763845
311.3458754
376.0189441
456.1499913
521.8777197
552.9904638
523.4129508
440.7471508
377.5615767
388.5163807
428.7036728
418.6142871
356.3472867
313.5019143
346.3201808
442.1024746
529.5915112
534.0409998
450.9202607
355.1324706
310.583108
304.3399767
289.2182655
233.0893293
114.0489086
-65.94968944
-256.48109
-395.4335501
-458.1509608
-449.3310426
-383.4302437
-284.1923308
-166.5722004
-29.1915796
97.07590276
131.9187042
40.62668288
-95.82535505
-177.6649939
-198.852305
-193.392067
-153.3846223
-76.48997714
-0.133159575
74.70585305
191.8310081
326.2545703
364.1365411
231.9693013
-27.85313021
-307.5241155
-497.094693
-532.1241117
-443.7052322
-335.0865067
-275.8721146
-244.790366
-174.1842079
-20.04719175
193.2762023
388.5997036
534.2873644
695.0779646
917.0976244
1128.71215
1242.609244
1276.518097
1293.778693
1301.653037
1255.211389
1086.282104
713.1622815
102.7861078
-654.3334388
-1374.280966
-1894.597914
-2158.460519
-2223.428357
-2211.890648
-2224.077701
-2270.049917
-2286.918517
-2209.860616
-2008.981446
-1695.554445
-1338.64985
-1036.493121
-818.6409399
-619.0909204
-391.5404099
-187.5659292
-65.21369614
8.150693449
95.43972249
199.2984094
299.302093
414.954136
561.7836179
699.5308201
782.9452633
820.5404983
848.0582498
879.3147806
905.2401432
931.2279039
995.8666771
1118.295868
1240.22234
1289.084569
1285.683407
1308.151301
1383.653841
1506.456742
1701.396868
1959.620297
2173.21687
2238.653919
2170.020346
2043.522186
1918.479313
1859.455824
1897.90192
1904.094743
1639.71091
1016.984428
205.9330649
-546.8719754
-1110.274111
-1478.259073
-1700.928947
-1846.812519
-1973.689092
-2088.599915
-2141.55766
-2083.975552
-1943.699656
-1814.68826
-1739.68033
-1635.257988
-1399.151745
-1073.264821
-819.9041579
-745.9756714
-821.8922399
-945.1742721
-1014.925291
-984.1603791
-892.5461846
-809.6858084
-739.4597491
-636.7464579
-492.4840049
-333.3145928
-185.9746064
-107.07719
-159.7166813
-278.3591456
-265.4106366
-17.07799244
359.5497289
737.6408204
1140.876827
1624.329874
2115.806525
2485.688292
2687.335657
2745.469878
2673.856552
2479.599535
2211.164243
1943.727262
1724.909405
1545.020984
1329.970788
966.596939
389.69706
-341.098496
-1088.132171
-1763.390127
-2376.83155
-2954.08474
-3439.451199
-3722.635563
-3773.771518
-3692.184924
-3569.203991
-3374.831732
-3055.188017
-2653.274427
-2243.907255
-1842.10474
-1453.738009
-1111.414606
-792.9806684
-416.4369468
22.08315454
405.2513079
630.7711009
697.9228429
640.554534
470.5599922
211.3320453
-72.98135224
-293.8289728
-369.8224133
-261.2739582
19.01594887
432.3528113
925.9642891
1421.225541
1856.495487
2270.302541
2779.967639
3439.918864
4172.371356
4858.52967
5427.48528
5835.227274
6047.832281
6085.63801
6009.543699
5828.489665
5471.217156
4875.048394
4081.400355
3220.628947
2390.305296
1575.747983
734.2973201
-79.97140345
-765.7733134
-1342.436958
-1973.311596
-2793.369943
-3769.372702
-4742.029069
-5553.031741
-6121.790807
-6448.15853
-6562.317096
-6471.613992
-6185.015078
-5772.264711
-5308.847283
-4770.222644
-4110.325827
-3443.650278
-2977.346757
-2723.753918
-2447.971083
-1975.070869
-1434.956323
-1139.772673
-1274.322687
-1709.78749
-2073.449128
-2033.252
-1567.534926
-935.8963004
-385.8389488
55.21437908
512.7154607
1072.530259
1677.974022
2187.17774
2502.863867
2632.501637
2664.181345
2730.798322
2935.018586
3239.116051
3497.973712
3655.599142
3815.359333
4077.16151
4423.233349
4794.796797
5138.732782
5332.710832
5209.316669
4719.122065
3963.894812
3059.472577
2097.050269
1221.474221
581.432374
185.2892966
-82.14275516
-313.2844424
-537.2445487
-778.1271182
-1044.708014
-1283.115262
-1426.558778
-1493.714012
-1601.781237
-1878.77692
-2342.417962
-2857.793333
-3277.981081
-3624.862856
-4015.427686
-4421.288003
-4661.148994
-4627.868604
-4377.723807
-4020.298502
-3638.949457
-3275.083839
-2905.873781
-2483.78043
-2022.909936
-1570.774216
-1101.902315
-549.8590191
53.79373106
593.5081832
1043.177897
1508.297874
2052.945399
2585.139898
2966.124941
3153.283298
3182.784596
3076.379642
2837.727247
2527.885074
2275.90415
2161.328101
2105.893191
1955.325116
1679.360071
1410.467805
1265.282764
1227.41739
1246.434103
1345.514073
1562.857833
1861.410888
2147.558494
2327.303039
2333.377602
2148.73817
1811.306589
1394.535636
995.1897452
675.2156818
355.6898025
-145.070215
-884.6404028
-1686.985939
-2320.879295
-2693.418669
-2831.851484
-2822.853553
-2843.902523
-3102.261972
-3633.896381
-4265.744639
-4832.78998
-5310.62555
-5704.41551
-5946.766955
-5944.690689
-5638.694898
-5015.878839
-4132.899193
-3117.726691
-2103.78833
-1155.478082
-266.8068215
575.0398572
1355.323993
2070.466871
2749.977913
3404.318287
3997.352127
4503.098085
4938.434908
5308.402571
5585.461652
5790.529572
6004.427399
6201.166668
6152.809765
5639.182699
4713.596282
3650.553512
2680.580848
1884.358458
1288.810269
919.5530912
728.9444219
551.6595999
200.4004984
-367.6448027
-993.0958724
-1463.091201
-1711.422554
-1815.975813
-1829.069458
-1727.730337
-1532.885312
-1357.264021
-1316.197564
-1461.465997
-1774.595445
-2163.802835
-2511.92952
-2757.686956
-2871.563296
-2782.698401
-2462.044392
-2056.695581
-1775.993658
-1647.747257
-1537.924959
-1366.737967
-1134.684343
-812.4415959
-407.3612078
-78.18421481
-1.053728236
-157.1980958
-374.4582051
-537.3235941
-658.8709199
-763.7407545
-793.5508376
-690.9018015
-549.5039222
-579.0234324
-868.9210443
-1252.124535
-1457.077007
-1347.689338
-991.8804443
-575.6847893
-278.3277352
-133.6262483
20.96321264
370.3711048
895.8721668
1418.972914
1828.03798
2122.036024
2267.299449
2184.919152
1908.642754
1617.892181
1445.948796
1342.438991
1195.883143
1018.707656
917.7493598
921.7195741
937.280387
874.5146229
735.4422366
572.0126165
442.9985733
433.9970067
617.8497244
951.4933021
1319.217448
1705.616655
2175.764858
2661.736951
2958.470166
2974.25011
2823.566251
2650.292178
2484.70348
2268.09053
1934.27532
1503.47273
1135.849353
1005.3688
1073.189212
1075.818042
784.194511
203.2384085
-506.1899344
-1224.662078
-1951.042329
-2713.111611
-3447.293219
-4008.747978
-4308.068827
-4404.372653
-4464.193279
-4663.270271
-5088.177045
-5643.242806
-6069.430309
-6156.778327
-5945.217982
-5633.432699
-5305.504716
-4860.470497
-4209.348281
-3411.040366
-2587.471994
-1809.183779
-1087.12802
-401.8971544
277.7300041
976.7207328
1715.727734
2523.924381
3414.709839
4341.889602
5202.138952
5885.247537
6320.68862
6499.89421
6468.582206
6273.778006
5914.86608
5378.952683
4699.172506
3914.085794
3013.941547
2027.538265
1114.301783
438.2371343
-30.79859672
-477.2800465
-1013.914783
-1575.608935
-2010.141035
-2204.8119
-2149.21439
-1930.7131
-1671.858179
-1464.790848
-1364.775293
-1409.580948
-1602.16124
-1873.312108
-2072.065238
-2015.15402
-1609.522405
-950.1846467
-235.9511292
417.7847379
1006.378058
1507.164435
1838.222456
1921.852314
1701.843666
1171.821632
490.665522
-22.90575528
-152.2721874
-5.555229728
124.8111683
95.97194589
13.89652026
32.8077159
192.2689809
472.9260664
872.1975783
1336.401905
1694.84414
1762.488837
1506.278796
1052.377723
517.6406971
-105.4758363
-847.4533731
-1602.242949
-2173.713599
-2483.815089
-2636.941771
-2741.869357
-2758.906321
-2591.369288
-2258.734466
-1888.210145
-1562.584198
-1252.168182
-901.4428041
-529.3416496
-206.4843295
43.51522553
266.914399
513.0266692
806.2702437
1171.302839
1604.778871
2025.877719
2320.776212
2414.32201
2253.846679
1796.744464
1095.579887
339.1491151
-270.0992205
-660.1933522
-902.3057655
-1142.797304
-1522.076553
-2070.439227
-2654.34132
-3072.822795
-3215.17957
-3106.438927
-2841.706796
-2529.307152
-2259.681415
-2050.128042
-1819.153397
-1468.965935
-994.9983207
-481.4176618
2.581687661
478.7594135
1017.847991
1580.938835
1921.083885
1782.341184
1246.56892
733.0208729
576.7008744
723.2973387
887.3493127
890.5288999
773.6293638
655.7994359
590.0021343
572.7788699
625.6339334
802.1250298
1122.044519
1536.497373
1967.546519
2373.890016
2772.096773
3185.649803
3574.045132
3847.37048
3988.346691
4112.984313
4317.619708
4497.516055
4439.884367
4081.20422
3552.482313
2994.047174
2454.079445
1949.148476
1479.216277
968.4201018
321.4002041
-431.7416773
-1152.184045
-1760.898543
-2276.968255
-2692.880314
-2941.832288
-3015.867026
-3031.583976
-3132.751227
-3321.686131
-3399.331262
-3144.599283
-2600.08625
-2100.635465
-1943.667737
-2109.7723
-2402.295935
-2767.303148
-3301.27113
-3952.353831
-4400.292606
-4350.543386
-3890.751197
-3439.585289
-3306.787655
-3391.514702
-3405.341262
-3287.605712
-3201.623854
-3181.069637
-3039.160749
-2641.224369
-2048.747789
-1382.521851
-731.7510203
-188.6566615
217.1665566
636.6821794
1299.877405
2243.918689
3214.700893
3870.6281
4063.146967
3925.274656
3720.450895
3638.848473
3740.258097
4008.811903
4378.890694
4754.122957
5063.708482
5257.056356
5245.889652
4954.057251
4420.230984
3750.075943
2994.67085
2163.35677
1297.286939
447.2999995
-356.306684
-1049.987826
-1530.912112
-1767.314761
-1851.634569
-1897.582385
-1929.684943
-1889.489732
-1718.309982
-1444.567201
-1196.230148
-1081.999041
-1062.982003
-1000.553871
-815.4612291
-541.2001724
-281.6699835
-212.2521638
-523.396
-1195.589965
-1889.237247
-2207.463949
-2035.337186
-1565.443649
-1102.508284
-895.7669749
-1025.33582
-1371.998129
-1746.524694
-2048.650266
-2290.80232
-2523.446781
-2721.655381
-2702.571625
-2258.82551
-1436.547386
-523.3805873
311.40924
1155.958878
2021.406356
2592.348736
2505.923265
1758.18451
705.9310922
-202.8756504
-624.976824
-466.7472066
16.81014028
418.143026
582.8429715
719.6621219
1088.657229
1724.59837
2495.552057
3282.838068
4020.823423
4644.098514
5094.03648
5377.132172
5559.928082
5672.001565
5625.977034
5261.578361
4481.397776
3347.674903
2056.928073
811.1829402
-325.5116098
-1443.913644
-2612.518234
-3700.135022
-4464.852675
-4829.772755
-5000.409616
-5291.697321
-5854.258681
-6542.616231
-7038.540149
-7132.784342
-6876.226373
-6424.939317
-5799.105052
-4896.150115
-3712.870241
-2429.456439
-1251.930452
-251.9051037
626.9656091
1457.33168
2225.887187
2831.100975
3200.700191
3390.636987
3528.648899
3681.382913
3808.382373
3829.968851
3725.447057
3564.402483
3412.849923
3203.874193
2785.214245
2147.125513
1499.028291
1033.740458
734.5944188
514.4832867
383.3916142
331.9677735
194.3657767
-221.3132086
-942.4872506
-1813.493674
-2568.998919
-2953.615641
-2903.829768
-2597.848415
-2259.252556
-1980.83335
-1765.094863
-1593.010048
-1405.25274
-1171.276287
-1031.237238
-1210.44791
-1728.058231
-2324.422141
-2711.300618
-2777.821973
-2583.719135
-2292.054058
-2057.855522
-1871.489041
-1590.589085
-1170.416067
-706.3411168
-210.5660609
457.7723954
1358.178469
2303.02704
3015.011204
3395.414893
3582.869229
3760.967123
3949.666214
4014.869379
3859.165014
3543.863621
3230.985842
3071.613029
3132.003183
3347.522369
3558.518964
3633.894541
3523.438917
3202.139991
2687.389067
2139.544099
1815.421524
1845.458717
2100.04714
2290.390949
2174.578066
1716.337083
1116.418784
645.5771154
376.8478818
138.0306346
-216.9777833
-594.0519597
-811.4211222
-883.1040111
-1043.447815
-1509.254968
-2261.791739
-3064.586683
-3708.879495
-4228.588528
-4805.510094
-5473.717862
-6035.071171
-6290.886087
-6234.722009
-5967.320409
-5536.880232
-4947.044614
-4259.81124
-3616.454476
-3155.091136
-2906.862696
-2767.881429
-2600.01225
-2352.88398
-2041.096462
-1637.667967
-1083.451612
-394.8300476
297.9622009
800.1161966
954.7382149
817.4314582
722.6913193
1011.562383
1690.071207
2489.949046
3181.252372
3658.760383
3865.249297
3860.908799
3872.569185
4078.502588
4397.233183
4586.01085
4452.70255
3907.739393
2968.561137
1846.706797
905.165611
370.5602537
151.4540446
28.62226366
-105.0839758
-298.4886495
-655.1640942
-1204.803602
-1753.852022
-2020.541641
-1890.88045
-1462.549119
-891.6824527
-312.8711324
102.4121164
176.3701687
-68.61511744
-322.2983346
-240.6621571
241.3394802
915.4582837
1523.152407
1894.415671
1997.687185
1977.585551
2053.455196
2281.149892
2486.311177
2486.470618
2284.561327
1997.35785
1697.362605
1383.611228
1034.191978
648.6421396
292.0474944
103.5173378
191.9466059
492.328909
742.3742175
618.6953547
-39.03387267
-1057.772031
-2028.012143
-2667.878494
-3049.729963
-3394.404966
-3739.385794
-3924.87021
-3832.975524
-3526.401115
-3167.050672
-2847.652096
-2516.673908
-2082.964091
-1570.951428
-1126.016523
-898.7167711
-969.6126071
-1321.891651
-1804.561268
-2155.244795
-2143.859541
-1732.41884
-1094.049255
-471.0935493
-8.279948106
300.0195236
535.6539375
751.4337555
944.9061481
1115.806573
1286.493758
1441.977822
1520.690829
1508.703189
1481.222224
1509.977531
1592.868271
1715.319633
1907.744025
2184.749595
2485.649391
2728.355931
2887.894584
2991.855748
3038.989635
2927.086138
2529.953417
1895.163832
1246.192308
701.9745681
134.5545242
-614.609721
-1518.584505
-2402.892839
-3056.255471
-3303.720251
-3110.6417
-2615.272403
-1987.972126
-1327.536298
-753.8712958
-468.6771022
-603.5101724
-1074.431135
-1648.938431
-2090.670213
-2236.142237
-2055.583707
-1681.055844
-1299.047294
-1007.508625
-809.3306031
-665.5835159
-482.5012242
-141.6005748
356.4609286
844.2118704
1156.581878
1283.860513
1311.533932
1289.935237
1226.198667
1171.199868
1275.006664
1713.697562
2484.102772
3283.922317
3717.006787
3643.84696
3258.205668
2852.108972
2593.806514
2499.901238
2518.138963
2588.153186
2636.672964
2565.122187
2292.192516
1809.706386
1167.688538
412.0439272
-420.7209953
-1258.025252
-2018.194087
-2692.942768
-3311.655041
-3811.139722
-4050.629066
-3981.262723
-3708.07573
-3366.463075
-2995.116999
-2524.278135
-1864.528894
-1037.548167
-211.4166933
454.4949919
966.1346576
1391.376951
1649.37499
1575.739732
1178.307619
632.2588447
21.92118479
-720.5338389
-1611.071272
-2510.243262
-3239.31864
-3702.705671
-3898.571574
-3870.935031
-3664.104932
-3306.635553
-2813.25556
-2190.307026
-1479.060833
-812.0941481
-354.2572857
-138.6618066
-11.8517978
239.4789707
750.7097114
1516.477391
2365.974075
3042.698718
3384.194505
3374.948826
3043.372532
2476.542876
1933.329153
1709.576477
1819.148638
1978.765841
1960.51364
1811.844626
1697.538234
1685.890919
1752.758502
1866.851812
1978.048008
1974.446884
1736.279201
1267.814982
762.0535179
478.7572288
516.2963691
738.0014773
944.4596875
1036.176978
980.3257257
745.8311911
331.5816343
-231.7448548
-924.4896502
-1707.735589
-2476.992396
-3119.917768
-3587.610649
-3875.217578
-4008.84354
-4084.667894
-4221.870818
-4427.313183
-4577.998853
-4551.196985
-4293.242328
-3771.000478
-2967.154141
-1947.490117
-852.3239667
214.3171709
1253.049865
2293.772329
3256.125989
3953.825329
4300.810064
4439.018038
4557.095336
4660.166681
4646.512072
4524.245181
4385.594587
4221.957866
3939.264372
3540.182824
3138.35058
2793.231566
2445.661054
1998.062001
1376.153773
561.5255639
-359.2534891
-1214.234467
-1862.363311
-2276.379589
-2509.827854
-2606.52808
-2554.270311
-2344.733131
-2068.572125
-1867.562199
-1754.023074
-1571.619748
-1194.512634
-683.0975518
-200.9328976
130.8974543
272.3214956
266.7746246
217.2061514
143.0826029
-121.2175687
-746.1387651
-1643.671777
-2512.186332
-3125.784147
-3487.524435
-3735.859498
-3984.377134
-4218.56507
-4277.376652
-3970.486142
-3285.469003
-2447.891119
-1713.82681
-1149.241206
-668.80517
-213.5277014
201.0526562
577.452451
994.6639771
1540.949162
2197.453524
2813.509184
3203.557075
3252.920731
2956.00551
2422.537065
1858.439694
1480.210263
1396.591289
1530.846191
1641.063788
1506.598257
1183.358969
990.908916
1146.60283
1506.334491
1755.71779
1718.292112
1375.536442
784.2089596
148.7175627
-209.0732731
-176.8790521
-48.86496946
-223.0266418
-770.6238828
-1410.088075
-1806.661089
-1794.862891
-1408.696011
-822.7003041
-238.5761771
227.5598079
541.0951986
673.065157
614.4326608
459.0043005
394.10716
575.6177958
1002.282655
1501.810566
1876.938922
2092.780448
2275.672969
2522.705008
2784.550735
2922.928747
2793.99081
2311.060023
1534.714722
665.6983901
-142.3393738
-896.7280031
-1610.362973
-2159.801573
-2443.358799
-2572.844262
-2746.257195
-2999.779773
-3210.169855
-3273.752528
-3182.294981
-2983.129257
-2739.636455
-2479.987617
-2138.80137
-1598.823376
-824.2793186
72.83913594
898.2174566
1481.162148
1735.698317
1659.095172
1305.461077
807.1360405
394.7303364
255.0430842
321.5621907
327.1303618
101.1606155
-285.6376618
-654.6461776
-875.9091706
-916.7365839
-844.4587774
-765.8944023
-716.9527215
-660.3952342
-584.5503551
-486.2980938
-261.836648
214.1682606
842.0415973
1265.744484
1175.612709
588.7790424
-185.1900575
-770.8155159
-908.6226825
-550.8279101
97.83006609
658.1648161
815.2221599
564.9756966
219.1749859
129.830776
403.2005638
858.1318123
1190.090398
1169.807592
786.0513381
259.6566995
-126.187259
-237.0165014
-101.5153295
222.8706667
662.7637642
1045.354834
1189.677403
1086.726536
845.7421599
518.2185688
134.6194742
-180.9797721
-331.861533
-417.9305037
-614.8240947
-942.8203143
-1277.230815
-1501.986158
-1556.29105
-1443.861961
-1290.366091
-1276.745311
-1426.947642
-1553.746782
-1480.659932
-1239.466191
-989.9610956
-815.4285837
-682.0081246
-541.6946116
-332.0510686
107.0670749
911.9877994
1918.43545
2682.743133
2903.588739
2722.596471
2505.138325
2408.88419
2298.637932
2040.794553
1711.352548
1472.807775
1374.808104
1350.681156
1351.83779
1423.566355
1640.313667
1989.783251
2353.983436
2593.584999
2614.485948
2395.45741
2036.248832
1740.563708
1623.259642
1534.446253
1203.845944
583.4781608
-53.58555985
-366.5845306
-237.7047545
132.6361994
335.4138107
33.35756667
-782.0577704
-1883.753352
-3167.744714
-4733.537257
-6548.703372
-8265.828422
-9513.550834
-10192.05867
-10356.00516
-10001.54181
-9162.695029
-8097.531152
-7150.734839
-6405.418844
-5600.392622
-4450.889736
-2964.253616
-1350.38809
289.1909743
2008.776111
3799.640031
5531.955116
7098.86011
8416.257957
9311.590761
9617.043973
9356.556234
8712.971715
7870.001785
6964.017392
6099.706967
5340.733972
4716.266177
4218.116031
3740.785648
3086.553865
2145.768418
1076.276761
220.3351945
-180.5773443
-154.2418743
93.48036053
367.5828257
573.4639615
671.1279718
586.56718
204.7610994
-529.2591458
-1532.281031
-2627.565695
-3625.99214
-4360.500185
-4734.495421
-4784.400094
-4637.016875
-4391.306736
-4098.222846
-3835.049898
-3722.926736
-3866.40445
-4277.974939
-4822.76552
-5266.639106
-5431.149828
-5259.7207
-4739.091438
-3901.07463
-2932.735079
-2106.643365
-1521.602333
-1037.921746
-496.3904985
146.2072972
898.0981706
1762.142238
2672.987416
3577.794419
4552.073574
5629.436818
6549.701392
6917.728187
6638.541693
6029.311693
5513.939375
5336.590868
5500.111347
5813.335929
6007.997116
5905.09698
5492.626044
4884.30585
4260.861448
3788.64131
3496.644374
3257.379671
2929.110622
2464.705099
1883.218325
1236.858745
612.8512031
77.46619242
-380.1433705
-809.4790905
-1263.243235
-1819.377256
-2536.755434
-3370.562231
-4231.047041
-5113.409598
-6057.782598
-7000.831732
-7780.252044
-8292.410534
-8582.155478
-8771.738376
-8922.378807
-8975.326012
-8849.264641
-8568.004621
-8203.175762
-7701.916883
-6910.912013
-5791.15958
-4446.893768
-2914.507375
-1139.650454
748.3293793
2360.238686
3403.634824
3985.84923
4447.714928
5000.873301
5614.551998
6164.592759
6585.438518
6883.254787
7065.036792
7104.109787
6973.46743
6676.493196
6232.952674
5639.648654
4842.072471
3790.770953
2595.793705
1581.083921
1058.025158
1029.173358
1212.310017
1358.868695
1430.649558
1445.756199
1307.333166
895.917699
251.9353023
-443.0361615
-1037.486785
-1491.152966
-1811.297298
-1977.79106
-1962.946587
-1830.114202
-1785.828716
-2078.422155
-2815.345152
-3874.108946
-4970.046955
-5804.183787
-6186.352453
-6074.965699
-5546.775622
-4750.907026
-3871.110975
-3070.212757
-2406.121507
-1795.294499
-1113.927564
-360.2369544
324.3244973
816.7076366
1174.399248
1625.840948
2384.68591
3453.442487
4618.2512
5608.304411
6200.481253
6249.633446
5792.094016
5101.744745
4477.724295
3971.072428
3420.469233
2700.960333
1835.344247
946.2981811
214.0451594
-202.8314944
-305.8805805
-228.6508323
-16.96816622
414.9292756
1045.405348
1626.900317
1889.661857
1757.599734
1348.654448
872.1714024
482.1478544
80.8752251
-675.2212298
-1986.946617
-3555.605236
-4789.98465
-5369.516053
-5473.524819
-5468.805502
-5508.677076
-5492.443813
-5332.830775
-5111.313225
-4888.344773
-4469.880907
-3542.393739
-2054.998682
-352.4661976
1127.759881
2264.578108
3298.982095
4422.487744
5411.717039
5856.184875
5711.822974
5368.227962
5113.681567
4775.984199
3987.555587
2597.438842
710.5746703
-1497.410728
-3845.456576
-6095.149383
-7946.999999
-9137.246799
-9587.08688
-9465.158926
-9026.26489
-8356.884643
-7354.329682
-5969.901692
-4345.723042
-2646.38031
-882.0754654
990.793798
2886.421215
4628.11071
6130.884936
7474.835627
8791.309461
10033.14138
10838.11524
10751.46058
9680.353647
8039.981011
6398.761853
5068.348018
4034.462019
3141.368843
2292.087293
1523.998299
894.6345901
323.9662893
-329.6537526
-1032.935704
-1569.607339
-1796.153813
-1774.40636
-1647.284582
-1521.584556
-1490.71209
-1663.08777
-2114.465164
-2806.935792
-3540.305111
-4028.516049
-4100.287116
-3815.529911
-3359.494676
-2885.357701
-2483.372864
-2189.57206
-1951.73697
-1671.131041
-1331.736817
-1006.230587
-709.1956008
-356.8042161
82.52597245
495.4381351
747.3319047
849.6979925
932.7562203
1041.129782
1021.403105
689.0213211
94.13430869
-467.3820857
-736.3932207
-712.1534565
-561.4268562
-388.8718468
-147.1965827
284.4169107
963.0251867
1787.598671
2560.504918
3167.88866
3634.362067
3993.453887
4223.579715
4315.386147
4255.215351
3947.689962
3314.44921
2459.095122
1586.187646
780.5249094
-9.301796927
-831.6216658
-1718.148915
-2742.697063
-3924.36793
-5079.230684
-5893.87574
-6187.003787
-6082.987239
-5938.873684
-6068.858442
-6449.874037
-6670.041755
-6240.77329
-5050.315842
-3539.505606
-2373.321438
-1861.725198
-1702.809556
-1309.742
-331.6691352
1151.201948
2805.336021
4310.067283
5506.844886
6383.375249
6955.013953
7201.054841
7140.424277
6902.268546
6632.119851
6361.565155
6058.385967
5754.837353
5501.055667
5226.805943
4801.588085
4234.857933
3677.315513
3202.925507
2703.562625
2037.281062
1221.971237
423.5581369
-308.1876997
-1279.987732
-2953.279459
-5373.430601
-7954.805866
-10000.35707
-11283.90056
-11961.51704
-12134.6143
-11771.06663
-10920.21253
-9736.581849
-8332.323596
-6786.16294
-5263.109557
-3974.483318
-2999.067903
-2197.970336
-1295.474596
-15.45509572
1799.639505
4053.694338
6291.038378
7847.900708
8317.862391
7880.603959
7050.301985
6165.444532
5288.843291
4483.492345
3902.398915
3618.425534
3563.203491
3607.483905
3564.725208
3197.881444
2395.400224
1317.773017
264.375518
-555.1709433
-1044.165765
-1147.041465
-920.905591
-606.2776071
-457.4278995
-496.8603028
-515.7398333
-304.3954412
166.7346001
770.6805597
1356.132528
1835.48492
2213.275058
2582.753354
3009.377124
3331.902098
3201.974819
2471.54793
1420.997048
425.2165421
-470.3297331
-1426.641771
-2404.832463
-3151.153049
-3527.915054
-3635.352826
-3626.036168
-3553.314819
-3372.062233
-2975.523873
-2271.941324
-1304.744441
-256.4549634
693.7029856
1448.944355
1945.647227
2150.160453
2132.391566
2047.936065
2013.544422
2031.427001
2002.25598
1770.150363
1218.005645
390.7178768
-512.5271413
-1340.009697
-2189.841884
-3348.526641
-4940.442093
-6644.335655
-7882.782238
-8336.654228
-8163.250871
-7684.589383
-7012.393038
-6058.410019
-4811.468475
-3495.602289
-2428.597549
-1732.820973
-1232.684578
-676.0443436
17.30797021
811.6753096
1759.372041
2960.219882
4314.643941
5496.886646
6246.989426
6575.793079
6637.162196
6514.858176
6193.421224
5670.343965
5056.723368
4564.077874
4334.519255
4249.083523
3981.713455
3321.268662
2408.858319
1607.570966
1161.263154
1000.874218
852.7787023
518.8238636
48.05648005
-375.5969171
-658.6512056
-839.1991019
-979.1071957
-1129.810102
-1333.170524
-1545.630287
-1642.668518
-1581.738055
-1450.465789
-1294.038502
-1049.621145
-724.342762
-470.0344764
-386.1367634
-385.2261159
-328.7966772
-180.8216969
7.82097228
146.2461301
113.9487399
-165.8994378
-644.8111898
-1211.845358
-1818.44791
-2452.851746
-3004.53345
-3262.589159
-3093.037899
-2570.984338
-1909.719635
-1293.602944
-811.9767751
-513.5168769
-423.060323
-462.7277266
-438.7222343
-195.6656173
234.7972597
679.6508398
977.9823699
1052.000241
874.7913889
435.9766431
-236.1080351
-1035.45808
-1810.234388
-2455.816548
-2939.404305
-3229.18345
-3272.334399
-3073.05045
-2722.242056
-2299.929902
-1798.639899
-1192.085317
-526.2917082
122.4297546
750.1319312
1442.349737
2298.525456
3317.906977
4331.59559
5119.098561
5629.975784
5962.481036
6077.277497
5734.259675
4836.647225
3668.567309
2647.530301
1954.465197
1519.766684
1266.793882
1228.349277
1438.212356
1787.64674
2036.38591
2002.317995
1726.975438
1392.215642
1110.464203
885.5722093
696.5720628
478.3588317
104.8106308
-451.7689288
-1019.372578
-1424.100722
-1709.246499
-2033.627028
-2445.974207
-2885.875565
-3316.808838
-3726.860234
-4053.669708
-4214.002756
-4195.136818
-4073.504607
-3943.079004
-3826.826432
-3679.582888
-3512.643105
-3460.794259
-3626.357838
-3878.001711
-3900.589857
-3460.900237
-2609.551016
-1648.771223
-874.7381269
-283.9989523
411.0999129
1385.204109
2415.177752
3126.90154
3418.803034
3477.171244
3478.435894
3465.569577
3445.194091
3415.860957
3311.478943
3049.049138
2640.269737
2175.9025
1700.612362
1174.245614
574.8209393
-21.55883994
-508.8579601
-856.2891821
-1086.380465
-1190.210929
-1160.349847
-1096.169462
-1165.154701
-1433.425691
-1813.967985
-2178.520925
-2422.359305
-2432.771486
-2115.005105
-1475.312966
-632.273442
230.739116
918.2666503
1325.174475
1536.180433
1759.845279
2132.728963
2619.016277
3074.419052
3345.678352
3340.427282
3085.073166
2713.167815
2353.784738
2048.33768
1772.96336
1469.916848
1060.837775
524.4875693
-29.0961806
-433.4394439
-615.73245
-645.1792309
-669.2942288
-805.6269994
-1032.090042
-1195.576511
-1192.842883
-1096.168241
-1023.817314
-958.4146158
-798.8209762
-535.4088045
-269.2603393
-96.39749295
-51.85590792
-119.1844837
-224.0515044
-267.4166159
-218.6514302
-122.6351921
6.96531845
212.1647342
481.3210139
705.8534857
774.9222497
656.257939
396.1248602
101.1425357
-103.2864976
-156.2440498
-101.5553632
-53.85692861
-164.3732832
-559.870469
-1214.037281
-1926.150496
-2508.311104
-2937.812402
-3296.311734
-3652.811063
-4019.51275
-4333.954666
-4481.214438
-4389.295119
-4107.651637
-3793.371134
-3612.909169
-3586.984734
-3511.022519
-3114.934928
-2328.107082
-1313.874062
-256.7370162
774.3845386
1758.513008
2647.691317
3383.481477
3901.693453
4142.180105
4145.929254
4086.740216
4107.656541
4199.811868
4310.092357
4423.034972
4442.961662
4182.062161
3616.836829
3006.296411
2622.852418
2505.649324
2557.177613
2692.792013
2806.329715
2763.358522
2525.983897
2201.684919
1938.311643
1803.868613
1752.766563
1699.194648
1626.702958
1570.271294
1473.702065
1171.419395
580.7051828
-160.6642981
-812.809977
-1252.044549
-1545.270353
-1850.259647
-2258.674851
-2703.407093
-3018.015966
-3109.74113
-3058.817162
-3025.120072
-3069.574319
-3088.765906
-2933.759165
-2585.685871
-2195.916821
-1958.166679
-1962.70802
-2147.96416
-2334.824811
-2328.549619
-2081.764262
-1781.890632
-1711.673296
-2007.208207
-2588.355006
-3260.525264
-3781.851513
-3918.092379
-3613.226699
-3090.125882
-2647.750808
-2375.191439
-2148.936758
-1838.397214
-1402.138481
-845.6375206
-200.665453
484.2831169
1196.674967
1954.572926
2717.500789
3369.769769
3819.181364
4071.623881
4206.727014
4287.425438
4265.251014
4003.83653
3462.524614
2816.475427
2314.096173
2052.778572
1953.43125
1894.971865
1815.206515
1742.123115
1776.542158
1978.515916
2228.187386
2270.031659
1939.396191
1298.430803
555.1282111
-74.55052752
-454.0590153
-594.2310944
-641.1773795
-731.9063433
-880.0900579
-1020.606436
-1098.169196
-1093.836869
-1026.351221
-938.9020505
-859.6068648
-791.5573889
-737.9425606
-695.8478611
-645.772054
-593.978006
-583.1101535
-609.8869733
-596.5371259
-512.8065114
-458.8802392
-544.6602291
-740.6207373
-913.6538856
-956.0694669
-844.0033416
-637.1742523
-441.7361103
-316.4961885
-222.8558313
-111.782379
-20.57740585
-25.9038334
-134.605307
-272.3846498
-349.1380262
-288.3544596
-30.33866778
423.2928589
966.7532888
1429.239171
1676.428207
1699.520405
1617.370439
1547.902423
1466.887016
1261.110542
920.2190122
577.1695356
347.2094343
214.2187452
76.36380404
-161.4622931
-510.2695007
-864.5449823
-1107.472702
-1270.255531
-1491.538049
-1811.822695
-2127.324433
-2344.150789
-2438.101005
-2363.065549
-2057.712695
-1582.103203
-1143.521198
-947.3042122
-1048.455325
-1324.74985
-1566.162821
-1623.750118
-1498.825952
-1276.384831
-994.6858032
-631.7135692
-204.102107
182.8646568
393.3682089
359.4542679
153.1700834
-25.59271327
34.80516192
412.4725375
974.0787862
1444.571338
1645.920869
1689.047639
1826.545759
2114.081625
2357.842969
2398.637454
2277.490357
2092.703169
1860.860189
1572.218456
1248.794987
887.3796098
438.5935684
-96.60576808
-589.7668398
-845.6731691
-760.4264553
-449.410859
-197.4517645
-199.6950384
-342.3368082
-319.5277551
23.42252796
538.3396744
968.519808
1209.72309
1342.364067
1468.212124
1586.244866
1632.04045
1587.017719
1492.249594
1357.829163
1139.848714
844.6580913
560.971916
325.5544609
58.22040488
-299.9639347
-682.9172788
-994.9553945
-1221.873254
-1395.450032
-1510.902195
-1529.517319
-1445.962081
-1320.705228
-1230.326565
-1197.042673
-1190.142881
-1186.215792
-1185.930711
-1166.897016
-1079.059585
-924.0817423
-784.9241696
-722.6668978
-690.2774713
-598.0498111
-421.152495
-209.8633823
-33.71016446
72.8265514
139.6361899
218.0620671
280.2197427
208.6248651
-68.26816045
-478.2490151
-885.1414207
-1205.930997
-1401.484484
-1428.038258
-1278.456658
-1034.777321
-822.4307466
-715.2620106
-680.3425039
-594.5451275
-328.3552028
165.3939341
821.1310245
1475.948224
1934.491192
2099.842892
2044.878894
1903.154922
1726.766022
1503.889071
1242.833609
958.802705
635.195678
274.2033542
-53.78517958
-269.2576497
-358.1801785
-355.7481163
-308.2599228
-269.26136
-260.2469346
-219.8406965
-68.02367529
169.7810629
372.7669215
465.6270348
489.9707306
526.1767925
591.6589833
629.3511145
565.541353
375.9431699
120.9202153
-90.57638589
-193.0852471
-207.2478414
-185.3592368
-147.7128259
-84.96525586
-6.452904768
25.94959591
-56.57221131
-231.4141513
-385.7841926
-446.3510418
-446.640315
-455.6455378
-516.2186484
-647.9528318
-832.1238942
-1006.839355
-1123.760945
-1163.980743
-1081.993796
-840.616248
-539.5472171
-379.5044699
-425.2014531
-506.9557362
-423.1834615
-156.0185248
156.4290174
381.2718783
489.3897634
554.0390814
677.9682168
891.703854
1119.784255
1263.606549
1299.131245
1269.912685
1213.959032
1143.033015
1081.020464
1074.468457
1151.372041
1289.459132
1450.244707
1652.267363
1964.167702
2374.395065
2717.965538
2805.439447
2578.376168
2092.893661
1452.100225
814.5844094
338.0393025
32.37344261
-221.8098593
-467.608738
-629.5518208
-732.8014254
-1007.375118
-1661.431558
-2632.773858
-3648.795855
-4484.773787
-5101.845716
-5548.382406
-5795.939848
-5749.083026
-5417.500258
-4977.994322
-4605.402505
-4302.259688
-3946.772838
-3455.44075
-2828.099024
-2041.37293
-977.5138015
447.7241636
2063.721773
3448.746769
4265.604642
4559.119821
4613.187612
4563.520233
4307.060758
3758.521596
3012.474825
2250.583495
1628.741313
1234.705423
1040.050918
919.5343129
791.4933722
700.0410089
724.1433621
859.3580592
1006.901061
1046.197434
945.0874947
826.7087153
854.548028
1008.725716
1080.25635
943.7202617
705.9889287
516.7758372
382.8473952
258.1600339
176.6498125
191.7973666
272.2356386
333.5130039
335.0365364
324.9046178
407.1879268
624.0986764
835.7496813
799.5744297
443.903241
-15.65586376
-313.8813199
-414.2850573
-476.9698263
-636.5181334
-901.8188412
-1210.223336
-1481.828873
-1635.351135
-1623.698494
-1479.222247
-1304.020208
-1204.309077
-1235.905218
-1393.328059
-1613.669371
-1790.388459
-1829.462814
-1714.335693
-1490.706971
-1190.043006
-818.4911008
-418.5371402
-61.26029877
236.1151695
491.7750599
644.9240534
578.9413076
301.8821965
9.982443632
-71.79458944
132.7048626
518.1772955
879.3793583
1037.442715
944.8608588
684.0531134
365.9439295
54.78782461
-214.2231909
-402.2014597
-479.4098783
-438.2960571
-286.4938107
-60.77616222
156.2532549
265.5648686
204.9016178
-12.69555789
-295.0301554
-532.7669648
-676.5866071
-711.5684283
-583.7887477
-254.962826
177.3508042
523.7973561
679.6296872
689.4487231
660.2099259
677.31405
768.1843878
878.3276404
911.2015014
827.2776739
663.7413976
466.7688762
286.4695674
212.9578275
300.9380528
462.4823124
534.5887972
455.7182022
308.0935625
193.8281554
119.8316719
8.880491936
-190.2888017
-416.1383011
-544.9404604
-525.3849442
-413.157241
-277.776648
-158.8948692
-116.5896323
-208.4275379
-383.873869
-493.352269
-421.8153501
-160.6767327
220.9722701
629.0863203
1009.055519
1372.727397
1723.135289
1992.048479
2123.948901
2174.732368
2231.082991
2258.4688
2137.786146
1863.554957
1611.861421
1573.694116
1760.986459
1982.180323
1985.573591
1634.333102
949.9444269
15.62653153
-1079.553262
-2199.875394
-3189.792152
-3979.025285
-4569.739697
-4932.56103
-5039.220007
-4974.195792
-4866.137515
-4714.76002
-4418.542826
-3970.117618
-3504.318773
-3135.073103
-2817.329537
-2389.122181
-1733.556444
-914.1722247
-163.320828
274.8870576
315.4349078
89.0427823
-156.8659596
-249.3338385
-188.7031963
-36.35193559
229.112519
647.555854
1127.814654
1506.682432
1750.559235
1976.96315
2280.596281
2653.721929
3078.97046
3595.940469
4245.708981
4963.961842
5503.874599
5514.622444
4832.152673
3700.855007
2590.120234
1792.245345
1297.632819
1000.870804
850.1613924
794.879133
748.9147364
648.8243592
466.0923461
178.1074705
-188.3505574
-522.7197363
-729.6827438
-837.1667284
-948.2926982
-1111.888045
-1264.894096
-1276.640171
-1062.425459
-702.2461869
-435.4554908
-482.1630761
-856.8813999
-1375.275119
-1836.226101
-2177.031207
-2447.981197
-2660.92926
-2719.544419
-2537.443869
-2184.045403
-1843.060261
-1636.798706
-1555.363862
-1539.091306
-1533.847351
-1458.592746
-1220.859849
-802.2953871
-272.2803339
283.7014991
788.2356828
1145.962928
1284.12457
1234.858902
1120.794681
1048.334473
1041.476812
1062.331977
1069.7859
1068.307076
1093.832284
1142.231733
1149.236288
1051.37289
822.820711
467.4220924
35.51611898
-366.8646744
-639.0698917
-758.2359845
-788.6957295
-838.4238804
-984.4930771
-1197.109241
-1345.786942
-1320.463802
-1146.754884
-957.7863731
-862.8154967
-860.9359249
-856.833401
-749.7181771
-550.9487089
-407.9821996
-441.3291371
-575.4449451
-624.7215478
-534.2890626
-435.2977306
-450.2387239
-520.2357303
-461.5267587
-170.0757484
258.9092753
633.5213239
879.8860936
1110.044678
1450.714357
1863.521017
2203.457982
2407.736173
2544.668823
2712.952143
2955.103759
3229.151984
3425.808916
3446.935018
3283.019533
3000.93317
2672.125869
2330.49586
1989.072699
1674.597488
1406.240622
1119.511216
684.0710326
84.04017562
-482.113968
-803.7471843
-913.9081056
-1020.205133
-1234.369903
-1488.007294
-1644.803309
-1596.618657
-1344.576653
-1051.897455
-895.3707928
-842.8173978
-731.903738
-562.6297634
-520.1916003
-686.1087835
-906.0584996
-1007.214844
-1023.413671
-1142.828098
-1525.952361
-2224.511037
-3175.406129
-4189.915424
-5006.407207
-5432.413133
-5445.912781
-5158.953995
-4702.999059
-4165.520148
-3621.255092
-3144.531912
-2715.363828
-2172.67784
-1384.737457
-448.6200998
403.7587403
1093.336089
1754.908541
2490.25814
3187.745536
3644.749877
3789.037929
3726.197246
3602.787852
3447.393936
3159.085967
2685.528095
2183.255015
1916.547941
1996.47215
2280.290256
2509.393301
2493.532309
2201.744812
1751.495609
1307.638009
955.9950737
680.2912576
458.7722608
341.5283646
419.4025891
726.1358552
1149.622132
1453.597882
1463.583133
1233.936894
957.8487148
734.1149131
504.9284654
192.3321047
-195.1568232
-592.1192106
-957.095612
-1302.23305
-1647.407408
-1966.401403
-2209.556202
-2362.285061
-2426.537634
-2367.325151
-2163.547682
-1894.478805
-1670.233313
-1483.009162
-1224.534175
-829.2780066
-310.7595859
291.5975069
899.2308041
1385.791078
1682.823293
1847.046498
1953.31554
1989.33647
1915.150409
1732.588202
1431.004237
973.4986636
408.9267179
-105.9401899
-455.9832886
-659.5482819
-798.9709383
-943.7685523
-1136.130006
-1375.75077
-1608.052381
-1747.636447
-1722.244875
-1529.336739
-1265.303442
-1060.475031
-978.0951731
-1000.934546
-1079.163307
-1143.668656
-1117.761826
-981.5232629
-803.9479542
-664.7454213
-565.9058368
-457.9067398
-320.569508
-178.7381141
-73.83873191
-45.62664693
-96.8309303
-168.0278803
-195.9442663
-176.4984585
-112.0108662
61.34515244
410.2047613
886.097631
1331.782255
1601.27035
1658.125538
1586.447613
1523.182169
1552.794434
1649.595632
1728.966991
1754.355234
1789.201864
1933.250051
2181.824663
2368.13248
2315.848831
2037.606446
1702.425984
1440.941623
1275.17392
1177.336634
1081.554719
899.0944386
630.4136075
393.2760692
241.3476143
32.1009155
-423.6859907
-1144.353693
-1986.651802
-2784.316774
-3387.540725
-3664.230663
-3587.091326
-3278.809581
-2896.248711
-2499.878847
-2072.212656
-1619.556986
-1198.197786
-838.8095418
-485.8672258
-48.54000298
480.8024665
971.0840017
1228.794497
1136.459946
730.9541619
188.472596
-252.2707143
-432.3535093
-415.3222495
-442.6691943
-689.1311186
-1098.795189
-1480.871325
-1701.629361
-1752.038815
-1679.298963
-1504.314851
-1215.959218
-820.2300705
-351.458855
161.3112362
685.009784
1158.731837
1567.077837
2009.289591
2570.059024
3134.927866
3463.812108
3436.889608
3113.68911
2599.000205
1992.588488
1420.334325
966.182038
602.074143
280.7084877
31.24883243
-126.4806655
-275.991245
-492.7921023
-683.5904595
-649.0990847
-313.764762
166.2935633
527.1020597
597.0215258
386.6828543
25.99485376
-350.5046415
-660.3258955
-884.5947765
-1077.545564
-1322.175953
-1632.891878
-1938.982113
-2168.959204
-2287.052491
-2260.72038
-2084.472038
-1832.395817
-1602.765079
-1416.823329
-1234.418138
-1032.198739
-800.1621991
-511.3367862
-161.5715659
203.3106916
537.647684
828.8824077
1083.111554
1341.295993
1686.347437
2153.94019
2649.388628
3011.958656
3148.066799
3073.234028
2854.471693
2534.130432
2091.240665
1488.985891
788.0777023
172.3324673
-194.0648643
-304.235172
-270.8540109
-216.8393026
-239.2074843
-385.5566773
-604.775289
-788.5457183
-901.7682111
-1028.563644
-1276.66514
-1661.21912
-2079.299313
-2390.27436
-2531.063219
-2545.436265
-2494.304053
-2380.372664
-2190.649121
-1955.97934
-1718.38518
-1486.410783
-1259.765001
-1047.362538
-836.7715742
-591.6741711
-284.5987091
90.97722638
502.0769382
857.6668388
1082.170924
1211.289452
1331.282989
1441.633986
1472.482769
1411.664929
1319.393022
1242.54138
1198.718574
1214.142359
1293.643386
1372.065694
1361.30069
1241.322309
1080.605463
984.1075621
1023.686924
1197.835211
1467.239129
1817.03447
2216.933935
2534.645021
2614.166337
2464.392641
2259.012789
2140.304403
2124.250953
2166.884802
2190.488241
2060.418612
1662.966393
1030.233532
343.3129038
-177.0196493
-390.4699612
-331.0080753
-209.1484003
-269.9530981
-645.4966262
-1352.2707
-2340.838343
-3487.686948
-4620.793609
-5615.691359
-6417.25414
-6959.883657
-7151.873577
-6969.789296
-6510.701551
-5925.412422
-5321.173487
-4709.7361
-4020.632561
-3199.896561
-2310.506905
-1478.533562
-750.988094
-83.7657358
581.7127506
1334.700508
2303.484537
3499.09735
4693.315419
5576.810303
6028.536002
6136.068985
5944.938832
5315.937395
4150.464656
2684.219097
1370.212794
456.1517137
-166.2080109
-684.2471264
-1122.804493
-1426.047724
-1593.949766
-1630.250088
-1477.70895
-1104.572583
-579.0093204
-1.90901125
566.0889631
1090.808396
1552.95108
1954.798478
2273.427516
2435.634187
2420.368753
2341.278802
2323.461231
2337.667103
2255.598407
2020.779625
1680.067445
1307.153474
966.5978057
705.1924738
526.8781304
382.4459027
200.9834462
-35.93099042
-246.7993594
-346.7674232
-400.8156528
-561.9897375
-825.1585314
-989.6703328
-932.1203646
-775.7828672
-714.6712973
-809.0874226
-1038.010406
-1403.762813
-1867.90048
-2297.382805
-2579.601737
-2713.507208
-2731.896917
-2615.942089
-2336.279127
-1929.29318
-1499.924733
-1158.852641
-947.5358577
-805.5846655
-621.5705017
-335.7550685
6.272516872
299.190202
461.0569629
479.0329374
405.5366911
320.8969757
290.180011
335.7977097
412.6651544
413.7282311
260.9223265
-15.19558434
-340.3079833
-682.0187616
-994.6979501
-1176.825256
-1191.618007
-1139.910129
-1123.300055
-1134.588214
-1145.185221
-1172.561064
-1196.185806
-1123.415168
-889.8258779
-512.8825922
-56.81244862
372.2744217
657.9627569
809.5537296
1003.543925
1390.313117
1915.932848
2402.328991
2735.320272
2914.689629
2987.936439
3004.599343
2998.389125
2963.398418
2867.467298
2705.303416
2511.174522
2323.523086
2161.17415
2011.068415
1837.767759
1647.274764
1507.230263
1447.271127
1399.887055
1287.409341
1086.552511
780.328665
349.518432
-151.7062745
-592.5502249
-872.7734462
-995.4178118
-1033.566334
-1057.44535
-1076.776793
-1027.948975
-858.7096129
-652.2869944
-591.4598212
-748.7974887
-999.0794643
-1212.846404
-1466.506898
-1967.452232
-2780.044994
-3693.572986
-4396.107531
-4746.391128
-4833.78367
-4817.635759
-4803.551712
-4860.955399
-5019.584278
-5181.009456
-5135.717881
-4756.898366
-4120.483949
-3378.722252
-2578.06135
-1653.226093
-564.6254195
592.7626063
1639.088927
2489.106469
3220.239711
3904.096641
4477.215164
4863.705213
5090.705367
5192.638144
5151.578385
5017.51166
4938.721123
4994.754098
5120.41259
5227.678106
5270.559614
5181.397594
4883.167781
4358.492179
3600.024842
2575.787231
1365.635911
194.6064171
-818.4855254
-1795.2396
-2833.161113
-3766.871453
-4348.604227
-4537.907502
-4478.034598
-4286.911075
-3994.570829
-3631.584784
-3274.045528
-2986.38649
-2744.86976
-2444.478845
-2027.777809
-1592.032689
-1279.61237
-1086.353636
-904.6254128
-705.8263248
-512.4286436
-237.9507825
273.7329295
1056.90274
1949.691137
2686.320347
3065.84972
3099.11691
2983.470286
2891.198597
2823.825058
2696.838386
2480.401205
2218.348336
1987.017477
1842.600846
1742.888628
1569.895142
1284.609838
957.2847651
609.7300814
176.6585341
-343.3042896
-850.4721568
-1282.689057
-1664.231271
-2016.143965
-2328.718561
-2611.418312
-2875.732336
-3084.531899
-3187.581718
-3176.478549
-3063.29616
-2859.618852
-2593.734071
-2289.381469
-1944.970161
-1570.667066
-1185.845996
-776.8907806
-344.7938744
35.9531341
293.2118549
438.8624692
518.6625048
561.2721661
607.548296
691.4725519
770.3981754
766.7338691
682.1523072
579.1380017
470.2825388
339.9376242
250.4501542
299.1001401
484.2122225
712.1479125
909.5911571
1071.058924
1242.147553
1474.06468
1735.4697
1897.882537
1890.669211
1810.221714
1777.019734
1766.458272
1683.433478
1504.746713
1249.645293
916.7770369
533.5374334
170.5002613
-135.9726848
-395.5708483
-614.9717955
-799.6466486
-945.6229945
-1006.867102
-960.0120697
-878.1350398
-839.373372
-816.3940531
-736.0374463
-565.1135423
-287.3216494
92.17289216
477.6122534
735.1246715
849.7741659
926.4527545
1027.091474
1113.29668
1129.498984
1041.718281
850.4370581
644.6620907
543.1050314
529.4765197
481.3754178
387.921838
373.7225723
476.7090333
562.3095962
499.2094445
283.7024972
-46.72958377
-488.4502185
-1003.967748
-1473.568867
-1763.637908
-1827.028352
-1766.184296
-1787.139477
-2011.903414
-2355.991048
-2650.528447
-2814.015369
-2860.832227
-2844.001755
-2817.911765
-2771.78216
-2616.280189
-2301.957773
-1905.184869
-1560.556803
-1358.793712
-1287.788935
-1192.355405
-854.5525873
-236.4246654
424.3917662
884.5955008
1159.313566
1390.766611
1604.687698
1757.477541
1886.631131
2056.141741
2236.053955
2330.531155
2274.234975
2075.71831
1812.02719
1576.838578
1415.792989
1349.003864
1437.513123
1721.22215
2087.087088
2324.377097
2324.269851
2125.207557
1818.605672
1526.178
1358.764572
1285.563954
1164.511719
927.7661456
589.1972862
131.4445367
-434.1505787
-982.7803658
-1395.966
-1656.448496
-1744.28268
-1607.02028
-1312.547513
-1061.028937
-975.8620974
-1024.950115
-1151.429035
-1307.389164
-1378.185493
-1256.26472
-972.1820849
-635.5720117
-315.3168696
-51.65780343
118.3038584
206.8932978
264.5243768
302.7172644
299.5496522
275.2219482
290.4354922
370.8305434
482.0989457
566.6166473
573.539161
490.0287198
362.960677
241.3583777
116.0137064
-20.75607801
-123.3976494
-173.4274064
-216.3974258
-275.0839854
-336.0067519
-414.4569622
-511.1763117
-550.2268526
-476.4698089
-351.7165309
-261.911199
-205.6992904
-148.6098547
-105.3000474
-105.4204834
-149.8659091
-228.4746622
-308.1264736
-329.0747387
-298.6010483
-310.8105274
-389.6758267
-435.2622237
-395.9429246
-353.7379577
-394.3591842
-518.8050541
-691.5176701
-870.7162311
-1003.698369
-1065.606159
-1076.391269
-1039.626795
-918.4089993
-703.7827409
-435.6786026
-135.7015093
194.9892485
513.7503584
760.2032446
913.9516504
983.6719848
1014.246832
1100.112835
1284.832417
1495.379321
1664.361206
1803.138517
1884.979954
1829.195653
1672.579611
1572.059713
1577.342525
1579.029968
1517.031169
1458.758517
1448.101209
1442.746651
1398.445669
1282.822999
1052.974185
712.6688149
303.5470588
-200.465268
-855.6918327
-1591.154982
-2227.532689
-2650.132148
-2861.632918
-2912.647853
-2867.647401
-2774.554936
-2608.365598
-2315.949984
-1927.280099
-1520.682729
-1099.460159
-627.8563909
-145.0782164
269.9187944
565.6011647
682.2863169
595.163186
426.6104619
337.5741559
314.0492148
238.7100985
106.0454024
-25.27084056
-197.4437785
-479.7462741
-822.5939801
-1130.49337
-1374.51277
-1543.523199
-1611.919407
-1591.828452
-1483.261815
-1202.437289
-700.54934
-83.23023824
502.8039295
1012.266964
1477.557274
1946.50316
2443.162099
2904.513944
3211.873403
3343.412068
3385.945514
3348.309396
3106.861086
2594.25912
1909.634681
1198.628962
542.5997548
-28.03848599
-528.7508867
-1002.280837
-1413.989783
-1646.089301
-1660.397282
-1549.832908
-1395.58742
-1194.347326
-926.6214785
-606.9082329
-299.4679676
-114.7021003
-105.0685493
-169.5024847
-167.9866293
-88.80338234
15.14434557
173.1405226
429.7758068
701.2028482
834.9434425
756.6441051
479.0438641
66.20163713
-349.9668121
-637.1296629
-788.8200933
-881.9772883
-927.7007671
-881.6881708
-761.9970174
-635.9993467
-518.4415775
-366.523824
-146.4355493
141.1126699
454.106192
703.3653939
814.6376253
802.5841406
726.398521
614.6602968
499.9101877
443.474771
451.6858239
450.0999562
375.2289045
209.54445
-57.1970096
-409.1404557
-781.1712425
-1118.59965
-1403.062161
-1599.755779
-1678.772716
-1690.818913
-1708.334901
-1711.649753
-1641.412894
-1505.885548
-1328.785533
-1082.986809
-780.8897213
-515.4565301
-320.2630741
-110.1318058
176.1754869
487.0989258
740.5577436
901.8684916
982.3866774
1029.691632
1095.05297
1172.383014
1217.453033
1240.765486
1305.816887
1431.198263
1573.719361
1678.114352
1663.677503
1451.750596
1091.712037
730.3312858
417.2829015
113.8222092
-143.4213875
-308.8544334
-472.3701285
-710.2273173
-901.4917011
-897.9684053
-767.1327057
-693.7204408
-730.9373033
-788.6880074
-805.9013735
-829.245253
-950.4812781
-1210.255943
-1528.371778
-1728.774384
-1676.276597
-1360.213109
-833.2408702
-167.4705946
511.9476829
1078.077247
1514.076345
1880.647203
2195.738344
2443.390353
2654.841695
2874.438015
3068.383055
3127.513335
2932.586798
2423.724851
1695.571318
1003.450508
557.6468508
343.3201253
225.3918091
119.5447171
-17.37108514
-210.5669661
-415.0321959
-562.2270924
-640.5017049
-626.5848899
-439.3784863
-72.10324611
346.7132221
693.9680619
915.6979062
925.2397504
624.1898825
73.52944079
-509.8430914
-947.8570029
-1184.293804
-1245.504799
-1262.844684
-1469.277011
-2062.841413
-3084.246535
-4376.157605
-5580.81476
-6301.804555
-6414.724805
-6137.713639
-5733.616477
-5281.099882
-4770.511086
-4218.305192
-3601.746177
-2854.550505
-2004.336297
-1169.214171
-384.7453108
422.7308479
1291.846417
2173.532837
2981.532334
3628.793451
4093.274131
4452.890556
4758.884131
4931.775908
4876.938925
4610.385572
4211.373917
3768.417867
3386.207851
3105.164389
2825.297604
2448.486495
2045.267176
1731.925814
1473.373955
1178.98712
881.7337553
652.9097756
471.8480586
325.8633419
286.4297244
363.5669637
429.2399734
376.6412388
242.7702804
128.1826207
90.14622513
134.3051592
230.0975519
310.2185961
299.8903769
166.7732263
-59.8750644
-306.2021039
-500.922831
-635.4980299
-748.7846392
-832.7832349
-835.2269319
-773.5914426
-728.4487715
-714.34548
-671.6422058
-564.9020104
-405.1340414
-241.1525144
-179.4603864
-305.355002
-554.3227678
-773.1491601
-893.1907193
-918.5707525
-808.7229409
-555.1343408
-331.774379
-385.5942739
-793.8649064
-1437.512286
-2131.430699
-2693.004157
-3001.917189
-3079.027939
-3029.01481
-2895.755447
-2655.271216
-2319.787936
-1962.222701
-1661.22946
-1462.179979
-1342.455113
-1192.332406
-892.9737547
-429.935812
117.1144348
661.9033004
1124.135526
1439.722721
1647.749703
1869.345695
2146.201892
2410.153422
2597.655855
2676.931724
2635.883117
2541.991887
2502.445299
2506.997985
2447.617078
2311.195167
2192.623467
2112.753612
1986.194104
1773.15281
1520.927634
1267.993427
1027.805411
827.8598011
670.2510647
522.3269057
401.5048661
370.2792002
422.1429289
465.5664255
405.7913997
173.5765986
-263.9204025
-850.069649
-1454.673626
-1983.127834
-2411.441386
-2713.224833
-2850.79525
-2849.676602
-2782.512547
-2681.941056
-2556.902693
-2444.252414
-2359.752833
-2276.727143
-2186.472666
-2068.864136
-1844.006377
-1498.128528
-1169.164446
-964.5655088
-807.0753865
-568.0878037
-226.8503381
169.4455056
582.5212039
988.9151354
1394.077291
1809.247587
2150.104091
2267.243176
2169.807386
2079.585765
2162.413479
2352.364259
2505.849173
2560.215035
2507.058595
2375.034813
2241.391817
2132.403234
1963.447655
1681.354787
1371.128372
1120.310282
880.6723712
555.9833773
134.0455199
-329.9848733
-770.9614732
-1126.257305
-1371.918701
-1534.933679
-1624.209449
-1626.997713
-1592.825142
-1597.23453
-1627.597616
-1632.093575
-1636.218077
-1689.988517
-1767.250033
-1810.746653
-1795.187364
-1690.398491
-1467.403309
-1182.24926
-950.2770547
-809.9769896
-685.6056586
-469.9284033
-98.82198334
383.7425506
800.3750605
989.2572883
997.1823034
1005.895995
1087.769448
1167.202859
1179.978113
1132.55552
1040.893881
923.1756322
821.6039466
756.5984716
696.4397441
611.6374985
504.8586215
376.9129271
239.9955093
146.5322828
112.7692402
61.44792219
-73.78444024
-260.7999495
-436.0109728
-564.1182063
-624.9446004
-635.6831099
-650.9045348
-673.3533105
-647.9618206
-581.4609274
-545.3264951
-545.7606158
-528.1122023
-491.4309662
-449.291772
-328.7643986
-73.69660184
217.4330006
410.3930576
506.8785341
583.3410467
677.7047091
811.0812822
985.7197156
1130.227488
1173.887638
1156.435948
1154.583787
1161.502988
1131.971476
1060.872641
947.9990833
783.4205888
602.4100351
446.5737425
276.000301
38.49105924
-217.7186061
-419.1692012
-575.094391
-708.9299047
-793.9034533
-830.4310809
-872.5007932
-949.9897924
-1053.264615
-1156.224031
-1194.309142
-1111.0768
-961.9945848
-858.7583559
-810.7862241
-747.1427215
-661.1051611
-595.8167017
-538.266387
-461.6625781
-407.380961
-405.4753435
-395.5809208
-321.101961
-204.9384731
-74.32199092
81.86438555
259.4948517
437.8309569
614.0022181
769.3898796
852.886757
847.1084861
789.4281161
704.7082861
589.7346673
471.3311996
400.4351198
384.3398032
387.6774076
377.072335
319.0677523
201.6848279
84.73567276
24.75261806
-32.4293266
-150.7722222
-265.5187662
-290.4387331
-257.3774209
-225.7790241
-186.9440514
-143.8526863
-137.6827405
-152.0736228
-138.1380578
-124.653943
-155.6713002
-177.3460808
-134.858655
-84.48193086
-74.32626149
-45.3189429
40.03156254
121.5803112
163.3772979
202.4674264
252.0627206
284.2686913
299.9458567
324.9010589
367.0474959
424.486133
488.3736615
522.2581095
494.7225576
429.5598583
370.4371024
318.7672765
259.066822
199.5630938
134.6035411
37.23389347
-73.01762168
-148.9822597
-200.0761156
-246.8464109
-250.8315623
-208.8577659
-209.4917814
-285.1619481
-345.731559
-344.2828798
-352.1736339
-409.0220301
-456.5599416
-456.574119
-431.904145
-389.4130132
-326.5317053
-281.0103769
-272.6682974
-261.5813937
-232.8443951
-222.7672013
-225.090876
-191.0843925
-129.7388894
-95.19078782
-95.96931639
-104.4004775
-108.8913684
-97.26385545
-53.13381157
-2.660531081
9.479332962
0.745466746
25.45339739
78.41829055
110.3352264
110.4412125
94.73663563
66.34319492
40.6531087
30.42631837
-0.683975268
-75.10871234
-137.5577559
-143.887017
-126.1810576
-108.3125307
-77.01329166
-63.01140091
-113.4579728
-187.6113613
-212.7980737
-208.1697072
-228.7039169
-248.4529192
-216.3013755
-150.1461971
-76.83266684
26.57800216
160.1766215
281.3953049
392.212503
526.5230915
659.6433799
752.3310843
841.2306158
969.6333972
1092.993646
1156.184738
1188.426566
1236.541858
1288.920705
1327.864644
1361.358874
1366.242495
1302.07231
1184.85593
1054.236148
911.8508808
761.0548169
618.0747435
453.4850903
229.5323667
-27.82521835
-285.2436567
-547.8582978
-786.8003699
-940.7512971
-1018.041199
-1074.140367
-1109.687948
-1113.423963
-1139.938245
-1219.788973
-1280.407714
-1266.071244
-1225.352592
-1195.978519
-1151.001449
-1122.659412
-1199.911475
-1356.149557
-1466.626574
-1514.110451
-1591.165885
-1709.995326
-1789.192826
-1800.211403
-1765.967103
-1653.810378
-1408.399102
-1053.808878
-666.3412079
-295.7811917
27.84938833
281.9565872
481.0590577
651.2257264
789.2125108
908.576508
1063.755775
1270.214802
1470.00398
1605.549763
1670.800201
1691.65018
1688.942344
1645.659944
1524.475519
1350.853877
1220.739255
1171.703029
1130.000371
1042.196189
943.6917234
838.0686904
658.8336154
418.3631861
232.7857826
146.2566975
92.80275888
44.66609221
30.07089393
25.09046371
-9.262922924
-26.77474869
25.68418972
95.98056556
111.1036953
91.02367669
80.39781551
57.30918214
-6.559030069
-76.41830168
-104.6228457
-84.94353635
-38.80292005
-4.143875085
-14.08132735
-50.63838164
-81.24456548
-131.7209416
-225.2405125
-305.5980755
-332.3822335
-357.9773077
-417.1802651
-465.45488
-487.4174642
-524.1574227
-566.639981
-567.4284032
-550.2659916
-567.2358597
-588.2213483
-566.0470296
-538.5733915
-544.389805
-537.1230269
-481.9362304
-416.6284679
-356.5133238
-270.208167
-169.3479198
-98.95374784
-54.99892277
-8.027395459
36.19231182
63.88096494
81.71443589
88.68579881
83.40073103
93.07157554
125.5205026
130.7219948
89.72414565
75.10335893
135.2659563
204.4311936
200.6613877
118.9533899
1.944300732
-83.33750966
-70.20776583
19.05258289
81.66094804
79.40205571
63.26585979
46.79040348
1.755010014
-35.73715803
-9.137556949
43.98551346
58.48769943
58.00003427
86.7407895
116.9884718
123.4380028
141.6270367
181.6088664
199.0624033
187.0086437
185.062478
201.1183081
219.8945345
252.7466687
301.6408816
330.5328584
328.8034246
333.3121935
350.5154703
336.5207495
279.8588989
223.1805833
189.6704932
163.1101815
133.4577247
97.98734133
52.06610061
17.63940469
15.92432817
10.71596703
-40.45368288
-120.5565345
-207.914674
-308.9506476
-388.0237817
-383.8308976
-322.5852566
-291.9819361
-308.7930568
-330.3571438
-354.9011132
-393.7350477
-408.4010334
-378.350536
-347.4581824
-327.3888441
-264.6501494
-152.0794326
-46.21353687
39.37760532
127.7388078
192.4154172
200.6383392
187.9541641
191.1198473
182.9199894
145.4260902
116.6719649
112.9905884
99.66589009
67.81154906
44.78255841
27.61596792
3.16180031
-0.346320842
28.25486136
48.16365551
54.3335552
88.42690527
137.4509004
147.6992384
121.280043
88.91418367
46.68139898
-1.825961085
-25.95107252
-30.11933421
-43.06986022
-51.00446658
-37.75742962
-45.87616251
-96.31287242
-121.8715855
-82.33911345
-45.52415182
-60.24193346
-74.45939961
-52.92260985
-33.67441713
-29.02790436
-12.08831186
4.460987045
2.583897539
22.94865438
91.7608502
161.2618279
195.4591252
216.9642993
224.2129137
175.8383959
86.82053579
23.66144812
-9.390878867
-64.99936208
-144.5313824
-198.8645276
-199.3377467
-142.0917464
-52.74864831
0.746996767
-10.36277768
-24.23339208
0.155175521
15.92020619
-1.177828658
-1.392508107
30.05290422
41.19515047
15.60428036
-7.560614779
-8.101777813
10.28841803
42.37250586
49.29948176
-5.755172994
-64.61086364
-43.66451302
17.99536813
31.2939052
21.31178502
57.07892014
104.8911354
105.7888615
96.73606562
124.4219614
148.6019399
134.7375537
132.1723118
180.1225289
238.6322541
267.9682445
280.5353989
284.9348934
270.0132487
242.8324203
201.6748231
112.6234311
-25.98786598
-168.7043852
-294.4754528
-404.2863182
-473.4900273
-493.1110829
-497.584168
-497.6637114
-477.1591219
-464.3121766
-491.7357658
-516.5411607
-497.9430736
-486.0032467
-516.7833408
-512.9970617
-406.3862413
-256.1567551
-140.7699749
-50.44336428
28.02715751
59.7912032
61.05683828
109.2945416
219.0863867
326.9866512
394.4069281
429.4975645
441.2733402
442.8596905
455.2183302
468.8500885
452.85855
409.6758585
363.3776522
315.6155656
275.4299661
278.3839709
315.1899068
323.6334382
288.1965215
247.570379
213.4814208
183.2822438
174.3886712
171.0088667
133.519859
90.82911449
97.40898737
109.2558479
48.17866301
-44.45042233
-69.7179099
-39.77325188
-36.99395678
-65.18203392
-80.2683837
-94.32405655
-133.4451913
-184.0657858
-248.998558
-341.261432
-407.9841189
-391.5279354
-339.6671922
-330.3232089
-342.7179944
-313.684378
-253.6003189
-212.6362781
-194.978559
-173.7048976
-135.24463
-72.85661939
11.50557182
88.97967169
130.8600388
132.6717107
86.95013141
-3.712292764
-79.28741573
-79.42060091
-27.94092707
28.79870904
97.18788204
163.2116961
155.9228288
68.62782673
-6.056321927
-20.15085585
-18.64728003
-23.76531797
-15.10437041
-17.28153334
-61.11270458
-93.75330126
-65.27658793
-31.22681227
-42.17265938
-42.50389866
10.16357475
56.31258779
44.03224315
0.527680728
-39.16662052
-66.52744657
-65.76231031
-27.87585754
21.11270572
51.72155147
58.9303195
45.77472283
25.36607814
32.33514852
77.1926626
114.1714416
110.0100598
93.36968154
90.56442339
92.38059362
100.8136804
110.551785
75.47145528
-8.121068249
-62.0265537
-46.72158173
-14.9860381
-4.934836998
-1.970919965
-12.95001065
-52.02872129
-73.99025009
-39.68161647
0.153427596
-6.672184648
-19.3264031
3.002502421
20.70731206
13.79254325
30.06256425
71.21502868
77.85002222
52.43353184
53.00873372
80.94912
99.21321842
111.981713
130.8778843
133.1425343
116.0837419
111.521119
116.0401847
97.45168087
76.62964827
104.4422303
165.9371634
201.8499097
193.744515
152.0284706
86.02898973
29.75625214
7.846324192
-14.53523348
-58.0709142
-78.33658552
-62.97950308
-63.23431891
-82.0545278
-65.72669749
-18.01889235
13.58636262
39.92310559
87.1356861
108.3952716
60.40482312
-13.67731595
-80.00806505
-178.2395298
-307.0174156
-387.1652888
-396.9455024
-395.5381862
-398.7912735
-378.3257795
-357.3299168
-375.0722818
-401.5352545
-383.9414837
-322.1583994
-240.2187627
-147.0845743
-59.25282856
-4.926561116
5.717303983
-25.89313532
-94.59945887
-155.6268742
-145.7761082
-71.27590628
10.19250987
83.49079561
150.4316394
179.3363907
182.5566615
229.2313817
307.1253491
319.9731765
258.9235913
215.129684
215.7472204
202.7480413
157.0463712
104.7801752
40.48153385
-34.49220614
-60.51292697
-10.23902637
53.54971979
85.93823506
119.5761122
173.4440801
219.4121318
251.1325862
280.5692961
289.2969931
264.7138308
233.9244385
210.9546101
178.0367901
138.8418526
116.1555312
103.7125102
87.12365374
77.53701781
70.79126651
38.24887275
-4.153920925
-12.95222536
-13.64378719
-53.44980176
-82.73233025
-32.71378375
44.28392289
53.0359123
-6.328218461
-79.77822739
-136.9662263
-151.2694254
-116.0964144
-95.52428197
-146.4755419
-218.2070103
-236.4492376
-220.4408177
-211.2145765
-178.6149532
-101.6531526
-34.90465025
-12.4729969
1.903822964
23.69626938
25.22119517
11.41847831
7.98897774
3.230025229
-11.30695878
-3.51043207
31.8333593
44.75305372
10.83154671
-35.31708047
-63.91953368
-75.91726274
-68.11024241
-35.68855403
11.92101798
80.24622814
173.9736602
228.4856489
165.4127857
21.62563634
-107.3790631
-212.7436436
-326.9452692
-424.9526718
-490.5776595
-561.9480866
-633.5579067
-645.2226032
-592.5893959
-512.3907516
-381.4680399
-170.287554
49.04285915
175.119061
203.4141968
189.2227285
161.7034496
140.2810524
148.9376989
179.0258954
215.6913206
282.9730124
389.9701779
491.8468024
560.6517725
609.8668814
620.7919344
549.9016226
421.2564371
309.8644199
238.3107193
177.0945793
120.0725101
76.72958533
29.34409426
-28.18903764
-63.67752382
-72.51869052
-91.48611137
-120.4801243
-123.4558101
-97.74154841
-58.56621223
-3.576466862
49.82391489
69.75567862
75.99826738
110.562281
152.7374147
155.121274
126.8298487
96.4250676
52.06878951
-7.237526453
-39.83806598
-40.88485816
-57.92685706
-90.85945557
-90.78745932
-67.13609218
-70.35951901
-86.30921987
-68.423119
-38.3891833
-55.95209771
-130.7954444
-226.6733044
-306.0242649
-341.0492168
-330.7457979
-313.6809289
-316.9234759
-311.7808625
-273.1983828
-240.4940605
-254.8833969
-289.6326266
-294.127419
-245.4729937
-146.1032327
-41.63118161
-1.350015834
-18.49807711
-15.94204892
20.37593934
43.50509773
72.13827313
156.5278561
253.5945362
294.1307821
310.6942011
357.8003304
397.882348
388.7893446
372.6760958
379.9729836
370.2259587
334.1185017
314.9430246
297.1814281
219.1505482
92.64448141
-24.4237556
-131.7051803
-245.7746112
-328.085244
-349.6602568
-342.7753441
-323.2025803
-259.5980101
-161.5488374
-95.06839706
-89.9462868
-123.0640299
-177.0972851
-231.6420533
-245.8120375
-214.4852904
-172.8678014
-130.9566842
-88.33094682
-70.6730716
-67.87049321
-23.72793375
56.55533496
105.6285475
114.0898373
120.9311067
114.6457995
74.06172961
40.60008313
34.72569561
-0.083733879
-77.09672745
-118.15581
-95.44295543
-72.57594875
-62.96394352
-12.14789908
67.97462116
113.3067685
132.1064675
168.7770672
203.2058655
206.5201487
218.1737926
278.9137979
362.5879825
422.2834202
438.419689
410.9430768
362.6040883
338.978116
358.2666941
389.7152783
412.3671497
435.2023181
440.7022251
399.7474666
340.9866273
302.5960806
257.6672631
182.3193494
107.1736916
28.63061606
-102.9650967
-263.5873302
-367.9989759
-410.2908547
-452.5745102
-505.3963827
-543.663467
-573.8454664
-587.9923867
-548.9304684
-483.6302349
-468.8761093
-498.4656492
-500.6817046
-474.5753471
-469.4449865
-472.814349
-444.2016649
-397.6408654
-357.5873087
-309.9995667
-258.352356
-240.8575805
-249.2080629
-216.7696765
-120.6685541
-19.30401136
33.29844877
42.3675912
33.65702661
22.22186723
16.73841818
17.0227845
31.10876617
87.00910422
173.5909514
223.088408
220.7188329
246.2039869
351.5088961
497.0886572
626.0022732
694.4863051
653.3504074
507.3085469
346.1294671
234.7336379
149.1032052
72.48292135
38.19283622
36.84747564
15.33231382
-13.23855647
3.286930288
37.57086969
28.48040096
-7.087398096
-26.63352789
-44.88986395
-72.34620997
-68.48497756
-22.40473166
15.34626896
19.02814311
19.65042237
39.77103234
71.90347602
112.7586289
156.7187214
183.532916
196.379285
216.7601173
221.6041196
172.7889518
103.5691295
75.08743358
83.35623625
91.87417677
83.42681396
34.27158446
-60.2535899
-133.2551334
-133.6284978
-117.5358658
-139.0109276
-145.936072
-98.7393058
-66.71309099
-99.14991518
-135.5049255
-128.0885742
-116.9419698
-130.6181814
-144.7942037
-151.7292372
-155.1699534
-128.7587903
-69.55944138
-25.42770633
-14.24019713
-4.842783253
4.704845312
-8.282323687
-23.27005912
-19.65963815
-44.06909738
-125.5912158
-193.9804885
-191.6378924
-172.2951869
-188.496047
-201.9354445
-183.1859324
-165.1538756
-162.5465685
-165.2664614
-186.7486088
-219.7807027
-223.8367423
-210.4886026
-223.686179
-229.9937599
-166.5286283
-65.24444672
4.599539878
51.77213904
104.9643975
136.1864929
139.2669104
168.4737018
227.3214288
248.2837893
218.3763607
186.2868327
154.859449
108.0162004
90.80178698
131.2434985
167.5156545
156.8878152
148.4122549
172.393887
178.8786276
138.0336036
87.71947737
57.51534601
45.54814268
64.71899938
122.6906252
182.4030578
209.9062684
210.9333209
188.6982923
147.9278835
132.2136489
162.2475527
191.29917
199.1676761
228.653737
279.2685819
288.4328757
237.0369811
160.6357509
76.672666
-5.135993118
-52.83289095
-64.55759475
-80.88704995
-105.6922647
-105.2982721
-99.93105194
-140.2577709
-191.0997267
-170.8585133
-97.71493446
-61.12457131
-75.1353432
-87.32357572
-88.65197028
-107.3289709
-146.7581981
-202.6049172
-281.8971511
-365.5003616
-413.9423294
-424.9335202
-427.6886093
-431.6663178
-435.6401356
-449.9917831
-459.5867838
-428.4695072
-371.7867166
-332.1090465
-293.680488
-227.3957618
-161.4855348
-108.8824622
-28.25703565
78.86673513
160.9994779
219.3807544
285.185488
331.4387837
329.969817
325.2586478
352.4154958
373.6852298
366.5809866
364.6709226
365.9005521
326.0886659
265.1734352
248.3459894
270.0580933
282.3854699
292.8657147
321.9247309
337.67261
321.3377638
308.8691079
315.3619251
314.2957732
306.9393229
314.0887722
310.9607087
258.5445421
166.873042
60.28245133
-60.42584876
-171.9078226
-230.1801647
-249.0104419
-281.1542389
-332.7002462
-388.3921635
-458.6048387
-527.4595316
-553.4243607
-553.7887211
-573.4695036
-586.7337851
-549.2132756
-494.2915966
-465.1457115
-428.5283928
-356.0217116
-294.6346255
-269.3817436
-224.2566056
-129.7657909
-33.71845788
35.32182488
94.54498234
134.6757179
141.2800517
154.9727939
206.5074764
254.8529943
267.4622424
278.6493671
314.8602635
349.2097711
359.9577576
354.7115318
332.3843991
292.9583606
266.977534
271.6097063
278.6197436
275.6461102
285.1606637
292.3802123
259.5768364
211.8903577
194.3076769
189.0869885
174.1848456
171.090236
170.914918
133.1330827
74.60934556
35.65839395
-6.463257142
-71.56684908
-100.5909076
-52.6443325
13.99420489
37.28993409
29.22207743
13.05583186
-11.61303488
-25.49547975
-16.57533244
-33.75377368
-113.3403702
-202.2230022
-246.2957294
-278.9180715
-338.7557039
-386.374783
-375.5829267
-330.6278981
-298.3260425
-288.0740311
-291.2262981
-300.9303951
-297.7245686
-267.5535781
-228.9913171
-202.2373605
-182.2307963
-164.3294803
-147.5544992
-123.1121453
-106.5322325
-125.4107375
-147.4757707
-112.4930644
-32.16824309
44.12914997
118.6130292
201.8043281
257.643331
274.7814138
295.3469156
315.7937313
278.0045672
196.7786227
159.9677859
180.4449452
193.1745987
193.5677837
224.7854745
258.7887286
234.8352826
164.8786822
94.18206559
32.65328922
-12.69009801
-29.43622576
-48.30664277
-105.6581504
-166.7665234
-178.5156279
-164.7055991
-178.4035638
-206.6290127
-208.8116722
-193.5668813
-181.443994
-158.1427055
-114.6630299
-57.41481168
23.23080758
112.9868072
157.9034203
157.7805484
172.0041081
197.9178329
181.4141658
144.3794218
151.6811942
187.5740375
199.2655505
194.8108202
190.5398513
160.5825735
119.2281734
131.1243681
187.1710262
208.4718275
191.2288664
197.4632699
221.7260524
218.7004376
211.0101751
236.4706426
262.966602
253.6596265
230.1941203
211.2073917
175.6623866
116.5827607
52.11692552
-21.74473476
-119.9173713
-223.1101972
-304.3775238
-371.9248454
-441.6686442
-518.1358178
-617.6025733
-732.9209236
-799.8910995
-788.1399198
-756.0718851
-741.3615714
-709.3074761
-650.8046628
-593.7934928
-518.4127101
-401.5835676
-300.7024191
-262.2392658
-226.9626001
-135.9800522
-24.18931102
77.15602379
198.8998248
327.9862179
388.0307056
369.1441162
337.1739917
318.2833065
308.8539887
343.8950754
428.15358
481.6604654
452.0245609
387.5843135
341.1450134
303.3522588
267.1996584
264.5419483
312.6094863
388.430537
457.7140994
485.3765863
447.8150242
374.3970457
324.6322882
301.4789466
261.9026841
204.7248585
159.2765047
128.5375658
113.927679
120.0707806
105.855261
33.23608402
-48.89116272
-71.93904625
-41.0816967
24.33320572
142.2082648
281.4075399
344.1381854
300.2134984
219.8812472
140.0518449
31.15794431
-93.47106347
-177.2408387
-224.2696605
-286.8284672
-383.7076707
-506.5467382
-637.0789918
-721.3391621
-716.9376059
-669.9142339
-655.473902
-669.7126318
-663.7298297
-636.8139151
-613.4681773
-578.6970738
-509.9075098
-421.3445832
-324.7505195
-215.3811542
-118.9907846
-60.26682266
-2.039297409
86.14492008
162.6286181
196.6473568
216.1844907
228.0742817
208.3567349
178.1539615
171.6656902
159.844875
112.2823064
69.38992774
62.58805619
57.68422138
45.7840135
68.99452222
114.5267209
126.2183006
127.8591907
175.5486295
220.2730592
186.4437417
126.5139872
142.8135754
228.8818913
306.4274937
346.3106579
378.3473015
438.3280207
531.0651291
608.6767615
605.8036189
522.661245
424.7127004
347.9379172
278.4751378
224.6407762
209.0498128
202.4406178
169.8167146
135.8142591
115.2145734
74.16743158
21.13732234
3.503211532
-4.98906858
-64.98652993
-148.1388249
-196.4834081
-234.5829528
-295.8381194
-336.3460168
-324.9240675
-309.4946927
-325.0897274
-349.1106904
-377.8712766
-425.8466052
-454.8552128
-427.3621337
-383.5141913
-356.1118305
-305.3398645
-226.3741617
-188.9694273
-208.1039071
-218.9514648
-206.6878168
-218.9619771
-252.0349229
-253.5334267
-219.1097875
-185.9515385
-167.1111951
-162.2853679
-176.6416424
-187.0627465
-163.0078238
-125.2559823
-102.7466867
-77.55196138
-49.67705479
-61.66793804
-103.1360375
-109.7806484
-69.23367434
-5.176082594
103.6696961
265.7009297
405.1793766
453.547541
434.1534854
388.919112
320.3201505
253.0210918
241.4789213
280.0630647
308.2567216
312.0867677
325.3572412
357.1904924
398.7371042
446.6411984
473.4094599
455.9196047
441.4549036
487.3512225
557.9959478
582.215062
564.6863475
542.5875997
498.8578825
416.8818283
347.9798166
330.6936309
315.8038108
247.4545366
141.9941858
39.32347529
-44.1035931
-105.7939536
-172.125799
-286.3679457
-433.5561896
-550.007094
-622.3229079
-684.6777044
-740.1251275
-780.3345718
-828.6249328
-879.2528874
-876.3999921
-815.8977436
-762.4790732
-733.0766854
-689.5279023
-646.1234675
-637.4108775
-612.0242985
-513.4145222
-399.8568396
-339.0241734
-283.9265531
-176.9671469
-55.06723168
38.83572512
121.7788092
196.4718036
231.0607135
235.484899
258.780929
309.194965
347.9191053
345.6354143
304.4755757
258.502687
258.6348649
300.1503025
300.1065265
223.597869
151.810342
144.4923069
159.6997807
173.000787
220.7197393
291.6739393
334.0624337
360.7099495
408.2490613
449.3693428
459.2862427
472.5626095
489.5493298
449.108948
349.8009012
265.4004144
218.5871251
173.1198089
131.7282406
111.1503143
77.15982371
14.91795289
-26.0356917
-32.8682002
-59.82341908
-113.0093209
-128.8995519
-91.7566509
-59.78093628
-65.77908382
-80.69356591
-66.87169872
-4.914238438
98.05527714
181.2979216
172.3211856
86.53309828
4.102701274
-52.17968685
-114.9031203
-183.7311769
-239.7384498
-285.5125897
-309.2846925
-296.1929489
-282.7034629
-298.9861241
-300.6953783
-257.0213089
-219.8245677
-218.2810166
-204.2440161
-170.8358993
-180.5902643
-222.4601035
-198.9734775
-94.44032332
0.247539792
40.13481848
52.40955218
37.56360484
-11.98386042
-46.03643112
-26.99872679
-0.193892185
-16.12229174
-60.04161456
-102.9759932
-141.8984062
-168.8307481
-174.8790771
-185.1767292
-222.1220571
-251.6167877
-226.6186912
-151.2273366
-60.03781226
12.61792229
35.15014425
21.86873709
37.56043527
93.42131332
125.9988931
120.0994439
125.6867396
144.1077069
134.6295693
110.8609352
109.2699916
113.220066
102.161368
103.6239504
131.8757453
160.4953082
188.0177853
230.7496071
250.39995
208.4203482
164.0517372
189.5227334
247.1233579
268.7090877
263.7994065
254.8465004
219.4102802
159.0575169
115.8189851
97.3254077
78.56975958
60.28026501
46.19659764
10.68674238
-42.83577785
-64.76343813
-58.24620843
-95.26625628
-185.2101021
-246.1918121
-236.5729501
-193.2889119
-143.9215413
-84.558521
-9.789125766
87.00492112
182.0923014
208.3147219
155.3808546
113.8234535
138.3957129
168.5168538
148.9455116
108.9827208
74.13626442
28.60691814
-6.843333011
3.62568851
10.50815565
-54.96583262
-147.5282563
-189.3403894
-208.3371163
-251.002122
-270.1968048
-226.4164227
-176.6661835
-176.4916083
-212.3518618
-267.3954917
-340.1519026
-392.3209392
-379.5886288
-327.7498491
-302.6144006
-326.5265008
-376.0462493
-415.4379465
-397.1467898
-294.8969154
-145.9611816
4.51559713
156.0930327
294.9059505
384.1628736
444.2785129
515.7966023
563.0757321
550.0839967
533.4791686
546.2121205
508.6094756
377.6551851
243.5513683
176.3819534
125.4638504
46.18082498
-25.76446138
-76.57353342
-140.1679221
-202.2434386
-221.5196581
-229.1550661
-276.4164872
-334.2019599
-352.4079712
-345.008387
-337.8792916
-317.4803623
-280.0019897
-247.324878
-215.5523178
-162.8653155
-96.07912274
-25.4593109
66.62403132
181.8659954
290.7180489
385.1671595
471.3660495
524.3748556
533.9072367
535.8549982
530.0312183
471.2566341
376.3122399
309.3082676
269.048452
215.2516507
156.6481243
115.3878412
81.77719553
62.63497005
77.32374188
83.94614564
20.95837501
-81.28965194
-147.5380641
-187.5192193
-255.79165
-333.411117
-373.2147629
-391.7849214
-414.4400174
-424.0612852
-428.5877088
-460.1783265
-480.7030273
-419.0192528
-301.8969018
-224.1108493
-211.6808311
-226.8727361
-266.6863021
-344.3288608
-412.8452539
-406.2155075
-322.7807794
-210.7601318
-120.2371188
-77.47444651
-44.36498204
52.26749269
199.8657196
304.2676657
334.4282201
338.1974393
336.297741
325.3142175
324.9493061
325.2128098
277.8182402
197.1679838
158.1835652
170.8219974
177.7666288
172.2547963
187.8959923
196.3284238
152.1987409
94.06391389
73.94269937
67.78534179
57.18257829
80.97335954
136.6539082
166.4744262
171.0458213
201.7700677
245.4897496
241.8256962
193.2520303
154.8664471
146.8380219
153.7432013
164.1275194
154.8879439
99.95282159
28.72760379
-1.024024023
8.53350613
12.39809117
-6.686882963
-42.80287629
-78.22387618
-78.98805396
-55.40378202
-76.80152987
-152.4433943
-201.6907971
-199.1407083
-207.0124516
-228.2427941
-193.4300158
-116.0450597
-91.49687539
-131.1209329
-155.2760883
-139.5920966
-118.9456614
-87.35692765
-33.84982469
-9.856946363
-45.63683747
-89.91029094
-110.0294904
-147.9168991
-230.8164463
-322.7272415
-384.0259165
-405.414231
-388.2438699
-345.6797495
-297.6980279
-226.1974876
-85.3338199
109.040517
270.8649394
350.4729687
364.7159078
324.5608136
234.1972526
130.5364715
36.35519213
-62.51521072
-148.5339592
-177.0881034
-158.8201482
-143.7182928
-150.8080343
-182.1002599
-244.5774933
-315.2948356
-357.8005383
-378.7079414
-387.7355954
-334.0784166
-177.0982761
28.72150364
208.7404213
355.2852158
465.4491181
500.9294658
476.0266333
462.2732135
468.1300046
440.8983421
385.6068243
351.1958073
328.326061
288.0251309
274.3932939
336.3471967
417.4270168
420.3796071
331.5760581
203.8244142
79.69939045
-14.26527166
-68.67781855
-108.5521164
-150.5091264
-177.7420555
-198.6632001
-240.9335429
-273.0107039
-249.8807185
-208.5657184
-194.998658
-170.7523708
-104.315552
-45.01068566
-18.74006963
19.8460859
75.08923567
88.84692514
59.01934155
42.14335605
40.29246146
22.89062849
23.11603949
72.64847551
113.7731882
105.2585418
110.2604983
177.2737862
255.8426103
295.3969715
311.6406863
326.6713465
335.0497459
329.2225096
300.7327991
237.3121283
147.3992424
52.48985531
-50.04026821
-166.5765391
-267.0345326
-333.4021247
-407.0347948
-512.7790729
-609.5367515
-674.4043426
-727.9576948
-753.2200044
-717.8455558
