-462.6099236
-418.9363837
-418.9114764
-410.1341104
-356.1743814
-292.5373685
-235.3122078
-143.1415747
-6.253157373
126.6079198
226.0621461
301.0048102
352.1642663
387.7848024
448.0719557
538.3467555
596.766946
588.5624351
556.9942673
544.9469464
544.834331
534.6869681
497.0407334
417.8937797
308.4814188
191.0451233
54.29658778
-113.6717306
-262.539205
-335.052975
-355.4389866
-368.3500234
-348.6004811
-278.4312257
-223.6210418
-220.6619136
-197.4905519
-92.5296054
64.23893674
226.757029
376.7789913
498.1896927
591.8997147
673.4647173
715.4858772
676.4822383
599.1612302
571.3361564
595.6160624
613.411788
627.7374109
670.9473713
688.5617654
591.8169208
390.141567
161.4773119
-55.16660004
-258.7730924
-444.8860017
-606.6387951
-722.0530465
-761.0056603
-762.9524535
-843.7360615
-1056.860895
-1315.503712
-1505.62285
-1603.46635
-1637.849317
-1613.504095
-1520.24591
-1365.105785
-1171.424256
-975.390914
-799.2701616
-613.4172942
-392.2972132
-196.0032696
-92.34823933
-37.62566455
48.70842561
157.8256518
249.5084001
344.5965098
460.9971093
556.4314861
612.2123932
676.2918187
774.0696546
871.0663218
940.5983939
975.8783112
958.7163533
911.3221723
912.9922704
976.9584186
1017.716202
1000.691036
978.2003761
951.7260225
866.6688339
743.8039468
655.9929673
594.0605248
493.9229859
365.1957198
274.5547759
231.2196327
180.5767172
80.7214622
-71.44439388
-242.5689065
-367.6418617
-413.174271
-418.2940042
-420.3606016
-413.0914691
-409.630985
-429.9130982
-430.6105307
-378.2128363
-335.7522605
-353.1461515
-372.1039726
-344.5559434
-317.3036155
-319.0905307
-301.516007
-246.7154665
-200.934385
-177.3186997
-147.530447
-115.2852596
-89.12740273
-40.79310541
18.79334643
21.59424781
-35.44260209
-75.37396168
-79.60925959
-108.1426467
-176.1523311
-230.1844818
-236.9699269
-210.03422
-176.5417798
-169.9775818
-209.843025
-261.055647
-268.9006803
-234.8116045
-193.6203217
-150.2078619
-112.58936
-117.4271992
-152.3546151
-150.2482062
-97.49720174
-34.69028962
32.41327786
105.4209354
144.8937648
150.2156559
185.5673456
260.1449255
308.4832373
317.987161
336.8157202
361.8369602
364.917258
393.1651134
490.2508891
579.0270302
572.0552175
513.1516809
479.4072826
458.688151
423.4201936
390.3460628
349.3331605
268.1194165
175.5244334
115.9856121
58.66958435
-40.0651794
-151.7663392
-240.5388253
-324.6204461
-408.8751386
-455.7361634
-464.5165598
-476.9267438
-496.2745353
-501.3344379
-506.9709978
-524.1031884
-525.464772
-499.7529478
-457.0411049
-389.9934529
-313.6186954
-279.9988152
-284.418559
-254.7143768
-178.3097111
-128.9996366
-148.268501
-207.9228016
-285.0821065
-367.1381222
-403.8877304
-360.0981342
-276.6136185
-187.3006687
-55.13527935
124.5818164
272.0239442
342.2013923
370.5297106
370.5308014
321.2623014
256.7986915
243.0046673
282.2587517
334.4638164
394.2102273
476.9569988
569.5814263
639.3213378
662.5186051
642.9402855
633.5969715
699.8218365
820.5346042
897.770693
891.7981842
847.8742699
796.3055401
746.0971194
732.9815422
756.3458143
743.132184
658.1012887
547.3607665
435.4949895
309.0265541
203.3226591
162.0967393
126.1547213
-4.764338486
-234.0372364
-504.42059
-804.1132475
-1125.462869
-1401.886594
-1586.816696
-1711.450232
-1802.83808
-1836.539244
-1796.956963
-1699.519343
-1553.558842
-1365.364833
-1155.975435
-940.7314763
-729.2098832
-558.1528399
-469.5493833
-445.1937875
-421.4979695
-377.0881628
-338.9203767
-296.9563188
-185.5391201
47.60552783
394.2573329
773.9578111
1062.43771
1195.602605
1224.150807
1213.252827
1163.594743
1077.873385
994.6311206
916.1256908
812.7741235
705.2291213
632.3746534
568.0789061
480.3206383
414.3400017
406.4582598
398.0874404
345.0382094
306.5600706
324.5054483
338.521559
300.5488465
242.0528463
182.1408634
97.18001062
-1.778592116
-74.89847992
-132.2191111
-211.6220835
-299.1927693
-352.455646
-369.7686446
-367.4029252
-332.8589623
-259.4427181
-178.2956441
-123.5520226
-114.2128238
-159.565772
-232.8838184
-285.3531397
-315.1303704
-352.9925975
-388.488544
-393.4598793
-380.9051456
-369.1974262
-346.2646398
-312.8862272
-287.5254652
-250.7804928
-168.5999112
-72.21630302
-30.4029114
-48.03258472
-67.87752262
-57.19527342
-27.82631587
0.368040536
6.075193715
-18.69298423
-33.4590472
8.11133787
79.20010924
121.1053697
140.2081531
178.515594
228.3573119
258.1562494
274.345312
295.0632419
319.3377355
360.4630424
440.4405348
531.3042706
576.2017626
566.914561
532.2555526
484.8780573
438.4333485
416.3011563
407.7263281
384.8377054
357.3986584
341.4359506
317.4830859
276.1895895
234.9170146
179.2707862
77.14292594
-48.9874495
-162.0092925
-292.6764937
-476.1150002
-657.5287841
-772.7699133
-853.7940893
-944.2765457
-1001.511421
-986.6411006
-948.5727136
-932.1568061
-904.2260033
-826.290552
-715.617533
-611.055318
-535.0926059
-478.6628775
-390.7762234
-220.6179988
11.67207185
232.17525
400.1732482
522.9705793
603.4046541
643.7605074
674.5476355
707.9285419
706.4785264
652.6643612
580.4250568
510.550321
436.1474361
364.2104244
300.1507723
234.8857366
187.4510901
178.4023272
150.0364506
25.13954346
-158.9465591
-292.5214678
-346.7484296
-368.4684913
-364.7096805
-314.5108979
-251.3410195
-223.6458702
-222.7673572
-223.4276676
-217.2838858
-169.8444991
-52.2432074
75.90967972
127.3735597
111.3233296
98.62745375
107.206408
107.3882687
91.71201694
72.72804469
57.7441162
63.41967235
103.1973904
146.9363371
151.43916
123.1569354
99.52113242
104.2375314
150.1482868
221.1182055
253.9420978
214.159901
147.2577938
92.98081911
36.62033864
-10.65079419
1.923864423
68.92067741
129.512489
165.0116144
192.4366731
186.8180701
117.1055614
25.99692029
-24.34953445
-37.73067801
-34.07168419
1.207022788
47.25241659
40.83804681
-11.79135895
-40.16474786
-32.88552222
-31.76185848
-37.80023038
-35.69497618
-52.124346
-98.50626363
-125.7486943
-102.8713385
-69.13804205
-64.77370713
-83.47885601
-115.9878378
-163.6622154
-207.0452609
-229.9521007
-246.0524574
-258.0463135
-256.5310504
-264.9106705
-294.7860614
-293.4309967
-227.9035616
-152.2685649
-119.6570916
-114.226104
-108.8914038
-97.88361517
-66.11327882
-12.30472811
24.84375809
37.14965977
76.7851964
147.0653504
168.5438307
122.3326096
94.36989279
123.41443
154.0785436
161.3794715
170.8583181
169.8723189
130.1210201
78.0777361
49.34027889
29.55937707
-0.921443879
-27.1606634
-39.54032778
-52.42686545
-66.4268654
-70.09380177
-74.06883947
-89.20919613
-106.5963588
-140.7297535
-217.11982
-299.2534184
-331.1568064
-328.8328549
-321.5948863
-281.352397
-206.8971137
-155.92865
-126.3560536
-55.81949206
34.74851476
64.36705579
50.54425095
75.96676028
133.7827711
171.134825
226.8388377
363.1601888
532.8276735
654.9757703
729.6864004
772.0820851
757.1519706
704.1411051
681.7124512
688.6553585
655.9989617
578.7025742
527.4206566
526.2762879
515.2779033
433.8323317
277.2971401
86.93339755
-77.75237945
-184.2684667
-250.613707
-295.1322638
-310.260103
-318.4067681
-361.731895
-418.5526221
-445.8991206
-476.7975508
-546.1679856
-596.0459506
-576.0934618
-531.3516168
-502.513448
-467.0503711
-423.4540718
-397.0262281
-364.2229135
-305.8572005
-282.2336893
-320.8173872
-326.9886505
-240.8297441
-152.019084
-137.1669175
-138.6177541
-100.6417498
-61.78615487
-53.79943898
-53.96325143
-46.67455816
-26.51052969
16.05299958
44.62958086
-4.076417728
-109.0909296
-170.0864662
-148.1479732
-107.0980547
-106.5393261
-145.9617616
-206.1298183
-254.341359
-240.2434077
-168.4881449
-111.4262116
-96.6413906
-79.51549618
-33.13665167
44.48004834
156.828968
245.9031652
219.2734978
111.8573378
69.25190504
134.9570306
221.7384563
295.5959564
415.2458573
595.5816996
776.0653313
904.2754531
950.096622
895.6485936
787.4565751
709.7792038
662.1951297
577.1942115
457.9951314
361.8513062
279.777321
168.93095
51.30969175
-30.98659001
-90.9029953
-150.2270695
-197.9617441
-238.5294236
-294.704373
-347.1061389
-357.37297
-337.7984523
-319.1060301
-299.3698048
-289.1436237
-317.5179988
-356.1325791
-354.2861446
-339.528316
-354.9611842
-357.8240344
-301.8578937
-226.7914484
-175.3024248
-132.6439298
-98.1366726
-93.33451369
-84.63256937
-23.36881637
53.20267231
79.89606824
69.18285398
49.86736513
0.070111829
-60.07143206
-50.57903495
19.25597915
49.52269358
23.38478039
8.726333546
12.43748772
-3.016134812
-15.72319746
9.789063162
41.99077029
37.32661632
4.795144216
-34.44451998
-78.97719462
-114.7552458
-125.2446814
-134.2807767
-164.9934102
-190.1065945
-190.5740104
-188.9237434
-181.540122
-144.5528528
-104.8989774
-91.91763602
-74.48130545
-38.53723235
-22.8286885
-20.9342755
20.02520319
85.7720158
119.4901998
140.5626071
200.9119844
269.8861643
296.9172002
321.1201734
389.5153398
451.6832868
448.6321845
404.4096085
354.6673274
303.6543161
276.7047565
289.6085248
289.0595803
233.0091656
164.3291577
123.9499378
87.18171253
37.5666295
-3.025361763
-39.18340872
-93.52588621
-141.5414779
-149.3102674
-139.7093586
-135.6453798
-105.9029103
-41.68634428
9.253958351
28.53135125
34.91436708
17.05689689
-27.61190121
-48.6594016
-25.27738072
3.737269681
29.06414671
66.15517973
71.99430558
-1.065904365
-112.0673235
-207.9883964
-314.5885507
-450.3316243
-553.7376281
-584.3169994
-579.8506124
-552.9744321
-469.8627256
-368.7048924
-346.5527596
-411.7286383
-484.0738379
-518.6759257
-514.8135469
-461.7053215
-379.0280733
-340.0135282
-365.6119904
-366.4389504
-260.7578057
-81.92186002
82.20275206
186.0149092
231.3606508
245.5210505
264.3781059
295.8012561
329.9216106
383.8042142
461.9931172
518.1452682
539.7274363
577.0810424
623.3231912
601.1503537
510.4694439
443.8187168
444.8300735
481.6349619
534.338864
594.2059939
623.4590462
610.3349075
602.8631631
615.3153747
585.2921971
487.8063671
389.5237808
337.3335953
302.6790953
258.8776191
201.6579773
104.6360718
-41.95447948
-183.8745058
-267.4844394
-295.8771355
-292.1754718
-286.3372064
-331.1767394
-441.3960285
-551.0575652
-612.1524224
-663.4048134
-728.4322332
-759.2088252
-750.1415052
-764.852857
-799.4750784
-777.3388925
-691.6433401
-604.361666
-536.8092505
-474.2583771
-404.9395609
-295.1114467
-129.755959
16.73125897
71.11740068
83.13345222
132.4167769
189.2824123
195.0211112
185.2292338
214.3417189
263.648555
312.738732
378.2181917
435.3825508
442.4969324
440.92301
487.1510849
536.0723157
523.6493862
478.9670876
448.8860466
417.4083959
373.4584037
347.378127
330.6751294
261.2550817
119.3815733
-42.61295759
-168.4790476
-230.0241156
-224.4883378
-193.6568962
-188.9971471
-207.0626498
-234.8185923
-301.7778038
-395.3529436
-432.801666
-396.723427
-362.7458686
-353.9051136
-322.1845547
-276.0298963
-268.6953398
-285.578888
-280.343556
-262.0270313
-230.699454
-127.5737287
46.93627766
193.0476193
266.1920201
317.8590035
347.3801603
295.3910388
190.6708483
130.0868778
135.1806823
158.9259193
178.398457
190.5315952
181.8318848
151.770148
110.2918095
49.20991102
-27.89249049
-75.84154699
-71.21000408
-58.83886431
-73.10357215
-86.71314303
-87.09309707
-93.9680348
-82.57174369
-24.13679263
29.3538906
35.67296276
48.39269188
98.69185061
120.97121
79.45036856
28.42440122
3.056123809
-14.36805027
-13.49099871
32.63229555
91.83160655
114.5383769
115.133823
129.2504677
149.9443147
169.194005
203.3165019
243.6650833
273.7835756
320.1696571
384.4199583
391.439492
309.1745846
220.5510276
188.7241485
169.2508373
119.1427449
65.93834844
26.12436156
-22.41090386
-66.88995228
-73.52504551
-68.15976153
-97.31434358
-148.3103628
-197.1188326
-259.9817201
-338.8235696
-409.1832618
-467.173952
-500.2959835
-469.9722286
-389.5194356
-322.179233
-279.4630732
-236.9204358
-221.9028815
-259.9200118
-293.3925223
-270.451064
-233.0841106
-220.3276116
-195.6302438
-156.9680462
-177.6582618
-257.4649889
-290.93412
-240.2280301
-175.3607017
-123.8430729
-42.77384283
66.07804563
149.1226464
183.2622442
171.7972025
109.2806798
20.583474
-25.6531356
3.634458769
67.55203319
117.9452555
144.9491609
151.1160826
142.940425
137.6230823
137.4020151
138.4281794
169.6965565
251.5721446
345.5523442
408.1739504
423.4657747
361.2363711
221.3121522
102.6285312
91.37802431
130.7828606
132.7537681
129.4139931
181.9086979
249.0487856
274.2579766
283.8405681
294.5807643
263.0083812
202.535297
194.2050737
242.1221844
275.9892278
284.2052507
297.8730416
302.8724513
286.1496068
276.6749201
264.4328997
191.7173365
61.64616372
-61.86140456
-165.5998462
-284.3153479
-407.6241283
-498.6331565
-565.3901826
-621.2661414
-644.7152551
-642.5739409
-647.3840584
-633.8931383
-567.8235606
-496.0953076
-460.1616854
-415.1172797
-332.897283
-252.6515598
-175.7136667
-57.52297792
91.88934553
237.9457987
405.2960378
603.6697298
750.0579529
781.0549393
750.099089
720.34284
671.2314254
583.3029938
488.5667264
387.2869217
242.6525155
68.04816884
-96.94244565
-261.1288147
-434.5489206
-574.4522348
-648.6737606
-678.446242
-690.5247869
-704.789084
-756.3111161
-843.5881094
-892.3880202
-852.715113
-766.4376463
-672.7380841
-553.4839552
-421.3927854
-323.1717878
-239.6234475
-128.0346027
-17.61781559
72.40495109
201.6806334
387.112474
555.4243668
675.6038817
778.8556144
843.7402068
825.7338373
763.6889039
713.5227514
650.6998246
552.53293
470.7317302
433.1936412
396.0255843
347.5035712
322.2742532
294.9079435
207.5778896
88.72780847
3.449707673
-68.2639426
-180.1174532
-308.9313107
-391.496441
-409.5885708
-381.5188957
-329.5660309
-278.8021276
-235.8487107
-175.5323304
-91.4500264
-23.60343944
3.448152937
11.29647552
10.68150602
-6.719883447
-20.16775866
-12.04850523
-8.648459194
-13.18298874
17.45189943
78.3490211
113.6633164
129.8115287
191.8707512
311.7705317
440.777637
541.2271297
589.233452
562.4631995
488.4766778
437.3829786
417.9769831
363.2603573
249.5416989
128.4658804
28.64185745
-69.49595381
-174.4351848
-282.2220855
-388.2442513
-457.6115481
-462.5596842
-455.3147449
-506.4362338
-591.4358425
-636.5336193
-635.3119768
-628.5327245
-622.3006239
-605.4448387
-586.7441926
-560.5788328
-511.4112592
-468.0452918
-453.8384748
-413.8472674
-308.9435063
-206.2477537
-164.0967154
-138.01579
-81.56915503
-10.33821276
71.40836639
172.483235
244.730889
237.5975304
193.5756043
181.5235503
189.5984543
177.9017173
160.8478555
158.1093986
159.6123293
186.6055647
264.6169023
330.4283572
308.7176772
246.1237397
234.3787263
272.9646497
317.4991096
366.0477608
413.4695973
421.9156624
394.6525889
389.2522006
429.461567
482.4068451
521.6282469
538.8395724
520.7525733
482.9375887
473.0038126
491.5181892
494.2412017
483.1627281
483.9579592
465.3582578
390.7064403
279.8487935
147.9906295
-14.8469723
-181.550744
-322.819132
-479.277323
-680.6246169
-852.0434076
-914.3141772
-902.412257
-882.4589948
-839.6087894
-749.6527307
-666.5289868
-641.3217832
-645.5359239
-635.7383296
-594.2278078
-492.7224464
-329.8496149
-186.7864936
-140.1449773
-155.0080763
-140.8659135
-63.96570161
45.04207505
142.2276531
202.5185502
240.5116366
290.9335469
338.8231729
323.6540531
249.1828651
200.6413686
217.1894174
252.1367566
267.2225221
259.3129918
229.7985513
212.3095581
249.8491879
303.665306
298.8318371
254.2281344
244.2774617
274.6513981
302.9798611
311.81542
279.8281027
173.9298963
29.65100926
-70.24621776
-135.6136587
-259.0814047
-448.0266852
-607.1469132
-681.8370711
-682.8425928
-613.3167238
-494.9471007
-396.7207173
-348.9945892
-312.2771542
-268.6530253
-242.3057371
-223.6833341
-176.7302742
-108.7512544
-47.99113437
13.41580873
87.77902472
160.5081358
235.8373499
330.4913359
406.2960566
419.6785985
411.1897674
424.9635342
423.1987215
389.5555186
382.3226809
408.3746639
403.5810979
364.6671619
339.5236247
314.4659757
265.5537893
252.7887029
319.0532832
385.0350841
367.3826908
300.0718441
248.0757326
216.6310904
203.1157708
213.8762406
209.0305189
146.9053302
59.07714718
-9.638121048
-64.60317115
-104.0887827
-102.7615465
-89.40906362
-132.2033397
-230.0666383
-314.873011
-359.5470379
-396.7913181
-437.3245101
-449.137979
-414.3563237
-346.3470636
-265.8214231
-194.3429951
-136.456984
-71.78023197
-11.33441616
-6.404464221
-53.55234598
-85.87873352
-87.37669775
-101.9084692
-132.3302844
-146.9853427
-158.1952101
-196.2039818
-248.6070295
-293.2238067
-332.425521
-354.6174972
-340.8305946
-330.3444366
-374.7927527
-426.182677
-401.4038416
-329.767818
-289.7141701
-264.1920808
-205.6768457
-150.8223225
-142.5905067
-140.83217
-98.58336275
-26.61959192
59.53667557
158.2001498
241.2215605
285.4459267
321.7248564
375.095088
412.6597885
419.6498657
434.9559488
457.1406032
437.1637967
388.3273695
372.782133
396.8833338
426.362323
442.8772152
423.3234209
353.0309007
272.1214709
217.6541932
160.4638959
83.80853749
39.6855417
46.38412874
40.39930354
1.576547755
-5.459714944
25.85488976
16.45121798
-34.80673591
-35.31445259
22.99271628
46.43742196
5.247725004
-39.25705834
-50.474219
-41.10623628
-23.5003886
-11.31186501
-19.69830509
-27.36611702
2.269352549
53.00148554
77.33833419
81.61228419
113.7452025
172.0529979
195.9193193
140.2187112
19.72440282
-101.1978594
-168.8309895
-213.3281493
-297.9094524
-388.4485096
-402.5281651
-372.7910766
-392.8650701
-443.4147062
-444.9771921
-408.7495985
-380.0798607
-336.174863
-266.3815527
-229.5303386
-235.4968559
-205.7376873
-114.0848018
-21.13730657
57.29789861
158.5060361
257.0675508
298.6694503
311.6015906
344.9600375
366.0921898
338.357289
313.4069444
345.1975778
390.8126712
373.7514907
286.0957081
177.787024
90.54186168
29.23817769
-34.51580568
-125.9818047
-215.7367675
-255.5617243
-268.6438371
-310.8670711
-366.3703669
-389.6670082
-386.5066156
-361.9613146
-293.2458037
-206.3189988
-154.1426983
-117.5076291
-56.31466956
-9.861464177
-15.67788507
-10.38096773
62.05023786
140.0986157
153.5772912
131.6262261
112.404579
71.57110437
6.660422858
-38.81907837
-64.58156709
-102.7161545
-134.7596015
-126.1438919
-89.68267281
-40.80936879
29.97837757
102.4797389
142.6146004
182.1661068
278.0761533
399.4911166
454.4712345
412.1473274
321.307049
245.8687909
233.1998339
282.2348645
324.0595778
311.1265189
288.3811027
294.749512
291.5720772
260.959338
245.1328757
250.344405
244.7899692
239.5920926
251.4184455
239.2782092
176.7112241
106.5609509
55.32451237
-7.675052453
-83.53739934
-131.3895296
-162.6127463
-221.6390623
-281.6141171
-294.7531593
-302.5380172
-359.7152545
-432.1024756
-490.4595675
-584.1699996
-723.2329352
-822.4318149
-827.9347806
-776.2259746
-706.8777186
-627.0963969
-555.4294576
-509.9753328
-474.9386587
-437.7439662
-409.9576141
-374.3742204
-289.4431817
-164.7305004
-43.96659284
65.952869
166.1717102
236.0870912
291.8155319
369.5526964
437.4644354
451.4053018
465.2173866
549.4941627
660.1064851
710.1400238
695.6787113
651.1680349
575.5424021
486.0771711
437.3137939
420.2771727
362.9386793
268.5294882
215.768007
212.7201549
192.0245301
134.5186799
77.60662912
42.04304802
34.10019926
59.4752882
87.50766731
71.93488338
22.66015697
-11.68619894
-17.73173046
-10.40276214
9.532959959
34.00710895
37.11288966
26.18388627
32.47709227
40.55697184
18.4822123
-10.96476029
-29.0245007
-78.1610336
-172.1033778
-252.1875197
-293.199705
-338.357301
-404.6523243
-464.8071527
-515.6506823
-562.4667134
-570.3617027
-524.848452
-483.6239338
-479.4316693
-446.7819479
-333.6057521
-200.9685229
-128.364433
-103.0373713
-64.41540092
17.42695838
133.565426
245.150695
311.5051314
346.146441
400.9611199
480.6866761
536.0746455
539.8217421
505.1568395
446.1157567
378.9614997
332.7342451
301.7940212
230.4865941
95.55952761
-54.02084533
-172.6180944
-258.2777091
-312.0919706
-336.9483163
-353.3113153
-363.1107348
-355.4378528
-357.7311802
-394.3628467
-423.1458326
-405.9826052
-378.7135509
-366.1542761
-319.8560123
-216.755126
-117.7533693
-65.53872466
-26.15789482
28.75679085
88.76648955
164.6449503
266.1649849
336.2232826
322.6390694
274.9257013
268.7364535
294.9488075
302.970599
285.0888204
260.8410742
237.1318255
215.3505033
197.6874046
181.3894215
169.7398917
173.2632087
189.6213464
208.8462142
231.7444965
247.0997128
226.7672178
191.7824009
209.6248363
274.4075762
302.0453396
280.4015401
282.8645188
324.1721165
351.3155226
353.2058809
339.7249421
264.3512348
92.46515288
-115.891945
-284.0467038
-403.1533968
-480.3436848
-505.2593496
-513.0567951
-566.9627778
-653.637854
-709.3107615
-735.2864785
-769.8829477
-791.0042185
-758.485667
-696.3725961
-648.1286192
-610.2623113
-560.160249
-490.3754821
-394.7670372
-271.4476807
-138.4115085
-11.43950491
110.2727656
214.7876948
280.2899527
321.7679613
372.5403378
420.6210033
435.5118893
432.5992229
443.5245266
472.6754047
521.2337342
580.7014716
605.7869854
581.9313096
573.756156
613.1404435
622.1695017
543.1567622
442.1680467
392.7906589
365.2600104
304.9804784
215.6099644
117.6956156
25.66133137
-24.12851967
-21.56534857
-31.67249825
-97.68990503
-153.3586937
-126.933306
-58.98651455
-30.87762437
-51.83666441
-85.93086361
-121.6865466
-166.1339695
-222.6522781
-294.9767288
-373.7080191
-428.1012203
-444.8779234
-444.1932939
-436.2176692
-415.8717864
-400.1749734
-399.8996976
-387.1152476
-360.2965394
-365.5237387
-400.4987896
-407.803932
-384.0425575
-371.0536927
-358.4821352
-313.4224261
-251.2558961
-185.7274132
-93.46347853
14.81845239
93.03406909
155.0826277
249.5002834
336.6893409
333.2794461
271.2847917
259.8848164
305.4871528
321.5642872
286.8916645
254.6941581
244.102816
234.705405
225.0262673
219.5438571
205.5659965
187.7082139
192.1871621
214.9809213
223.1026315
213.8237534
214.9234959
234.0566408
257.4812496
274.3455134
276.2800305
271.5893771
283.9371935
296.2896734
260.5131431
188.7066933
135.8636867
95.44111018
25.85152281
-54.91394526
-107.8281884
-142.3197411
-165.9669721
-156.0043481
-135.5444579
-162.514646
-203.0374577
-147.1058842
12.40817815
148.5740564
175.3535776
123.6730711
37.7583583
-69.304188
-162.8432731
-207.8659573
-222.3368457
-229.9271349
-216.4016049
-190.3975525
-205.0827746
-271.3492202
-331.7544518
-348.5321083
-338.3466931
-315.3003574
-279.9731689
-252.7932052
-247.7002635
-245.9993894
-242.6921705
-259.3932956
-293.5081281
-321.8432144
-339.418589
-344.3034719
-329.2204587
-307.9440419
-292.8582122
-264.8461583
-216.8420508
-168.4282461
-94.88918524
67.39871504
300.4907196
486.4394538
552.1750725
544.1568888
532.5442519
534.7347686
547.4639835
566.0467323
579.0833776
604.2092413
673.2006961
743.2460573
721.3482457
602.3179295
472.7921304
374.2591831
273.1897607
158.0943268
60.50619277
-13.14193292
-84.74376982
-154.3947873
-214.3181206
-278.1928999
-342.2260939
-373.8589115
-372.0950862
-366.2116629
-359.3639042
-350.0843309
-360.1194109
-374.6263356
-337.8228822
-248.3936776
-160.4319514
-87.13255027
-8.244130304
58.17990635
91.23465222
121.6678041
172.038286
210.3615851
216.5119687
215.2468791
214.1307911
197.0483073
185.0407861
204.6341511
206.4205165
116.969357
-48.35427084
-211.8018896
-338.4174809
-443.4827891
-535.2612186
-606.8441216
-655.6152948
-682.2063352
-691.2077041
-691.2484388
-671.553675
-599.9210164
-468.598617
-309.4905813
-151.7809508
-14.02668948
74.63858337
116.2772825
170.0295503
267.9432766
372.3920401
459.0603924
540.0238565
592.9415215
591.0449411
586.8442292
637.0136861
684.0344045
635.9308757
508.243324
379.60777
276.7133064
193.0006747
138.1222063
96.8227623
26.70277412
-64.09072184
-130.1613261
-174.0039341
-218.9907967
-242.811258
-231.2923878
-228.0131792
-258.1859399
-283.9630201
-276.2643317
-248.9124501
-211.9670198
-170.7943354
-154.5780947
-169.6543522
-161.9254943
-94.74905966
-8.105776515
54.63393451
103.3537866
152.6322948
201.1659059
253.1174719
284.8117023
251.4081828
182.7719592
167.6667367
217.3169079
265.8533513
289.7219318
310.5561863
330.1091592
351.9601948
393.2754869
422.8752382
381.3512686
283.2599552
195.967491
126.4995837
41.72178063
-34.55853756
-62.58056266
-70.6057682
-95.68294492
-118.6436163
-133.4041937
-176.2506418
-230.3217116
-218.0630118
-134.4312185
-76.90360026
-106.2627653
-173.8452966
-215.707994
-239.6293502
-293.7675543
-398.563603
-520.4557868
-601.069156
-628.6559603
-657.6714019
-720.2156645
-773.8245584
-777.4512454
-739.2782728
-669.1102826
-576.8458195
-507.2149736
-483.133127
-454.7350487
-382.150827
-302.5916576
-255.7040321
-222.425048
-176.5405808
-111.4983983
-0.937516979
171.8061016
343.017614
429.0295119
448.9389667
490.710389
583.1359657
689.3164484
782.7013209
858.188601
911.9374338
943.9271973
941.5492049
879.0492322
782.9566131
744.8178563
804.6162493
883.2099245
888.9962492
817.7763558
700.4162106
548.6057454
399.0125075
308.9882538
277.1403571
259.3281116
251.7626165
271.5810159
295.072255
279.0074292
196.9798432
42.97707964
-143.8763351
-288.2381284
-372.0456222
-464.4246118
-609.9030099
-763.3660684
-878.6001077
-974.5325213
-1073.985918
-1160.648718
-1223.026372
-1261.450301
-1251.98994
-1182.572424
-1092.382768
-1002.28098
-873.4952128
-698.9223942
-538.9124395
-409.1618792
-240.9393771
-1.818280862
247.2186247
447.4110169
598.2796536
701.1852793
736.3027392
706.7006453
637.7127645
539.2589485
414.4002653
278.6104182
149.9260378
52.94799869
12.18662777
9.683033073
5.110506428
7.315900703
41.96576796
71.55246471
50.45707348
15.29126379
24.51906491
70.41930688
123.3999275
180.7412719
222.0318554
214.98181
193.7800123
226.548307
304.5279567
372.8109284
434.5777168
503.3876779
515.5137425
417.638805
272.1221772
169.1162821
108.8474074
45.81289427
-27.23257714
-91.7847269
-140.1685221
-172.0274198
-189.0196542
-192.5391093
-170.0817749
-108.9410353
-30.42032389
30.82268953
75.8857098
118.8474709
143.8063894
141.0097194
131.9807338
117.1710554
77.72597038
37.65234387
27.99838253
19.8982614
-12.44623575
-32.15530983
-24.1606683
-41.39707056
-102.1114759
-149.1371527
-157.1414079
-172.1416975
-215.8970142
-256.4988903
-288.7915526
-341.7178455
-401.2395018
-420.3356017
-397.4496447
-366.2284384
-336.1101502
-306.6243509
-294.4521173
-296.4385758
-276.3619474
-220.9685174
-159.7858549
-113.5786155
-73.3152346
-35.33802413
-6.293125191
25.92725097
82.09215842
161.1866803
243.4200976
300.6098928
308.7800718
287.5378073
291.4406761
322.5031307
318.623637
263.3867974
218.3999313
223.1113346
251.409869
267.8028722
249.5620979
180.7319194
85.85803499
21.38921082
-6.367712984
-46.77367565
-107.0501347
-137.0524013
-128.0191589
-130.065589
-158.7372379
-176.288099
-169.3141921
-166.5436538
-183.0515332
-200.5115353
-197.4695755
-176.7161879
-167.9384611
-197.9450417
-252.2170447
-288.3552973
-291.2649414
-279.7804458
-256.8258558
-202.6330042
-125.0122233
-57.59007748
2.618755717
93.53002522
221.482733
352.38547
448.6717248
477.561907
436.0085067
383.9566779
381.1974191
405.2061621
406.248297
393.614717
392.5266412
388.8782565
382.9814489
412.6329445
470.5705304
491.5913939
457.4538307
417.3159534
392.217064
365.4659656
351.5335051
360.5489787
338.6537337
255.6061267
182.8472324
182.5846731
200.7476391
153.721783
36.43932241
-116.0695416
-286.1197783
-449.5077721
-579.6048461
-699.8866916
-853.5320677
-1018.912837
-1132.249764
-1179.394083
-1199.538993
-1226.987878
-1270.044806
-1307.025716
-1290.520135
-1190.913837
-1021.34742
-811.0040398
-598.4357716
-436.489953
-342.9548859
-270.2954369
-167.3642563
-28.08583157
141.5232535
338.2063893
526.2544889
658.1000728
747.8302167
857.7895039
997.9643252
1109.04782
1159.290074
1186.553341
1231.97636
1287.761779
1305.492133
1223.553867
1022.021304
771.7379908
577.4385193
463.6430589
372.8675671
265.787798
158.2576591
76.25934338
34.10835312
34.47774362
45.01851174
9.694378637
-85.40582012
-197.2890929
-282.5121102
-325.4603048
-338.3742622
-375.2679346
-489.1121778
-649.2897291
-775.6232065
-842.9849978
-865.8440976
-833.3099962
-755.0077113
-694.7258542
-677.1618492
-647.5785864
-568.9080648
-460.4969627
-333.9757824
-199.7031242
-112.3209284
-100.9442874
-104.2343648
-67.56406508
-23.05738731
6.25808978
76.87474731
224.3092266
390.7097508
508.8192183
573.5083421
599.503218
584.9769712
536.1761891
473.8676647
414.319064
372.5950322
356.1653983
341.8098675
312.2844454
307.4933535
358.9340003
404.9078381
369.2239119
276.4083414
201.0124711
166.0228891
150.4131428
127.0062678
69.25497812
-18.342669
-93.48005427
-143.8012456
-202.5441223
-265.1079715
-282.4094124
-263.4611447
-275.8693669
-326.0027699
-352.1388409
-339.7965135
-328.6400975
-321.0230672
-297.9268637
-290.4017723
-328.7517281
-371.9159387
-375.7581759
-363.7479402
-359.1660793
-329.4774443
-259.5077321
-193.8163321
-156.0729217
-112.5142099
-50.13708738
-3.108841197
20.4005787
55.70729455
116.0740492
170.9457464
186.2179136
158.4352354
123.781058
123.0231321
142.8896055
137.3008675
107.1858149
89.79153363
90.00783539
98.84994514
134.5735947
193.469939
223.0124971
200.5802901
163.1337775
125.0130029
59.98182496
-15.30573198
-46.07451531
-36.66596609
-36.52333456
-43.76481098
-30.81866104
-24.53363141
-54.29154212
-79.20460795
-56.52129098
-12.517049
20.62093695
62.87908025
134.7200931
218.004049
296.5792288
375.6212911
451.7466221
512.5346223
557.1625581
583.2738759
579.2065102
549.6512423
513.9672178
477.0681361
433.8584579
380.6132153
306.4226768
216.6423093
151.4901687
123.3118704
79.08834433
-11.57217264
-98.82234884
-145.2711632
-196.0905607
-297.4241329
-426.0372415
-550.0613226
-677.596942
-804.5881555
-895.5900215
-942.2791406
-963.6809368
-951.1394183
-896.7272815
-847.6391102
-844.3950247
-847.9110982
-800.339027
-699.7379508
-567.5502627
-420.349828
-301.6851523
-249.0645117
-210.1446569
-87.39918462
118.9242482
300.7469638
384.377088
406.1721156
438.7466133
499.5622472
549.3106624
562.3654097
571.5525721
609.5297754
637.1668198
602.1336156
531.327238
480.8082908
446.9918426
405.3857766
364.2030029
318.6023416
241.3534186
158.4092911
136.8715042
179.243213
223.1366832
241.3691257
248.4995357
230.4292733
168.0361631
103.7774445
88.75034687
96.35352833
72.99217864
32.09042444
19.83594495
31.72343599
36.47879514
44.40327429
83.60918892
134.6807703
144.5779636
89.16671649
-13.70968632
-134.7610169
-254.3733612
-372.0475413
-500.5817032
-635.2710311
-744.2384144
-802.5501284
-815.5105093
-809.849832
-810.6401813
-804.4280705
-744.2297023
-632.4610865
-542.9218772
-504.8191368
-453.070132
-350.6573503
-245.7545594
-160.0817521
-53.89756858
67.24918394
153.1624587
224.4508366
339.9121781
460.7506765
499.7707091
486.1264791
537.3989934
693.2208994
896.0163775
1093.091061
1253.355385
1333.333403
1315.835381
1244.100125
1165.608012
1081.179821
972.223149
836.6363264
688.7321993
550.7315005
432.9561952
311.5228513
161.6367439
10.71480844
-95.78914654
-162.943474
-223.3633081
-288.429823
-368.6527546
-476.6115564
-585.7784209
-661.9645276
-728.0892895
-826.3838841
-950.7750612
-1069.331184
-1161.435028
-1204.344834
-1182.321173
-1119.110189
-1052.643794
-991.9009637
-938.381616
-907.5770074
-882.428626
-802.1256212
-645.0543807
-455.6695588
-257.0236715
-31.74980637
187.3068528
328.1793991
403.9109133
501.9724256
635.6795864
720.968342
700.5475247
591.7448454
430.1368099
253.0279726
114.0241817
47.20524305
36.85246228
45.89169235
40.50214204
-0.992333185
-59.25224267
-87.52676518
-79.57726472
-67.76682954
-59.92594044
-48.50479796
-45.15295747
-38.44342262
19.47380513
129.7695028
232.3915431
311.6598479
419.4831865
563.4774336
673.7071078
711.3790893
717.9792622
733.031694
746.8910694
743.8848885
714.1541657
629.9186726
480.1105671
311.2407329
182.4220605
104.7828836
50.68527369
-12.83216137
-105.1213382
-207.5521541
-270.8370332
-280.9507342
-284.8237898
-319.363051
-364.1210256
-389.2452317
-388.9176495
-357.982431
-302.6596354
-257.5706131
-233.5083178
-198.7600134
-148.2095706
-111.1833952
-84.4090585
-50.0006083
-34.21853824
-57.50361767
-77.98201469
-62.63040007
-48.26302283
-72.87005809
-117.3212724
-155.5891038
-190.9384263
-215.691564
-209.4692333
-193.1076319
-205.6989237
-226.4178254
-201.3828658
-133.0590666
-63.92538286
-2.371536005
64.95423534
123.9708389
152.3578356
158.4045125
167.8497929
194.6325086
238.0597378
290.8970681
344.7511435
392.1253906
417.6126249
396.6775106
325.2034853
235.3251498
158.6390449
103.3337855
80.67549855
96.60358985
111.0840601
77.07903062
7.689295281
-62.893216
-135.9616113
-203.227205
-227.1736041
-216.6294821
-222.7054901
-236.9643223
-205.35295
-139.3141125
-92.26604921
-42.55733593
73.26679294
224.4922869
308.8987566
299.0040244
244.2460355
150.709667
-15.37790054
-230.0579828
-427.4469444
-581.6975018
-699.1137703
-777.4957708
-821.5755316
-848.3244696
-856.0069873
-831.3915613
-780.4886521
-714.7617297
-634.7669035
-550.9495434
-471.5237101
-368.1814288
-221.1205376
-72.02575151
37.22156078
122.2911297
201.1335721
261.9356347
313.1152791
383.2619097
476.1996518
590.8723641
742.611485
909.5874785
1019.678411
1032.508857
971.5845749
860.1614353
701.7394556
527.7587784
384.9755777
280.3058628
200.3583714
147.7984903
105.7536884
36.01868448
-45.19070459
-78.39321493
-65.85802001
-58.82363963
-43.86647183
34.29175389
147.9586927
211.3037
216.6106704
228.6861147
264.5685244
289.7718567
310.7413782
369.5656229
464.0072835
543.7716777
566.8608542
527.0687305
447.7314075
352.5790003
244.277054
138.975857
87.6587933
104.9706755
120.8727498
57.15881929
-97.51621978
-312.1357073
-541.6279925
-723.9254601
-829.0867977
-908.1596021
-1019.860605
-1134.667447
-1187.666268
-1180.741226
-1149.861394
-1090.252076
-996.8503225
-912.4614562
-864.2224969
-818.1798654
-740.9603912
-637.2943481
-508.1733131
-343.9778899
-162.9208865
6.075238976
167.2325388
335.7292442
498.941315
638.4190729
754.2215431
844.3760078
906.0332363
958.4332198
1009.072399
1022.24307
978.8053328
913.5286124
846.3179398
751.1514149
618.6238979
473.4545563
335.3043769
221.7245393
150.1419224
95.09509047
5.23388864
-112.9677006
-200.2835809
-241.9360876
-281.6525175
-339.0340016
-392.565261
-436.3467824
-480.4019204
-519.9468866
-562.2961122
-629.4668693
-690.6778878
-675.0749081
-586.3387378
-511.7864508
-493.6358444
-482.2463248
-430.1387068
-349.2132193
-269.5162538
-210.8252408
-189.7789505
-198.1967948
-194.2524526
-161.9576991
-140.4496623
-154.1180648
-162.709772
-109.1789081
19.36605652
177.1262841
292.3133156
342.6400236
379.471659
437.9851945
485.1122023
502.5700769
529.5945384
577.630803
601.7766402
585.4653473
556.8539854
519.2925091
463.10165
428.3078201
455.1523702
499.0483301
492.1753953
453.3130585
443.0057852
453.8156289
430.5414561
353.0735124
232.5889905
76.60916133
-92.04527167
-231.1429588
-326.2481106
-397.6332472
-447.4961256
-443.1048496
-357.5040339
-201.2875959
-23.47356876
114.3534994
195.9307271
272.216062
382.876444
490.997707
546.6693005
556.7793259
545.8018998
520.964954
500.0365282
493.7125568
465.5084586
384.9040305
286.2516329
207.6863752
126.826332
13.91599826
-113.7169594
-228.1627231
-320.9703482
-389.7119384
-459.1867565
-592.8343654
-808.1024519
-1020.226478
-1143.312155
-1191.821639
-1218.286054
-1223.079304
-1189.697437
-1144.02124
-1123.651862
-1133.203738
-1156.515268
-1168.728843
-1128.665965
-1008.604378
-828.5384966
-620.713899
-388.8431726
-137.3187202
105.6309426
316.4113141
485.0579399
607.5468188
700.9996388
786.8533928
856.2709758
906.8694952
973.9696456
1062.843108
1115.796037
1097.17073
1035.960905
960.5543581
869.8948593
771.0222922
671.5360391
546.531711
375.4725788
191.0311767
41.81949365
-60.9178576
-123.0104753
-146.6622825
-159.7880381
-200.5072078
-256.7082671
-289.591104
-305.8730046
-333.2590482
-358.0162088
-362.0487252
-374.2940636
-411.057817
-420.5653907
-362.1402899
-286.0556192
-260.7062673
-268.6965339
-239.0491381
-143.1853169
-24.55006814
30.40028292
-40.50458049
-192.9402242
-297.5624697
-278.2013494
-180.2700113
-96.91800486
-87.77926682
-158.9865443
-270.2792589
-378.1013273
-486.9086154
-613.160518
-708.5959228
-697.6451722
-580.6701781
-419.28532
-243.9981193
-51.26450741
153.1103201
374.4300562
634.7334728
910.9998584
1138.812728
1304.38377
1456.40186
1619.965868
1772.879551
1899.832902
2006.033957
2084.632658
2110.177435
2055.586733
1903.197546
1662.3099
1381.243716
1109.898038
844.8525681
545.3476892
201.7861984
-149.9034553
-470.1865494
-735.575584
-943.1260325
-1122.282034
-1305.274074
-1482.659967
-1629.024458
-1739.642071
-1796.962681
-1764.031256
-1653.554802
-1525.698017
-1396.527
-1242.063417
-1089.311548
-991.3967674
-925.9794524
-834.2842373
-737.6289931
-700.030657
-710.0020975
-708.9992443
-686.5096885
-650.6655064
-576.2621179
-464.4861343
-371.9634555
-318.8438728
-252.5629257
-139.9661981
-9.68307861
115.430281
242.6108314
358.3504954
429.5863657
452.4732691
445.2756979
419.7686176
397.3761856
409.664645
458.2183169
507.7328169
518.1109222
470.9849279
388.8618212
320.7379081
283.6197343
254.8907088
240.9864721
284.282968
379.217869
462.9998333
509.3284639
547.4099107
580.8484908
577.4952962
538.3218932
489.0859154
419.7516762
313.2657533
198.4330811
104.7428742
22.09373372
-46.46669537
-70.39892115
-56.41614488
-42.44737116
-25.01062486
22.55983203
76.89584361
92.46554185
78.28071124
75.15459209
84.13986308
76.01769486
49.00840127
36.26779825
64.82531921
117.6502598
140.6028446
111.0264636
80.81490469
96.46767898
116.5836293
87.77684235
41.58242281
26.87498935
18.50910618
-25.95535029
-94.00406844
-161.2211919
-229.8952115
-290.6099526
-323.4809929
-350.3402229
-406.7081711
-471.1766037
-503.7778495
-520.1130817
-541.2378109
-527.3759274
-449.8200675
-358.9214812
-306.1953514
-276.5682829
-250.3474585
-248.8608428
-276.0469552
-287.2517501
-251.4731043
-191.8918906
-142.1362256
-102.1744282
-49.20096072
32.29544902
127.4917406
196.5150828
230.8099638
279.6927403
370.4013411
451.8777633
477.2006777
474.2318149
485.9802675
513.2887032
540.6171934
555.6520087
548.5713651
534.1367593
540.6963335
556.7290891
540.7429824
486.0888426
418.6494202
347.9558061
281.8913469
256.0516232
275.2871732
264.6328619
157.8691891
-9.288101977
-167.0871936
-308.9377244
-453.0246558
-581.3262701
-675.3555871
-747.407726
-803.5963069
-831.6049811
-830.7783851
-805.1313019
-741.9126768
-639.4105282
-523.691688
-404.8926208
-266.8790705
-124.91961
-28.12059897
18.2326448
72.75006881
187.051793
346.8852798
474.0905776
487.4011306
390.8544196
273.5429492
195.4760076
141.3652316
105.9479339
117.2420358
156.8860388
182.1364263
231.4225134
372.8127156
557.7504623
660.619855
640.7030759
549.5251022
426.2923108
287.8020514
158.9212742
30.58027922
-146.6357112
-373.547836
-575.2550869
-690.5560597
-722.0596434
-694.1975931
-633.7886685
-592.330025
-621.8902072
-717.0766933
-815.2902559
-859.7241534
-843.7423731
-793.2726686
-722.7200349
-620.2776866
-481.2785494
-342.344728
-246.9324339
-179.9334473
-85.05905287
64.27531519
265.1991333
514.7622372
768.9390466
929.1646163
944.9655069
873.7405258
787.0203233
692.7093785
586.9869013
489.5930444
395.444662
282.7347651
180.9532028
141.9954991
157.7571547
191.399985
250.0777207
348.1064068
453.615932
530.7656019
573.6094393
571.2015543
508.5014381
410.480698
325.4927426
273.1209576
247.7946746
240.7123885
227.7686873
185.6278889
144.885308
166.030383
244.5028369
308.4743777
312.5136173
262.5340855
173.9554421
73.78675491
1.227693224
-41.08700481
-91.76794254
-176.6018278
-288.4703436
-399.3977191
-466.5327242
-466.1284779
-435.1172198
-442.2993835
-524.9033845
-678.0019099
-869.208664
-1034.97676
-1117.532665
-1140.64637
-1182.487291
-1244.794446
-1240.789689
-1134.542933
-978.0121645
-802.9235705
-601.347704
-401.6935244
-243.2571514
-100.4181989
71.61683
257.8247763
424.0511375
578.1591728
723.203422
812.3164182
816.9261432
784.6759195
778.0131853
811.2202416
878.0534264
977.40323
1088.188731
1158.68045
1125.46896
946.5666384
648.4631549
321.0264345
31.8389109
-213.9934734
-416.4784259
-562.4379307
-672.8090604
-777.2366081
-848.9129241
-855.9412728
-842.7445514
-860.3036915
-861.9446909
-769.7489147
-597.4028479
-419.9518899
-277.0464505
-177.541676
-129.1362313
-99.41105167
-20.26092288
125.5206227
294.2046178
464.8001752
644.7508355
804.3148279
901.9789135
958.9930404
1026.104381
1100.869154
1138.562409
1111.576443
1020.182894
878.9328174
705.149321
499.538576
260.8328977
26.89022763
-150.4347179
-265.9668904
-342.7811315
-387.5844003
-413.5038826
-443.5018101
-453.3117927
-398.2751773
-317.2397527
-303.9942124
-367.6871695
-425.9042776
-426.3437727
-384.9552736
-336.5718207
-325.2729208
-392.0297295
-506.8886628
-578.7210521
-581.1468668
-588.8456198
-654.5263692
-739.3018735
-788.0663557
-786.5443715
-733.8004437
-636.9090806
-529.9525245
-436.9401108
-337.8504758
-216.265223
-98.00309242
-5.967591591
71.94511923
147.4936199
220.9375739
307.074335
415.9037996
527.1009487
623.7342488
708.7601946
779.1681956
841.4211237
925.2406239
1023.696448
1077.264008
1065.711952
1044.814708
1066.120884
1137.202174
1259.681823
1417.819641
1541.005863
1562.703137
1496.83134
1391.347771
1253.404506
1078.183458
884.4516072
667.3489946
389.026753
55.43625659
-275.3029702
-585.8165637
-922.3767388
-1309.61992
-1715.033718
-2104.117197
-2463.190575
-2770.437142
-3004.448611
-3163.781617
-3226.610765
-3136.077216
-2881.140069
-2534.329158
-2166.639414
-1787.824828
-1383.163547
-945.1752627
-479.379626
-17.48599662
408.5687605
811.1598537
1212.803373
1576.181515
1817.624197
1886.553526
1819.032595
1725.349691
1702.420202
1727.097435
1673.23542
1472.873939
1204.783545
971.9907579
765.4953838
521.9746156
241.8444244
-24.9510515
-238.9301235
-359.7139174
-351.6721598
-248.4797905
-144.3815094
-85.40030288
-22.65726836
109.0825827
320.2097801
583.6631848
866.5292914
1121.551466
1276.441412
1248.499783
987.9024632
539.7598643
42.07483843
-379.2055138
-679.8885843
-857.821977
-932.1364581
-960.5668696
-984.2913305
-984.5772417
-956.3691242
-937.9472669
-917.0914474
-823.5812135
-655.8632071
-503.6631625
-422.7248516
-381.447386
-329.7097273
-239.8682604
-99.87556269
63.10874031
182.5212477
233.7452565
275.4004513
370.1715145
519.063695
689.5368387
833.5282699
880.7311089
804.6508271
684.2729786
615.9541628
591.265402
536.9685395
431.1789057
304.4366589
167.7016226
5.187046138
-189.1834882
-402.1062783
-600.7215638
-742.2455406
-813.7034981
-836.0700009
-811.365692
-720.3231835
-576.9954238
-417.5515397
-242.6003028
-29.94022957
213.6299371
446.657792
612.2137254
662.9745571
608.644168
523.9690987
469.8811904
430.0118037
355.7195109
239.4530321
114.2950862
17.41264573
-25.96130714
-28.16917921
-56.36145958
-162.6847711
-300.7095568
-382.7148369
-404.4380045
-438.0845699
-526.2420647
-653.6406443
-795.4209308
-934.1848718
-1054.720074
-1153.135711
-1220.531609
-1215.349218
-1094.58059
-859.9487147
-537.068187
-149.2120099
258.7620492
642.6164136
1027.016856
1462.121901
1915.760028
2307.86874
2616.342818
2851.129858
2985.056065
2999.846548
2939.922334
2862.739057
2788.830779
2717.463868
2637.966724
2531.06512
2402.310438
2287.099337
2178.205
1981.868519
1595.537735
1010.321838
305.0945049
-444.578138
-1233.808718
-2099.313183
-3004.5156
-3789.562455
-4331.445222
-4738.131259
-5244.285664
-5899.358916
-6495.311907
-6816.306019
-6828.553308
-6619.275121
-6282.128318
-5887.714049
-5472.402345
-5029.143231
-4540.967159
-4006.122064
-3424.17443
-2803.744411
-2176.220863
-1553.004242
-893.9203842
-152.9969371
684.4153812
1615.590217
2600.802746
3527.227764
4270.876836
4806.983984
5206.473903
5529.867925
5775.447598
5914.444521
5915.535264
5749.233651
5425.967271
5007.033041
4540.542272
4044.797146
3582.068526
3245.144692
3013.337384
2721.346565
2256.126721
1727.473656
1358.750683
1220.396317
1128.755557
822.3455329
226.3750298
-456.7832186
-920.3353221
-1014.490858
-835.4549788
-597.7404339
-464.0966241
-465.7389867
-530.5825714
-576.17905
-556.9189459
-429.0235804
-165.8654014
151.7233733
364.5228942
412.272666
404.5030956
480.6933354
668.8680888
897.3004939
1075.033327
1140.0296
1086.791373
978.1707668
895.6239949
857.8177606
812.3205305
705.1319818
523.9570346
267.3415722
-104.4920903
-646.439491
-1328.395525
-2019.559524
-2644.968585
-3287.434705
-4046.10077
-4869.753974
-5607.299358
-6141.352163
-6422.320369
-6479.691718
-6448.943984
-6455.410705
-6406.270451
-6041.363097
-5266.76051
-4296.066708
-3399.973655
-2658.926031
-2004.763295
-1361.910344
-687.1328121
45.67705121
842.6498853
1660.844524
2367.424636
2773.785764
2797.298868
2585.270888
2407.703635
2416.332098
2535.410895
2569.509684
2394.274147
2067.253967
1763.810902
1577.634357
1417.588367
1167.937801
891.0775414
762.1963497
851.9228874
1083.190988
1366.058929
1680.349376
2038.359229
2429.946951
2813.984438
3144.201967
3404.295818
3625.723467
3862.323434
4137.080191
4409.534356
4568.819133
4450.091232
3935.887686
3098.274644
2174.170269
1365.579932
725.3298079
199.5273618
-327.7977947
-971.377188
-1698.839428
-2295.099897
-2555.225315
-2463.529878
-2163.315627
-1834.591105
-1594.535382
-1415.982339
-1155.77561
-743.3204118
-294.0455453
29.84331567
190.0029563
248.9396954
274.3616815
307.281218
340.3416153
317.5305062
220.560485
125.813876
106.4800423
114.5628562
26.67112785
-216.8290227
-565.3689101
-922.7294809
-1215.337106
-1433.242426
-1653.138278
-1978.304104
-2404.324664
-2782.630507
-2954.740056
-2907.063408
-2789.072856
-2769.533806
-2858.787678
-2918.978748
-2871.062897
-2800.826261
-2822.512153
-2927.81465
-2990.144993
-2842.860661
-2382.062246
-1690.164025
-1027.827468
-613.2307718
-437.0281836
-347.9355462
-236.2502023
-48.36739246
279.1110755
771.1643633
1346.572957
1880.417423
2302.050312
2609.807894
2846.53065
3070.616879
3307.674916
3541.649523
3769.821593
4007.169353
4204.158705
4237.335193
4045.105976
3728.452158
3470.05749
3372.070599
3368.575231
3278.885521
2998.723385
2646.394716
2401.391526
2167.6549
1547.864853
239.705362
-1613.780627
-3499.266054
-4909.256606
-5690.275252
-6128.503358
-6670.972353
-7458.593429
-8139.164626
-8209.200824
-7518.467559
-6384.098752
-5244.013537
-4270.495729
-3335.927079
-2302.115495
-1243.327805
-326.9326473
437.0354802
1206.347668
2105.946242
3117.348817
4141.670377
5097.691193
5967.702517
6777.155602
7517.713935
8101.097083
8426.568897
8481.018431
8326.485432
7997.458155
7455.034296
6643.073775
5572.25874
4357.115004
3151.010175
2027.865543
995.9774488
140.8621998
-387.1430489
-570.0357839
-560.3238134
-498.0081631
-433.1856082
-426.2691084
-586.1710074
-1024.496706
-1874.369494
-3274.146147
-5161.571002
-7120.618163
-8622.662286
-9445.447555
-9729.427321
-9659.614968
-9272.977855
-8585.025694
-7733.247979
-6903.180368
-6158.716205
-5413.649195
-4586.750466
-3726.07384
-2919.855338
-2145.409988
-1308.140142
-386.7086431
551.9946543
1411.016042
2045.406831
2306.381808
2242.868136
2155.134046
2311.414996
2703.747151
3170.144629
3612.131687
3991.751535
4256.476219
4379.721043
4386.83932
4253.388727
3836.73506
3010.107811
1874.211653
755.0590631
-56.53567653
-510.8420649
-711.8787956
-712.9848891
-488.0674773
-59.12068819
455.078957
945.2988491
1415.756952
1954.957656
2632.103669
3416.278019
4129.731631
4486.478263
4299.786841
3702.617548
3060.230452
2622.167925
2369.439596
2216.772816
2187.888797
2306.91995
2445.1831
2382.584551
1993.800315
1342.218425
608.8377923
-57.41959114
-636.11518
-1225.988439
-1956.840535
-2858.86074
-3783.423504
-4497.470454
-4876.298058
-4959.116537
-4834.442405
-4560.46742
-4201.062653
-3848.850043
-3569.500392
-3348.347613
-3107.065551
-2774.330479
-2355.589597
-1942.995008
-1643.372101
-1487.33643
-1420.147667
-1376.521753
-1335.49673
-1299.416013
-1243.979982
-1106.43585
-846.0541634
-532.1897084
-329.7029454
-338.1143756
-463.8162566
-514.2909112
-405.1638152
-198.881983
50.08933303
386.8997142
871.3115417
1470.153101
2046.334827
2431.013992
2545.136091
2466.035917
2334.077374
2220.979053
2128.951554
2038.756909
1905.922809
1701.367068
1492.906686
1395.989633
1437.963764
1558.310832
1712.839766
1881.641221
2013.763085
2053.701086
1988.177012
1818.347144
1553.979775
1263.786654
1030.502507
841.9212824
644.3443551
485.9565619
459.8467244
519.2415499
487.8634991
259.7437199
-86.46721981
-352.7434065
-361.613408
-74.20716437
391.0378482
863.1161902
1224.473069
1409.484588
1385.394907
1200.387169
978.8557624
808.8540713
692.2040979
602.8771803
498.6962137
302.7075105
-38.35282806
-535.2176122
-1235.742229
-2181.97647
-3225.161849
-4038.701137
-4392.835172
-4318.309283
-4018.516683
-3763.603831
-3804.368285
-4178.400591
-4614.360556
-4777.201146
-4558.319581
-4027.713324
-3250.731301
-2306.031814
-1353.244412
-525.4839511
192.3118214
921.4008644
1772.797856
2758.934167
3748.054115
4498.072085
4758.270284
4361.144179
3306.905707
1844.03011
397.8004628
-703.577081
-1424.113194
-1906.335404
-2257.220755
-2511.385274
-2681.877124
-2743.860761
-2650.516455
-2424.085305
-2151.553928
-1867.178306
-1518.861418
-1064.703293
-553.22566
-103.3303919
198.0645322
413.0070753
739.017434
1303.936606
1994.135941
2567.406909
2914.807226
3129.826592
3340.902275
3551.229002
3641.889468
3513.537332
3240.883147
3042.941959
3038.287448
3097.376944
3020.400941
2777.513034
2478.040017
2188.461452
1887.241865
1546.223675
1171.536562
787.6542265
429.3870139
130.2775726
-110.7504254
-336.2619657
-587.9194498
-856.0002409
-1064.632041
-1128.563737
-1042.441519
-864.1144259
-612.8787064
-294.2599289
-9.681894951
121.5200691
137.9332104
159.6511403
156.5468236
-27.12966479
-419.9633008
-838.3198531
-1060.159914
-1007.245784
-786.3021949
-615.2253127
-671.029268
-954.7131829
-1335.963623
-1741.333083
-2214.495798
-2773.391695
-3322.894976
-3748.279172
-3995.750632
-4040.28364
-3877.302631
-3566.128937
-3191.814559
-2762.218521
-2203.187241
-1470.409623
-632.9642045
167.3615856
832.2118795
1358.508544
1762.64649
2020.794149
2151.924367
2281.942257
2530.886913
2907.85957
3372.13936
3871.319479
4266.29742
4375.454879
4155.628971
3719.024218
3175.724504
2591.952866
2057.101065
1634.314461
1269.251076
859.1672992
374.6304057
-157.1127222
-720.8090695
-1301.658908
-1875.37327
-2468.426205
-3177.655714
-4074.946024
-5090.516879
-5996.964
-6525.869101
-6548.5923
-6174.275536
-5650.02571
-5148.761292
-4676.579456
-4164.109808
-3563.058237
-2855.127085
-2066.973434
-1282.811346
-565.7162732
110.8397585
807.2603323
1552.921125
2349.329749
3157.909056
3916.857525
4669.774956
5611.253818
6875.676434
8308.902724
9516.781046
10109.73841
9923.878723
9121.67167
8087.494102
7133.726258
6309.287754
5505.06134
4608.128914
3482.708305
1984.327435
136.3253226
-1818.225093
-3616.181454
-5120.172197
-6261.208058
-7000.622541
-7403.35083
-7636.994464
-7826.935621
-7939.578187
-7826.000826
-7361.235122
-6553.333013
-5560.519494
-4601.023912
-3801.397958
-3113.130364
-2374.740053
-1443.79419
-292.4116303
977.7984688
2199.705359
3210.270205
3867.989012
4091.83699
3925.84115
3483.712844
2832.258788
2040.813856
1301.259912
845.0917748
751.2054073
920.2910195
1192.283667
1441.059607
1635.181866
1856.612936
2193.060206
2587.790968
2871.835352
2957.046469
2902.360835
2772.597156
2539.156672
2151.824602
1619.736968
988.5089318
286.9186715
-487.8769457
-1344.125565
-2242.1739
-3066.380686
-3680.067081
-4028.595507
-4186.948874
-4303.523262
-4487.26836
-4725.49992
-4908.600719
-4950.83095
-4860.849594
-4667.527978
-4344.342937
-3860.963187
-3231.934009
-2472.912053
-1596.879158
-655.9909687
321.9480113
1403.243862
2623.947938
3845.453444
4853.184727
5524.414242
5802.842536
5643.712598
5130.228043
4532.792647
4105.517983
3887.950737
3775.730937
3684.605739
3595.223065
3534.902824
3536.963425
3549.434481
3420.670755
3051.572456
2517.32271
1972.942185
1473.699505
934.0163748
241.342651
-607.3953365
-1461.132685
-2107.315354
-2430.442752
-2480.141933
-2420.339713
-2472.548929
-2836.354191
-3514.175734
-4241.673528
-4724.946642
-4908.85985
-4918.840156
-4842.056452
-4689.0909
-4478.695222
-4246.637214
-4042.07535
-3974.799497
-4143.12837
-4429.722265
-4492.891977
-4069.779028
-3213.525942
-2176.761932
-1153.242064
-176.6509213
806.373231
1803.579795
2700.774681
3333.238569
3629.937112
3651.645139
3519.32821
3373.855997
3382.186475
3677.951237
4225.184988
4765.115458
4984.272889
4789.416598
4384.626806
4033.353042
3778.516901
3457.809333
2968.46683
2416.590644
1961.677173
1586.580889
1119.331605
497.1986931
-70.13263328
-303.4289288
-233.8021585
-261.9167689
-749.3866396
-1632.15145
-2514.625589
-3047.880461
-3146.56201
-2961.121227
-2737.311881
-2620.643762
-2532.991769
-2300.46923
-1900.052073
-1464.622337
-1047.66254
-547.8977176
94.62138531
784.2542398
1400.289673
1913.820599
2336.462134
2636.303615
2711.958076
2429.508069
1776.373838
1021.399079
577.1356556
602.0366439
844.6692241
951.2385737
808.217219
526.8187623
244.5973251
51.6221918
3.321492453
59.14079291
-8.365558364
-565.1575468
-1866.56316
-3769.358546
-5702.871379
-7016.461833
-7419.182993
-7087.234481
-6375.564876
-5503.838479
-4536.878029
-3553.843046
-2705.826982
-2101.166486
-1711.615499
-1418.99017
-1106.199051
-692.4157187
-160.764882
422.4664696
1021.537673
1779.018191
2889.467461
4288.87559
5628.526505
6572.342467
6977.005017
6833.763458
6238.247395
5413.331077
4598.564382
3888.868931
3246.515813
2637.179494
2087.068707
1629.842024
1223.4233
704.9042068
-94.95404161
-1090.213836
-1883.755808
-2121.414429
-1845.258503
-1389.425218
-999.9205479
-649.9870137
-183.3520722
415.9029079
902.4973823
971.943959
608.2879811
123.9900957
-196.9778188
-364.2483282
-537.4772594
-784.2270319
-1066.524421
-1323.171355
-1482.486645
-1505.712575
-1465.333437
-1491.438879
-1636.999343
-1864.339398
-2116.134049
-2317.04805
-2354.851334
-2150.264661
-1745.163972
-1284.49177
-903.4429242
-630.2633981
-403.0437104
-204.3547802
-157.8635599
-405.9307492
-873.5407341
-1259.055098
-1315.13578
-1067.014569
-723.3046545
-440.8887876
-207.9632872
67.90285543
381.2328594
600.4179242
669.2813608
752.8819074
1072.144625
1643.888752
2282.498457
2811.787316
3183.824607
3423.146735
3540.465721
3505.373302
3273.341195
2857.479778
2376.674982
1977.338824
1696.973503
1461.91341
1220.790338
1019.636506
927.7552269
909.8727125
790.1131505
382.0066007
-326.2510135
-1156.154582
-1908.019851
-2484.135977
-2863.116819
-3042.840957
-3017.702929
-2771.628156
-2328.717739
-1848.864851
-1583.371958
-1627.919789
-1781.00026
-1760.068107
-1500.841374
-1156.871964
-898.6452766
-800.839522
-827.8591213
-848.8392072
-727.9357022
-430.0952071
-11.49387894
440.4338148
807.5609132
969.6278596
914.9969077
766.3929633
643.8860075
562.501893
491.0387488
421.0302046
338.3278652
203.3174752
-18.48274711
-351.8258613
-789.2182151
-1201.139011
-1345.41735
-1071.450752
-480.2902627
161.8249218
596.0910271
646.8068455
282.3903675
-317.2566128
-876.1019132
-1268.886474
-1547.691024
-1702.44067
-1533.694939
-851.7795461
227.1430796
1267.890457
1880.253955
2056.181929
2037.969984
1941.096815
1700.656703
1316.239484
926.808035
673.6423975
644.3484082
889.4909228
1355.742348
1853.282558
2198.972854
2369.893349
2469.957624
2591.537927
2728.832859
2764.964974
2553.816727
2088.694969
1558.143518
1174.815538
1011.612184
1036.640132
1190.592172
1371.403907
1439.145943
1291.259755
895.0722506
248.0753581
-659.888442
-1833.520741
-3184.191893
-4443.032757
-5272.765261
-5564.45507
-5550.191983
-5535.460626
-5589.575386
-5551.813417
-5239.17243
-4594.857503
-3724.924823
-2821.64589
-2000.499197
-1243.738447
-525.4251515
116.9308801
663.9178669
1129.259353
1478.594494
1690.323257
1882.674972
2180.406039
2460.27754
2438.540867
2018.645457
1374.305314
713.5955851
136.1975196
-305.3021229
-561.7280557
-612.8201464
-471.8454054
-189.1416534
135.977573
410.7608114
635.8946019
896.0546398
1275.187297
1814.993912
2503.093858
3228.967792
3790.739731
4021.326302
3895.391902
3490.691513
2894.964081
2172.432829
1377.815322
590.9341766
-58.85268105
-446.1453981
-546.3472507
-450.9340735
-304.4295722
-247.180636
-346.7449699
-532.4274586
-660.7060138
-673.3654037
-622.5162632
-556.6302405
-499.9292799
-527.3903073
-711.7650517
-996.9927142
-1254.372376
-1439.442264
-1585.034071
-1708.923891
-1837.242417
-2037.090957
-2322.1778
-2586.555318
-2705.268501
-2661.372164
-2537.245426
-2413.369659
-2290.243303
-2086.126897
-1716.922803
-1194.199242
-621.8519817
-98.29950028
331.3905393
655.3874381
912.428371
1211.038461
1652.767204
2218.043637
2720.984422
2887.116038
2575.605902
1973.685947
1465.138549
1257.298311
1244.122193
1243.862392
1201.330589
1114.943575
948.9057853
708.7167657
484.5721376
368.1896612
415.2194226
671.2841299
1114.239452
1596.797428
1959.237466
2170.695114
2291.901463
2367.615119
2414.809512
2423.283065
2293.639956
1875.22719
1171.970294
424.3429811
-137.3046397
-541.0037661
-943.2465995
-1344.147569
-1611.708544
-1754.239667
-1978.991375
-2423.92256
-2982.176204
-3507.322241
-4047.67321
-4686.519645
-5273.610783
-5551.403576
-5464.586025
-5147.696643
-4714.283049
-4234.888545
-3802.028627
-3450.064497
-3089.534975
-2609.985818
-1960.084378
-1089.316518
56.97423763
1408.890647
2731.266681
3792.472961
4549.255043
5151.309084
5792.397758
6520.599938
7102.035527
7063.481094
5997.3708
3966.344634
1606.467209
-290.7200519
-1356.530775
-1774.315589
-1895.940484
-1892.168857
-1793.598487
-1679.621613
-1664.625269
-1730.283643
-1687.640787
-1328.461147
-573.6872533
475.9400964
1557.375416
2389.631556
2908.984569
3301.234386
3729.270105
4097.322732
4122.632792
3589.498884
2555.73644
1354.968429
337.9758435
-413.3552826
-1049.445503
-1673.209698
-2232.569272
-2666.555623
-3001.385237
-3284.934076
-3536.59634
-3761.036704
-3927.956512
-3965.73373
-3834.444846
-3543.358496
-3059.200846
-2312.00609
-1349.465665
-364.9058333
488.8635577
1209.96593
1841.497097
2371.428571
2777.9924
3077.280754
3276.625814
3342.111429
3258.527945
3090.694061
2923.078369
2717.338934
2319.486598
1705.117528
1107.507643
734.661421
477.4474331
112.8802826
-319.045457
-585.9572314
-630.9358351
-645.3380047
-816.4337897
-1161.611411
-1564.451306
-1868.051447
-1998.748299
-2061.02756
-2214.050003
-2415.432043
-2425.316662
-2129.659798
-1734.054075
-1554.521217
-1689.319256
-1952.302592
-2080.487248
-1965.189695
-1700.528883
-1428.531914
-1149.923526
-722.3119578
-51.60668317
772.0644394
1551.587994
2141.343437
2515.613719
2733.074488
2841.035651
2799.663218
2548.251482
2158.213484
1827.209599
1652.229862
1437.619075
808.1341977
-409.7128978
-1935.031774
-3260.813976
-4115.772179
-4572.630966
-4761.173966
-4684.8013
-4305.239425
-3612.398997
-2614.240398
-1413.141416
-252.366558
678.4311324
1439.579636
2190.750689
2926.263591
3540.176216
4075.74835
4717.417252
5548.522837
6416.220301
7012.37517
7059.091888
6493.551989
5533.896584
4532.250444
3724.147271
3113.931372
2575.187904
2036.840425
1590.040268
1383.935438
1334.032047
1002.14526
-36.29960367
-1696.639289
-3415.881808
-4663.860939
-5294.131004
-5471.767274
-5458.116678
-5477.914665
-5655.401194
-5994.724236
-6408.529759
-6761.236837
-6905.661873
-6742.044484
-6311.558876
-5821.558252
-5449.711803
-5034.141316
-4102.285777
-2428.602264
-492.5891894
891.9151742
1387.977095
1328.042774
1186.410707
1208.733377
1532.901291
2292.763244
3465.707426
4791.165698
5922.203695
6617.479965
6847.490091
6803.467726
6742.664299
6728.868001
6558.788625
6006.134256
5088.851274
4040.236474
3074.869142
2240.8995
1457.545111
639.7761625
-203.719089
-943.7948043
-1381.404177
-1403.786824
-1179.594065
-1120.972383
-1507.469506
-2206.715091
-2919.729281
-3598.083377
-4376.188797
-5162.533531
-5618.836838
-5593.636753
-5313.48116
-5058.020088
-4834.181728
-4435.974304
-3691.142263
-2627.145242
-1506.11693
-698.7100825
-427.5363084
-601.4062413
-896.9383825
-965.2473997
-595.6628467
182.3969362
1094.474977
1804.606214
2180.705015
2363.869847
2575.778549
2895.6033
3225.343712
3437.736508
3503.450207
3430.933365
3171.899416
2735.198136
2319.530341
2125.551202
2078.400063
1941.073421
1667.061053
1447.096514
1431.312546
1573.995437
1739.78092
1830.601169
1820.172946
1758.724555
1721.894655
1698.415621
1579.90031
1300.461182
920.8011129
556.8120973
293.2234485
159.6184516
118.8593048
87.32846076
12.48069553
-93.18808841
-220.2140163
-425.0411739
-809.7143954
-1469.546847
-2429.089434
-3558.57969
-4584.36287
-5273.449886
-5610.821647
-5753.176975
-5828.831509
-5802.410335
-5514.607097
-4871.528994
-4003.072285
-3166.894125
-2496.18717
-1938.744445
-1411.376685
-875.7360618
-290.9734472
372.7489935
1076.873136
1720.095717
2154.255992
2211.389939
1847.024813
1263.441257
749.6411945
395.4162579
107.1914587
-123.5323516
-158.4897328
87.76698572
554.9003637
1136.608231
1757.764151
2387.49814
3069.136576
3903.21918
4901.88137
5829.203885
6262.549985
5925.449346
4958.162509
3749.715864
2517.95472
1226.815619
-62.74843049
-1002.792404
-1289.679976
-1059.517477
-780.6071337
-801.8629667
-1112.864977
-1478.286365
-1695.031754
-1733.684011
-1675.313656
-1526.542034
-1173.454819
-584.0801356
53.87358807
552.6941476
1008.936822
1669.63465
2521.272714
3177.346039
3208.597644
2528.059658
1484.33819
593.093093
90.74678851
-268.8247285
-924.9583051
-2049.778071
-3400.457927
-4547.678782
-5226.699526
-5535.390645
-5783.955867
-6113.373711
-6330.894971
-6160.397038
-5534.066949
-4559.371196
-3336.882161
-1975.359097
-732.6483559
58.64999907
307.5071121
350.4945984
729.909415
1728.386299
3105.41705
4304.406226
4899.965433
4830.494849
4315.477974
3686.807994
3229.617448
3031.478803
2993.172461
3023.426218
3120.13074
3229.799174
3200.313862
2963.220527
2620.36852
2260.301247
1813.729496
1177.62485
378.4074023
-460.8195792
-1231.365567
-1874.619217
-2386.461568
-2815.915826
-3205.161388
-3523.09753
-3686.825866
-3633.250289
-3357.592156
-2916.72314
-2412.1338
-1942.865485
-1555.972105
-1232.746808
-897.1020184
-448.8559585
149.8541125
810.361392
1370.071627
1686.549414
1690.545483
1455.291298
1224.028028
1224.45956
1415.012153
1531.457723
1404.385882
1118.893085
852.9156115
677.9591264
551.5118421
418.1614243
281.2675681
206.4057559
245.8533188
356.608674
447.6244506
494.3437918
524.6740851
533.9391386
517.1880277
517.3710467
526.7068797
424.2088837
127.5755515
-270.8983565
-613.2780732
-842.4163504
-983.3603791
-1033.784363
-955.4817402
-749.4351801
-491.5803546
-280.6885093
-142.2430484
-2.240838352
201.5170686
400.8727739
447.0192499
269.1948382
-50.86556802
-344.6142184
-488.6426052
-497.6795327
-476.6344006
-480.5764026
-491.1489486
-534.1395192
-700.4841543
-1014.690159
-1390.664852
-1740.881793
-2025.454694
-2196.338952
-2212.915129
-2110.638091
-1948.956449
-1715.293529
-1373.765583
-955.0178205
-507.136258
-24.39389298
490.0964646
947.2440206
1229.951684
1311.178772
1290.280744
1322.011338
1502.851541
1799.284773
2070.170477
2161.154228
2002.326541
1655.871483
1279.529443
993.303955
750.8699433
401.4700146
-88.07361169
-554.1242954
-813.6389211
-836.7885735
-720.4112396
-563.3080458
-380.300094
-110.3602497
268.7354666
656.831099
948.6345878
1187.510625
1450.531249
1630.754424
1557.377048
1334.23176
1313.573616
1652.312496
2069.295139
2126.946983
1647.639345
821.6682177
7.950822757
-530.1427026
-742.4307577
-702.7942712
-481.9546403
-173.6755205
42.49908167
33.11346076
-108.3976301
-165.4489302
-63.69062412
117.8349342
338.5491804
590.136803
730.8720794
548.5250989
24.55445164
-601.3503505
-1062.570473
-1295.793888
-1424.484085
-1538.541352
-1540.490692
-1284.978447
-862.5092986
-624.2216513
-866.4694598
-1576.340698
-2533.940592
-3536.172603
-4404.454185
-4889.027963
-4780.787272
-4161.487739
-3427.958268
-2983.700851
-2907.864132
-2948.536228
-2817.888518
-2431.378562
-1858.364643
-1140.525671
-222.5856979
975.5310991
2434.042293
3950.636407
5193.743185
5867.011158
5842.361144
5206.681347
4241.22844
3285.121921
2525.019549
1942.704424
1486.993829
1192.423045
1073.906273
1028.153651
941.0751618
818.9130508
742.606769
749.1634853
791.2073639
772.272458
636.2955449
457.1830178
382.6148045
453.8147528
562.5337915
611.6021369
611.7162477
588.7178217
504.8987306
324.4999531
95.08615307
-69.62653667
-73.09480284
75.81238642
245.2967641
299.9426032
240.3112028
156.7392173
58.38527339
-155.1399515
-545.6744512
-1045.832011
-1535.347991
-1952.77161
-2321.268106
-2695.166328
-3073.805578
-3359.593392
-3442.586668
-3331.869174
-3135.624272
-2903.108711
-2567.233243
-2055.933376
-1389.574618
-659.1930303
56.72083249
763.6091462
1521.38272
2292.40114
2877.975095
3107.422578
3028.758352
2814.243719
2581.007597
2414.821391
2414.403493
2543.628706
2572.298975
2332.285173
1928.261025
1571.015845
1317.082836
1074.644217
759.2362499
357.7540658
-98.52125167
-583.4344671
-1124.495425
-1778.287368
-2509.179867
-3123.47552
-3385.326662
-3187.696882
-2588.430866
-1738.165046
-823.1863336
-27.22734877
522.0048822
787.6257954
803.3623966
610.7567182
234.6748515
-208.8500275
-408.5548651
-66.03634119
698.3297653
1329.869427
1356.801408
812.0774186
107.4039198
-356.482846
-420.4917038
-154.6376258
282.7092257
717.5953478
887.0617124
494.3312273
-462.3897636
-1576.490098
-2470.551963
-3164.318996
-3790.948836
-4222.606232
-4290.249269
-4136.470707
-4017.595735
-3914.378889
-3601.41035
-2981.930192
-2158.183907
-1256.923004
-315.866983
718.9666153
1931.626019
3270.654504
4428.426988
5037.965497
5040.281779
4738.568496
4463.943034
4289.071616
4073.063541
3682.672387
3124.007383
2503.003798
1935.498927
1524.147443
1324.897254
1243.263884
1057.821452
663.9093552
208.2385911
-123.2872633
-341.6851798
-553.4703598
-725.0654669
-705.9232443
-455.5949869
-129.4693156
58.06781238
-20.6659233
-372.2107267
-888.6775197
-1369.356058
-1624.161766
-1626.463614
-1545.356147
-1576.133958
-1737.408625
-1866.412252
-1799.930354
-1517.49174
-1120.504104
-724.5702115
-382.0994854
-70.74166633
268.912021
666.1507305
1073.721108
1412.337919
1656.896751
1823.0096
1885.584354
1792.861527
1547.34053
1206.047576
822.7101506
424.7741938
16.70577292
-395.8829021
-762.0754781
-1009.418763
-1131.33264
-1174.793172
-1132.626801
-946.71107
-621.2341807
-236.1119335
138.1230949
447.3733912
617.6187377
620.1068758
537.7586268
476.0442579
451.1437803
416.1936979
305.3471205
13.19321043
-531.6713503
-1216.424383
-1805.977873
-2219.319499
-2636.392105
-3275.030201
-4117.292377
-4879.689432
-5248.370096
-5158.398673
-4815.86861
-4419.504119
-3925.934261
-3140.380748
-1986.370984
-656.0824957
482.3640282
1174.230296
1520.915784
1859.648436
2387.590266
3035.656358
3687.186524
4288.041259
4718.004858
4796.39032
4484.811364
3935.610853
3337.738005
2832.104624
2520.712202
2421.042077
2443.86486
2496.120155
2540.289929
2515.074146
2336.517652
2040.211266
1778.343715
1620.519222
1486.814012
1298.61032
1065.21735
815.688958
567.2597414
361.8200895
233.339986
153.7622742
87.5782049
53.17151747
58.96666081
46.94405446
-33.88999314
-170.6967585
-349.8676237
-604.7306257
-978.0111308
-1494.067465
-2154.447322
-2904.69077
-3627.356436
-4209.936576
-4606.648427
-4823.4432
-4864.180624
-4707.047218
-4346.150951
-3858.4835
-3383.733504
-2997.308011
-2646.340696
-2249.20573
-1785.67267
-1244.378612
-596.1281616
106.0898661
716.5904081
1159.785379
1510.595587
1880.964598
2295.658898
2648.921155
2726.135465
2362.353587
1658.620964
956.8557078
549.7208242
481.8480642
620.3341899
802.3549945
906.1787957
893.2447167
817.4337151
730.6570904
595.3605881
371.0421824
151.9508173
116.9858964
352.8151162
780.8662456
1220.454635
1484.642888
1473.934439
1240.760012
963.5686894
840.4276472
970.7876384
1283.38324
1578.797183
1693.505233
1624.731408
1472.445001
1306.452703
1133.414607
930.7440653
663.0936828
327.8518951
2.89046301
-232.0345936
-411.7639075
-627.1549369
-876.726052
-1080.46624
-1214.951463
-1330.239373
-1442.839887
-1516.195988
-1575.839859
-1754.002667
-2133.168934
-2570.731918
-2774.591711
-2586.413625
-2128.090773
-1629.524276
-1186.832666
-765.9502599
-364.1538929
-36.93958485
210.9346145
470.0610187
877.2339606
1521.376918
2297.098341
2872.525019
2962.412874
2610.402382
2042.814322
1336.929512
457.3567457
-475.4531086
-1228.282514
-1735.680869
-2099.642247
-2332.184262
-2323.733691
-2059.074355
-1666.706973
-1257.796305
-867.0051363
-521.5082329
-229.6208777
79.6005742
506.4654557
1077.030603
1708.147469
2224.300824
2438.210593
2322.774176
2072.46005
1887.23558
1754.103632
1540.636677
1213.604124
854.5668235
526.7820402
223.589849
-68.63505569
-318.1347792
-493.3737667
-645.0197167
-871.044458
-1173.328324
-1433.57745
-1577.624414
-1666.225484
-1762.856652
-1808.827732
-1704.156414
-1454.228744
-1180.882475
-997.2122742
-878.0872891
-680.1871638
-339.068622
3.210501117
170.691337
190.6864315
213.3579865
271.4704991
301.1603813
326.6830844
426.8757522
577.433009
713.1174982
885.7357415
1168.461393
1448.089487
1502.336098
1273.956219
926.191126
639.0576789
455.2447813
312.2199715
152.0039239
-8.387093153
-97.11640314
-68.28057064
53.03423469
194.4936667
280.2591883
271.994
191.9395602
89.08481808
-12.35603808
-100.5454918
-149.65763
-164.9859883
-206.0429486
-291.0022785
-339.2266452
-293.2886295
-219.4209131
-193.6312785
-189.8871245
-178.4306864
-207.3340404
-286.1231618
-323.3131752
-268.7166883
-192.7493696
-159.025814
-129.1864953
-44.82404878
76.37292526
160.4093535
156.3735054
100.3103417
111.1552524
277.9976076
545.1825963
773.573548
900.2763281
949.9706623
926.0782937
801.2119211
584.1499398
313.8357466
22.86810828
-256.585855
-498.1097681
-699.3792669
-859.2031723
-954.0031226
-954.6649756
-843.8583552
-639.8587607
-439.4345026
-369.2078002
-424.6013905
-441.7920704
-318.4164766
-160.5556051
-99.70551322
-72.14358208
79.61318236
358.0662413
586.4064658
597.9827926
384.3033391
85.19930557
-144.1295822
-288.2618298
-492.2262426
-890.7817906
-1432.842658
-1925.05118
-2230.9029
-2361.391682
-2387.773336
-2354.628539
-2286.525214
-2203.114529
-2097.927294
-1928.629154
-1644.951404
-1234.127381
-731.9078571
-174.3078651
433.6580645
1081.272998
1736.500634
2386.927534
3024.360678
3571.744477
3913.649504
4021.849424
3970.419373
3828.048983
3626.068992
3405.719091
3182.777293
2892.776568
2475.427578
1976.413013
1493.924519
1093.085445
818.989362
685.6712152
602.9922658
429.977503
151.1717202
-93.7087878
-175.8070635
-82.24817158
135.8457725
418.0337675
703.3989117
955.8122502
1140.888877
1129.193123
723.5109484
-118.3695589
-1152.677933
-2029.067182
-2584.794982
-2937.377486
-3317.032754
-3831.88457
-4391.256085
-4834.948826
-5100.75252
-5260.082134
-5435.003176
-5689.13725
-5929.223535
-5880.678072
-5240.299922
-3941.940203
-2273.888252
-696.5005852
477.7048272
1249.258117
1813.272228
2294.392913
2630.790067
2747.337931
2757.974287
2872.742979
3149.267253
3461.848753
3673.841152
3720.19659
3567.551094
3221.332838
2760.239775
2281.187088
1822.823751
1383.054003
971.1119423
606.8497097
309.1663576
98.96308899
-29.62955424
-127.891546
-240.7500931
-368.0899914
-492.6156343
-591.6492567
-635.5182214
-636.0717273
-647.2106639
-655.3173005
-551.19376
-277.8093716
71.76848005
336.8927975
395.2348674
210.5609122
-123.9829952
-425.9113943
-590.8470191
-661.9351969
-684.443753
-612.0523616
-427.9124746
-228.2368148
-101.1712804
-24.41691084
57.3671816
143.3262932
210.0917132
269.986692
369.3064457
555.5376731
825.1936561
1084.120791
1212.439677
1195.373973
1135.35771
1119.684792
1135.249088
1121.206245
1046.914699
932.0737132
826.9070138
762.5664448
710.8843962
621.7939812
487.0361883
331.4254872
177.2144625
53.20781647
-2.304209272
28.57444944
135.8868142
286.0311111
406.9982528
423.7126949
352.4698573
296.4935227
298.1458653
272.1550425
136.653768
-86.11824851
-355.9706621
-696.8310445
-1137.457116
-1657.999864
-2217.837772
-2746.875954
-3122.618428
-3289.095981
-3408.763864
-3749.047381
-4365.655075
-5006.257658
-5370.179855
-5372.822521
-5124.033841
-4736.665694
-4218.666839
-3529.691263
-2695.114771
-1816.829131
-957.4856214
-67.49455244
920.8932285
1951.478027
2854.403531
3514.938
3990.194053
4400.955687
4721.100973
4776.860237
4502.293281
4079.679621
3720.813807
3414.41261
3033.270089
2599.460403
2265.943423
2084.930092
1965.062627
1844.624947
1770.538254
1795.572379
1879.279189
1905.530697
1772.854262
1465.805874
1037.965152
545.2641006
40.04946929
-393.3866223
-684.1427862
-858.4032287
-995.4451063
-1091.221495
-1041.812795
-784.1560324
-398.1211618
-37.05158497
216.8847639
386.8444691
481.2140831
407.2254911
106.5154233
-261.1546595
-447.6992707
-453.6969909
-536.9230471
-829.8229374
-1160.11741
-1335.271712
-1403.91965
-1524.398208
-1716.583498
-1841.978286
-1765.503466
-1498.198783
-1185.778005
-922.4147749
-618.6929621
-186.3668731
200.8566112
267.5976994
58.57081949
-60.91398583
123.0944813
424.6650498
539.2116822
384.5166691
97.8572933
-154.5078852
-285.6487546
-301.4078656
-290.79035
-383.1829585
-655.3175739
-1038.068755
-1334.388668
-1408.858502
-1373.901176
-1487.960145
-1830.146596
-2176.278978
-2247.0997
-1999.018626
-1619.854809
-1286.811155
-992.365833
-622.9139134
-138.5286219
420.1299283
1052.946565
1765.841405
2405.396987
2703.385702
2570.437837
2223.672241
1926.704891
1708.351302
1441.505507
1086.994409
736.3857416
497.3423107
420.8350306
469.5040209
525.1445885
494.8601729
403.484588
330.0104542
299.4560444
287.2981745
270.3097971
230.2579274
164.1442831
115.1683696
138.7434726
220.8826105
271.8036026
218.2504244
90.47385415
3.024007512
23.69820099
68.49142624
-8.824944349
-216.4190258
-405.2650179
-461.9302502
-407.6640729
-293.0017503
-127.3406726
56.79901838
186.2180645
222.5353302
183.0872376
108.9784457
76.13156464
163.0884201
315.4565767
332.255473
101.5121179
-225.6585924
-392.9987134
-306.3492613
-87.84603105
67.48376896
55.97803381
-64.33029057
-153.6065532
-147.6087444
-102.3928107
-81.56188747
-62.08626695
27.64063107
224.4210564
495.9772179
748.3658963
870.2307532
819.2345485
671.2391044
558.0076881
565.8440216
695.3405833
871.0894142
980.7882477
953.1526769
805.6820143
597.1727483
365.1096798
123.2019529
-149.1771447
-531.8364967
-1067.301521
-1604.856164
-1881.003714
-1821.004714
-1633.884121
-1549.268264
-1581.493457
-1612.864301
-1617.107237
-1746.218466
-2208.546456
-3025.539611
-3905.294511
-4439.773972
-4433.322969
-3969.781119
-3221.280793
-2325.113431
-1415.24199
-633.8504984
-76.76579892
234.3296058
356.9039057
443.8361272
691.5699089
1208.152832
1958.601756
2834.892895
3707.165232
4416.014315
4799.395085
4765.438763
4367.975809
3837.920576
3464.548994
3355.869889
3351.577044
3210.347528
2833.391738
2318.008133
1876.60354
1677.515148
1680.193243
1656.643892
1427.684562
1013.533048
506.9501242
-84.83548679
-759.8002325
-1376.832127
-1746.206703
-1838.171809
-1795.750527
-1774.166208
-1849.898249
-2034.906997
-2284.934692
-2516.855779
-2678.122617
-2773.710233
-2797.034156
-2687.661898
-2395.747475
-1952.372076
-1446.719414
-952.31482
-505.4139693
-154.8978573
28.62010773
47.3095958
21.38874991
68.69732622
186.5838422
284.6840319
252.6942646
-5.386093448
-471.1336034
-933.1442479
-1146.854142
-1085.496496
-922.0502174
-800.0037409
-742.6441798
-722.4019076
-684.8698692
-559.2431244
-338.2444413
-69.92438458
274.6777647
786.702452
1427.814465
2002.832169
2343.948561
2395.733603
2176.951514
1807.641955
1488.69226
1317.334587
1207.582132
1070.724499
953.4088753
927.7597596
957.6183544
942.8606797
830.4827433
644.9515429
448.3412139
280.8206543
127.3130502
-36.66779462
-184.3892989
-284.7925524
-377.3966397
-521.1317952
-707.9841937
-887.8952522
-1017.991975
-1053.211623
-980.6396416
-890.6321546
-914.0407429
-1065.729782
-1233.215511
-1316.482788
-1293.976672
-1169.294141
-948.5096869
-667.0582383
-376.8843896
-120.930943
66.23305878
190.5084225
329.2256732
555.2019338
838.7149455
1086.035656
1249.069296
1349.753746
1434.372693
1539.771145
1660.551125
1722.743143
1635.571945
1387.515687
1051.794966
698.8988582
345.1301666
-25.47518031
-419.1926362
-788.895428
-1028.644467
-1059.111439
-912.7056481
-692.7522795
-473.2075746
-266.7326143
-51.9599363
186.8433982
424.7972551
626.2165565
831.4326757
1138.624137
1541.159059
1861.819432
1927.380734
1743.474972
1428.139191
1061.962025
685.6584665
331.126338
-53.81603925
-610.3725097
-1408.683281
-2366.84318
-3356.20421
-4276.874367
-5026.272182
-5512.481838
-5713.509544
-5659.321896
-5381.444854
-4931.266821
-4400.387359
-3863.191398
-3324.668099
-2744.488959
-2068.105192
-1236.687967
-234.0182924
870.6034859
1964.454253
2962.07397
3827.826272
4560.588727
5136.423908
5445.115558
5356.24834
4891.372275
4253.423679
3638.372962
3073.404873
2467.24489
1772.33727
1073.390578
534.8531912
262.9341707
215.3507354
267.1635778
351.5874667
478.2689038
638.7477894
806.4718739
1031.714113
1404.624158
1882.595121
2256.858445
2344.032878
2148.608768
1801.46205
1389.317823
885.8626241
243.7854905
-464.398653
-1040.32665
-1344.908081
-1463.058307
-1616.163162
-1932.253149
-2360.9972
-2769.987659
-3054.489412
-3178.080727
-3144.132185
-2929.741169
-2487.097192
-1842.805469
-1146.340203
-574.6530156
-208.0764167
-5.822503372
120.2682045
205.5916422
208.212589
104.237506
-32.73236221
-114.6235925
-166.4415493
-278.4631732
-445.9788398
-561.3857548
-571.4052144
-531.048231
-486.408265
-416.9338704
-302.1934346
-137.0091818
104.7473013
416.562359
710.1039801
919.2917602
1094.669703
1298.086397
1462.449273
1447.373578
1206.298647
846.3648123
532.2396006
340.1119076
207.2260885
44.62173382
-130.5841338
-238.5540473
-275.5273203
-325.5584528
-451.6678148
-620.143987
-710.4908134
-614.0350432
-377.6527855
-201.4522165
-218.3273057
-350.2505987
-464.1238654
-561.4090773
-703.5195579
-849.7006854
-895.5578016
-819.2070257
-700.8679923
-633.0285162
-649.5428307
-699.8216552
-686.9870958
-570.1955679
-400.3549787
-226.2602782
-32.49055439
198.4613816
449.3777257
727.2611463
1062.720921
1409.469177
1637.260548
1676.348911
1601.875014
1545.495513
1585.296938
1721.651081
1878.433672
1919.36805
1728.279717
1304.579691
788.9265111
387.7483569
221.1060009
228.8985575
262.910081
240.2479464
152.5875364
-0.534695288
-185.8705715
-300.5142737
-265.1810268
-126.8515284
-7.229269553
17.7177044
-39.10499666
-90.17864214
-11.16569945
255.610818
612.754182
891.1953279
1020.303222
1057.003232
1085.455181
1147.000326
1204.272083
1115.157253
714.4876634
-23.85176583
-951.9837937
-1874.15871
-2647.191106
-3196.113176
-3540.869845
-3799.528078
-4066.468608
-4285.864594
-4311.927472
-4073.752227
-3639.056631
-3158.711713
-2768.469806
-2496.107488
-2261.593146
-1978.118347
-1595.825564
-1047.115276
-258.4236124
744.3670581
1804.100179
2715.293534
3329.543936
3655.509231
3882.464079
4190.152426
4488.557379
4466.048464
3942.586648
3064.885956
2132.369572
1349.494726
745.0236671
193.5444891
-486.8918429
-1328.310285
-2097.586487
-2484.363733
-2397.117311
-2009.468662
-1546.07035
-1087.302572
-572.2346035
53.06344393
716.6356661
1264.667386
1613.854084
1817.304356
1975.469037
2138.956155
2307.581446
2449.754665
2491.979677
2346.60434
1985.059144
1470.609898
924.1997863
450.2526658
47.85286233
-390.5652371
-924.3781542
-1446.985
-1810.637058
-2007.049716
-2118.893298
-2168.728821
-2132.613937
-2027.598904
-1877.571993
-1664.95325
-1397.727996
-1144.533178
-947.5905364
-785.3589581
-645.591885
-535.1102115
-411.0673809
-217.3699477
10.00592528
190.5662821
343.7407545
566.7872261
870.7792405
1141.694773
1272.982781
1271.405668
1226.260809
1208.763794
1212.230795
1182.266276
1080.951712
909.5262591
701.0528777
500.0247978
304.9787076
41.38630712
-341.2184802
-761.3144348
-1070.550638
-1207.071372
-1215.238336
-1151.704452
-1054.47143
-979.2387292
-989.2930177
-1107.987268
-1311.238004
-1541.982033
-1712.591074
-1743.830112
-1634.007978
-1452.278902
-1253.231953
-1033.46608
-767.540669
-458.8422279
-161.8722949
41.95920391
110.2033911
75.80050065
-1.360930468
-94.3638424
-182.9145924
-194.334521
-34.48822676
311.4127271
735.0236196
1062.660669
1166.232085
1055.70076
862.6358951
713.9797874
651.9981254
674.1738302
764.1172312
866.6334007
925.9075908
965.1267644
1051.197107
1198.426909
1392.001265
1661.0158
2020.154196
2379.265288
2619.258698
2737.231334
2840.660181
3016.898903
3244.521939
3399.308006
3347.646999
3087.6014
2766.86173
2502.439822
2249.063578
1908.2886
1480.146387
1041.20724
655.0761121
356.1400243
136.1853261
-104.8031709
-516.5519141
-1153.172428
-1917.438046
-2670.290938
-3352.530211
-3993.498389
-4618.631129
-5143.176528
-5404.436307
-5358.477687
-5167.998696
-5000.46653
-4821.763767
-4496.726045
-4025.917655
-3579.161247
-3321.354674
-3262.540586
-3262.5437
-3159.93713
-2902.992917
-2537.388094
-2078.013196
-1492.800963
-837.6002468
-262.3214791
177.1815038
562.3427308
912.6763434
1115.712851
1128.779504
1095.401873
1164.956512
1289.232432
1283.970383
1057.628808
725.5362089
512.3347483
581.5747684
950.319192
1509.95645
2092.300418
2546.21824
2815.301897
2978.764026
3202.254031
3608.634403
4170.753532
4722.857037
5077.623843
5147.494464
4969.513673
4620.67759
4141.534673
3578.346683
3039.457506
2600.114503
2187.881431
1692.623614
1150.885883
678.4582386
268.2856108
-189.1510158
-715.6366201
-1208.683301
-1572.596563
-1787.994221
-1876.450248
-1872.475356
-1829.545
-1824.594184
-1932.882742
-2156.798721
-2375.548862
-2419.765361
-2222.610966
-1875.882595
-1538.49427
-1316.219602
-1217.85814
-1186.030971
-1162.723622
-1133.818549
-1098.585369
-1022.829201
-883.1311084
-726.0314286
-606.7019963
-521.4916993
-468.974026
-477.0656162
-507.5972034
-470.9476802
-386.7842832
-385.0084991
-517.0347447
-699.2460148
-847.353721
-951.1662975
-1030.783837
-1113.713909
-1228.911884
-1351.144268
-1395.70216
-1327.87137
-1216.007853
-1126.297096
-1040.060605
-914.3988536
-746.3641886
-548.9786451
-325.5477672
-76.73232105
202.6773727
515.0369069
824.5780166
1059.614497
1161.628384
1117.795705
972.5509552
830.3393123
792.6631551
845.0682713
849.3814522
687.2094291
372.974195
13.90467527
-280.0749558
-443.2062744
-479.815384
-447.3079072
-384.2153495
-291.8944668
-185.2996819
-75.48644802
91.530528
378.1125016
754.3298993
1145.368911
1538.143536
1953.520676
2371.502097
2767.198633
3149.482296
3489.982645
3706.306137
3786.235265
3820.918185
3857.201089
3839.090967
3734.862284
3587.193568
3407.631202
3154.575725
2846.252821
2584.521436
2430.377216
2320.866455
2130.67828
1783.045662
1295.285493
738.9988743
172.916301
-381.2336727
-931.5828601
-1539.920584
-2321.374488
-3328.972978
-4452.574348
-5501.235964
-6340.894415
-6904.940929
-7158.723718
-7112.448348
-6810.092855
-6300.285959
-5676.887618
-5109.199555
-4745.308767
-4591.62856
-4518.62902
-4360.332605
-4015.552342
-3520.67082
-3039.390802
-2723.24899
-2565.352746
-2420.613533
-2135.57138
-1607.165669
-783.1794538
284.6498997
1396.928968
2283.287747
2736.405481
2699.781787
2312.122553
1869.726905
1627.891208
1598.324683
1615.490207
1589.836443
1605.461362
1790.309648
2171.312635
2643.502569
3044.799028
3282.95531
3390.895679
3448.906758
3509.434326
3615.791057
3798.073164
4009.232723
4147.434108
4164.375149
4083.430774
3932.517994
3747.136512
3600.349581
3521.809331
3410.472697
3115.746874
2595.184338
1957.912782
1385.11111
1003.578875
773.8174255
515.1504523
100.8100169
-406.9729031
-861.5641238
-1194.771305
-1408.305122
-1486.842876
-1423.685569
-1301.087167
-1259.322933
-1381.34544
-1639.00756
-1931.528632
-2155.741977
-2270.776212
-2310.898592
-2319.898071
-2292.126186
-2191.402761
-1984.730063
-1655.203648
-1240.74144
-853.0335142
-600.9815602
-501.8424548
-493.7570087
-515.0295124
-562.8581926
-687.7502446
-913.0929396
-1162.522792
-1321.922304
-1377.919091
-1427.545311
-1541.425234
-1687.647773
-1808.31194
-1904.8852
-2021.419807
-2189.269694
-2396.760189
-2582.400262
-2680.206003
-2692.629039
-2669.244837
-2605.630539
-2442.071101
-2175.906356
-1888.30594
-1633.424681
-1372.349851
-1040.339776
-625.7943785
-179.3371123
208.7617441
467.5075446
637.1711107
860.1877345
1229.572989
1691.844732
2120.913783
2435.389114
2644.550638
2811.50994
2949.453746
2972.153053
2811.812779
2543.038207
2300.837222
2127.544657
1996.619958
1932.284633
1997.028828
2186.443464
2420.625585
2623.398405
2755.821977
2806.707759
2801.915237
2787.343452
2770.615946
2716.419926
2599.006745
2419.471782
2201.499268
2006.115816
1898.231484
1867.957315
1840.434022
1772.657585
1674.181059
1536.405489
1317.23925
985.7326551
518.8276987
-96.17306703
-782.6033814
-1376.575221
-1784.792442
-2057.652196
-2263.580438
-2387.134822
-2373.491336
-2197.501845
-1888.543769
-1533.158367
-1241.801042
-1083.865881
-1044.769999
-1055.579791
-1115.162575
-1402.570884
-2162.861039
-3382.106928
-4661.477213
-5545.585541
-5923.609986
-5993.681193
-5916.563273
-5680.164559
-5271.743074
-4792.694126
-4360.735644
-4014.438286
-3743.302234
-3528.298699
-3328.249124
-3076.359824
-2703.671101
-2155.702192
-1422.460965
-574.4266782
285.1933904
1137.187079
2061.001291
3093.010258
4105.299426
4866.583385
5240.957063
5321.101746
5316.546723
5301.481383
5156.600594
4770.712024
4188.906829
3554.831747
3021.098365
2706.032592
2623.65363
2660.711483
2692.691971
2690.605602
2676.964324
2651.76218
2608.431219
2546.013574
2425.320092
2186.754283
1834.897329
1437.648175
1052.19461
721.9174256
496.8503164
371.3745289
259.7120873
103.2394364
-70.67094514
-241.7743147
-444.9172131
-676.1968195
-860.8343482
-966.7487828
-1056.414278
-1191.795063
-1369.605952
-1559.362783
-1728.836587
-1838.075055
-1868.509601
-1847.61332
-1823.298494
-1829.082951
-1850.908301
-1811.862458
-1651.019547
-1430.337615
-1283.826434
-1264.237194
-1325.871705
-1424.608413
-1528.52889
-1568.507082
-1490.733324
-1341.943925
-1227.845156
-1204.941384
-1250.8793
-1301.142027
-1288.947832
-1198.879124
-1092.451573
-1028.793968
-975.1437966
-859.351347
-686.5026138
-535.9711772
-459.103152
-431.0471286
-388.4289946
-281.5423242
-112.9085667
50.87786805
132.4759981
124.5332794
91.95807395
99.58438327
170.7874246
293.9677182
426.8041934
516.5962905
545.9008694
542.7989814
549.5895723
595.4807481
673.7211318
739.3802812
757.486369
731.1448099
660.0253543
535.6195758
409.6625096
384.1609183
494.6835763
676.6012834
864.2821102
1043.546828
1200.521592
1313.212958
1405.056712
1518.509367
1642.454986
1753.20275
1886.255559
2065.677002
2221.44355
2282.21878
2288.823683
2330.782901
2437.199553
2585.571202
2741.727605
2859.848033
2915.095436
2932.555583
2915.897925
2789.060366
2485.770331
2049.142605
1584.192035
1162.311047
797.2118956
448.8114078
23.44257989
-586.0525908
-1418.356553
-2375.000729
-3240.908406
-3833.04385
-4158.24818
-4376.495114
-4589.331162
-4732.627398
-4713.12604
-4568.5168
-4411.101274
-4260.684172
-4021.829493
-3608.579562
-3029.428671
-2370.209495
-1741.000538
-1234.36961
-914.8915833
-810.7813906
-852.7840019
-842.7947394
-605.6923424
-227.1952998
-51.42138063
-351.9278651
-1031.505468
-1702.078547
-2038.829748
-2022.070765
-1863.307416
-1746.892428
-1672.396629
-1540.853237
-1323.003715
-1075.475222
-837.8571258
-588.7332304
-272.182972
175.8335314
776.3208171
1447.89476
2054.186679
2538.086911
2961.656778
3396.828779
3811.210112
4074.103186
4080.545048
3886.659015
3686.073572
3594.265879
3499.784517
3213.994637
2716.617575
2146.170487
1616.060012
1180.390356
919.24713
898.3694858
1058.727777
1252.552428
1384.340791
1468.146823
1577.111193
1776.775007
2072.447767
2379.152471
2573.691778
2620.037747
2615.485542
2670.606691
2768.099921
2779.20595
2605.433498
2261.032042
1796.923729
1191.369438
391.0249587
-559.5834859
-1522.701529
-2400.415236
-3181.625083
-3870.644913
-4458.744385
-4952.000907
-5342.510782
-5573.98242
-5606.527403
-5477.078368
-5245.925719
-4944.510439
-4601.573235
-4232.003745
-3786.541913
-3213.62441
-2576.365368
-2014.695752
-1592.322535
-1247.421272
-884.9641024
-479.650022
-94.53297691
192.7784888
377.3594116
516.7511223
637.9693535
702.0913249
673.2989427
576.9431157
475.6608162
432.1916411
491.4369999
635.7680575
769.8786793
818.6039728
814.2620226
832.1979362
891.3499845
958.8815416
992.1146108
961.0400684
884.2981826
826.320569
818.9034985
835.7788616
876.0141962
992.7207136
1192.935414
1387.868717
1499.905243
1556.034129
1620.493203
1689.689868
1708.119193
1652.551585
1568.48673
1547.110441
1660.349511
1879.4767
2069.96264
2106.974185
1991.834912
1833.759419
1724.551392
1640.783219
1464.024983
1107.417775
640.7619498
266.0882636
120.2505218
118.7067339
59.56842329
-134.4544733
-359.2253445
-508.7796672
-620.32523
-799.7398037
-1059.313942
-1299.145986
-1438.367622
-1495.393999
-1529.582946
-1567.633139
-1597.273971
-1573.480614
-1429.928762
-1142.779385
-778.4102308
-435.7201622
-170.3065091
-11.6082057
13.12428411
-62.12949414
-137.9639093
-193.6834703
-356.0225536
-728.9976995
-1237.57296
-1716.798371
-2050.647277
-2160.759069
-1996.204561
-1626.424627
-1239.137683
-961.0867956
-750.2096709
-521.7017377
-316.486395
-286.8357626
-545.9454218
-1057.387946
-1649.481901
-2138.856112
-2458.772343
-2647.427424
-2711.545656
-2563.191412
-2123.69183
-1452.633086
-727.0319902
-81.16282233
494.8299415
1057.39294
1559.793785
1881.05129
1974.484412
1906.920648
1783.204778
1710.499851
1790.18368
2041.740352
2351.110622
2574.95071
2682.336685
2741.539859
2810.453942
2894.898205
2959.52217
2930.525669
2748.553676
2449.581844
2128.771849
1827.952611
1547.466185
1343.44659
1279.506113
1277.777998
1153.811579
828.1074266
393.2679851
-42.29222318
-461.9294989
-869.5721045
-1216.337828
-1451.569615
-1602.071031
-1749.692154
-1920.798081
-2037.050671
-2017.637811
-1892.092145
-1749.559691
-1615.660083
-1447.447069
-1213.388602
-924.4310596
-622.4673138
-366.6373105
-189.33309
-57.9559806
79.08575372
223.7171323
345.7896986
426.6647592
431.3035983
295.5846973
19.61966529
-267.8796786
-412.4662863
-379.5275403
-256.2428913
-147.4372978
-110.0046199
-153.9703275
-266.7434364
-438.53274
-656.7432661
-868.7056912
-994.1244235
-1004.148867
-947.6566426
-883.7412966
-834.6501079
-796.8090267
-744.551721
-653.8367257
-562.9553191
-546.5383425
-606.3037354
-671.3722445
-704.2239613
-716.528892
-712.9599625
-705.2638822
-723.9152031
-745.2777543
-688.1750394
-536.1452603
-363.577348
-201.6000007
3.797839102
262.0416398
488.3764464
623.9280558
705.9964021
800.5703089
940.8845204
1121.259795
1296.432956
1419.710456
1507.961736
1612.665173
1721.579036
1766.696853
1737.985265
1715.046824
1768.352867
1879.697518
1972.733437
1988.994007
1931.538981
1849.210637
1764.583218
1631.161255
1409.477337
1160.571717
1001.767269
995.8278346
1123.337421
1316.447726
1491.611888
1600.872568
1667.688564
1741.816238
1836.123676
1922.996442
1935.737759
1754.113392
1267.324702
493.0681387
-409.6837671
-1253.958614
-1915.757767
-2353.423412
-2612.613511
-2790.948848
-2951.561639
-3114.533359
-3349.342098
-3782.170835
-4460.441232
-5266.370114
-6004.095638
-6548.854023
-6893.499512
-7076.133357
-7104.163083
-6949.587239
-6578.121674
-5963.658584
-5093.778765
-3989.684217
-2731.756336
-1436.232848
-182.3130155
998.0217473
2046.488439
2880.119736
3499.565267
4013.683058
4521.593414
5014.755223
5384.983725
5492.908897
5268.508208
4785.559888
4218.425315
3725.950485
3393.950719
3238.332163
3189.489237
3094.61517
2827.56501
2420.917557
2030.039909
1758.980179
1579.659936
1410.965102
1210.087676
992.8079112
813.662962
720.3047269
706.9013454
730.7290565
771.665447
835.6145211
913.5425601
991.4717379
1070.641485
1113.539386
1026.169017
770.3547454
428.4233184
100.800896
-181.7116346
-418.5076276
-597.1067127
-711.1572847
-790.494668
-917.6385099
-1175.467414
-1533.366565
-1858.068971
-2087.36727
-2284.077132
-2470.323958
-2552.890017
-2478.561554
-2328.875572
-2203.66626
-2122.856781
-2065.376192
-1995.4785
-1851.84917
-1613.42692
-1356.320874
-1161.000215
-1007.986796
-833.7143426
-623.4558685
-391.5288883
-142.0692404
105.4953731
319.2889554
508.5329736
708.4357454
899.7957784
1009.908916
1008.519521
954.1178585
932.3975971
970.381949
1009.773903
968.6888869
840.921826
700.5768673
592.8522406
480.5784044
318.4071291
115.8472362
-89.56245753
-274.8726829
-441.844228
-606.4386961
-770.6201207
-904.3272487
-978.166297
-1004.103714
-1011.299111
-1002.650648
-980.6739445
-979.4565138
-1008.301963
-1019.400657
-1002.178277
-1024.32063
-1100.482152
-1123.450721
-1003.1559
-776.4164915
-524.1613402
-272.3204066
-14.88359869
239.8387615
473.3450064
657.773001
755.8471841
773.9408199
802.5012141
946.4278034
1222.215434
1555.372641
1849.46816
2032.788972
2078.585276
2014.440542
1906.96577
1830.330072
1825.677949
1859.43975
1844.514945
1737.827841
1585.421433
1451.107999
1360.921706
1330.427249
1356.63412
1366.640554
1277.274224
1125.575903
1042.7681
1092.306444
1229.711352
1403.707532
1585.348533
1726.506527
1797.548799
1822.42579
1792.005969
1612.703729
1208.535309
600.6506993
-140.0227834
-923.7545309
-1619.775243
-2107.937242
-2366.66884
-2468.216247
-2550.242625
-2826.889111
-3483.625864
-4453.054317
-5388.47115
-5946.479275
-6054.203538
-5891.50266
-5679.040962
-5503.088317
-5313.021215
-5043.753012
-4683.681136
-4222.952354
-3613.01173
-2815.696612
-1860.717089
-845.1953957
112.7461989
943.6047573
1664.781709
2322.229484
2894.473218
3309.958841
3575.826136
3815.753151
4124.761965
4437.870961
4597.836372
4510.864498
4198.011411
3756.153191
3317.280701
2982.434306
2739.420515
2488.336049
2165.81509
1779.908795
1329.264914
794.4048579
233.7073479
-201.2098562
-393.6659978
-378.1826578
-306.0722601
-294.3545703
-329.5038454
-343.4843348
-335.6589062
-349.2760276
-373.5964277
-350.7122967
-243.5152533
-48.25538763
205.1489795
435.0064501
556.1115188
564.0095145
508.9334076
402.1707265
240.3105452
95.7079835
54.98954152
72.66278686
6.598824907
-208.3414465
-519.9126963
-847.3603937
-1109.90838
-1227.277537
-1194.439359
-1108.572604
-1053.765679
-1017.868866
-969.3265632
-932.9125726
-928.8313695
-909.1406055
-815.5079995
-649.600692
-449.804028
-246.217744
-61.37566609
80.74606471
159.3593028
165.3955229
115.6427341
49.77028974
4.893905416
5.885921528
55.05163559
103.6234666
89.46352336
35.49664118
28.59270022
74.45740369
82.22150169
16.81005687
-55.20146028
-93.59567532
-140.3553582
-227.036111
-323.8739081
-394.2693776
-431.0038372
-447.8620814
-483.5370372
-574.2587813
-683.4186597
-718.3753853
-644.5944219
-511.6357484
-357.219731
-173.1865038
27.58007727
200.2026908
334.2024528
457.5247712
569.1553347
629.5882838
622.9386955
582.2929273
553.5947174
563.7014682
611.0099924
664.7832353
686.3975443
660.378722
603.9031613
564.6005137
597.0453189
689.3414622
727.8055584
600.7569246
317.9680837
-26.31053127
-359.6249299
-646.070466
-857.7083269
-985.8134189
-1037.473362
-1011.37629
-930.3551582
-867.4381454
-859.645364
-841.7848018
-748.6044544
-611.2674053
-472.6845558
-308.5954244
-117.353337
22.77465365
71.65833975
106.2751038
212.2041282
375.142761
522.3066739
598.0908646
583.9363083
521.3341712
509.8300909
605.2555938
742.704231
820.7080656
820.2858281
801.8692448
826.2700615
892.7088236
938.6304144
915.4758907
851.3557878
812.9820653
848.0933636
979.55604
1175.220918
1313.705679
1284.792563
1133.29845
997.5361476
915.1692728
812.6442788
668.8315179
544.177645
450.7671267
335.2974971
195.4764425
88.37186772
19.47662596
-76.8097206
-248.7330192
-490.9511872
-783.273978
-1110.888325
-1456.513408
-1800.757999
-2116.759345
-2363.692685
-2513.710859
-2581.395594
-2607.730078
-2629.308361
-2661.769723
-2677.849792
-2615.900426
-2455.959825
-2253.002709
-2045.641319
-1794.865786
-1466.58979
-1094.694649
-719.4538967
-351.704823
-14.47486497
279.8452649
596.5350412
1028.209479
1577.757502
2151.858524
2645.069163
2986.310138
3147.311787
3147.283724
3016.447828
2750.532815
2341.756169
1827.550114
1261.994857
684.9063173
158.1156813
-230.8800109
-443.5801835
-522.0126488
-532.3086216
-529.3437937
-572.8768591
-704.1525528
-886.1133469
-1019.353314
-1038.939879
-965.5646167
-860.0201756
-761.9827654
-671.5592318
-562.534333
-417.260081
-253.7560362
-102.8766327
31.93985922
176.1496035
356.8609168
573.9256584
794.5222781
994.3925718
1181.610143
1336.512497
1378.121118
1259.678047
1042.028947
806.3810271
565.9506854
329.384845
168.5035905
144.0370501
223.7273755
325.3168282
372.9991017
290.0771719
42.67844505
-281.0538509
-543.2264913
-720.0528414
-885.198905
-1035.307031
-1055.345417
-872.983777
-550.3224467
-209.6427231
55.88744323
201.4871073
241.0090482
243.9273883
268.6108735
308.2938808
330.7963231
335.3469243
357.5592563
449.3154354
621.4130088
778.1056199
773.6356794
548.9380813
152.2791045
-330.673374
-789.3486023
-1112.682814
-1285.920105
-1384.175664
-1434.664884
-1391.842992
-1253.293202
-1078.99619
-906.7294135
-754.596846
-658.367404
-592.9413022
-427.0121111
-78.5803648
341.7253099
631.2461897
690.5860947
583.5367221
456.6780424
409.9138925
414.2790032
369.6871831
241.6273385
88.72354794
-35.8770324
-128.5721539
-177.8994884
-153.6837298
-68.98112924
25.13781536
110.2465129
199.7678251
287.2388258
346.0307843
342.480945
241.9550483
74.12781145
-38.26714026
-11.02507357
92.04019942
160.9532389
171.4267439
154.6496547
132.9892118
130.9503191
158.3102947
163.7751267
90.44530977
-31.55645412
-129.6259174
-191.9083426
-245.4449061
-284.7191186
-294.8062017
-280.9815772
-229.2077394
-114.0882185
35.05069982
151.4788317
208.7513993
222.8716177
210.2990678
191.9694673
194.3064442
212.5050814
220.8076769
226.7167714
251.3479794
269.8633622
251.6023703
226.5638982
227.7073404
223.4393122
182.400266
132.4107503
106.4621408
104.9007485
120.2093767
132.5040124
107.6475975
51.00420908
8.928710228
-13.30500559
-55.91983943
-112.5536947
-133.1238596
-125.48906
-145.7511093
-189.740625
-205.0678174
-195.182585
-205.4774359
-239.0186509
-270.9382507
-289.0568092
-269.6158346
-195.0417831
-112.2787915
-82.08784547
-85.51189784
-68.87453232
-41.34027744
-42.08316376
-58.77093696
-55.38575225
-33.66388879
-8.524988002
28.68243121
85.31056949
151.4373368
213.1682496
244.25717
221.4226941
171.5762165
136.8293733
105.3873881
62.75747543
52.63373168
93.74758609
120.6397624
81.90196881
6.215877899
-66.87223718
-127.8672757
-160.4607983
-150.5224653
-122.847117
-104.2568013
-88.68133389
-90.39181824
-152.744142
-246.7739528
-271.2956019
-211.8016244
-170.1890206
-196.2345829
-230.9505054
-237.4738803
-248.5828786
-272.428141
-263.7275127
-192.0231717
-67.45323723
81.85867766
214.1045646
287.9697652
290.5545288
223.6217699
96.40872698
-26.79430068
-51.46139581
20.02143711
88.28797155
114.777256
148.1373779
199.0164962
234.6874065
256.203804
258.2594296
202.3349023
115.9564428
87.85350629
113.547271
96.91221097
22.55575466
-30.72091746
-39.59380181
-44.32473532
-33.57774651
28.7608056
97.85475243
106.0135859
77.85540311
73.43738044
80.50220689
52.32385607
-10.07436153
-66.58197457
-78.53874553
-32.77130817
29.6161098
34.88988804
-27.41279373
-74.51422865
-38.94669287
45.39017856
101.8551028
101.9912456
74.22548135
67.55977374
102.8537345
130.506789
83.32131503
-15.39266954
-78.3405267
-78.61146678
-51.54929331
-13.58400144
25.2999758
31.98421882
9.889858309
8.445174355
29.17429851
21.62754213
-12.28890629
-25.88744929
-32.44235373
-78.22826522
-137.1421505
-154.7203267
-149.3361006
-161.8235894
-180.5640341
-197.7812051
-236.7900447
-276.8284217
-269.4157605
-238.0338852
-240.5969316
-257.4633255
-233.2142619
-185.0816854
-166.7364013
-176.6304598
-178.9835537
-157.6015498
-103.1537621
-12.08458668
80.90334342
131.5649547
143.3982422
149.9889155
175.3878423
237.1534263
330.5184747
413.357894
465.8072238
514.289794
542.8430657
477.3119242
312.9015152
147.3460974
48.04177338
-6.281258843
-44.20591794
-70.41489331
-101.5295025
-140.6855932
-158.1554835
-165.8317863
-223.8041459
-314.0242172
-336.4692475
-282.5607578
-255.4120301
-282.3362479
-278.8263188
-216.9365147
-160.5249109
-126.7447631
-62.08576468
44.45970466
140.9087802
191.2484162
193.1027313
151.7080932
99.24573042
97.16017001
178.0508527
325.7574938
513.7856038
706.7563733
839.3179676
845.9975545
701.150897
431.4619772
127.2232395
-94.58797815
-191.5160447
-217.1246381
-219.1156654
-192.4066605
-148.9906173
-141.4809921
-191.238347
-268.4943025
-353.8719558
-445.7953178
-515.2662838
-534.6912273
-527.5597409
-514.1376993
-463.9919075
-370.8310571
-288.7489805
-239.4132139
-182.6241437
-106.4722843
-42.78220349
9.123235464
78.14511626
157.3661097
220.2310323
270.9142049
325.8344569
382.3927384
434.7992977
475.7679237
472.7583551
394.7020138
259.8644384
112.9898616
-18.63999827
-114.4576977
-158.5739135
-167.9967051
-166.2622641
-140.0544662
-76.69306485
-6.047196601
35.99553316
31.94748137
-37.48790588
-164.9507125
-281.7906563
-328.4809089
-330.1067023
-335.8193954
-335.0890037
-303.2674884
-269.9779231
-272.7110996
-301.5514658
-334.6177207
-356.4709947
-328.0091984
-223.8740278
-90.94309303
8.565914493
80.35088285
159.7770377
241.6490368
309.8520942
382.5048054
467.8274028
526.2727942
530.3953158
513.6928516
516.8912341
531.9175963
527.3999115
493.3116962
450.7788757
430.1319014
425.7205722
391.3616879
312.1672837
233.3129758
184.3292072
146.5762572
115.486408
102.6254743
74.45506015
-7.448951419
-105.0677147
-166.7556316
-223.7594303
-314.5034764
-378.1078852
-343.4532356
-257.6816719
-205.6771278
-175.2758481
-123.1323407
-89.03010943
-122.0500671
-179.2126547
-205.632043
-230.5973012
-297.4604249
-378.3116205
-424.3661633
-432.9925753
-420.9330233
-386.2615127
-323.7117819
-242.0049608
-157.8413735
-88.33632006
-39.56857208
-3.146017758
23.7373417
40.75559903
70.7300407
131.6349975
194.0973628
224.6291557
228.5422761
202.1568258
123.4417237
25.48525146
-24.13990801
-32.94046702
-64.0450856
-117.7011042
-142.5246022
-139.9065569
-149.9105657
-162.3099176
-142.1368902
-112.3151823
-118.4476565
-145.5566252
-145.2194326
-104.8675314
-40.5077947
33.48175082
106.9983183
188.5056794
300.0527345
418.1272831
469.1666996
428.3254817
357.7816624
305.8621032
242.376103
134.8213321
19.57907394
-38.42807783
-8.22708616
90.40259234
192.0192487
232.047765
215.0040915
186.3122739
141.0219925
42.58572293
-91.46249585
-209.3009576
-287.3538864
-307.3373262
-242.9969114
-121.3792804
-16.57218606
45.14146562
91.39737024
117.4040483
87.53825572
12.84541785
-60.45400512
-116.5059243
-153.1079144
-152.0117851
-127.4080755
-129.8258972
-156.2793558
-143.8173952
-77.95474568
-13.60962042
24.16950024
66.9345071
123.9742192
162.9963241
172.6646175
175.1616315
186.5239954
213.3092515
254.9376669
277.7799662
241.8714855
165.5053976
100.8120465
62.16484037
37.54958243
27.41815162
26.61232781
18.05103572
2.309404559
-13.84030322
-47.33135187
-114.1448773
-200.9989467
-289.1735942
-368.4218696
-420.8369535
-439.2293666
-449.0949614
-463.6550297
-452.929577
-406.661442
-368.6798311
-357.3175891
-328.3715515
-262.6796542
-200.9220235
-160.1159771
-109.7397913
-42.78496508
18.11301219
75.8652446
145.0109684
212.3541188
267.1490013
323.0051849
377.0119875
411.24629
445.4871923
508.2855389
564.6434556
564.2467525
531.4489922
512.5495309
486.4899292
413.5903754
307.9887588
205.1794855
122.8136197
69.63106042
35.54154177
-12.37622123
-88.20622056
-177.5928633
-272.4734522
-356.8138271
-377.7030358
-302.6309759
-178.9720351
-77.44813514
-20.37427549
-10.26413459
-59.16833761
-142.0529438
-194.604783
-190.1319071
-148.171553
-72.58357569
33.19613665
115.0086834
118.8449272
61.74531109
-10.7593258
-88.17476337
-165.7865148
-212.7897469
-216.6380839
-207.3991123
-209.5189699
-217.7967539
-230.0121901
-253.5966906
-283.5847015
-311.3482864
-330.169573
-315.0444337
-247.4617833
-157.396627
-81.64072483
-10.12499642
70.01016233
130.7142655
155.4796833
177.0601555
223.1999448
275.2119878
300.43272
284.0334609
227.1775205
150.682373
93.6361979
80.13976444
100.4298268
135.2677014
165.1097997
158.2320679
104.7443238
45.52482422
6.711087028
-49.77303589
-143.9112382
-212.5753249
-199.5353363
-140.1265344
-86.59480943
-21.64811939
84.39912865
199.5769377
277.7973118
320.5921951
349.1104623
369.3336817
377.9593076
361.1555188
310.2010921
256.2684959
234.0215542
217.3790369
159.0973578
65.6297309
-23.71505381
-84.66822589
-100.5842787
-69.27513235
-31.62083624
-26.37648367
-25.84565123
10.52457866
49.65843906
35.08097663
-18.78531458
-67.43763608
-116.1201651
-178.4838534
-225.6140073
-246.9345552
-286.4725261
-366.5272409
-443.4600397
-470.017293
-449.5324461
-414.129063
-385.1000656
-360.9047159
-323.3268617
-259.4894686
-188.1575713
-139.9918738
-103.6872293
-39.58653129
46.97813617
111.8557053
146.4346989
173.1591448
190.5478817
187.1336835
174.3123015
168.0714189
174.1941359
193.7081819
217.2508891
237.5428981
269.2265825
312.6577456
321.4072776
264.8385322
183.0245551
118.7335818
54.47145514
-22.38386255
-69.87451749
-68.5956128
-62.43082488
-72.7427791
-69.97076323
-61.42469765
-94.64010228
-156.2752474
-177.8577753
-141.4847858
-83.52061102
-15.4706311
70.16445731
143.2855707
160.7221975
125.4967241
75.50742833
37.28831433
11.44692623
-23.97700712
-97.09687669
-203.0686614
-299.1285409
-357.0030626
-382.1991093
-377.1256575
-341.5621764
-297.0508493
-251.8671721
-180.708705
-90.30400586
-36.69073001
-32.73320522
-19.89258977
37.97441751
113.1747149
173.5831611
209.7059494
216.3179546
205.8486689
205.5539615
204.6608608
165.3364508
104.2258062
79.07772986
93.80101346
112.1709121
143.9617422
216.4480742
296.0480901
331.5197943
333.2808578
338.1556562
345.5806201
339.6164317
319.0409829
274.8699274
195.1886981
105.5342522
50.178853
38.05325472
55.66990108
106.0839668
184.5724828
250.6512477
264.1315914
221.7146497
154.8495507
116.5945535
137.1772854
171.0980486
145.553933
69.17480694
14.31869381
-7.357625514
-59.6553918
-173.8380108
-312.9334187
-435.4205057
-520.160662
-554.5736196
-563.937094
-605.3479344
-677.9204906
-708.9931807
-666.1218722
-592.9104621
-523.8693423
-462.2908863
-421.518273
-398.6418455
-355.0057443
-283.3034554
-223.6555082
-188.2592909
-157.6647616
-147.4972426
-179.2587444
-205.4529445
-166.8435859
-93.0404799
-50.0976271
-36.01769539
-11.67563325
30.40899172
89.06263256
168.0623163
237.3518986
258.4840282
247.0916876
248.0696896
275.0956653
309.7482437
319.5748733
279.0611456
224.565181
246.0068938
357.8700712
448.6258179
431.2615457
357.7034494
316.0929913
313.1771684
316.8740396
316.1059456
300.4705986
269.4870161
261.8530548
293.6864328
308.7102744
269.2542733
225.8563566
222.8668233
226.6913769
213.5446663
225.1617622
279.4714636
326.7931151
335.5628539
329.1537451
322.724934
304.2376298
265.5606648
196.9671385
92.15453205
-23.72712475
-134.7295483
-276.1728877
-460.5331628
-622.6312888
-712.4355149
-763.3787381
-812.3745373
-842.3632775
-842.6744562
-838.5491307
-842.1345405
-843.9820914
-838.2423713
-800.7715561
-691.2810344
-523.5651035
-361.8800059
-220.1504534
-55.24831581
139.336277
335.9917761
538.29422
740.6152116
878.1220705
905.273849
858.6974713
789.3645533
710.7606556
644.4387352
632.6400322
668.2417103
669.4540096
558.9151926
340.6414316
90.84800128
-100.2791351
-193.0311034
-234.9288304
-302.3852551
-396.3492647
-450.6179372
-433.9159452
-383.6066628
-358.9492974
-393.6236195
-459.4882009
-484.1275337
-452.1968221
-440.7577606
-489.8066878
-515.549577
-432.4907551
-278.2611423
-138.6401784
-31.91122209
64.9276944
160.0003046
269.4410582
407.7058938
520.3887924
519.3106827
404.2794839
269.8660453
194.7148611
187.5883716
217.1917108
238.3610266
209.2807276
118.4650595
-12.58087835
-148.0295539
-238.9213178
-238.0103006
-159.5028815
-90.0985827
-91.13591641
-134.3908573
-168.7282581
-176.8468872
-149.3915105
-89.84340088
-33.13637305
10.38938482
69.07998229
124.2766019
116.8045361
63.66037036
43.1917846
61.43562249
56.98392222
13.56641233
-45.61552287
-117.1944279
-168.4415412
-121.2646254
17.65537663
123.2728362
126.624968
95.83279446
98.0249256
122.5113179
159.3993291
215.8735136
258.3921723
251.592351
222.5897771
202.9598521
169.3115287
108.9404236
65.11837407
60.01246012
53.14085807
18.33894686
-14.58056693
-19.97395326
-11.62163366
-10.16896106
-19.5826504
-25.27600779
-6.726218525
20.67457871
7.128596854
-54.27972417
-114.1955416
-154.43894
-204.2924016
-261.0611799
-283.5478047
-257.9521834
-196.2463374
-100.7688333
6.75792437
71.28562842
70.77208476
36.79406575
-14.3618868
-86.48593953
-137.9664478
-120.1802333
-70.15043659
-57.0369845
-71.55367498
-67.48315505
-53.71626174
-53.15173349
-35.50312511
28.39276179
102.3013435
135.5314436
127.522691
102.936228
76.04759245
60.66397368
62.23006809
65.24175899
72.01333962
105.5049808
141.3398047
125.5525362
71.36761208
31.91649481
3.832557086
-36.25079905
-62.75136782
-55.28892963
-38.97403791
-20.50903696
22.84147848
74.62379975
92.97231681
81.60371858
63.92284317
26.43964764
-35.40864568
-74.25946447
-60.96666795
-33.44021796
-32.15600588
-54.13149486
-85.98387079
-116.075452
-121.6987516
-99.17660742
-77.98393218
-67.16738442
-38.13591684
11.51941012
40.94281169
35.98980706
32.19461734
51.58785271
75.93589511
89.59676917
92.55308914
73.38319265
21.77496401
-41.14690649
-79.06880504
-69.13449275
-13.4879167
50.15061247
80.75242187
97.88340981
149.0487399
207.3554949
193.8923751
99.14252187
-14.56843829
-112.1797129
-193.5494922
-238.5869175
-234.1903596
-212.0765839
-191.6409911
-147.9343604
-82.65263351
-38.69498836
-13.2336012
37.53744332
93.19591949
86.67800898
27.81584112
-5.805358677
9.668039642
29.52143656
23.13665817
-2.342768546
-31.92260338
-53.01549725
-64.97182982
-88.62575672
-134.5463594
-176.8501386
-193.0421043
-195.798452
-194.5359121
-183.1862438
-188.6524308
-249.6505964
-335.8883475
-376.6193914
-358.102061
-312.1802454
-246.9979096
-155.4160986
-40.40767117
98.02117373
234.4077601
293.3160931
245.9886616
187.1159796
215.2877119
301.3689568
363.4750911
384.5394118
380.2615005
350.8674354
319.7514426
320.6311686
329.5450045
307.1868328
281.0979189
288.3392284
295.7597573
267.5141413
238.0045687
242.6949073
254.4534878
250.1742915
265.2546667
326.0844089
393.5502728
422.0882154
417.7245316
400.619279
364.2069581
297.6183763
209.1764004
120.9379185
54.40980026
7.281188189
-42.33166655
-88.06622286
-98.04970361
-83.83497721
-96.0120484
-138.4688788
-162.3953553
-142.514431
-91.06758462
-25.0805694
15.74248144
-29.71419007
-160.846415
-296.5879689
-390.2187204
-481.3499378
-599.4400641
-718.135665
-826.6298201
-939.2940797
-1031.963076
-1064.168352
-1048.32223
-1026.886696
-1010.802417
-980.3356484
-916.2465381
-820.0151718
-723.0251828
-657.1609504
-604.4104965
-513.8873174
-377.9121073
-238.1086797
-108.9707482
31.61735625
170.5803554
268.7768507
340.5881822
436.0258144
563.9656893
699.8885141
820.5873547
891.3042997
889.0379392
850.9073566
824.1253527
792.7956044
733.1682861
681.699083
665.4772131
645.1114463
597.6207831
558.2508829
530.3877942
470.6768365
395.2931255
375.4338537
410.4793472
422.6037108
375.9648532
303.9326903
238.3994523
190.7037334
175.0618628
192.0173965
212.965737
214.2730781
201.6208858
189.2845319
183.9242162
185.2355296
177.2532487
140.7945745
92.00457818
65.56361568
55.66937304
32.98832967
0.532390805
-34.15510468
-96.7646098
-195.1237042
-290.3030213
-352.917309
-380.7018903
-362.9176559
-305.8829627
-270.4982887
-306.7272319
-383.1446605
-443.2856952
-482.9248448
-516.5812921
-527.2644424
-504.6617343
-481.7984882
-497.1397734
-562.9874461
-672.6702466
-790.7252005
-859.3600994
-862.0237131
-843.2551096
-834.6679285
-815.8961582
-768.1003591
-702.219159
-620.8640637
-514.0583562
-398.4669832
-302.0171008
-210.8035917
-89.40247968
53.76786654
180.0995702
288.0713521
415.9956669
587.3258844
774.3581028
905.7130394
928.1362542
874.3830273
825.5348404
805.7329863
778.5846967
728.075426
665.0048525
587.3294002
505.586436
456.5213639
440.254423
413.4583538
372.2094675
356.6906332
364.6911993
352.6800853
321.0657125
311.4095948
331.5173848
354.3591646
362.1121951
340.7144933
279.8471453
211.4751022
186.9063467
197.9579704
186.5321079
135.9227978
83.6659185
47.43805543
9.313654626
-32.23730218
-63.75776507
-100.2722512
-167.179249
-254.9196077
-331.1755369
-375.3960656
-393.5433019
-423.7475209
-500.9144249
-599.0876233
-664.3571553
-701.3123671
-748.1610589
-789.9185272
-787.1473587
-756.0656759
-736.6547393
-725.3571951
-703.6923344
-677.1446427
-639.0418418
-560.8929137
-449.6547416
-348.4502997
-269.237815
-191.0841004
-113.1401406
-39.0988398
59.05814097
188.8195677
292.9833329
324.4125799
314.0110134
315.2993112
341.878374
394.1091538
480.7877658
583.4428975
653.9436732
667.3204037
641.0487961
606.2336341
583.1232276
559.7646431
490.6032247
358.8245114
219.3079679
130.9900307
91.02714183
72.61499986
63.16423232
47.7620365
24.76905553
28.9516396
75.98108124
122.6955745
139.372525
161.4071041
216.6522823
267.5789389
267.5903702
212.0380531
116.2143443
11.12050767
-46.527358
-36.85647793
-21.23232406
-50.37321101
-82.87350157
-65.82068679
-26.76351254
-26.00811319
-85.10750019
-194.1265035
-323.5634636
-423.2651882
-470.3458154
-504.4073538
-568.6339752
-652.0204613
-723.7080648
-768.2507239
-764.677485
-699.1383498
-602.1578537
-504.1800988
-383.9712509
-227.6674892
-77.91151834
30.65800771
109.56097
164.5225125
188.0222793
204.0436128
246.2218343
313.4031974
399.3021511
514.5282632
637.4381002
713.6625107
739.6422376
768.0751211
807.6963386
810.5541792
774.2180104
751.7772108
748.8950868
712.24031
621.0903172
505.3615776
387.840142
276.4167506
189.4170952
136.3563516
92.7447928
21.89892704
-92.92873973
-237.8267895
-372.1748946
-467.168342
-556.3761703
-694.9785435
-856.8392365
-958.391466
-990.3509734
-1018.069301
-1063.337853
-1094.311052
-1093.988868
-1052.612286
-956.2298347
-830.7754812
-719.7020348
-614.3343735
-487.47399
-363.524678
-278.7205132
-219.0514471
-151.555835
-61.02340528
67.1226401
229.1748865
368.3110905
438.2175642
479.1443126
548.5322269
626.9737547
669.7886357
675.0460888
643.710088
572.9701095
519.873422
554.8405499
643.2693454
689.1097253
680.3960513
679.9749084
702.3898582
706.6514131
684.5064379
668.0346714
670.5735529
676.6789814
663.3731675
607.2073939
507.2104486
394.4544135
284.2590741
157.2642098
11.19208531
-128.4272119
-254.1199984
-368.7874816
-449.6820686
-478.7439606
-477.138121
-468.9079885
-454.3301784
-441.1302039
-445.8614798
-452.0337098
-428.9286071
-394.8428308
-395.1165406
-429.6730202
-470.6797138
-514.5321545
-549.1986716
-533.0866048
-465.95181
-407.4504395
-389.6142896
-388.4364145
-391.1814432
-410.5322698
-433.8777682
-428.9593078
-389.2614018
-322.7272592
-223.6636816
-97.15653367
26.45372128
125.644998
192.8094747
215.2838691
206.5101053
215.3011624
252.9709567
279.5313683
291.7229089
332.3389701
400.4163709
447.0827766
454.040916
432.9943759
379.0275701
301.7334622
250.2199007
235.8623937
198.8623253
112.5419882
36.70223217
17.08786797
24.49889779
29.12592106
43.31260283
75.35241611
118.5116382
172.0123254
217.3056279
218.3369772
181.4534515
155.5976348
158.8007658
162.1480039
136.4481363
65.56580208
-56.04078629
-196.3433956
-294.7126279
-330.5480287
-341.0968415
-354.4962211
-358.4169355
-340.4354776
-304.1872676
-254.1843404
-202.0435335
-156.055845
-98.38636752
-27.60760468
5.276123772
-25.65187022
-62.41274355
-49.48919705
-4.21327762
49.15555215
120.984818
194.8127668
225.2000072
222.4462435
243.9379151
294.4305998
330.4988424
349.6684028
372.5383642
369.0327911
309.2075352
243.8810336
239.1969623
281.1036511
313.458718
309.1681302
259.7302386
166.9409449
73.6498571
33.08171788
37.2881432
32.90110149
-9.578777824
-87.93648329
-184.9528399
-260.7419399
-290.3922006
-312.7611515
-369.8845558
-437.0616495
-486.8403852
-543.1125656
-612.5410956
-661.0372427
-676.0663174
-651.4706038
-552.3386872
-400.2789874
-311.2937823
-344.9708648
-408.7058116
-393.0392307
-300.8119649
-186.7456145
-82.85315887
-20.91606391
-12.35288249
7.555862989
105.2220061
239.8548821
329.8129178
371.3091702
398.1989664
399.2904581
356.4508025
292.9141772
232.2989959
175.1479912
133.3288956
123.4578092
130.6784261
133.1835401
137.7265175
148.8101659
149.7625768
147.6768724
174.3171094
226.3659532
277.8388773
336.5870164
408.8901437
456.581361
462.9745398
468.1701042
485.6976597
467.3375761
380.0559197
248.6538394
122.6203661
44.32550479
18.35014157
-7.909042157
-80.94324135
-166.5466249
-209.8745641
-235.0478744
-292.7085954
-358.3653067
-384.6042746
-394.5158788
-425.8171829
-451.3615487
-436.8314315
-399.0510013
-348.1478523
-257.4502532
-130.0702166
-16.72320018
50.32075107
78.73791847
79.52512953
63.55674264
55.38322638
65.46341375
75.05812285
77.7475813
94.90070972
131.8096186
161.9130378
157.7159996
112.1396505
51.44235309
26.23675223
46.23571827
54.61924878
21.69728392
0.69330077
28.46751362
58.48421971
55.48230223
54.12979163
66.19259198
42.24055569
-21.31794892
-51.01762225
-18.28431898
12.87541281
-11.15216807
-76.83563846
-152.2200141
-211.3541187
-230.3547524
-219.4552983
-222.2675038
-250.0681036
-269.5462564
-267.4606484
-263.1442489
-258.8109207
-243.1546027
-230.0648464
-233.2514092
-226.8552185
-183.6865165
-122.4161539
-76.85340035
-51.21483982
-27.27660833
15.16304847
82.55809517
149.5374119
180.9031379
179.4545074
173.7898005
170.9148197
168.2487179
181.9931826
211.6886876
218.2276104
181.1064174
128.0497444
81.73389979
36.01420683
-2.456812804
-12.44412006
-1.51752174
9.198028054
30.09019283
71.93343816
104.06511
104.1342376
100.048361
117.0042195
144.400567
176.7514851
220.2386961
258.8848756
274.4360902
281.2689937
295.0921714
301.6872399
293.2186957
291.3215635
306.5821331
324.0756252
340.4612376
357.197471
344.6689739
279.0459584
188.8010924
108.975429
40.66662517
-10.49939579
-29.70928142
-38.7885839
-74.71887863
-136.5897673
-204.9162599
-269.8824133
-307.7977009
-288.8989216
-226.1037216
-159.8358356
-103.5957263
-63.51979397
-76.88133235
-160.071698
-261.3156285
-329.6876821
-374.7997098
-408.1221441
-404.5632106
-368.3660262
-349.897519
-362.3390946
-368.2307853
-361.1852015
-370.2602031
-386.1158483
-370.9246064
-326.7094123
-279.8653641
-233.5607732
-196.9859874
-205.6484479
-263.3122148
-327.5127829
-371.6200941
-391.1050597
-368.5327937
-306.7276184
-248.4934891
-208.0726664
-155.3559712
-90.22564893
-39.43418544
15.23362745
107.894691
211.5876322
274.1537324
291.9290311
288.2234861
276.3811534
284.6219127
347.4344926
450.9843877
555.7827765
655.9895523
740.4831864
750.5960228
664.7541124
558.5376175
506.1302975
494.8562893
485.3850819
474.8882391
466.7905637
451.3528354
434.8692941
429.8348915
419.3174965
384.3626731
344.6900932
321.77006
302.8545448
282.0173943
272.6786785
256.2084307
198.0274708
115.3943869
52.56251552
12.32151102
-31.01873458
-88.42651553
-153.0485279
-206.0777241
-233.255237
-253.3500907
-287.1819211
-300.2681036
-255.7473038
-215.35851
-288.663121
-489.8459215
-731.7912882
-932.4145976
-1049.319645
-1061.747985
-991.164041
-887.817212
-763.1891895
-607.7159157
-473.0970387
-434.8313018
-480.0508958
-525.4373972
-519.4717011
-450.7028109
-311.2950686
-131.3607593
6.202618936
53.61068189
56.59338461
84.48707055
152.9095691
237.907426
311.4139167
358.5588252
403.5460995
489.1547387
602.556577
681.883485
704.3728108
692.040464
649.4851655
576.4313509
500.3870332
430.6141688
341.0567961
237.6485846
160.6252984
108.5330427
54.35565964
21.40028495
39.42370425
58.78162101
14.03481663
-67.08896576
-112.0290966
-114.5595388
-122.8544399
-164.9695362
-234.2910773
-297.8148114
-299.8595041
-217.2983004
-112.1251862
-66.00680874
-75.81563138
-78.84081648
-54.69701178
-32.42889875
-27.83491167
-37.71326074
-61.67430121
-83.75614817
-71.03039171
-12.19119426
73.46289828
151.9828995
183.6915543
164.0298398
150.4493275
180.4214963
200.2208162
158.7657724
109.0808279
126.1124013
190.1380693
226.453922
201.3215704
134.6552511
72.92713094
63.72610479
105.2865859
136.0177919
119.7039105
88.71209558
59.53534747
-3.803607337
-94.95145506
-142.0198152
-123.171826
-101.0636315
-112.9986423
-124.3224292
-110.3389086
-95.92051482
-94.23303386
-79.07729333
-38.00595982
-2.050859808
-12.45859221
-82.7838589
-180.9091004
-247.0732943
-264.1796903
-284.565426
-341.5358272
-390.4963576
-385.2383004
-340.3962066
-285.6703011
-229.9693366
-177.6912312
-125.5959969
-70.23487643
-46.01057879
-86.18067763
-135.8301611
-106.1838872
-15.50593144
41.30124159
48.75761906
70.35297091
117.9482624
150.1356486
172.5402624
223.7545526
293.4742456
345.466889
378.0170171
396.1605571
379.5065302
323.1155534
256.175264
197.3336445
138.4207835
75.52032328
17.81733466
-25.50659505
-39.84887744
-8.310714952
57.21854882
116.0022489
140.9738487
130.6128798
90.65569141
37.95963715
-10.61999958
-71.05082018
-158.2869161
-232.1564008
-251.7052736
-242.9870292
-238.7650819
-221.4759771
-189.6188039
-187.2413717
-218.6284203
-232.9602491
-216.7664176
-202.3850896
-188.6248485
-148.0550667
-86.91420458
-18.56341744
66.74484003
141.8426534
139.2564596
61.83741621
-1.198737125
0.532769973
37.0542066
82.1082383
136.272779
176.4863919
171.0501883
133.1315449
101.904592
98.21766408
135.6299386
223.6994508
323.9146999
363.8477722
324.8842818
253.8415079
185.621852
122.764605
68.31313849
21.55971701
-17.21197196
-21.35969258
18.12600656
50.37542744
42.74240287
39.72590013
74.23061473
108.0433919
115.9408397
127.9139344
151.5799259
152.6251624
120.3646201
58.61552533
-59.51058846
-230.0960319
-364.7724234
-392.8244128
-355.887276
-329.8009861
-324.3077068
-313.728359
-296.5925329
-282.6547266
-269.4017283
-252.3747659
-229.4926186
-196.7567449
-161.6300186
-145.295967
-149.9016088
-145.0728671
-107.9781275
-51.80462619
-3.486528361
17.5561931
8.980493049
4.469335776
48.33972174
131.4274335
202.8624161
237.8064624
237.15933
203.0512134
168.4977314
179.8843623
211.633855
192.9223146
133.1347864
103.5119708
101.2132146
66.77942342
19.18826792
32.82998798
98.50772975
131.6398367
92.33836228
3.499192119
-103.2640473
-193.8315494
-241.6548913
-261.2624845
-274.2453153
-257.5465153
