-85.3338199
109.040517
270.8649394
350.4729687
364.7159078
324.5608136
234.1972526
130.5364715
36.35519213
-62.51521072
-148.5339592
-177.0881034
-158.8201482
-143.7182928
-150.8080343
-182.1002599
-244.5774933
-315.2948356
-357.8005383
-378.7079414
-387.7355954
-334.0784166
-177.0982761
28.72150364
208.7404213
355.2852158
465.4491181
500.9294658
476.0266333
462.2732135
468.1300046
440.8983421
385.6068243
351.1958073
328.326061
288.0251309
274.3932939
336.3471967
417.4270168
420.3796071
331.5760581
203.8244142
79.69939045
-14.26527166
-68.67781855
-108.5521164
-150.5091264
-177.7420555
-198.6632001
-240.9335429
-273.0107039
-249.8807185
-208.5657184
-194.998658
-170.7523708
-104.315552
-45.01068566
-18.74006963
19.8460859
75.08923567
88.84692514
59.01934155
42.14335605
40.29246146
22.89062849
23.11603949
72.64847551
113.7731882
105.2585418
110.2604983
177.2737862
255.8426103
295.3969715
311.6406863
326.6713465
335.0497459
329.2225096
300.7327991
237.3121283
147.3992424
52.48985531
-50.04026821
-166.5765391
-267.0345326
-333.4021247
-407.0347948
-512.7790729
-609.5367515
-674.4043426
-727.9576948
-753.2200044
-717.8455558
-658.1376316
-620.2703815
-580.6208591
-520.9532697
-481.0467475
-462.948715
-404.1549243
-294.161358
-191.937491
-114.2066967
-38.06941883
8.505190815
-0.521462748
2.934667342
85.6485544
196.8788872
252.8513333
248.1742815
219.0780077
196.4341644
223.5807373
320.4822532
427.8633729
476.5309623
489.8185177
532.955912
597.9715976
620.7997833
575.8167805
488.608177
394.4879984
321.4232116
271.4750298
224.2783686
195.0536828
222.7750437
274.4521778
274.5241188
227.6381495
181.9411101
121.6839745
28.7325085
-38.90591647
-44.45761514
-38.58551301
-52.11987166
-49.1744938
-27.37250823
-26.30311502
-23.75487949
32.09096959
99.09007623
95.91126627
44.23968687
19.96982854
23.62289116
8.980265149
-38.11675866
-115.1223345
-213.0436295
-294.9111841
-337.5114938
-367.9635949
-406.2695526
-433.8187171
-452.0862385
-484.1732108
-495.2160079
-414.5685336
-256.400215
-114.0961449
-31.98432552
12.99333885
28.84841039
12.56351493
-12.65894359
-40.13289612
-88.46036914
-140.7812229
-165.1014344
-176.8117238
-193.8377937
-189.4271967
-158.6282847
-138.4829934
-118.7048772
-48.31883156
50.01846848
99.16024181
99.34328934
114.2304414
148.2462933
159.8144686
149.0631953
127.830484
88.23320403
80.17758647
188.8979951
369.6978455
452.572919
362.5102654
201.0652665
85.93728437
34.74853463
18.95620313
25.13061383
47.20593546
78.86370302
108.5262462
101.0377626
31.22402828
-55.6109371
-89.47768103
-73.39918836
-56.85122612
-53.26859185
-51.65066008
-44.52953613
-15.30054041
29.53292382
42.88325506
18.91499172
16.72784221
53.9674276
81.04634084
80.56598711
74.85277593
46.94092501
-22.97340423
-82.3867
-89.52303958
-101.5464107
-160.9875384
-197.9333735
-161.3436934
-117.2116817
-116.1301624
-109.837297
-66.4431638
-14.9459049
52.2539838
166.7325494
276.8873587
297.7768037
248.4520607
216.6387116
219.8821576
209.1764781
173.3853973
148.0365457
153.9897417
187.8650383
238.0700134
290.9156741
347.1137301
403.4345644
420.580981
381.1868003
335.7344973
302.5471261
219.2726224
80.64238616
-18.02975229
-50.30910198
-108.6483596
-235.0268786
-369.1626892
-485.6171724
-617.1067124
-745.5500295
-822.271947
-864.7895465
-902.3788152
-896.6003562
-828.4671284
-762.3690315
-738.4830927
-714.9726836
-658.9275911
-582.8043569
-486.5638369
-358.7258578
-215.5595972
-78.99312634
46.03320181
149.9754913
231.1092664
328.2500208
476.1615184
640.8022546
759.6560502
814.7254344
809.3551642
739.5512544
644.5205539
586.7565332
546.3016171
459.3537144
354.9992161
310.1431251
311.26496
295.1940171
253.8956923
193.5723927
90.6462465
-35.1314884
-115.0526169
-139.9588527
-160.9605753
-181.2684021
-167.9221625
-140.4835324
-129.6426978
-109.012008
-69.37175096
-66.0116887
-114.34841
-149.8901307
-135.9736164
-101.7108802
-69.5810031
-44.88267621
-49.21661615
-85.36140884
-115.2140721
-121.031199
-128.3744283
-146.4570453
-154.4827156
-147.0466753
-117.7841922
-26.85282515
124.9640183
246.3334894
272.0498148
246.8527504
230.906015
234.8546238
265.0789338
308.5122883
305.5535728
243.0185494
189.2636419
169.7535406
138.3842019
103.0863403
122.1244114
172.752054
182.0737901
163.5450722
174.32144
188.9778449
155.9024737
107.5458373
90.95196913
77.9344666
36.2574398
-16.61744282
-83.67643632
-197.2284474
-339.4206498
-457.7912323
-548.167784
-636.9193181
-714.0195245
-753.8783712
-762.4615082
-748.6436132
-692.0576813
-581.6141004
-444.0437945
-314.8618968
-220.057456
-167.9258475
-124.172432
-49.93642271
25.37485628
54.68376866
66.06142137
103.0395759
142.3375788
164.4989423
202.9159214
256.2972927
277.6026618
279.1259638
313.2890336
357.7405812
356.1846222
331.5971225
328.4034528
314.6346296
259.6256782
206.0227806
168.1058641
92.4902983
-13.36383136
-71.56866934
-83.95452902
-124.1006288
-182.1472195
-180.035488
-115.3953065
-49.36582894
5.145423591
65.44005135
101.8735822
77.8266238
20.61760957
-16.80662773
-18.83880566
2.024604458
26.00281092
40.19686218
71.16265373
151.2755596
239.3610361
270.6182358
262.1276284
258.3628995
243.684718
210.29805
199.0736751
198.0187863
140.5133217
42.14566933
-15.07803404
-34.44528287
-77.04755638
-114.8781263
-84.49950494
-34.92576545
-48.30425862
-86.99222447
-79.70618093
-58.38201305
-73.52457641
-91.93043106
-76.109427
-47.25913906
-16.47207542
40.35569271
119.8371252
184.6071415
213.2053013
204.7601951
163.7350335
110.6098847
62.60668444
-4.788585701
-117.3242634
-237.7835442
-310.3605107
-328.9503784
-304.3834803
-237.7673319
-160.9803966
-111.0030051
-69.18459171
-15.44220764
16.22808455
14.06807624
21.61433081
43.52643879
37.4403248
13.41673481
15.45835283
21.34325627
-22.02756935
-105.4795895
-200.5629713
-327.6403152
-486.7247239
-606.3467341
-644.1383389
-639.1274599
-614.4312561
-547.4545274
-452.4408916
-369.3609598
-287.2178703
-183.8029463
-92.07985698
-39.46090415
14.58219101
112.8053105
236.1772088
349.0107766
441.3324866
500.392465
511.8994799
497.6425543
483.0505684
456.446151
420.0944033
407.7138215
413.0630208
403.1930122
396.9962041
418.6018543
426.2385467
389.5316016
350.2401743
334.2831533
311.8288918
279.6374421
263.3169939
237.3989247
167.8081295
102.4385495
92.00662654
83.33446669
19.66011268
-44.40155613
-48.75243828
-37.59078105
-65.73071041
-108.9449351
-128.267671
-123.6490285
-107.1560714
-102.2689854
-144.4253236
-218.9194552
-251.5122132
-209.6553832
-146.4425112
-116.0689017
-125.3829699
-175.6929251
-258.5034206
-322.6602007
-338.497324
-347.5706815
-375.9805142
-394.7261067
-408.0328383
-449.2628024
-490.1017398
-488.8389768
-474.9347321
-469.0299256
-419.8355643
-312.4669508
-212.4712628
-141.0473104
-47.86789134
60.43742041
114.4467651
114.9260101
129.7571378
173.5009143
213.5057669
245.9767083
266.4825577
247.9843329
215.0872004
233.9851464
296.0267552
321.3653197
283.1908736
234.1510288
224.4588621
262.8475162
330.2166314
386.0566947
395.9504678
373.9035001
354.6482137
332.4680072
289.0061146
244.2704326
204.3884839
129.5896808
23.65086331
-51.75911594
-88.19983203
-122.2439845
-133.6895428
-96.86594985
-69.62038823
-102.346288
-151.7445714
-171.7630758
-175.957988
-167.6157494
-129.5675418
-88.38112216
-77.71930098
-70.05565874
-40.66427547
-29.8824412
-57.20013292
-72.93908198
-62.40433251
-77.07685842
-124.6014594
-158.6121947
-176.4609126
-199.6890624
-197.9700432
-146.6535333
-94.69485156
-86.84522158
-97.12992155
-97.47817231
-101.5727386
-101.7377846
-57.08036642
30.36310165
115.8131629
182.9951136
229.699022
228.7472477
185.7573126
156.2493102
150.822874
127.7165925
89.16158327
70.68347634
67.42081429
67.93832913
86.20712756
94.48619573
36.41582344
-57.82837566
-100.7662216
-96.07195228
-118.352221
-166.0823319
-176.0500874
-147.2032736
-121.2595489
-93.84376152
-47.1518925
0.321255312
38.20673426
71.6198801
70.08978004
8.144072735
-65.15081152
-94.41572469
-106.6961246
-146.0846637
-188.3057801
-193.5081884
-168.0406796
-123.355661
-55.99235111
10.12849911
48.94160016
87.01098813
149.0599348
200.6367841
213.4588556
203.5041999
172.2132198
114.9165518
72.27724169
69.32717915
65.20963609
44.57900179
59.10365007
124.0712339
184.0953226
203.7011893
192.8345223
155.7436248
101.9699268
69.68676824
64.50027726
38.28571937
-13.04151268
-30.25468132
-15.91781739
-43.89788362
-110.2323665
-128.26616
-85.49347727
-53.79568862
-56.48473506
-56.40123452
-38.9307625
-9.232470158
34.72377744
65.50645788
38.52331289
-26.45440508
-62.52202601
-62.99411767
-73.98474457
-94.96004776
-93.48167514
-82.72530473
-91.93032074
-116.6721215
-145.1259706
-160.1357661
-131.2362905
-83.80860528
-100.5071376
-182.3995359
-228.087391
-202.4701883
-178.3805814
-181.6457346
-155.5314908
-89.81842542
-29.83949071
30.97728486
120.967814
190.8203451
182.7194191
137.0845183
115.3375142
107.954229
100.5665999
114.155828
132.2405184
108.4059302
58.12510796
37.80100254
51.51356026
61.87517168
57.07006025
47.95983958
38.73516204
35.88684382
47.87088098
62.8559605
66.75553645
71.70376228
83.12783923
80.70929064
71.29550305
87.89170922
117.0061305
116.1456275
87.17124333
50.61324467
6.521005965
-22.38102214
-4.032903702
23.60256112
1.070435782
-40.02145565
-35.36519105
-10.29374637
-17.92916566
-28.10640817
-5.157927307
-1.952397465
-52.3023619
-86.17536138
-59.66779485
-32.83350861
-44.41252257
-56.84364247
-56.68425921
-66.57954339
-69.09278302
-45.19056438
-42.31038707
-98.86998308
-169.1904112
-205.0148726
-230.3924515
-274.4649524
-314.7299805
-328.2194536
-320.0236834
-289.7298705
-236.0901461
-165.4120526
-55.00106461
113.2635461
276.4747714
357.5590751
375.2432644
377.7802828
347.0961825
270.5447311
204.2771852
184.3189314
179.1917357
171.652687
177.73434
180.3062973
157.4481531
149.6238356
192.6274213
247.7599761
283.4309676
321.073721
348.8058962
326.7750261
287.1769336
282.0238581
270.3951752
198.215896
112.8509923
71.10193572
28.7768091
-70.51831824
-195.4313942
-298.9785359
-393.8590606
-493.5066648
-567.3888421
-598.3875022
-606.4283823
-598.9788497
-570.2733857
-535.4962586
-505.6323791
-471.7432872
-444.058626
-432.7464161
-391.1736058
-268.2421422
-96.44621381
47.09920132
124.8194347
139.2613707
118.3420745
117.0675599
152.563336
158.126952
91.07067672
22.10896129
22.22040128
60.80480079
103.8619044
180.407865
278.4091288
323.1357003
307.0693956
300.6428205
324.479664
338.6649979
335.3400243
329.5033671
300.5646289
233.1545605
159.5994182
97.59852288
17.3547237
-85.55509544
-170.3228331
-230.6286553
-298.9885725
-367.078232
-397.8500961
-389.205449
-346.1363939
-256.8412121
-144.8345979
-54.66823832
17.9457094
98.07991462
180.6103689
264.0004251
349.5978747
391.2110549
355.2686373
308.1473756
328.8513241
391.21247
434.5866867
461.4384359
473.2258137
420.2745155
298.035709
183.392507
122.8360543
90.86451782
68.34467681
56.15424969
32.39322178
-19.33004776
-81.89029844
-146.872196
-218.0537572
-265.2500937
-253.3974111
-206.6251662
-172.8889433
-158.5655927
-164.432057
-222.6944846
-318.050524
-359.6791264
-318.7855442
-283.3670494
-306.6401971
-337.2641417
-337.2843415
-324.8700892
-303.9911748
-275.0612326
-261.3646612
-238.8118497
-145.2123765
-14.50134465
36.34193197
-15.08295073
-75.09006783
-90.79026841
-89.43523926
-86.56953675
-82.30592635
-99.94656129
-127.2663723
-101.9270373
-23.75864169
32.42660131
46.88162139
66.84490682
94.21584464
92.6333614
78.17467713
89.10146528
107.7965047
103.4558369
99.37873993
124.19067
152.7177469
154.658438
144.5379313
140.846369
136.2861739
129.706827
130.7374438
142.0071987
169.9832647
205.7327187
202.6979462
152.0504737
125.3649966
153.4659994
159.9638307
99.4801043
40.49944789
45.67370088
97.99245228
176.2041828
271.0739937
329.9299802
314.3677544
280.5752593
289.8391183
309.1079939
296.0316786
276.3507845
257.7944356
193.2054127
78.74860194
-38.07844374
-150.5669253
-269.129612
-345.8717791
-340.7379281
-302.5330879
-288.8106253
-280.0841516
-243.7524749
-200.1952094
-174.7327641
-159.2637501
-144.9293124
-127.9001962
-93.87726499
-51.67696428
-34.97423235
-34.72140712
-7.883467963
42.248733
86.48370496
133.0268054
182.5894741
193.329333
156.5094766
113.9179484
72.45790212
8.353252269
-54.9018461
-89.09428551
-141.9813789
-258.5221726
-382.6834811
-447.2435009
-479.8597938
-527.308
-578.7602046
-628.8861278
-690.5117867
-713.6261065
-627.0256188
-460.5866339
-310.1956119
-216.0200613
-163.1210975
-139.2052441
-124.7582421
-91.80542729
-47.14248126
-6.772549113
74.85823355
253.4930183
473.8348788
610.707843
626.3767726
585.0433448
551.3511163
561.7100456
620.3728903
670.5343701
655.5139737
599.8484534
547.5963086
488.0905142
409.5809336
327.6618401
228.8335205
97.03545081
-16.17684176
-61.50975649
-80.57829746
-120.316419
-145.970415
-133.3121042
-131.73917
-154.7310288
-141.088988
-80.48110587
-35.88287474
-22.5128967
-0.986013579
30.28624643
53.92284642
90.50237437
147.1527571
181.4151577
168.8649185
129.4686664
74.86910755
8.637692667
-36.69931118
-34.11771097
1.686073463
61.43093321
150.5705759
214.6686018
167.6159627
18.39792171
-150.4415371
-305.0026505
-440.977799
-523.9356341
-554.3755838
-579.7227472
-581.5585153
-492.1995254
-342.6420587
-240.2620251
-208.0873011
-191.4882955
-184.780926
-207.7278612
-213.9498952
-155.4977163
-66.12723818
16.96874848
106.9931555
183.0989445
191.3792936
157.0180478
152.3954076
170.0836127
162.9272098
154.7648999
186.4299766
224.5037976
226.7829131
222.7558563
252.6392963
294.9555372
302.1593608
251.0662057
148.2617015
41.35848718
-4.325783124
7.990081646
12.08501119
-6.06706608
-13.62736926
-35.42850544
-106.7736866
-174.30416
-186.5442721
-197.2043017
-261.0532792
-334.9755052
-366.2115948
-364.7006944
-342.4191177
-291.6357474
-231.9427807
-181.9460383
-116.1761786
-32.70613548
10.48760063
1.012228805
9.311559588
62.40319219
103.1130737
104.1961552
94.54427614
76.44460605
34.36570766
-7.643150224
-25.49555059
-32.92356588
-28.5353359
12.75769891
69.50335921
88.18933753
75.35346741
80.16863902
102.162999
116.3846269
146.2381584
211.8548061
273.3172898
298.2386109
301.5312466
297.5826562
301.8236168
340.8083306
389.1166628
387.6661465
360.6872363
381.8137109
426.2225369
412.8630408
356.8982756
319.4081353
274.7877611
181.1576736
86.71470794
32.45410931
-31.30809374
-127.6940196
-197.8609871
-232.416684
-292.9920285
-370.8436242
-397.7522316
-390.4899796
-415.2097144
-448.2503222
-421.6294706
-343.3831188
-259.4581808
-179.0187271
-110.1330706
-74.20958648
-50.47131159
-1.010914315
55.45594835
82.68269886
91.64984683
94.32595871
77.11064405
59.9022816
71.73880168
74.75163637
25.65053554
-46.57347584
-115.9822673
-204.6924177
-295.1979531
-338.3301418
-367.0884904
-444.9287821
-521.0479434
-502.9127462
-424.2300446
-379.822502
-364.0351879
-322.1295508
-272.8180783
-250.1776512
-224.687085
-171.8824559
-108.5746642
-27.36029981
88.07325488
200.0504782
273.0929513
336.7371851
416.0702467
482.6309973
525.2191369
574.451609
627.7923159
646.8109456
634.8994661
619.9529198
577.3302959
468.4742032
316.2628824
156.678233
-14.10212091
-184.5039553
-317.403657
-419.4567209
-516.791129
-582.7636161
-580.8638561
-521.7065569
-420.7650842
-286.3089319
-168.7155999
-117.1041599
-93.03048857
-28.40711071
65.52314091
141.3627412
200.4273122
239.9338901
210.1290391
120.0541276
79.0102161
153.7215015
289.9903259
411.4016328
489.2258935
517.7816566
514.1958302
517.7656376
532.0612196
513.2228775
441.5237122
344.8120173
239.4042668
110.5196709
-37.12810044
-164.0981138
-241.4810157
-272.8972215
-283.1695473
-309.8969424
-362.8218487
-389.1228144
-348.4647844
-281.3556521
-219.9536114
-128.7889754
-21.26365028
6.293251922
-63.6061325
-128.1796617
-132.6744387
-124.0368197
-124.970812
-108.0184755
-86.35457871
-95.40636913
-110.8730899
-95.33564604
-73.95762502
-77.80052116
-95.67943706
-138.5330535
-237.9600445
-353.7936982
-400.9074167
-364.0761452
-292.8334706
-221.8106183
-167.5585706
-149.2806084
-158.3456506
-150.4704695
-94.00233033
4.806426486
116.9753137
199.3966731
223.4663689
228.5935107
281.6406563
361.9380977
394.2508798
388.4207475
397.8163728
383.7477977
283.9376705
138.370493
13.815555
-87.16781386
-158.8204375
-168.2850101
-140.6061264
-139.7642941
-168.819144
-197.8095428
-240.2414494
-301.1317179
-327.5855653
-301.3365453
-281.6465794
-285.9514055
-253.0751782
-171.2109294
-99.34394007
-47.49386075
24.32146561
110.2590152
178.300573
234.731207
289.4602369
326.4545615
351.7307655
391.3017684
429.7474039
435.4178958
428.6280555
434.4096169
414.2384269
341.2581088
274.6831468
271.726546
309.9683136
349.8402076
376.7370119
373.7193912
343.2454002
320.5149047
308.4368506
274.0419386
226.5460365
200.1746239
175.1482501
119.3891666
64.86377971
42.92411033
8.893362005
-77.60100047
-174.1584959
-233.4322578
-276.068032
-335.8182191
-422.7621614
-554.6755342
-720.6987185
-836.0813543
-844.697011
-815.8952163
-835.1095016
-869.7783909
-835.2551766
-719.6362159
-575.3046918
-453.4337032
-382.8639095
-350.650471
-295.6657823
-183.9404076
-72.3086218
-33.56957295
-60.79205427
-103.1477042
-129.4851347
-114.3532744
-38.47953278
81.76625698
225.1785135
391.4615028
550.2888516
635.246597
625.4268085
559.7211757
467.3025392
366.3092636
298.3241638
268.4868005
212.5903793
117.9714428
76.64214324
125.2062496
169.4837168
155.6471219
155.8438691
216.158773
283.7001129
318.5106152
329.9530187
307.3871496
235.2762482
145.1916382
70.95887822
5.227503108
-48.12929416
-48.89680985
6.811547053
55.01962057
43.82459561
-9.354380841
-57.10305419
-66.9663482
-34.50394243
8.750636102
30.24433929
41.13194876
53.1517857
40.12299523
8.821876688
20.602635
86.96546919
148.9752561
183.0421914
213.74082
233.1121661
222.0848801
216.1584068
245.3948086
267.1646898
243.9829401
206.2956172
175.3356763
128.5925707
75.99275628
44.0736062
-14.52172475
-154.2947379
-316.4662287
-411.7257304
-451.6621989
-482.8553326
-491.6490564
-473.1703636
-489.6628847
-576.6992614
-678.0787248
-730.9156129
-738.1735301
-720.718451
-676.4209792
-611.3013254
-538.4269117
-450.0210722
-352.5805372
-281.5349881
-236.6248659
-182.1644114
-114.4760448
-38.96134776
67.69678067
192.2151915
278.4720338
334.7240328
419.8044561
510.4705947
522.6726943
451.2663368
362.3757393
289.9725624
246.7977697
263.5939131
322.8105075
346.3973623
317.6626502
303.8947817
332.6689903
373.4434877
418.9267851
457.892776
432.8704506
328.6748085
211.6173495
118.4703518
14.44603377
-110.8537867
-217.2565242
-290.9497984
-349.7762934
-386.3097008
-390.8533903
-396.3363176
-428.5849405
-464.9039302
-484.6348954
-484.4336861
-444.8032081
-376.3994712
-347.1371787
-368.5841172
-351.5650839
-246.4898083
-107.4919582
13.74225064
109.4738116
166.8451253
206.4725506
318.2292871
539.1866553
774.5612512
934.4799928
1038.492055
1114.118612
1132.97074
1102.17671
1072.483022
1036.005685
961.2747503
903.2645188
933.9169547
1013.104404
1040.809872
972.7062864
823.5141227
636.4012192
474.0794858
365.341401
266.2613585
136.5977684
15.03458494
-50.00229741
-87.42967749
-151.0628792
-254.9376212
-418.414806
-671.8036648
-974.5366666
-1236.584708
-1429.560286
-1593.281641
-1777.262047
-2026.002466
-2334.28644
-2598.423096
-2714.700116
-2707.763686
-2659.48162
-2571.330178
-2406.416052
-2186.974174
-1946.034295
-1672.487047
-1379.446381
-1107.762489
-812.061695
-395.8137984
107.210436
540.1715903
810.454966
942.6159224
1002.868925
1083.957786
1277.417509
1562.408363
1801.773833
1908.402327
1934.556918
1960.02305
1977.767959
1929.378423
1788.345107
1586.547408
1399.44336
1286.018102
1226.33527
1178.173327
1163.762349
1197.657631
1206.738558
1139.009332
1042.842179
952.0224319
834.1487393
701.97643
618.2956245
576.5274403
520.9941645
452.8603585
394.6148775
329.0182815
270.1210873
279.1220095
335.3549405
328.137538
227.2863901
121.0127827
69.68594901
58.5675499
71.94942641
90.35932269
60.66943241
-40.39040122
-167.4094216
-267.7156716
-319.5984445
-330.8868148
-379.988556
-600.2558651
-1027.773418
-1529.41504
-1958.482923
-2291.589261
-2551.266837
-2721.736316
-2806.774361
-2841.043377
-2811.8964
-2690.178936
-2509.822375
-2310.531061
-2076.979432
-1803.864265
-1517.381017
-1208.409808
-856.5755519
-504.6793543
-202.2311505
77.11608626
359.2873925
581.2318923
689.0614953
758.171817
912.7218504
1183.90602
1510.456236
1794.263342
1924.813942
1859.131665
1689.86097
1544.198297
1451.717763
1378.286522
1300.897763
1187.212202
1003.525937
788.0778122
627.1543768
547.7674787
511.1232906
488.0469042
465.8995645
427.0807996
387.8452237
394.097476
439.2093898
476.4704951
507.8622359
546.0138225
544.5576028
484.9144153
433.4652307
421.3273925
396.2493973
339.9281778
288.7069567
234.2309727
145.4330208
61.63930322
38.67453637
49.53663527
36.3637911
-7.696403324
-80.53031386
-199.5073904
-335.1562833
-425.769056
-476.1958832
-527.9440761
-564.9071632
-567.2328152
-582.4255228
-631.0779951
-640.6903677
-563.3919826
-451.2722285
-351.020693
-233.9165123
-72.74770256
111.4888056
293.4370615
443.3581548
502.8458774
446.5752522
322.8010535
171.7946326
-16.2363048
-236.3771686
-461.4729556
-683.4644629
-880.5075029
-1011.669406
-1094.849427
-1185.2888
-1265.521974
-1275.482971
-1224.238086
-1156.186017
-1067.813703
-960.7468672
-885.9966579
-843.5885529
-749.5782638
-577.8367602
-403.9267763
-259.4957586
-95.31437697
92.68835008
259.1752452
413.4852549
583.4648991
726.0439263
791.4546095
805.12806
803.328809
775.1819348
724.0479992
691.1463643
682.5653975
666.999118
658.2800949
701.4791469
783.7332948
854.9541905
904.6659316
934.6799338
915.9183452
832.9613871
705.3597848
552.9248803
398.249706
265.7940055
141.85585
3.944497379
-111.976893
-161.8054515
-176.5633052
-207.6049625
-249.5180722
-290.7502701
-351.6910131
-409.603126
-399.8091055
-345.8827592
-349.8786168
-413.0219519
-428.8095121
-369.5529989
-304.8254045
-252.7563353
-181.3048515
-112.2381627
-84.66097726
-73.78196682
-41.34408641
0.320115437
32.22625099
65.53800203
104.6082163
143.1507581
196.7832
267.9672059
313.7611309
317.9333428
324.7550742
353.2784365
380.5549451
414.0648795
462.1577466
482.3074978
462.7818828
452.8590246
444.5673243
365.4282532
214.2308563
52.44906576
-116.0288807
-304.9454072
-449.9234235
-498.043882
-508.5198112
-548.1147854
-596.8456925
-640.0921929
-712.5989179
-795.0200531
-822.3126783
-810.347645
-814.8282478
-795.6756468
-680.050404
-504.6439157
-364.51064
-288.0940955
-253.2093234
-246.2866051
-239.176122
-183.0521241
-71.95889522
47.44423696
146.3252414
237.1963627
329.7195602
413.4186529
471.7216684
492.4217352
494.3632395
520.4309806
557.3812377
533.5165673
445.5467594
377.5904488
360.7054784
347.7822217
330.6379303
337.8411012
341.9732943
300.5674203
237.5040417
181.297419
103.8206088
3.36934785
-48.71238187
-11.99648078
70.91222775
162.4687306
259.0055392
320.9627531
291.535174
179.5807988
37.32044999
-101.6821765
-207.3488756
-253.7447827
-270.6224615
-314.7799184
-383.8792052
-431.5504937
-448.1140054
-458.0427306
-468.6369994
-479.8730383
-501.8633684
-514.8036778
-474.4679916
-390.0769866
-314.9993945
-256.4682893
-182.533847
-84.47693804
39.80840097
200.2013932
376.5304697
540.3146105
699.0677028
842.2448839
903.2638037
860.2122565
792.4497214
752.1545088
676.9385442
511.9596152
310.547197
139.9809465
-4.680661967
-148.749272
-305.9827987
-498.952464
-714.2914589
-883.5613391
-980.8856818
-1047.402628
-1076.545783
-1004.442735
-841.4710518
-682.372392
-576.4148077
-497.1886552
-420.1789596
-334.6660348
-219.5530455
-84.52555009
23.39629361
102.1485691
194.1162738
289.0488355
351.4387228
424.9878937
570.9693361
753.5846723
900.7354711
996.3789804
1045.130951
1048.863634
1041.229282
1042.552446
1002.231972
880.8000411
729.1407594
602.8073116
488.4065428
380.6592313
312.0490647
256.2506634
141.2380075
-15.92229074
-132.7725724
-203.4868726
-270.7919915
-319.2739381
-336.0926989
-382.1616048
-487.260126
-582.8438949
-615.4463126
-616.9031946
-623.8957831
-633.9482747
-654.3352822
-695.4715521
-716.1135284
-663.6191015
-555.7234757
-453.1045536
-387.1641636
-358.9767006
-352.5394772
-340.7611739
-332.0801423
-361.6896283
-397.9883377
-363.7151595
-274.0707977
-224.994207
-245.5709401
-286.7587591
-319.4439555
-329.625702
-279.7635433
-168.7482726
-51.06509793
59.36246542
193.2334825
308.8944938
322.6596779
268.5855836
261.2658828
312.2777915
347.325282
354.8254989
367.76989
375.8635931
371.8474909
394.0156367
450.1978812
494.1137575
509.9849801
526.5343878
541.3665417
522.6102917
474.729911
421.5010934
358.2438798
292.9797429
270.9765063
299.5209358
333.4044461
361.1208848
409.9935082
478.9644505
547.898173
606.5473265
630.5192694
601.1859694
553.2746161
523.8821196
488.348729
417.4788732
329.3964805
225.4530569
70.95990613
-113.7952776
-255.8669791
-348.9918495
-449.5512756
-561.1470208
-655.2340809
-764.1455191
-916.7067992
-1049.71925
-1106.819699
-1140.193135
-1216.552048
-1312.278387
-1372.217371
-1388.703791
-1375.988487
-1339.866802
-1299.045341
-1272.242848
-1236.068633
-1148.767429
-996.4648042
-774.2270143
-477.212508
-144.212837
166.2547012
447.9771397
715.6892778
943.4058572
1107.728401
1224.25124
1302.784078
1351.150202
1414.503828
1513.907074
1588.548075
1591.136114
1570.123207
1578.150833
1588.586474
1560.891084
1483.334195
1318.542483
1030.195767
675.1252996
346.2562482
54.33633181
-218.6799739
-430.9908504
-554.0833365
-630.4325311
-689.142585
-719.4566856
-744.6774385
-796.3556251
-833.9039703
-811.0654069
-778.9438789
-809.8099543
-876.2980306
-914.1194515
-932.5928901
-955.4251364
-937.0194338
-833.3988998
-669.2503286
-488.7053749
-327.6567565
-215.3286619
-124.8281345
5.517985699
154.1145475
228.520263
209.7143876
165.5869875
140.5994779
142.5811954
191.0826519
279.0868446
341.8220643
336.9737463
296.2886559
261.5363162
248.1725453
276.1538227
335.0413947
341.5158271
236.4580548
68.65660093
-98.41374025
-259.3071126
-391.3848014
-448.2945858
-467.0157885
-535.7194298
-639.9012289
-677.9536683
-624.209023
-551.9560828
-513.2420571
-501.6287343
-501.8161943
-494.6323828
-460.2369132
-411.2421234
-343.8884652
-179.7187904
126.129167
477.644206
752.6772223
935.4917552
1062.237773
1155.871484
1248.072075
1339.24216
1352.684734
1250.048153
1132.196862
1111.225371
1166.706641
1218.065982
1228.252673
1172.886235
1042.933139
917.6264422
895.8372384
955.521507
1007.061324
1028.870766
1025.977662
935.5022437
682.139293
259.0048575
-296.3184437
-921.9068695
-1512.06143
-1969.959569
-2283.769679
-2486.793482
-2585.20994
-2589.149376
-2539.452264
-2442.248139
-2269.729064
-2052.846836
-1854.446951
-1659.713757
-1411.399163
-1099.255042
-726.2156279
-292.2728483
130.7742357
441.9444915
656.7167652
892.6269454
1225.938877
1639.351538
2026.588413
2195.275975
2010.077496
1590.635529
1218.008429
1014.636694
864.7204646
630.6486678
277.5687108
-173.3273276
-642.2302373
-983.180148
-1109.191817
-1080.793941
-1003.214279
-899.8815523
-726.1679171
-458.019802
-155.4413489
46.92881899
53.13334669
-71.16155566
-147.9276228
-76.41610827
95.35714555
283.903197
441.4080774
516.4961944
488.1217838
444.0760215
501.6668428
673.5124694
898.2593727
1132.804996
1348.064941
1513.363295
1614.707031
1625.206543
1488.796536
1201.632929
849.929302
511.5247975
199.6630487
-60.40061641
-203.425212
-207.3562718
-110.9540408
51.85366323
246.2669793
412.0755461
527.7145846
613.0651359
624.5655593
492.1678056
279.9226043
124.9574393
4.749369814
-245.2871934
-677.3877796
-1169.308243
-1613.459502
-2013.880859
-2403.950341
-2810.830573
-3301.14926
-3935.385321
-4655.448909
-5284.572837
-5650.993261
-5715.750346
-5597.614211
-5438.475387
-5244.688873
-4918.674445
-4390.376317
-3622.779322
-2582.585837
-1326.777264
-22.82044302
1216.446669
2407.718303
3538.763783
4485.784524
5174.591898
5687.828102
6146.768768
6604.779508
7057.062054
7415.484875
7517.606878
7299.152277
6879.267565
6380.924274
5804.696504
5154.101974
4519.108963
3960.472044
3443.491124
2921.072481
2375.330471
1788.240176
1173.637108
609.9276897
165.4185238
-156.1549801
-362.1403812
-471.2426236
-589.9488187
-852.8861089
-1265.799206
-1707.603642
-2065.971676
-2314.350069
-2518.177892
-2782.993174
-3129.412347
-3452.898946
-3659.286246
-3752.106781
-3749.643798
-3643.546133
-3461.23113
-3234.812769
-2948.657576
-2703.595475
-2841.969403
-3615.591557
-4751.687921
-5622.879266
-5846.696835
-5530.10691
-5016.134616
-4595.120458
-4373.584919
-4238.46699
-3976.953081
-3493.782217
-2854.318855
-2128.460091
-1308.200518
-383.5458019
597.1645126
1555.286097
2427.181986
3211.060284
3998.40112
4901.184752
5921.964009
6940.191701
7797.110482
8350.701286
8537.707813
8438.144423
8193.358141
7857.214111
7405.717465
6810.109373
5985.645642
4775.645879
3124.160649
1200.2677
-727.178435
-2465.439984
-3915.499639
-5036.016382
-5859.077815
-6457.660708
-6871.479018
-7142.711915
-7366.959465
-7569.141038
-7593.928662
-7257.234381
-6544.201279
-5578.820155
-4504.493286
-3458.970144
-2545.778762
-1756.323293
-998.726085
-230.8934697
514.8911136
1234.260257
1977.195183
2768.354628
3557.191542
4208.766007
4536.886597
4466.580986
4179.035255
3971.940441
3981.735703
4119.98318
4200.157297
4051.054185
3618.87355
3040.956104
2549.998667
2284.708841
2243.620731
2366.484147
2566.221736
2724.996889
2749.379606
2632.036278
2449.661889
2313.117469
2266.147517
2188.707074
1886.563892
1325.75148
665.2910756
29.24437041
-611.6877944
-1318.487956
-2080.650319
-2822.190931
-3401.757028
-3653.580124
-3518.04147
-3085.155656
-2477.870758
-1774.678857
-1057.14319
-419.3874416
108.8272333
578.5627672
1049.088149
1508.428552
1780.109381
1515.840301
480.4341323
-1102.866279
-2674.870016
-3839.82807
-4601.24994
-5160.205689
-5667.774664
-6142.228825
-6489.456997
-6628.283277
-6624.471873
-6593.177569
-6475.955631
-6085.300907
-5367.792836
-4459.39826
-3524.687486
-2696.930365
-2074.028027
-1607.714111
-1095.467455
-377.4857061
566.3746275
1696.633509
2908.196235
3982.190955
4731.077057
5154.886727
5329.721643
5246.817599
4888.156444
4333.50907
3677.690982
2977.994923
2353.512061
1957.340575
1785.823675
1679.696831
1547.884396
1470.320345
1592.219128
1986.193041
2573.050696
3155.81097
3579.076358
3825.555137
3923.890224
3862.713458
3657.218447
3386.823125
3094.71081
2741.166251
2292.089453
1767.854574
1217.710655
743.1992454
489.9861329
490.0444504
563.4588272
482.6085725
187.2518388
-214.2921258
-585.8708984
-867.8963173
-1088.228698
-1280.417202
-1396.568541
-1360.26068
-1202.659464
-1048.916754
-953.5943732
-851.2676731
-694.2695158
-545.5852038
-513.1311598
-652.9126881
-910.8679572
-1121.558017
-1159.994186
-1126.423776
-1244.730252
-1580.053066
-2009.823846
-2408.89385
-2685.690453
-2731.09276
-2505.298045
-2090.340317
-1569.714276
-990.4245417
-471.9931251
-167.498478
-105.0442085
-244.1795823
-647.7463435
-1401.699932
-2405.378535
-3401.098665
-4162.213073
-4570.517535
-4636.312653
-4530.966285
-4462.315157
-4433.178389
-4232.989292
-3712.551225
-2959.602918
-2174.897798
-1475.064052
-852.9805552
-260.0743651
318.6422114
853.4903453
1318.487702
1728.432593
2092.529393
2383.274557
2627.569896
2941.882137
3384.688958
3876.680291
4301.640364
4540.641219
4440.351351
3951.401178
3271.37116
2692.040716
2362.144861
2295.293188
2475.186368
2829.222613
3208.648508
3489.475317
3620.61615
3573.876891
3366.766382
3110.643281
2916.283954
2792.219713
2693.82774
2562.725168
2298.084781
1848.713204
1330.828781
892.2748323
495.5105263
-12.85070313
-673.5129324
-1382.024176
-2016.432634
-2510.60747
-2878.586949
-3199.174905
-3476.591097
-3545.707212
-3260.519848
-2713.796024
-2112.881355
-1534.172425
-935.4131338
-285.7791549
406.9514973
1079.290032
1619.002392
1994.217894
2250.915413
2231.197245
1511.435391
-119.1084534
-2278.203646
-4316.450025
-5868.450155
-6918.918483
-7548.567788
-7829.778968
-7832.748635
-7591.279252
-7134.233078
-6540.526201
-5846.14013
-4960.655603
-3795.993221
-2402.903856
-920.2619964
497.8968113
1691.051791
2584.117977
3291.983083
3995.54774
4717.408295
5356.055051
5916.864074
6538.13387
7243.915106
7763.313469
7664.848867
6731.002814
5232.485167
3737.438221
2599.191043
1763.291236
1085.513946
600.3296357
400.353723
456.4042282
657.8768307
943.6013095
1358.677576
1971.7635
2671.043032
3117.33008
3077.18719
2734.230538
2454.438865
2323.563278
2155.343822
1854.163362
1492.752799
1110.425168
692.2427177
279.5247392
-123.1678537
-698.9435963
-1678.205986
-3035.31239
-4441.310756
-5535.140049
-6169.448847
-6398.598558
-6344.517503
-6169.161025
-6157.691916
-6683.727352
-7889.65277
-9355.712878
-10287.50101
-10179.95861
-9220.375992
-8009.484636
-6988.925149
-6141.764001
-5174.161294
-3943.336576
-2604.743603
-1298.049325
96.39740725
1717.029527
3418.378149
4906.055554
6046.79192
6888.90188
7500.304128
7938.915959
8292.695128
8625.4624
8933.543867
9188.874692
9337.341546
9259.797587
8842.928342
8087.579697
7097.489374
6018.099858
5013.326503
4194.413352
3518.462656
2839.728555
2076.662107
1235.530674
302.2463364
-716.9041177
-1637.068807
-2176.498748
-2293.848383
-2341.744485
-2777.675174
-3695.272592
-4685.675584
-5252.059035
-5331.086309
-5267.259558
-5334.595649
-5487.565892
-5532.092318
-5340.819413
-4930.206252
-4438.09169
-3964.921192
-3418.693584
-2639.620146
-1656.623959
-665.1973784
216.6714153
1013.718249
1753.487342
2415.402352
2998.645269
3528.950824
4025.128381
4506.360006
4945.738233
5183.11471
5017.596323
4460.235408
3801.739212
3362.455969
3214.17049
3155.834342
2916.17137
2391.931379
1727.635027
1133.997325
626.7128097
43.53158037
-681.003682
-1435.408451
-2172.559908
-3049.579206
-4232.476685
-5629.027278
-6856.247054
-7531.457288
-7672.298332
-7702.029006
-7936.257264
-8217.635468
-8189.621838
-7730.091151
-6960.342242
-6020.005656
-4988.458653
-3888.423699
-2681.038745
-1382.730596
-178.0260918
764.1430471
1541.649533
2375.495802
3278.049827
4074.04072
4674.426935
5132.710261
5484.581182
5678.861393
5652.588982
5417.390788
5079.323015
4762.025482
4495.472177
4218.556234
3891.703718
3545.018357
3229.113301
2996.635662
2896.886725
2905.982187
2941.333865
3012.10091
3190.844988
3364.401113
3236.93703
2669.714039
1834.44227
1002.939123
330.9960159
-185.9473051
-655.5401648
-1132.96452
-1493.799934
-1568.467911
-1386.845505
-1141.099761
-932.1843417
-721.5228451
-506.7033818
-357.550783
-284.8310662
-241.1660347
-242.4393525
-359.1364541
-611.139232
-935.8468951
-1206.754164
-1288.265611
-1175.523213
-1057.872744
-1140.886545
-1445.200583
-1855.168594
-2277.170105
-2659.710986
-2948.377235
-3112.340428
-3152.224544
-3047.138196
-2774.715629
-2375.334399
-1907.097263
-1389.26386
-862.5420592
-402.4648329
-28.40698022
272.6352271
425.3090862
281.9693405
-265.912054
-1219.046106
-2397.072595
-3441.597463
-4054.160857
-4223.619475
-4110.852652
-3817.583376
-3415.732141
-3053.629124
-2815.731697
-2569.826484
-2132.50745
-1494.575383
-757.1059486
22.62072379
816.4860179
1603.264419
2441.24516
3421.757643
4494.007262
5474.86258
6281.11026
6999.174097
7640.271748
7970.236246
7718.883912
6898.475661
5825.745925
4837.668092
4002.07495
3129.37062
2083.00968
979.8078621
26.56146748
-699.2209285
-1238.258177
-1655.493519
-1986.448552
-2175.935484
-2109.945019
-1785.764035
-1362.042109
-994.9510107
-749.0708548
-674.1556276
-781.5854475
-910.8974823
-804.4771726
-377.7976021
187.2810891
598.6088028
616.9530772
180.751368
-486.227407
-991.8452371
-1120.778394
-986.1961487
-807.0358735
-676.1044133
-591.7377382
-573.3578355
-661.5098507
-861.1220222
-1107.637535
-1249.4251
-1100.095341
-586.5963497
177.1512884
1002.248249
1731.614866
2194.910847
2186.927272
1616.267323
666.5005857
-262.4258182
-851.2665572
-1121.430154
-1333.939047
-1649.378423
-2032.418308
-2459.833409
-2983.944979
-3561.94007
-4038.049038
-4331.534802
-4495.171956
-4602.24641
-4679.615459
-4679.185812
-4433.65127
-3773.851503
-2776.516582
-1727.858337
-762.8439783
261.6063712
1463.770485
2712.777037
3767.151853
4459.96814
4723.038018
4607.201444
4325.383516
4145.477045
4184.121842
4362.918637
4552.381279
4657.735392
4575.468304
4204.078632
3544.868889
2721.688769
1866.779532
1005.290004
95.32012128
-782.2266825
-1371.552314
-1509.572393
-1341.497822
-1120.562727
-930.9411418
-752.1997876
-618.916578
-560.8881174
-539.5239764
-560.854767
-719.9630856
-1066.399349
-1553.090305
-2147.803353
-2853.399811
-3583.632487
-4122.470572
-4222.503374
-3734.798995
-2755.549876
-1676.578626
-930.1744441
-610.724949
-437.8743528
-85.07363491
551.8804124
1359.473113
2144.835776
2763.205301
3172.216892
3384.406149
3407.148446
3278.417645
3101.452927
2957.214503
2850.125259
2803.394981
2845.273392
2798.588868
2304.440436
1212.291145
-209.434335
-1516.127851
-2385.311768
-2708.984936
-2616.4
-2425.843787
-2424.064002
-2667.201151
-3024.342221
-3324.430751
-3421.414414
-3262.49174
-2965.31973
-2695.609577
-2434.332291
-2007.719242
-1345.132697
-560.586204
212.1710482
943.7122294
1657.402757
2315.128797
2794.133761
3015.693642
3077.343168
3152.773592
3248.07322
3194.930833
2920.989275
2562.436417
2238.755711
1890.781798
1444.593201
966.6245224
538.0316045
117.4227283
-368.2697647
-898.6549595
-1406.545757
-1905.74879
-2504.283171
-3255.597445
-4042.313307
-4694.822981
-5182.860296
-5563.218412
-5787.294711
-5728.571791
-5368.364016
-4781.537013
-3978.907104
-2952.38901
-1828.378004
-772.0445745
216.292929
1232.139584
2271.687315
3253.832478
4134.100109
4895.791791
5546.578002
6155.135929
6724.50929
7021.162835
6744.801257
5926.100258
4974.728846
4264.590532
3813.661953
3411.790011
2901.578038
2247.918908
1437.733685
451.3631076
-610.1829546
-1454.420013
-1816.245463
-1739.903392
-1499.391403
-1289.785321
-1140.252029
-1021.408862
-867.9769966
-574.0839103
-77.94077913
589.05738
1326.395111
1967.705645
2344.261834
2456.033614
2500.756097
2661.436244
2976.107207
3426.904516
3907.344184
4010.930234
3157.345012
1140.996184
-1623.659019
-4511.340113
-7144.89895
-9389.914227
-11147.53768
-12327.68495
-12940.14494
-13100.18455
-12945.30546
-12552.80024
-11904.19874
-10934.3267
-9644.783138
-8140.92312
-6530.070293
-4827.036502
-2972.346219
-904.0809661
1369.201313
3738.55637
6042.593053
8076.892187
9534.302264
10126.6981
9878.209816
9132.587621
8210.929739
7249.71537
6366.824205
5715.598975
5313.593719
5012.68854
4682.5561
4294.642283
3843.761333
3325.712107
2768.869902
2183.264962
1549.837904
948.2323222
569.7748652
506.4097546
650.968341
863.9812279
1091.768335
1268.528935
1253.6625
963.965351
508.4376126
122.3845975
-37.03035193
-15.48317332
28.9185799
36.31357323
110.3497823
339.5119642
643.4557632
863.5534216
907.1202355
756.5928036
455.9137607
118.1771333
-138.5539665
-251.0593162
-201.766966
-67.1832135
-54.68457696
-303.3235395
-677.4933146
-962.3646521
-1192.952564
-1566.174685
-2130.440045
-2796.860622
-3537.505737
-4338.414506
-5064.213088
-5551.811708
-5736.801913
-5618.813307
-5271.385555
-4893.275944
-4641.117858
-4439.662733
-4139.790445
-3756.528046
-3366.843008
-2921.180129
-2346.681809
-1709.409209
-1121.233288
-583.641911
-7.744937686
709.0305459
1639.440729
2725.104129
3732.867565
4442.885501
4838.619965
5031.926712
5111.191809
5129.634993
5123.090387
5097.334193
5069.505631
5087.149718
5154.119806
5214.70664
5226.357467
5141.839374
4851.901662
4291.936648
3557.403567
2761.161143
1859.660646
791.4287081
-323.2551039
-1312.577723
-2172.921192
-2989.522948
-3757.741532
-4423.690729
-4987.178915
-5462.579482
-5828.515641
-6054.059873
-6103.54485
-5962.309242
-5739.854633
-5616.863164
-5552.521724
-5208.454382
-4345.07352
-3138.224529
-1936.728379
-872.4879037
141.2599332
1173.598662
2169.169783
3024.041989
3711.214826
4291.864594
4780.78944
5096.342743
5200.810987
5156.317505
4971.868597
4531.207206
3727.393269
2567.293924
1155.171652
-325.5792906
-1672.579234
-2811.210016
-3808.513454
-4675.127552
-5284.792042
-5549.936407
-5502.027373
-5151.707171
-4490.219153
-3676.293286
-2973.860955
-2428.41704
-1815.076189
-974.0103091
-9.476425894
911.7110776
1781.643483
2671.169448
3557.460486
4330.662538
4896.231881
5213.93288
5292.147102
5183.861115
4979.707071
4779.677753
4612.319941
4378.271994
3965.736521
3431.126801
2967.318013
2681.371152
2464.014628
2072.298597
1334.764873
332.9213518
-617.6500141
-1234.66558
-1508.100562
-1607.560333
-1614.031932
-1480.714553
-1222.143324
-971.8381561
-836.3603302
-802.8134601
-783.2563457
-688.6222904
-498.7499349
-276.8759633
-61.04885882
216.7116183
628.2438685
1141.455371
1682.433267
2188.09643
2514.989865
2425.154635
1780.229601
693.1354847
-562.3153996
-1734.714791
-2701.416015
-3510.61085
-4336.297249
-5321.911251
-6475.932783
-7701.666289
-8816.211321
-9573.574642
-9828.18725
-9655.204314
-9212.539244
-8568.944873
-7725.757286
-6659.557149
-5291.76022
-3586.730042
-1722.55482
11.61389053
1514.85095
2901.92207
4262.322331
5592.206957
6883.437066
8036.882146
8771.019191
8833.725484
8250.626746
7281.369573
6221.576085
5222.755596
4174.983796
2838.922632
1217.667882
-305.19961
-1297.544623
-1641.183442
-1518.064752
-1194.444143
-901.0126527
-789.191869
-874.8408288
-1035.183707
-1091.816613
-913.8430008
-489.0888058
103.7595175
812.2971715
1611.174303
2358.366515
2844.887017
3085.504369
3363.83457
3877.546742
4495.728807
4934.639424
5041.387918
4873.581822
4594.603711
4289.260845
3845.834102
3098.048233
2111.90432
1190.292071
550.2190855
158.2870318
-90.58630422
-221.9646197
-240.4313719
-188.9074089
-136.4399492
-179.5417147
-396.1340829
-734.0566146
-1015.937653
-1110.211927
-1066.759313
-1095.490648
-1445.87915
-2217.259545
-3181.876541
-3904.023973
-4182.777337
-4262.328704
-4476.594702
-4854.156089
-5190.032114
-5306.824731
-5141.367323
-4765.948434
-4419.10466
-4381.293025
-4755.780388
-5429.550599
-6222.883604
-6992.107964
-7606.825089
-7911.653354
-7754.63072
-7082.687071
-6016.001374
-4769.104773
-3480.892027
-2195.61238
-977.3670485
114.5495856
1140.567622
2183.43291
3153.641928
3879.878258
4397.895329
4999.160363
5943.72024
7162.165184
8254.790242
8804.892889
8714.91128
8218.834585
7590.136752
6924.277503
6197.295047
5399.541576
4566.86852
3795.206099
3247.617635
3024.333085
3039.233673
3144.169427
3295.733375
3486.073117
3658.628835
3798.856036
3922.946855
3903.886509
3521.005703
2734.967776
1715.019985
587.9634418
-619.9478989
-1789.458713
-2689.449105
-3191.311785
-3346.475377
-3273.137002
-3098.167604
-2940.696872
-2837.11053
-2740.848772
-2619.084186
-2459.183102
-2220.939885
-1905.748841
-1619.324942
-1458.434063
-1418.374461
-1504.341172
-1794.623199
-2258.98389
-2657.64623
-2787.869798
-2741.346852
-2808.140177
-3196.951699
-3869.34355
-4560.108374
-4983.604323
-5076.8895
-4986.906778
-4837.42835
-4612.982088
-4217.474641
-3540.055778
-2544.16677
-1358.693868
-159.9533138
1054.45227
2397.14345
3798.771607
4995.947559
5804.1701
6190.372192
6113.853095
5540.511908
4612.766895
3624.730738
2826.693194
2310.08136
2000.651178
1730.781116
1401.409029
1067.351204
803.1844722
535.3457103
74.60177088
-690.369674
-1615.505917
-2313.178694
-2449.406946
-2096.924733
-1690.381685
-1569.977379
-1694.926322
-1858.217459
-1983.333431
-2086.600732
-2145.376563
-2167.910715
-2250.099659
-2431.24971
-2588.531167
-2542.255095
-2203.837403
-1605.683944
-822.000304
131.4653227
1274.527173
2502.523234
3557.324908
4268.492043
4718.936841
5057.451576
5298.521509
5437.869663
5555.789978
5643.748034
5543.537526
5188.681752
4693.343509
4129.394839
3422.224959
2518.455422
1521.78402
647.61156
77.13453104
-211.7759475
-471.5902472
-940.0100011
-1583.159704
-2192.391909
-2682.388874
-3138.465576
-3619.620248
-4100.717846
-4580.379833
-5076.903265
-5539.363442
-5867.616888
-5977.541069
-5820.328965
-5417.554069
-4861.051641
-4199.528334
-3384.543472
-2411.249974
-1436.563128
-656.5054658
-103.5873923
357.5922052
854.7449009
1384.745906
1849.827888
2167.884492
2328.170928
2335.12359
2143.848359
1738.417346
1247.484542
872.9594082
740.727469
912.3915144
1427.114983
2186.101256
2920.876735
3444.401906
3817.118887
4098.029252
4072.43698
3462.004237
2345.918657
1177.522241
403.7987453
166.3988669
296.6838372
505.2059671
601.7666142
555.8006293
388.7026408
123.2658048
-174.089457
-443.2335269
-718.8610569
-1056.226088
-1391.122122
-1567.026398
-1499.238435
-1282.012207
-1137.672713
-1236.182712
-1539.859861
-1861.632654
-2088.622735
-2279.061466
-2532.028619
-2878.453808
-3320.886077
-3832.858661
-4278.982492
-4467.163918
-4311.241661
-3871.077623
-3283.974819
-2724.429332
-2311.422953
-1944.707827
-1348.412955
-391.9958791
726.9458747
1681.874871
2267.850829
2434.076675
2278.715141
2081.01945
2169.988688
2693.95204
3556.672992
4507.337596
5269.65742
5686.392227
5730.11143
5363.704465
4593.862572
3710.589428
3160.299127
3057.249934
3100.688836
3059.265446
3035.231024
3148.306983
3233.252369
2993.961448
2307.492831
1306.678891
268.4173199
-563.3765448
-1130.459531
-1550.005814
-1952.367573
-2382.063888
-2830.574549
-3276.77679
-3702.208646
-4113.620281
-4542.67117
-5023.072786
-5566.471742
-6106.53184
-6453.45869
-6380.366287
-5796.289623
-4798.168791
-3581.188132
-2399.274851
-1544.297044
-1124.802453
-855.641704
-317.0416754
561.6262678
1511.509797
2374.812499
3256.494246
4216.33718
5059.892841
5519.825046
5550.752762
5395.886579
5337.986317
5367.149269
5187.801739
4625.891468
3883.07106
3245.928675
2694.305702
1986.989815
1016.678351
-99.41707704
-1189.926413
-2162.223789
-3049.870897
-4001.705977
-5145.284873
-6416.397514
-7561.19576
-8309.148958
-8543.679864
-8345.288084
-7872.37491
-7183.217597
-6222.615195
-5005.102487
-3700.264538
-2456.208139
-1254.682853
-41.21895713
1139.539502
2250.952434
3359.870872
4524.605018
5695.625375
6730.919942
7399.032342
7454.508886
6859.630346
5855.639507
4735.428881
3669.320678
2793.237565
2277.410963
2199.990774
2449.685967
2804.174201
3064.425199
3165.244254
3216.838247
3355.033235
3522.724651
3525.850226
3287.567924
2878.731689
2334.582099
1589.675418
524.1153695
-1000.510225
-2981.809258
-5078.061883
-6768.789419
-7782.446647
-8187.833143
-8082.207638
-7470.155309
-6482.573378
-5411.636219
-4417.708799
-3393.162145
-2177.680691
-815.6298465
387.4419395
1097.499687
1362.026039
1661.943821
2353.084491
3217.590859
3753.9811
3688.01463
3035.383365
1928.61
568.693335
-824.7713556
-2105.1948
-3137.645026
-3724.610466
-3776.280023
-3465.933594
-3032.93883
-2515.085932
-1801.433162
-844.6330863
250.0792058
1246.075427
1896.050574
2159.668541
2269.523969
2504.48519
2957.637064
3559.862614
4219.175153
4851.410983
5320.723313
5436.083994
5061.79608
4265.034124
3334.11365
2550.698574
1905.06442
1153.236071
189.0423287
-807.8677025
-1628.728463
-2255.859769
-2791.610827
-3309.956189
-3801.264147
-4202.427678
-4482.965041
-4670.77541
-4749.671655
-4622.268795
-4255.442198
-3764.920371
-3284.909977
-2853.735906
-2456.909259
-2041.322547
-1464.22315
-605.9547944
416.1107275
1298.00702
1843.216117
2087.846702
2172.073885
2236.784844
2406.039896
2713.299261
3035.586412
3179.016892
3029.114124
2624.102498
2155.177619
1873.132257
1870.284976
1960.426545
1886.192212
1599.105474
1217.575591
804.8842613
340.9946311
-157.8938102
-608.6321058
-922.9136611
-1082.728654
-1172.183024
-1282.865094
-1395.715888
-1456.686362
-1510.529094
-1590.991226
-1553.575072
-1235.730914
-728.4016345
-281.5767699
-3.223135997
166.0544027
276.2667214
335.9140015
346.2534176
255.4453734
24.40820853
-210.9541582
-222.262194
55.25087199
507.4141076
1025.846423
1543.379803
1944.824244
2077.609968
1828.992225
1169.25918
194.2905897
-866.0241027
-1741.381709
-2223.316422
-2218.508323
-1840.779638
-1422.676411
-1224.444496
-1152.715397
-995.5014682
-843.7105509
-976.3944499
-1399.930674
-1771.022265
-1712.28568
-1055.050176
57.03684647
1156.804849
1734.708914
1665.268511
1228.637509
727.9674004
308.0121538
102.725129
242.544654
656.6888945
1085.908026
1322.564312
1321.448177
1160.202424
1016.680259
1072.044341
1328.365071
1614.24869
1793.57693
1846.812208
1771.710507
1557.902012
1237.234296
821.8744832
222.1287811
-655.6077949
-1752.731009
-2874.983535
-3825.845318
-4481.450845
-4795.858728
-4802.968288
-4629.059349
-4460.539564
-4392.432757
-4287.399354
-3925.333187
-3314.907963
-2648.13279
-1898.887231
-742.1957398
970.3643685
2853.633862
4288.567077
4987.151367
5158.705437
5218.479551
5424.007317
5706.370355
5776.370001
5443.378024
4829.93173
4214.138152
3723.818775
3273.569241
2732.203791
2065.993188
1361.494935
757.4920649
341.3765425
105.9055724
-16.3692756
-131.3849366
-373.5461629
-820.9202957
-1399.902821
-1939.268632
-2321.446725
-2526.458068
-2581.10906
-2567.120512
-2622.239579
-2828.178193
-3134.413935
-3427.832605
-3627.628823
-3733.85342
-3827.232158
-3957.711966
-4018.59145
-3831.279697
-3346.851432
-2662.173813
-1896.076018
-1173.126203
-630.3483751
-263.0922791
163.5292492
874.913868
1815.33834
2738.674408
3445.11001
3800.539077
3702.173586
3200.075871
2536.640545
1958.76829
1566.024701
1341.936937
1215.738591
1089.768593
895.5498734
632.4528951
335.1168399
50.55624642
-149.6650887
-219.7481665
-220.1801531
-275.5109826
-452.6649169
-731.1824083
-1044.464361
-1305.421717
-1458.784581
-1520.580615
-1509.14385
-1390.49571
-1140.56461
-771.023262
-292.2402095
223.144022
591.5527757
698.8835792
674.9204045
742.4707129
957.6678564
1208.296681
1380.017565
1429.441181
1382.328084
1321.453428
1282.139529
1160.098586
856.6715619
471.3469257
191.0440692
66.60560871
54.73835957
162.0915048
380.8297401
595.7639672
721.8937298
874.7849825
1278.047705
1992.092394
2777.774491
3259.443279
3250.067893
2916.168259
2603.203566
2530.001661
2691.367894
2954.538023
3113.631948
2948.840107
2413.78387
1694.373028
940.9235913
35.09975532
-1253.600434
-2957.972636
-4824.539499
-6439.361924
-7418.847126
-7622.225467
-7270.544192
-6820.16017
-6692.022221
-7085.351422
-7898.478402
-8715.686368
-8980.088735
-8344.28316
-6876.131255
-4927.276871
-2890.588862
-1095.008179
219.9743584
967.8385631
1254.474267
1318.789751
1427.800612
1784.425346
2460.006537
3390.906908
4442.613252
5451.49622
6224.951726
6596.415458
6511.212384
6021.918883
5251.190402
4402.660964
3695.597002
3226.565301
2971.461804
2880.167934
2854.325689
2725.107156
2397.391533
1962.277861
1603.225601
1448.233384
1490.553442
1562.415229
1446.13968
1106.777999
739.5371614
524.8391295
447.559485
392.456249
263.5706375
-21.57223609
-491.9825528
-1046.740785
-1528.373253
-1849.163156
-1983.472657
-1929.415917
-1743.727797
-1527.58122
-1348.744489
-1247.769293
-1275.555497
-1410.70222
-1508.340328
-1471.270621
-1383.457851
-1332.961121
-1251.906969
-1097.390356
-997.6470451
-1037.963942
-1089.560164
-996.3090587
-784.3312454
-616.8601635
-630.3137456
-801.5287003
-943.8028413
-900.7312655
-715.0194514
-508.6261643
-297.0007365
-71.64109719
56.89147363
-13.89218646
-205.9897006
-377.7466877
-511.6693463
-658.5767281
-815.8712295
-958.8151494
-1075.709721
-1130.558078
-1091.497013
-972.8108303
-786.0938162
-549.5645857
-374.6585842
-371.2507833
-437.2100184
-342.1142256
-59.48112951
187.7894542
275.5730832
382.845565
740.099899
1289.725032
1703.413269
1716.416379
1406.938745
1112.781757
1066.073113
1213.923515
1432.814944
1712.646741
2021.049392
2211.1582
2205.225961
2098.477567
2002.012602
1932.894177
1870.848963
1779.640289
1606.408986
1386.336557
1276.804643
1380.686417
1623.267649
1858.956674
1963.782023
1803.297099
1303.951374
589.9242942
-121.0445481
-746.4624412
-1310.292832
-1761.225608
-2020.391856
-2180.96301
-2485.523632
-3067.680911
-3781.450161
-4304.891341
-4427.051566
-4264.546425
-4128.872997
-4101.04649
-3857.522666
-3052.106885
-1746.270784
-350.254243
713.9460598
1229.305032
1253.815496
1068.107941
980.0039094
1155.489571
1599.345031
2176.231974
2648.838399
2826.583027
2711.08373
2444.629308
2136.944727
1778.467449
1280.258061
574.3550361
-265.7640472
-994.7527779
-1376.688144
-1409.692311
-1289.639302
-1206.509517
-1290.673261
-1642.794637
-2238.171678
-2865.755328
-3248.041703
-3136.757024
-2348.478144
-967.4873377
480.4476006
1357.850882
1514.928851
1361.655138
1324.634578
1457.869085
1593.317842
1626.570237
1607.151626
1693.590185
2002.869507
2419.220766
2626.370663
2396.917006
1795.367047
1086.125865
500.3423229
91.63289688
-220.008282
-486.7077554
-657.5807776
-682.9014593
-619.6200052
-573.5655847
-597.8779082
-701.2902514
-873.8320075
-1040.590799
-1076.181221
-914.2772534
-570.740185
-87.67715816
432.1017642
800.4924967
883.8161525
704.1868626
332.0279072
-195.6181366
-772.1574861
-1170.002429
-1189.642167
-810.4582497
-193.3331135
395.7494057
716.6888486
730.3793338
613.4521011
528.8637025
468.7757132
369.4879733
248.0577432
188.3468367
292.6879203
612.1093249
1039.992897
1353.675456
1413.291266
1226.346164
828.2569156
242.6080585
-448.7118723
-1128.571064
-1724.381656
-2175.696459
-2390.309747
-2332.47385
-2080.072437
-1726.445071
-1323.658965
-941.4152221
-640.9684209
-388.6144611
-120.2513683
157.5146887
448.7899085
856.5843213
1442.962343
2058.582315
2430.65881
2404.846302
2055.313682
1597.367384
1227.46368
1007.170095
856.1135467
648.9811497
309.761149
-170.4631543
-734.3443176
-1268.276038
-1680.791982
-1954.434179
-2090.219137
-2105.310654
-2113.466713
-2249.831402
-2483.19851
-2643.424085
-2617.8985
-2395.349788
-1998.339237
-1510.845165
-1063.252204
-665.2013834
-188.2593015
391.2420829
909.8817844
1251.855078
1458.281253
1554.76383
1504.098704
1371.420809
1323.440197
1436.589524
1648.262807
1858.906194
1968.695857
1891.730775
1643.63841
1362.529857
1182.639438
1129.812089
1155.901961
1210.72463
1255.069299
1249.504905
1151.763912
927.5042375
601.6470447
278.2935954
33.22734698
-164.8487135
-346.5037635
-461.0705595
-491.7229125
-523.8869989
-633.7584037
-827.9656154
-1092.131732
-1364.883711
-1513.862544
-1484.099292
-1400.760609
-1391.608379
-1397.555829
-1281.798967
-1033.161849
-765.200328
-601.7765355
-602.2027447
-695.0265567
-682.8488912
-412.5108559
67.14899791
560.3978813
895.7124861
1040.434539
1110.455864
1256.926565
1499.259393
1708.999133
1782.927695
1751.986194
1690.572697
1630.79756
1615.272309
1707.335109
1884.180446
2030.878904
2065.430301
1962.807473
1698.391993
1291.118494
828.9253603
363.7267384
-106.7122435
-526.8262639
-840.0783403
-1184.701551
-1824.771058
-2830.360252
-3964.288713
-4891.905648
-5410.420744
-5545.935233
-5537.638433
-5639.716766
-5847.370283
-5912.58843
-5654.555361
-5109.872611
-4394.489333
-3597.564558
-2767.717986
-1811.449962
-468.9183027
1387.474707
3447.030825
5139.543851
6120.697968
6446.907366
6333.424121
5940.099433
5385.954858
4796.347136
4280.953617
3895.781362
3607.852045
3321.978581
2985.55458
2623.280315
2271.993394
1948.116575
1630.554204
1231.983825
691.7488612
106.7686339
-360.42548
-661.0334896
-813.3540101
-785.5054913
-582.3397773
-338.0222771
-192.4527695
-184.640358
-329.3255415
-630.232385
-952.9525272
-1063.214924
-863.7548156
-470.6171082
-53.88796538
272.9655568
430.3004879
351.8986705
-9.051817972
-667.0858654
-1549.287271
-2468.832281
-3223.643922
-3715.022051
-3944.118888
-3942.975366
-3743.021919
-3366.146348
-2831.026064
-2207.850852
-1630.506722
-1174.495412
-787.4391428
-437.6956265
-204.7119316
-90.00998336
87.62378848
447.9959226
872.3172587
1196.386012
1398.597536
1513.162576
1553.581804
1575.384044
1626.181688
1619.225049
1430.173994
1096.347909
776.1263894
576.2221404
524.5232453
600.6674806
710.079836
745.7817148
713.9805706
693.0224213
685.7501987
616.2505234
443.4236447
205.4290439
-21.26966098
-175.6659325
-242.2942457
-224.5812465
-100.533331
134.9341496
389.2189223
526.2928189
520.2011959
469.2242649
453.529763
473.6388009
509.0988016
536.8504774
539.8493361
566.7850236
680.3813842
819.608683
867.4104397
830.5120092
758.9051427
569.5164529
187.8013117
-233.7172819
-478.2451632
-542.5392884
-546.3270612
-502.7588346
-391.1824881
-327.2916594
-456.9471615
-770.1437194
-1145.153584
-1475.135043
-1682.07646
-1717.486289
-1598.788928
-1376.833803
-1067.40246
-668.3608069
-228.6145653
139.6054051
312.0465587
223.272707
-67.40733464
-374.2133262
-504.335668
-410.7889734
-212.6157844
-68.65738753
-36.89528082
-33.8228843
47.00026733
159.8514221
152.3590046
18.08462754
-63.19676415
28.81791979
271.8883245
674.7840898
1302.035111
2103.378539
2892.282576
3457.236098
3575.320933
3088.648139
2164.305336
1294.108291
825.8003534
660.7905826
534.2519116
328.7797105
-12.96805078
-584.2313161
-1348.822547
-2077.001664
-2567.251988
-2831.590943
-3039.386225
-3353.502715
-3783.477271
-4117.979542
-4052.442259
-3472.30391
-2592.265298
-1770.920521
-1205.15188
-814.6922412
-397.2536322
109.4254061
535.0293794
689.2353504
621.2901409
561.3338462
633.8808656
741.9072834
717.3510555
507.2218716
228.1804328
73.06960867
142.762167
371.7189204
631.1570855
851.7598484
1019.886094
1140.768481
1253.341707
1398.388862
1544.960934
1649.594628
1783.868416
2054.020418
2399.562243
2635.846717
2678.865455
2576.379888
2371.369452
2087.442299
1791.62145
1549.370126
1367.243069
1232.428671
1124.967154
974.266706
717.9803075
416.6304664
199.8099861
99.3675109
24.10730478
-138.1315502
-461.1624715
-941.5366483
-1469.998558
-1926.252289
-2285.831847
-2553.11263
-2685.086939
-2672.483868
-2582.033154
-2467.550637
-2358.60641
-2319.002325
-2365.71129
-2372.16473
-2200.656224
-1880.246042
-1539.963157
-1243.624282
-987.884675
-769.3698604
-560.7298291
-306.0510364
-6.268903173
266.7054792
459.1543761
562.9153575
581.3742222
548.4531019
532.5024753
550.0479354
526.2130803
383.2586729
114.9481929
-232.0867568
-570.8945935
-770.05991
-734.8963816
-509.4472373
-236.5371136
-29.28320111
95.00285155
218.966753
463.3164865
841.1024002
1223.15246
1511.09422
1723.500562
1869.782803
1924.309617
1957.207859
2079.645369
2237.336446
2258.850524
2102.701847
1876.038432
1660.858768
1501.959085
1483.359736
1630.828938
1809.367602
1846.850311
1683.069982
1355.946386
961.1881472
624.750512
396.6910544
208.6636519
19.4122571
-85.3582783
-17.45722221
174.6076946
343.3192505
354.6998066
162.3649404
-170.7396045
-559.9245862
-1042.382736
-1719.466757
-2491.337216
-3012.257642
-3025.831559
-2616.305537
-2067.85308
-1614.348952
-1336.937723
-1172.222664
-1018.838476
-876.2579598
-823.4631355
-882.7065119
-991.0001178
-1064.401871
-1037.838916
-911.8434264
-775.7349801
-723.6331844
-806.752869
-1128.287358
-1829.968011
-2853.084032
-3862.463696
-4551.61988
-4886.605885
-4949.221391
-4745.521066
-4304.690785
-3766.00874
-3224.156136
-2636.068061
-1958.011142
-1211.985081
-340.2373001
844.2824708
2420.382266
4125.178254
5476.68292
6156.772157
6245.046659
6082.864272
5934.585228
5803.132302
5578.460277
5264.597122
4941.798735
4602.887772
4194.853967
3745.211514
3307.708538
2857.04481
2328.071188
1706.56731
1062.314073
529.4982541
208.4229462
43.85509397
-128.5037532
-374.4414467
-590.8772355
-687.989936
-723.684434
-781.8369786
-833.5517616
-811.3604089
-740.0314371
-722.507
-824.2613695
-986.5399255
-1056.971997
-936.5407675
-687.276732
-463.9625076
-377.3228202
-466.9142454
-742.5666423
-1153.44118
-1546.317105
-1779.367706
-1890.397201
-2048.293311
-2342.498836
-2718.360771
-3085.738639
-3390.107162
-3594.362532
-3654.034495
-3542.937845
-3327.260458
-3154.510095
-3071.093957
-2914.640682
-2509.78603
-1892.96385
-1219.582803
-553.3587
112.8926233
724.3956151
1188.792693
1479.260819
1649.549039
1812.06931
2098.133011
2519.584252
2884.938568
2987.881184
2842.746746
2605.05835
2336.542372
1991.98532
1562.336872
1098.88604
654.3203396
290.0207912
75.54962025
14.82703961
43.88002307
145.0329361
372.0931796
712.5931305
1010.057712
1080.548087
876.8246943
528.9617956
215.7007468
-36.92007828
-377.2191133
-890.3354032
-1445.231462
-1863.738522
-2109.859708
-2218.689197
-2170.849256
-1926.038392
-1488.74502
-903.6884338
-251.2912841
380.1517376
988.6015294
1664.519968
2440.527692
3225.817762
3927.975266
4501.775558
4866.950518
4967.65225
4917.196867
4892.197336
4903.227387
4837.418446
4667.239453
4452.155077
4190.560231
3813.359988
3294.740469
2682.568813
2047.599936
1433.374888
802.2155927
49.03846784
-825.6916383
-1607.338432
-2102.396207
-2457.114134
-3067.335739
-4153.825908
-5533.289716
-6812.994968
-7710.558951
-8158.616716
-8256.439461
-8290.597751
-8699.148878
-9736.646131
-11120.80341
-12197.28492
-12508.31217
-12073.46069
-11140.51937
-9879.101907
-8377.914195
-6756.850429
-5151.633282
-3632.344316
-2158.303341
-577.5272674
1258.796342
3287.649136
5210.060026
6766.665724
7975.843521
9051.83973
10175.27557
11367.60197
12461.6886
13132.74704
13063.12736
12169.2596
10665.33178
8921.176318
7272.64603
5886.385534
4735.220655
3725.493656
2827.780262
2037.990496
1304.117389
583.9448077
-117.3239016
-823.4182889
-1566.962418
-2245.458771
-2647.081037
-2673.998311
-2438.881232
-2148.214111
-1976.979447
-1984.47067
-2042.868802
-1933.106136
-1609.566144
-1274.783856
-1125.861858
-1142.692813
-1154.942822
-977.9268124
-483.4921466
303.9033612
1167.106065
1852.289022
2242.269592
2322.924184
2082.968694
1561.046775
928.3702878
412.289374
135.2160042
56.35434404
45.28712817
-4.218566026
-116.5354331
-282.8939251
-525.5011238
-843.588748
-1145.267125
-1336.141895
-1427.967435
-1496.926402
-1623.890838
-1887.503827
-2268.105595
-2563.642061
-2568.462882
-2328.760453
-2089.092421
-2031.541765
-2180.602601
-2494.407785
-2938.331906
-3499.745986
-4157.317511
-4786.54924
-5148.666479
-5095.739988
-4744.315581
-4333.139913
-3973.177527
-3625.956922
-3224.318675
-2725.796135
-2139.212912
-1548.655052
-1036.669502
-595.1348339
-177.1869628
246.6109111
778.3630374
1620.560939
2856.672499
4252.694893
5396.633168
6015.586109
6120.222539
5928.30831
5694.995284
5545.388666
5454.003532
5396.490542
5430.915908
5594.668438
5813.077725
5917.527777
5689.567123
4958.570644
3758.498906
2340.312947
986.6091138
-113.9746182
-837.8958316
-1158.279524
-1245.766089
-1354.319986
-1539.789101
-1645.916985
-1588.730699
-1469.78021
-1395.529221
-1353.403248
-1261.371758
-1017.197824
-529.9772912
209.5776684
1095.313721
1929.431753
2447.025285
2405.333382
1763.878384
739.5794518
-378.9391185
-1399.515895
-2193.930344
-2680.466419
-2934.683506
-3174.714941
-3568.947388
-4149.568607
-4868.308227
-5609.46887
-6212.147853
-6573.508355
-6673.316336
-6505.30407
-6089.327391
-5490.970538
-4704.851629
-3619.579865
-2236.117116
-802.6331575
409.8012586
1358.89741
2157.719974
2886.16317
3560.774186
4139.754873
4488.919242
4486.050563
4193.025188
3805.704832
3443.110865
3070.218012
2571.280984
1836.444333
866.7495391
-141.9088137
-905.2656409
-1298.957152
-1434.103798
-1463.304736
-1408.077814
-1220.498392
-933.6880248
-688.8025144
-603.7608459
-605.1252145
-434.3688693
120.6495773
1033.398974
2074.575221
2940.290806
3373.670937
3323.218068
3000.608744
2680.537581
2470.651609
2349.387516
2325.559673
2433.656722
2644.810381
2887.525276
3094.913094
3181.1196
3081.106734
2858.217185
2649.362606
2486.053383
2276.601438
1909.900115
1274.360665
303.8944112
-870.5305165
-1949.486005
-2754.56027
-3374.076016
-3950.155001
-4445.73116
-4709.88575
-4693.658339
-4519.162058
-4348.417497
-4204.877372
-3938.467214
-3410.39651
-2690.205779
-1975.980346
-1354.713338
-772.3831719
-197.1960307
321.1310278
710.4227346
913.6686479
940.5522184
920.5711362
1020.938757
1294.936258
1650.956139
1920.580528
1932.385479
1623.32075
1121.811682
630.1124675
209.5592329
-226.828838
-743.6578826
-1335.272651
-1996.273093
-2692.595208
-3315.916835
-3778.87722
-4080.437422
-4224.132306
-4190.715119
-4014.694289
-3758.592869
-3413.539011
-2936.122957
-2338.806906
-1636.430221
-788.1040714
165.9967715
984.0226019
1401.246668
1420.327517
1347.07432
1557.342811
2205.276945
3074.338864
3758.918941
4060.146197
4121.494203
4168.962117
4276.435985
4391.819085
4422.032978
4272.763117
3928.405134
3501.997959
3143.81818
2930.493273
2868.940169
2922.907505
2994.468148
2971.013795
2820.686955
2566.267033
2207.522645
1783.253173
1433.936395
1259.981254
1170.329517
962.2373197
486.1301742
-299.6473312
-1314.382314
-2336.672567
-3102.461625
-3487.865057
-3556.52019
-3440.238391
-3252.325124
-3083.153701
-2958.550223
-2816.709347
-2620.008502
-2446.412647
-2400.680547
-2488.645091
-2600.239932
-2572.132472
-2315.238418
-1921.710691
-1559.473919
-1244.126129
-821.1445968
-171.7535553
641.6554188
1387.304886
1774.88075
1663.612194
1221.493673
782.4251008
542.033497
517.5012965
725.1582295
1157.521969
1617.658395
1793.312584
1488.333524
697.3870682
-433.7996488
-1643.193659
-2668.098821
-3403.401561
-3906.804792
-4280.340374
-4613.658964
-4971.408603
-5330.374616
-5573.865463
-5610.779287
-5421.204363
-4959.248151
-4175.257508
-3190.656675
-2260.197314
-1481.93719
-685.1763918
370.408279
1780.501805
3430.449996
5052.915269
6382.183501
7268.0645
7643.13199
7516.016607
7087.786514
6723.064886
6661.727944
6833.340378
7005.343802
6984.879286
6643.471718
5929.920538
4952.812254
3944.327603
3109.743004
2552.522639
2235.692765
1931.909943
1372.990929
554.8448289
-252.4898995
-851.884173
-1309.661765
-1782.738922
-2364.578819
-3150.918586
-4245.056153
-5584.058779
-6894.889525
-7914.761746
-8573.529701
-8940.262953
-9074.766166
-8934.110256
-8413.793377
-7529.288218
-6496.965083
-5540.348868
-4694.375422
-3861.066004
-2945.092417
-1906.483111
-788.1521977
321.5471489
1416.796123
2569.728403
3742.134937
4757.036654
5536.162507
6201.893417
6861.531253
7438.698358
7765.208364
7696.134561
7143.633367
6169.96347
5041.098264
4050.462071
3293.072478
2668.353635
2048.985671
1400.537015
787.8453452
312.5804504
34.05013516
-68.61471776
-62.19885767
-3.463133121
68.26856488
115.4879577
119.9212986
95.56439029
71.82281223
86.76936179
152.2906115
194.3307672
126.4553104
-7.31146451
-108.9610541
-202.6145543
-337.2121107
-397.8404108
-261.0130661
-83.37567233
-221.4796307
-892.6728233
-2045.217169
-3491.661767
-5040.632337
-6549.007487
-7940.806333
-9138.394119
-9969.664446
-10266.30729
-10063.38364
-9566.775955
-8930.402645
-8175.732813
-7277.882773
-6220.230429
-5009.358337
-3708.112429
-2416.743898
-1192.57996
-14.76024679
1187.82026
2497.515858
3941.745494
5430.742332
6820.724177
8040.828709
9067.703348
9816.18542
10194.02542
10214.28158
9939.792482
9420.081934
8763.524473
8119.673336
7530.719201
6938.419356
6336.971417
5790.406752
5343.199167
5025.775009
4874.996526
4847.435154
4790.76756
4585.618012
4236.473523
3760.663494
3083.211989
2097.140417
742.6812106
-977.2597343
-2946.810144
-4910.712722
-6607.526643
-7935.264703
-8943.159064
-9696.787133
-10195.41218
-10405.35756
-10341.21114
-10079.78652
-9670.374848
-9076.807631
-8279.46522
-7389.238557
-6538.713389
-5694.79899
-4744.633815
-3725.917161
-2762.012219
-1829.34487
-814.055856
297.1291203
1478.386211
2763.274116
4107.67262
5300.4048
6113.765931
6422.620177
6190.044036
5516.840084
4687.894479
3996.168667
3525.71531
3200.60596
2949.588242
2707.198428
2379.345725
1942.422271
1490.66758
1121.680109
852.0635472
637.4321362
402.6859184
101.74894
-206.8449597
-415.413735
-504.2704349
-530.6271403
-503.141998
-392.8260049
-261.8646086
-246.0537452
-378.2144427
-531.978895
-572.5973625
-494.168221
-403.3760314
-415.5353049
-562.9948645
-808.6574275
-1140.767319
-1563.161369
-1998.123511
-2342.560613
-2597.030698
-2787.410928
-2835.141467
-2668.798226
-2363.134852
-2025.493793
-1668.762483
-1306.312284
-1011.653939
-767.1097324
-404.0212558
200.2563942
981.1048932
1783.241001
2473.752264
2969.663803
3303.236641
3643.30771
4122.985338
4669.568825
5082.777206
5224.752586
5072.235281
4649.063158
3985.788786
3133.410954
2178.276493
1237.081168
422.22248
-219.1292056
-715.6926762
-1096.454111
-1344.512292
-1441.384249
-1405.002854
-1292.342977
-1193.546988
-1164.656672
-1168.461154
-1170.895537
-1236.181836
-1409.821778
-1602.03348
-1697.866736
-1672.62637
-1532.604142
-1287.180691
-1029.190569
-892.5906115
-897.3952399
-972.2730568
-1110.362105
-1323.866549
-1478.286944
-1394.66305
-1113.014374
-866.1404932
-811.6445723
-929.819363
-1130.924002
-1345.487657
-1542.526564
-1707.734093
-1786.139813
-1686.735589
-1395.406825
-1019.912026
-669.2490023
-362.7052788
-91.57720565
137.5323133
356.672354
613.8835301
880.6936782
1103.701301
1305.295012
1486.425578
1515.187604
1275.534953
845.9189933
411.6743878
81.41620626
-150.0064706
-347.324778
-582.3138896
-881.8567853
-1222.278024
-1570.735857
-1870.240878
-2003.486889
-1883.449802
-1571.960838
-1198.705537
-797.5603081
-335.5524409
170.9047046
698.5584001
1289.564736
1958.927923
2617.584424
3185.340815
3682.302515
4116.470322
4377.402183
4347.048156
4061.14138
3683.980923
3361.439933
3134.143112
2940.208093
2681.628041
2329.986499
1952.712935
1620.370903
1347.676066
1111.966722
858.5007053
535.1447669
147.0504349
-317.6242553
-954.8392751
-1765.480688
-2512.284458
-2974.790242
-3247.291679
-3571.774246
-3975.175543
-4273.983873
-4356.093124
-4279.507415
-4145.263778
-3997.761069
-3810.14273
-3516.133928
-3105.643419
-2669.231883
-2283.789606
-1924.826743
-1552.16782
-1168.851046
-735.9934905
-167.0096172
523.8804865
1200.564882
1794.269302
2366.071372
2913.694677
3285.48077
3372.016858
3217.854039
2876.713251
2336.045982
1653.586335
1024.364044
645.8507859
553.1661698
585.7037078
535.0512691
353.8449217
178.589994
154.6946711
309.2948426
563.7985124
811.9117094
1042.339665
1389.959139
1934.862437
2451.532221
2546.873193
2083.737882
1288.161496
427.5245494
-395.758283
-1115.734511
-1617.772807
-1846.743149
-1850.752761
-1715.824288
-1548.771866
-1457.299557
-1451.201839
-1409.864112
-1215.679951
-906.1150405
-658.0076835
-617.260878
-764.1555681
-952.6255928
-1051.808611
-1018.138714
-843.4251915
-511.441704
-88.68787101
202.4025729
158.9708704
-154.5920993
-451.7751823
-492.4102724
-247.9297209
111.0847839
347.4695285
364.5644381
279.5813823
231.7355556
195.987802
60.3835627
-200.1235771
-481.498293
-611.3089929
-461.6941807
-105.6842303
166.6094556
113.4541558
-201.4660329
-522.5491165
-694.1152455
-716.8280415
-634.6391017
-521.5357797
-483.8692395
-556.4612246
-672.8087657
-775.5688756
-842.4424048
-796.7041527
-539.1377226
-98.51232828
363.3974859
719.3322361
971.2184283
1185.427084
1408.582469
1646.269571
1886.766141
2131.426638
2356.736532
2456.8405
2350.195016
2143.092306
2033.253675
2077.510823
2195.648931
2308.305946
2324.635239
2129.90615
1738.582722
1334.907879
1049.764831
833.42518
628.2231823
500.4130658
509.3749886
589.6636629
625.6744339
526.3373465
232.6129296
-217.6818857
-668.9658788
-1006.248554
-1275.358584
-1566.661975
-1869.74714
-2121.74907
-2328.062287
-2567.254068
-2902.931109
-3316.700793
-3711.134921
-3976.667788
-4075.996647
-4052.627587
-3945.38224
-3738.64073
-3404.771083
-2931.220863
-2321.539443
-1632.598363
-951.2441229
-291.3939494
387.1392034
1054.069746
1627.352537
2085.087881
2447.005566
2723.978506
2978.853551
3316.590396
3731.22975
4079.216846
4231.5681
4122.755009
3686.490586
2921.968867
1981.603845
1029.468613
90.62404867
-821.1102313
-1558.939571
-1979.593483
-2127.148164
-2193.968264
-2372.135333
-2732.79901
-3139.014093
-3304.917114
-3056.994548
-2521.749413
-1985.282846
-1615.729102
-1389.19451
-1213.027911
-1020.314035
-778.6174558
-468.2290562
-37.75129673
577.6571215
1320.425997
1966.772676
2310.071861
2326.418873
2129.850469
1861.511811
1635.507756
1500.726242
1436.78781
1403.485224
1348.975859
1188.125823
890.1280524
591.6133584
493.7384743
636.1235037
881.4887659
1095.424312
1229.774285
1287.540684
1312.954528
1356.718679
1399.83772
1391.840449
1363.594324
1396.995012
1489.44294
1527.697247
1379.100658
985.0380424
438.4972304
-10.38705416
-140.6950633
-5.668624941
107.7999943
-8.397911627
-344.5066862
-849.5877958
-1533.407702
-2321.099795
-2979.104982
-3277.309555
-3174.417121
-2841.819325
-2516.785585
-2301.563132
-2128.164851
-1927.410372
-1725.812033
-1544.630591
-1349.487
-1151.795812
-1019.257629
-954.5825107
-899.1876809
-843.475607
-788.5938816
-655.9510893
-397.2047313
-125.9641385
-1.211774173
-55.09600259
-208.537581
-343.6531626
-333.9276186
-140.3138099
114.4797356
279.9010274
357.3468666
454.1187042
614.1625531
794.0290723
962.711549
1120.251281
1235.002632
1258.355291
1208.533171
1186.263772
1289.498489
1492.992542
1628.118713
1569.197953
1411.481287
1329.246772
1319.335575
1261.480515
1155.915684
1107.04443
1127.964267
1122.301022
1021.515761
838.7150591
626.2300159
431.681246
257.1211935
64.72206739
-123.2255404
-183.1929214
-37.92646547
220.9840596
444.0836467
571.0790132
595.4326379
483.514858
198.9689996
-246.4685069
-776.6286344
-1254.323718
-1548.478631
-1640.212625
-1619.480869
-1564.312878
-1479.568414
-1350.068799
-1180.173749
-983.8520094
-801.259616
-694.0116262
-666.1032458
-667.6570467
-722.9427294
-925.3597476
-1264.441997
-1592.758345
-1776.394442
-1774.728208
-1625.371161
-1438.388937
-1302.641159
-1130.898395
-739.202605
-130.3825619
462.1991591
845.4250057
1014.48427
1029.712549
938.0467554
829.7237045
812.4954029
928.7840228
1177.511623
1527.979657
1855.879641
2017.270816
2046.056401
2131.406878
2370.293963
2683.820782
2974.914775
3203.603165
3280.089343
3035.730655
2383.65962
1450.634868
507.2018796
-219.5067741
-688.312743
-1038.098184
-1430.948425
-1901.399674
-2363.154623
-2715.03472
-2926.750276
-3064.596071
-3214.743349
-3357.340936
-3391.299935
-3297.390688
-3155.681356
-2991.987221
-2752.639626
-2435.212257
-2090.248459
-1699.133862
-1203.248168
-628.4435974
-33.53313604
591.9323676
1215.212102
1657.969136
1789.148965
1714.198207
1633.02897
1632.92748
1717.472055
1886.938564
2078.924772
2144.054901
1993.185547
1722.9523
1529.658623
1534.120399
1737.581211
2095.463582
2545.80395
2962.350604
3156.378092
3003.376908
2570.436161
2049.444955
1572.286443
1172.479836
856.7311438
571.1960057
185.9342689
-335.1005418
-859.2368574
-1305.586849
-1780.423178
-2367.38029
-2965.888818
-3460.697224
-3859.186216
-4144.223531
-4188.550225
-3936.00236
-3506.317768
-3047.94777
-2629.931889
-2276.518322
-1942.791582
-1489.465794
-841.6979861
-126.0723259
465.6507156
869.022572
1121.816886
1262.02113
1344.326666
1469.964123
1710.347408
2023.936128
2271.393287
2307.528581
2108.42344
1837.531156
1706.59706
1745.632774
1797.777037
1718.127756
1477.672595
1135.571978
798.9316678
538.8868135
314.0868626
50.30707707
-235.8866587
-469.9462068
-613.1558955
-666.4557875
-661.5677719
-675.7291002
-757.792758
-842.6559143
-854.9571385
-861.5499847
-974.1825404
-1152.159586
-1260.324289
-1263.098306
-1224.114057
-1191.903014
-1192.09994
-1245.05816
-1315.91677
-1321.990817
-1224.954721
-1059.880451
-882.5677401
-738.5936715
-647.1867722
-569.0197381
-439.5841015
-263.7672747
-107.2234043
14.81917185
147.8890475
315.9589202
528.3907721
806.7443482
1105.344303
1299.501615
1329.492696
1254.492888
1144.357038
1037.374371
987.5178144
1028.395543
1108.091449
1143.146483
1104.942095
1014.449821
912.3919372
860.1166397
903.7314276
1018.712727
1141.332357
1240.929788
1305.989837
1304.250902
1226.206268
1123.861852
1060.58988
1063.728438
1125.793743
1202.634834
1243.243192
1265.089314
1331.223689
1411.537054
1375.017501
1183.06079
968.7131579
837.681739
694.1457499
336.1484294
-358.018033
-1350.420574
-2452.420229
-3429.655964
-4166.500634
-4678.687721
-4976.439113
-5054.974889
-4997.933101
-4920.105526
-4825.435481
-4646.904034
-4352.285869
-3904.405064
-3242.857277
-2413.143825
-1582.384287
-844.7414067
-140.7679187
590.2435525
1322.843959
2035.23694
2756.694814
3513.334204
4294.10875
5022.592497
5536.688981
5696.741201
5518.190453
5092.843006
4430.286704
3516.693725
2473.667643
1503.098161
689.7535759
-42.4638901
-802.7843545
-1616.276937
-2386.65421
-2951.661916
-3223.661173
-3251.811434
-3112.248514
-2838.806143
-2496.963169
-2169.476511
-1832.095973
-1391.71
-840.6864766
-255.7222817
283.7837422
682.5488713
855.3401628
845.4405051
800.1303746
798.6787708
824.0272275
876.8129131
960.0370818
985.6652486
866.1116985
661.1881289
478.131088
297.5971877
57.30031741
-184.7565525
-323.2922006
-357.0141229
-350.2962445
-315.2412152
-214.1397762
-38.05201517
158.6800785
293.4024531
338.2504457
375.720489
521.9015514
779.5130923
1032.070396
1185.675633
1227.654678
1165.98043
1025.568363
868.4476055
720.7239617
547.5349521
347.0971682
159.460645
-15.68084259
-183.8003517
-290.5632544
-313.1553519
-330.3452103
-406.2899439
-510.6225475
-611.5646676
-724.736139
-835.2882277
-894.7871297
-909.3847346
-922.3052983
-927.8735082
-902.993707
-874.1154056
-866.2636687
-855.4740751
-824.1548814
-771.4173221
-651.9858153
-412.8566846
-84.73633687
257.3806419
582.0189562
861.6096237
1012.576034
966.1568611
747.3160174
433.0003353
98.34831529
-175.5970738
-327.8583265
-363.3727833
-315.5655962
-206.5389922
-82.5856956
4.557431272
71.86096132
154.1830672
207.176509
178.0097635
112.9728818
85.59407935
92.32810457
100.2288607
110.914652
122.8212381
119.2272074
117.6251669
137.8478531
130.965919
45.16481383
-76.7283862
-173.905317
-266.7294431
-373.2188915
-431.1139879
-405.1902652
-366.094257
-377.71775
-396.7342163
-347.6809616
-230.3432244
-106.9914504
-23.50887552
33.15821929
118.5425463
266.9698635
434.0210768
536.5901707
556.9927438
551.1314835
558.7836808
575.6770024
590.254672
582.6038373
528.199533
436.7252928
331.3532216
204.3491799
61.85820785
-44.45164227
-97.44851115
-140.3421466
-178.0568631
-165.900344
-122.9224078
-129.9381075
-198.4955868
-262.604403
-295.9910262
-319.8506544
-324.8779143
-301.6860022
-295.8565955
-336.7445451
-385.1292513
-408.2318355
-413.7205149
-389.3276823
-309.1219326
-200.9132254
-121.4030593
-76.58073072
-35.20303793
3.136075064
16.938165
13.93591453
21.15952783
56.02622558
133.2014082
242.4814173
321.3852363
327.9093412
306.1453059
306.8296171
318.9667034
327.1166193
330.6708852
300.738158
226.2791827
159.9379101
130.9661218
100.5387659
61.03942049
61.77450769
102.0350364
122.3287439
110.0536333
94.16253728
58.84722128
-17.46404258
-88.32494775
-111.8989961
-119.8069393
-137.9816455
-143.1922378
-139.3131642
-165.2288989
-220.4166407
-278.434122
-341.9521175
-400.8195085
-389.3996912
-266.1993452
-93.70275008
23.02995299
45.2541425
9.706435082
-26.65807058
-17.76569559
47.44230266
135.0753169
215.9243111
291.3473034
344.0577086
346.1348655
325.4977886
323.323433
315.5168156
276.9541967
248.5103182
246.2456093
205.6310477
95.52619145
-20.41039338
-90.66328219
-136.0259145
-175.6209736
-201.3366073
-231.250291
-287.7063988
-343.426875
-373.3464916
-402.1392377
-433.7610131
-423.4795222
-367.6431323
-316.9538196
-278.4100532
-214.1976363
-138.9050425
-108.9835377
-124.3131506
-133.1577488
-112.4738322
-66.15487106
15.04652215
121.8351168
208.1068916
257.3597478
306.9686576
387.2380612
495.2971169
604.2700006
657.1600616
617.1789643
531.1014799
458.1465542
380.3044166
274.3610557
182.3345574
122.0302893
41.17808644
-73.49952234
-167.8578079
-237.2208649
-336.0153828
-456.5514872
-534.4598321
-565.326548
-581.3139859
-552.4517762
-447.4878692
-327.1140632
-252.7697916
-187.2820923
-83.29109077
25.13678592
89.58467586
117.1760063
131.5085868
136.4649799
134.8275676
128.5998029
107.0016175
71.52332674
47.16273364
45.47145023
57.59845159
84.47563352
115.9409593
111.9696264
68.94041361
32.59789447
2.32500101
-57.24808973
-99.27193184
-40.43235526
93.09719976
202.3806431
247.3852167
238.3657734
181.2159085
110.2701823
79.56846213
73.46650891
25.31901484
-62.7526539
-130.5813988
-174.59305
-227.0044359
-257.1410706
-220.462203
-153.2102779
-111.2735976
-83.79740382
-39.37110751
20.72120066
88.47942902
153.5194815
184.6579356
166.044624
118.4753227
50.44067123
-47.28221648
-137.6066534
-153.3926182
-92.55321283
-9.538400845
75.54901963
161.3409795
208.349124
204.5973292
206.3138868
230.4631548
223.730309
175.2011674
120.6792648
51.36312878
-42.22305752
-99.97628105
-88.43751656
-67.98163688
-70.76118249
-39.14668152
43.3199175
100.890149
97.05865019
77.12458839
58.86893464
18.39320937
-30.04012317
-62.23797587
-94.85326407
-121.4083087
-100.9641748
-55.94684538
-52.49472649
-83.72481786
-102.3889045
-125.5763761
-187.9828321
-257.5494515
-289.1585949
-289.6312252
-279.0920908
-268.1826498
-286.4791544
-342.2413827
-370.5687374
-318.1495132
-227.8741656
-145.7616618
-41.46487879
91.6650491
186.6599795
217.071527
227.2429669
231.033722
209.3087965
185.4739641
194.6375671
224.0888146
249.8927454
265.3720672
254.7563312
221.0355759
218.3947952
267.4757448
294.0965718
243.3591417
169.6345957
127.4778686
83.73126602
11.2243512
-53.60144452
-94.39156165
-131.1754432
-140.2424595
-83.40599066
-3.176176751
31.19249442
38.3749304
75.14334826
123.0406312
129.9148901
104.9630529
79.2079331
41.34449841
-13.44646641
-49.80855578
-53.17567662
-54.09117878
-84.77300169
-152.7834511
-226.1098177
-244.0353416
-195.9868431
-145.2349097
-122.8547527
-87.86618358
-34.7707684
-18.83685185
-42.80569864
-51.43080696
-52.03216653
-101.8015604
-178.1125333
-201.3458838
-169.1342724
-135.7924906
-102.3667393
-52.32126006
-25.13307879
-44.64556296
-64.59592048
-60.97269308
-72.65911114
-108.5890325
-118.3657882
-70.09467835
20.34395224
124.0989229
212.0390298
262.3243461
285.2767507
307.9842919
327.2816406
322.7821548
307.5550187
304.7720907
299.2044264
279.7728855
277.6297277
296.5033755
276.9564686
174.3114993
4.08338889
-187.6854128
-339.6115657
-405.0660799
-412.4452936
-432.4725181
-475.7198307
-504.5188821
-521.7641759
-540.5026109
-503.8261527
-357.1122016
-157.4817754
2.889724523
118.6825078
218.8099215
288.2844592
322.790369
349.8021836
351.6375018
284.9845113
182.5226405
118.6727206
92.86947652
52.81517244
-2.524453517
-41.92438239
-73.25588539
-98.17646315
-59.52384773
67.3900942
203.958721
268.3715182
259.1456547
199.4661959
105.8683972
21.54824328
-10.40366787
12.14644555
72.72411925
139.8122376
155.6837824
100.2463994
33.00498178
9.799337868
16.57038709
23.55713276
29.16125082
28.06269208
9.392703397
-10.68471839
-20.99765035
-55.43531058
-130.2834007
-189.8808467
-191.9202952
-179.613175
-195.0317601
-205.4037585
-179.0013269
-141.8841498
-116.4950476
-94.35201624
-83.6989537
-98.5504327
-108.3552176
-72.35958015
-5.623609804
41.6412557
45.68617821
21.99515456
6.15931735
21.47679235
36.01999374
-4.307449237
-74.32982046
-95.33374571
-74.76029639
-84.27986591
-107.9244137
-69.8535557
15.78863006
70.95613562
80.35613968
77.00806153
72.20401576
77.32136665
111.0112111
145.0274389
132.4451639
93.04122265
77.85896965
76.83365706
55.64787533
28.69768
7.783345553
-37.00581159
-91.30653502
-81.10237892
-0.797794487
59.00019694
44.92336419
-4.895955544
-43.92051311
-59.44330132
-46.99316849
-16.42087142
6.636326154
28.03907355
74.77335817
116.4828779
89.93227135
12.89627304
-32.83783408
-23.00475094
3.046488909
15.30061936
-0.233553807
-39.18346993
-57.7087078
-31.01378101
0.500628498
14.10502241
47.03256576
98.13961361
103.2053423
51.81344496
12.93714787
20.9793194
40.80240422
47.1293018
41.51982915
6.831550664
-61.55196677
-109.6411601
-93.85858704
-50.05456671
-31.47563235
-41.0247325
-60.38619815
-75.22515103
-63.19185531
-22.10684826
6.884692784
-4.312147117
-29.45952588
-42.00107552
-55.61076383
-75.8938092
-76.56752855
-56.0946304
-42.86896462
-24.91362056
34.24466774
114.8873446
173.6070461
216.5610507
259.4213376
285.2608165
286.240138
268.5227476
226.1127258
176.8456765
159.7156028
150.746219
85.51846253
-14.89866307
-68.43983503
-78.04113078
-113.1256663
-166.5695937
-172.6437802
-135.3701654
-106.4393599
-83.29527761
-45.4234446
-26.0901618
-57.90032374
-127.9608331
-233.777506
-380.829522
-513.3188687
-560.1903152
-540.5702791
-523.9351378
-516.0044966
-474.4442358
-402.1964509
-339.9717241
-286.6921123
-192.9177461
-26.18563368
183.7466278
353.6583343
419.0802772
416.4683764
434.4725544
478.6172227
485.4610432
452.1858881
426.0123593
404.9709738
364.1175534
317.3926003
272.6048672
208.7919587
142.2969068
118.8314155
125.4378766
110.5944662
80.41530978
71.63723611
66.49024831
40.86555979
29.42340607
41.12707653
12.98936648
-66.67260316
-116.5051917
-98.27281288
-65.73146994
-61.03282002
-73.42366043
-87.24468667
-89.12545559
-61.48887717
-21.88832389
-17.54577982
-46.20937549
-53.53354533
-37.70174136
-63.95203705
-146.6999369
-219.0190102
-233.1565151
-199.8560137
-146.6229049
-99.37337088
-60.0457124
1.771599306
71.7776732
70.74748099
-14.27495179
-85.89539999
-82.51775823
-43.84806268
-7.321073117
27.58166742
36.36841528
-2.437606452
-42.25588153
-40.71807099
-40.77987433
-77.56176392
-91.7417585
-37.22941899
31.49544321
64.76140703
91.20757126
127.5886408
138.2253561
120.4411151
118.2154585
132.962574
116.4733302
57.37203873
-4.321733108
-42.84677279
-63.70992137
-72.8468129
-77.14597519
-86.57388117
-91.07034337
-78.39665827
-64.7048304
-55.43859926
-25.57703872
18.03797595
33.77365631
18.57214475
0.468468609
-14.25385461
-19.22579911
1.449394317
22.18791897
2.861168921
-27.4926845
-12.61549716
25.61681824
26.27007245
-2.154252881
-11.33285341
-2.834861424
1.32225021
12.25333205
24.72928093
1.252227487
-43.9181534
-48.23086852
-8.596072244
22.30265767
35.4736135
56.56239812
69.33760319
40.6581112
-14.79933767
-62.39959214
-97.6732233
-122.4955743
-121.1043974
-92.72071145
-56.11907293
-8.370168627
64.30475728
140.6285814
179.5864296
160.3585093
91.67390292
23.14330166
17.55433152
58.99191512
61.3976556
14.86220575
7.370307357
60.1374845
85.01245676
43.90367219
-0.745997774
-22.91006551
-65.7634599
-119.2150535
-117.1544795
-63.20402594
-20.56177016
4.339460763
47.53727145
102.8821847
143.8804122
166.4516664
158.8018479
106.5576988
47.08655564
39.61945021
78.8366322
104.0891016
87.86468113
62.24103804
62.85260108
84.98638863
94.75031362
68.4953306
26.90154083
14.8586643
28.5439502
13.34366246
-39.49332826
-81.56383329
-106.7320079
-144.2958674
-167.4850588
-141.8071255
-119.1587862
-157.1698501
-216.3932971
-240.5519879
-244.9179939
-247.7285391
-219.7776545
-155.9707713
-96.77310547
-59.10309279
-39.24750114
-63.34280867
-138.7103897
-204.0115291
-215.7294013
-210.6882438
-214.8907556
-185.2139836
-93.22853969
21.38919175
108.4741153
153.3277052
166.161814
173.2710917
204.5335288
257.3521542
291.612909
280.1190479
239.779488
199.8877935
169.0374143
138.8620156
94.38689352
36.70102563
5.421217719
26.13541195
47.9488587
15.46900739
-34.01345221
-33.61778045
11.47994948
57.10149235
80.87152955
68.1415235
20.65335289
-11.88330896
4.223591294
18.96616645
-10.18222543
-19.47865583
55.5257347
148.7027555
159.9929239
105.6134123
59.56157545
33.08667194
4.466697017
-23.6548222
-57.98878728
-117.9660417
-180.8034243
-200.9031247
-177.3314002
-137.2602975
-83.71166393
-18.42660061
24.71614054
22.51712723
-2.537471709
-25.65290388
-46.46273308
-58.11129199
-52.14213203
-41.50169425
-24.66548116
17.25547727
55.78485574
43.14467851
5.381875348
-3.72465809
-1.490702538
-20.06705293
-27.22073026
-0.918012474
12.88254316
-5.324620481
-4.102623463
32.78342284
48.92836332
18.07399922
-25.95065344
-63.49322159
-85.66486157
-54.93169845
25.41347624
72.4999478
43.77287832
4.567233807
15.82941348
54.67769995
79.56977065
80.46769495
52.43115789
-3.459988629
-56.08570799
-75.47367047
-69.08402776
-53.94869399
-32.53492485
-18.10739535
-27.40846987
-40.14636162
-30.70981957
-19.20178459
-25.23827596
-25.12439351
-5.778263909
12.48352762
21.11128284
16.77630972
-15.3061148
-49.30251822
-28.78424601
28.99372712
46.70599364
22.05994928
22.75119809
51.70344713
54.81067555
39.65763454
47.26285587
50.03677223
10.793342
-25.50149208
-12.8353967
15.38476536
26.19095637
37.40906227
48.12180754
29.9948891
-5.11710635
-19.94091445
-14.87652458
-14.38550371
-24.89140815
-44.18447337
-74.90940206
-105.0653604
-110.2063978
-88.45485724
-60.3097182
-38.1018224
-30.35554152
-45.17128033
-57.91237536
-33.34403453
9.146311176
28.92745567
40.28141283
71.69501662
101.211455
107.0743922
112.3715976
129.8383223
142.9410541
157.7470346
188.4297483
207.5804608
194.6988493
189.3278745
217.1526306
233.7786829
209.4423794
169.9350307
107.2748957
-16.11488931
-152.9243031
-214.1994361
-217.438021
-241.6007809
-277.925155
-265.6619228
-219.81114
-200.3808803
-203.1043721
-178.9338761
-124.7005973
-77.92273712
-52.38045108
-35.55440473
-16.59907819
16.86271952
68.21589708
113.9908032
136.9299909
144.2211514
129.0125417
78.51499032
19.17676496
-17.78573624
-42.22848778
-59.59188506
-47.40337239
-19.24511546
-27.40662137
-75.86178252
-118.3148507
-145.401726
-177.9421619
-191.0709383
-152.8603089
-106.8546811
-108.9401167
-134.299147
-139.6723854
-140.5388755
-156.5219929
-167.0203895
-158.1045018
-137.3294759
-101.978471
-49.60389451
5.817513513
61.38530934
126.9176172
186.2868583
208.4034492
198.4239598
185.760911
174.0687746
159.2546194
162.6936996
184.8360946
184.9530529
157.2245835
139.6201501
130.9542724
109.9141287
107.4278508
143.1815213
160.4959353
124.5294411
83.87892534
66.06819973
37.62310396
8.661788886
36.01857148
99.19474847
116.5220177
88.10349103
80.49866405
91.1118851
69.5277093
30.08674093
15.44809936
11.1860327
-7.297570367
-22.96034542
-27.77509398
-38.81155044
-50.59831223
-49.93555922
-51.37031695
-55.21383554
-28.47514139
26.40466445
61.66599556
74.16868163
112.4730437
170.8617922
180.390321
121.7144465
42.91843456
-26.29293139
-82.13597628
-108.3241069
-102.1690716
-84.24594206
-63.26199333
-51.52904552
-73.7637069
-105.7384976
-92.29256615
-58.99236647
-84.16138046
-153.4925418
-181.3785879
-161.4968955
-159.5810824
-192.018695
-233.6499908
-287.7605676
-345.1982758
-357.7469457
-331.6919863
-338.986247
-385.3891342
-397.276366
-361.5903625
-338.9994425
-334.8015811
-291.7656382
-202.778249
-113.5866253
-34.97467482
50.35693397
125.2665169
159.2366851
156.5180538
140.7118391
136.1508476
168.3388884
230.5285162
280.6595522
306.8613268
328.585542
333.2950224
308.4160731
298.4659722
330.772353
355.7996657
340.8134088
322.3470554
314.1420951
279.8435901
219.1092242
165.0933072
108.2317476
30.85130527
-23.7700696
-16.85933351
10.46987745
9.558832081
-4.466397334
-11.10868427
-17.79852724
-4.955327773
54.23500219
120.1420508
137.5843691
127.4135489
135.2129138
145.8701736
126.0823243
87.27089574
51.58965971
20.15333867
3.760254139
15.58472675
26.58080124
4.193965
-23.73042291
-22.98526751
-15.3372719
-16.26570545
-7.419325521
-13.1284033
-72.91805451
-139.3410072
-146.8804887
-132.5552357
-156.2301935
-190.6020616
-193.4693049
-180.2407092
-162.1893352
-125.6328541
-91.34208302
-85.44883858
-74.27948244
-34.09884403
-24.08705635
-82.73703725
-142.8327599
-150.7331191
-156.1181412
-199.3729496
-236.2710782
-232.9676581
-217.1700431
-208.870395
-196.7701767
-181.6726574
-176.3330219
-181.7239807
-198.6921468
-227.5646985
-243.3848581
-223.2148539
-195.3106798
-194.5074242
-190.7080659
-141.0537929
-68.76066078
-13.68898469
28.88448022
70.57828157
114.2933066
183.0104911
276.5692813
335.8798863
326.1767891
287.4460229
255.7592176
230.6788229
234.6263641
286.9203222
327.1766506
286.4133465
204.9080019
165.0987085
164.5368302
161.6476268
164.7955879
185.2207014
198.1017511
203.7518504
223.746566
231.8230429
197.1013179
163.1670868
179.5363065
207.1568151
185.4724127
133.7027561
103.5949124
88.38063312
49.11371984
-15.24185698
-71.34052822
-86.21052692
-53.29220437
-20.28208649
-45.99861657
-105.4307863
-128.0888374
-121.7663223
-137.1847059
-157.1922773
-142.004865
-107.5016759
-71.56048933
-19.39882534
34.90721822
51.17715181
29.18115976
-12.77514868
-86.47687807
-180.5698903
-224.8870958
-194.3069463
-170.9357858
-221.042474
-303.4701762
-369.951834
-442.8686199
-535.5157629
-608.1159234
-633.7924424
-612.8791264
-535.1847546
-410.9278231
-294.2740989
-212.1230737
-133.9985669
-47.46694258
28.4384395
122.6270535
287.754661
482.6110179
598.9979973
603.5678053
546.6889068
471.4468293
403.8841301
365.9908579
345.7422453
323.5689266
315.0416222
320.8136982
304.213057
271.8384699
274.8020676
300.314392
277.5333743
200.8411295
132.124118
86.43122413
25.87959655
-52.47963294
-124.3805008
-192.584814
-245.9613758
-235.6235514
-161.8139704
-90.92388831
-46.22128804
9.5975349
71.78327386
83.02531676
23.39820812
-72.45153962
-168.9568784
-242.5507707
-273.0800623
-265.5710076
-251.0157534
-245.6877316
-243.2228319
-241.8843769
-233.8011174
-194.5511684
-133.5608849
-97.50287026
-83.52014704
-42.36091263
13.77570038
24.18656599
-9.968943171
-41.63296233
-57.24538817
-49.28900315
8.540508649
89.80468973
117.1004386
81.54148353
60.46761983
93.71689449
141.7104807
167.1469824
159.6847734
100.5359294
-1.772383034
-81.59902696
-100.3300436
-95.03898284
-95.02667221
-79.64875264
-42.68044071
-7.526402654
20.85880695
46.26687787
50.74246042
32.13000864
32.12041064
80.2107562
151.7933588
214.0884198
262.5679512
287.2967436
264.3349848
200.5292458
134.2828189
96.84158848
101.8255553
130.1084053
129.4929631
92.70408859
80.7704921
107.6851527
107.9685117
63.08306636
26.66701529
9.724961808
-21.3322598
-49.37143446
-39.8919013
-29.64511376
-64.60795557
-107.8970075
-113.1672551
-108.2908418
-113.4087518
-86.11279466
-29.1970246
-17.60432913
-59.92470074
-84.90193921
-90.82782438
-147.0452912
-244.6927867
-295.3224243
-267.4566467
-210.5379096
-169.6652012
-156.513088
-170.0961689
-195.8976366
-215.456589
-226.9241437
-221.7109066
-175.914505
-108.8662543
-78.89889519
-83.90052225
-62.68700478
-5.511358165
42.47364155
64.39240943
67.01321882
48.50654167
31.0150017
46.75796024
70.99828327
64.80806745
67.46405934
131.3665413
203.8393258
202.8191556
160.8623916
161.2731868
194.0804138
200.8981103
182.7013387
162.4026845
134.8323816
109.8788849
104.0377837
87.87971538
43.11447863
23.11582913
59.15545366
88.83351784
67.40648948
51.36174651
91.97612659
145.734259
156.6969703
136.5301347
116.6890392
103.7854374
100.4054166
99.74803762
79.46664888
46.84897733
29.53119829
16.38589068
-2.875559123
11.97406891
59.43673902
49.48762675
-52.97182895
-154.7739125
-177.2716772
-150.7243966
-127.6194572
-119.5605563
-130.646888
-151.3619967
-138.6483958
-86.78058027
-61.9159538
-90.95236623
-108.847696
-84.99115931
-80.64344065
-122.179412
-146.7608416
-112.9371345
-51.18034214
2.137584638
29.69381825
13.87087773
-39.42200593
-88.93384576
-105.6297778
-93.84949409
-60.90933532
-20.15664139
-14.92625972
-70.83480707
-138.0364248
-149.6993858
-109.8588176
-67.62519507
-53.89435693
-73.73108978
-101.3045412
-91.49516736
-45.8183439
-8.884211041
22.68406111
81.32601527
126.7573831
101.9266511
54.7267887
55.61986807
59.41842189
-2.580412346
-81.39093722
-105.7597996
-117.2114653
-176.3784892
-243.5972191
-263.78812
-255.0600984
-235.6284372
-181.3005347
-97.37928697
-21.31428737
52.51459783
151.1798341
249.459862
305.0656996
329.0151301
351.3046046
363.8471702
349.2768269
319.4588494
297.7237703
302.867629
339.2560074
368.9852895
348.3119057
306.77303
298.0419019
294.3191413
246.2897444
185.6327848
153.5351578
124.3503529
87.83499793
83.70719609
101.9321675
85.55341778
51.98009633
72.88779901
139.799483
179.8753897
176.4394657
156.7747849
116.3322548
60.85965437
42.61353674
68.68312336
72.40778068
26.63082856
-26.22854025
-74.76589352
-159.3772926
-289.7418499
-423.6934316
-520.089063
-564.4919049
-563.4210603
-544.423491
-540.8134721
-558.4349548
-578.7670341
-594.9039605
-609.4978725
-613.4797041
-608.7494108
-610.4903083
-596.9852841
-529.3673956
-424.2456063
-320.824128
-213.7369212
-101.0367648
-24.76119659
4.678706946
35.77705635
86.40257043
118.9459492
119.7350466
115.2342746
115.650803
124.4275159
176.7754982
287.0452487
402.5044705
483.7373457
556.5758666
622.5854823
628.7310076
574.4690323
522.774697
484.7306458
420.0024228
342.0052665
305.2324721
311.2533502
315.7097971
294.4271419
244.2400876
165.4734884
86.21334533
50.01303457
49.99673607
34.50740169
-13.08415184
-64.59133351
-99.39966509
-111.5626108
-106.3902987
-113.1869672
-145.9782737
-174.6528542
-186.0628803
-201.9042581
-203.0791117
-147.0582515
-69.5649171
-38.49436329
-28.68105173
17.27056153
56.71491944
22.61043993
-40.16371431
-54.35521261
-40.21400431
-44.67734057
-45.03134759
-22.10806773
-14.62583097
-32.87166304
-33.26638447
-9.172126588
0.369178076
-8.776943534
-8.322035198
2.28041949
9.66508553
24.53419913
52.56143443
67.83918406
53.01294712
26.42632588
11.49783598
18.88246744
47.08889674
61.42814875
22.98312579
-35.67739313
-54.21913372
-56.45261087
-97.34622876
-144.4124943
-139.6645473
-104.7214293
-81.99046137
-67.18496823
-62.05836484
-87.43755482
-120.0387737
-118.5519308
-98.45841411
-86.15520271
-49.87375574
27.18381828
81.26437072
69.34329982
41.06836946
33.43025269
9.557947192
-42.7248204
-75.65118926
-75.19063759
-77.48455909
-89.33387495
-85.66131997
-70.03611812
-68.10211737
-85.74043204
-115.6590533
-152.5188951
-182.9095012
-195.5604571
-193.8785958
-166.2188492
-86.4736306
26.60634242
119.3697998
178.8879987
216.2339526
213.5871414
175.937005
155.385752
156.5464114
129.5636564
83.71951256
71.81275479
73.91298261
39.95859297
4.223135857
21.05746542
52.3523404
40.88938568
15.40531919
17.84923586
20.55423791
3.7020049
7.934627774
45.61699825
73.98793118
83.41667288
98.45156198
106.930231
92.64707299
90.28160426
121.7794588
141.985448
111.5701927
59.4493391
30.10501355
29.69131696
50.64048084
89.14862448
122.484035
126.9063425
113.4276581
93.95533269
53.28263061
-0.780311624
-30.79931333
-34.54387759
-34.4861636
-22.40724693
5.263786797
12.32816058
-13.57700917
-39.91507528
-63.61732635
-110.3694759
-156.1454768
-155.5826718
-131.6512766
-134.1966741
-146.6930182
-128.2452195
-91.65914211
-61.59379228
-29.69687736
-4.052069519
-12.05998927
-30.41852709
-10.92819934
27.36134424
26.4501001
-13.58732407
-47.36784274
-59.48437421
-64.29640468
-71.47057562
-94.7500151
-146.9778332
-200.8664489
-213.300102
-195.3896905
-186.5434461
-176.6405772
-135.0138022
-76.37851551
-33.75951324
-25.89122075
-67.3219459
-133.6615729
-155.278736
-120.316427
-98.45235841
-110.8671467
-98.13645331
-43.38149028
6.523926131
43.706104
97.83143652
156.4849715
193.9961642
227.6004518
258.2266296
239.8494934
178.9475102
153.2583755
180.8750891
196.2268048
172.9819519
142.2937054
111.1586255
80.46394566
85.64457079
121.6329863
114.223884
42.96010521
-9.702386193
11.15597175
60.7928097
91.36089302
110.2348922
118.1347555
96.8956735
66.43723442
63.56219748
87.08039952
127.4291313
195.9500904
291.2295726
393.9164165
481.3994303
506.6535368
430.1945966
303.3100927
227.2471879
217.8133431
204.6152899
148.8929369
67.17465727
-27.48196155
-117.8062534
-165.3118988
-179.5702619
-235.8312157
-357.9372082
-474.2389055
-536.6131547
-570.4689237
-584.6368765
-559.7886142
-525.7716257
-528.0484885
-539.9706596
-508.290953
-443.2961969
-388.8305309
-355.3119886
-334.497102
-325.4864262
-312.8543433
-274.718933
-227.1067102
-203.0963012
-197.7302385
-187.754675
-162.4545625
-97.1369989
21.99908431
134.9813721
171.1263239
151.0549508
135.914523
141.7924845
171.5962621
235.7658589
301.3375417
322.0771793
322.256534
347.1833955
359.5160862
295.5326005
185.2288682
112.6024145
104.2847232
138.6313494
195.4532288
238.3199805
232.5326769
210.2412462
231.8984082
287.8063994
318.4337255
303.2812589
259.6025375
195.2508105
123.0816211
79.83432355
84.70250755
115.2073804
142.8729844
151.6456341
130.7918831
99.57829697
101.2867722
127.7840478
122.9019939
84.08450042
55.63149335
33.3716921
-4.871024663
-26.53636841
-9.754262956
2.530927637
-14.19883703
-32.1762836
-46.21997434
-72.89014201
-93.08958913
-96.76426967
-128.1944328
-197.2093894
-233.433682
-211.2878131
-206.2856293
-250.6717839
-270.818255
-232.2233675
-194.5323284
-183.8533286
-162.6164192
-131.3810078
-124.946977
-133.504571
-131.9941344
-135.510348
-154.0811387
-161.0913926
-154.9130133
-176.5840387
-227.2199241
-244.8856702
-199.0031855
-130.49257
-78.03433652
-41.41411043
-12.57846894
15.36350765
37.87481626
27.29914849
-12.67075389
-23.74829848
15.36865616
54.38853047
64.47556547
61.34688357
36.2905329
-17.23554201
-40.32489823
11.38075849
83.18668313
116.7597714
138.6299961
169.5004705
169.0689163
140.8935515
148.1503945
184.0037995
182.8328819
160.5866309
181.2369502
219.4893102
210.4388098
175.3688861
169.8145215
180.4638009
169.2697633
142.7182465
114.1144837
72.03021859
22.88984127
-5.277655866
-14.50402515
-27.77738001
-43.75213263
-57.50690501
-80.90906509
-105.2205499
-111.1465301
-112.1476992
-112.7028726
-81.67259125
-34.81285597
-37.49946628
-76.47363759
-64.60337123
4.125524678
51.89554776
61.8935252
76.36841887
82.47355741
43.40302469
-7.988443723
-30.70585584
-55.35351475
-104.0916528
-131.1397045
-113.3101748
-90.90120391
-87.65431922
-92.04902889
-105.3570068
-121.3748035
-103.1592559
-46.26870345
-2.418512168
4.691967037
13.36115953
45.20391227
73.84349652
89.10336509
107.6626028
119.1183541
104.9936099
84.33239188
66.07269446
19.35938429
-53.28733225
-102.8457944
-117.0215273
-122.6153289
-119.7470023
-91.34655428
-36.82900665
40.51749844
115.6929273
120.9237751
29.59470364
-76.69672428
-117.6740848
-122.6695659
-134.4656721
-109.8668736
-24.63370358
46.80288036
59.20672965
65.7456548
89.19359041
80.91939534
42.87614028
33.73932311
54.59753641
60.62869922
50.12141435
40.07095265
11.25676396
-46.02621808
-89.69584781
-81.93867456
-41.74978157
-13.33331732
-19.48588787
-54.18278906
-87.14745779
-87.7831377
-68.73907368
-63.70039456
-59.49568972
-25.11192498
16.93605495
32.04776957
28.08647141
7.446980499
-41.14309177
-77.11819888
-50.75054906
2.250933774
27.59118661
56.50458084
126.3608046
185.6199281
187.4521353
175.8507765
189.3078825
194.5343223
179.7065923
182.0180309
188.3836604
152.7864832
109.4522206
118.3674
136.9227108
91.31781589
12.45410289
-26.45705579
-31.52691347
-46.45368476
-70.89749954
-94.98117347
-133.0229607
-174.5331547
-183.2876185
-165.0247206
-154.1859964
-146.0568174
-118.9876707
-79.31754324
-33.82730117
10.20038857
17.7433875
-12.10682944
-12.07656499
40.25992871
72.0774395
42.56673416
0.857446905
-20.63693027
-42.30069527
-55.37157068
-30.36243102
5.523060307
12.41498883
14.31141781
33.86366991
29.96315168
-16.53325672
-56.65679595
-68.37505368
-83.27364326
-100.8882013
-95.35363431
-88.95794525
-106.6119523
-105.4362807
-50.39641889
6.028135348
3.366373596
-37.89842355
-66.10886529
-68.27079631
-52.98792177
-26.20082939
-1.409854174
16.027897
41.36078851
66.43250255
53.16204033
2.007446103
-44.40487893
-68.3236612
-72.79091396
-50.70097801
-20.95375514
-20.66919492
-27.49327193
11.62593604
74.15042479
94.93473821
77.73222366
64.77899176
48.57242241
20.28554004
29.27685148
88.40288024
115.9952083
70.15007002
25.06453408
33.38775897
44.59525813
19.42606648
-4.19687278
4.575687959
23.47128281
24.9416255
2.835508599
-31.82617781
-46.27826907
-12.01753974
52.4835847
105.0310372
135.4582572
154.6680271
157.8791134
147.3301315
147.7710396
159.4809723
159.5010547
162.4303094
189.1776392
197.1843227
147.962701
86.2934744
55.46683336
28.17387618
-5.754875816
-7.202412127
9.451300476
-23.00743152
-100.2161227
-153.390972
-173.0001536
-201.4847946
-231.5611508
-223.6213953
-182.51859
-132.2023158
-75.52988763
-33.14206633
-43.27823778
-99.92898155
-168.4479078
-242.2474257
-310.680108
-324.2509621
-253.6914086
-119.8211175
57.11394188
252.7782528
393.6329481
420.5211465
377.0451069
338.955122
299.8767791
220.236724
121.9906788
42.53247909
-28.91061362
-105.0149463
-175.1713962
-242.0019955
-299.9468068
-316.7588829
-303.7230827
-321.9472053
-381.2051847
-433.9824266
-462.4867115
-463.7888717
-401.3111421
-280.2649575
-189.6917632
-173.8560978
-167.978852
-131.4112045
-101.9421804
-68.91582692
31.16584391
162.750044
222.65687
221.7948947
255.5227741
328.3721371
369.3018507
365.0142706
347.9442265
317.667165
269.0305264
231.3111592
220.5431591
216.8572323
212.5625942
218.6939037
228.6885705
234.2067601
243.3386687
243.0459172
212.3916479
182.0045929
182.4440824
166.1615764
91.36539998
13.90052305
-3.960775527
15.13005408
30.85746439
41.46372429
41.11007143
22.63488076
21.85699394
67.30011059
118.3523839
135.1334746
146.1315384
170.2697296
162.6854866
107.1938543
55.01408311
27.30755689
-2.624355593
-26.92238175
-27.31457184
-48.3882769
-131.1890143
-230.0392352
-288.468685
-327.9693464
-388.6680993
-452.3020167
-482.8386597
-483.258211
-467.3451828
-428.5026401
-367.9506231
-307.5171854
-266.3979565
-260.4708638
-293.9400448
-325.7240822
-300.0533922
-213.0916028
-97.48779826
11.89590074
57.72028831
3.371984502
-75.43180779
-63.86487494
21.38508736
67.32169023
49.60550138
39.13566991
58.67917355
76.22051875
99.21650196
147.393141
187.2306774
193.2477084
194.61736
198.2919562
172.7507807
135.1877185
141.3189031
194.3929559
255.1105092
300.5979463
310.9529088
261.7955384
173.6420164
105.5560478
76.60883989
51.84133185
12.25070114
-25.34102741
-56.79731963
-90.80146907
-111.6439817
-97.2022234
-42.01791026
54.12195533
159.2447929
205.4921418
188.7020588
190.3133576
240.2380295
278.5782969
281.4961552
284.387257
284.6037665
254.1560073
210.8571592
169.7858282
97.80333944
-2.860782851
-68.70929953
-92.4907392
-144.3384191
-234.3678312
-289.2326319
-285.819619
-269.4730936
-251.2669201
-224.5570769
-236.7374449
-312.7547555
-373.0146184
-340.4122045
-257.6814488
-210.0748058
-202.1114548
-182.1726331
-128.6437372
-56.4163334
12.05140934
50.65018777
54.05333493
58.49860434
86.41625868
104.8884214
85.17922696
46.12318241
16.85948522
14.55266268
42.51503073
70.81943947
67.67744764
54.52938645
58.95408679
49.84158665
5.924977612
-21.75994059
-8.061593171
-17.61975164
-77.26753464
-101.6668426
-42.44129693
18.60728985
17.37631906
5.769042014
22.7384971
18.31464104
-30.35905867
-64.53051996
-42.65478098
9.356270488
49.74649606
55.68414162
29.02004013
1.985541985
3.279982128
14.81339262
3.708230309
-20.49388341
-25.73042783
-3.275728817
44.25172164
111.2023908
162.7194809
169.3081713
160.6664949
165.7205107
153.3443261
112.6068287
92.77572355
100.6737529
85.5443778
53.14380214
52.3521295
58.77223269
17.15101462
-38.81153437
-45.24291276
-29.13465255
-48.58349806
-81.4487033
-81.32856909
-64.97981387
-53.449126
-18.94849436
44.18544923
98.74257041
140.6264548
186.9257528
203.7616167
152.7988771
71.01478684
16.97876464
-12.5524436
-52.85806133
-112.3899172
-178.4478313
-233.3689419
-258.2672685
-260.7489488
-272.4596618
-285.6253298
-257.2398647
-200.2007646
-166.2632151
-137.6611063
-69.62185675
-4.28142514
1.122678014
-15.5502153
-6.215266626
1.23236117
-12.16550597
-13.75104276
-7.313351386
-33.03289921
-71.21274343
-66.76882043
-27.40959041
2.130515254
12.8032777
6.505473181
-22.64629092
-42.93701462
-18.8416873
11.17890418
-4.711499199
-38.10189917
-42.82094524
-30.77456239
-13.70260248
28.44269362
80.38442159
103.1119817
119.2915723
174.6146822
232.4307428
219.5158567
149.7362124
97.64024636
82.04846614
70.38086583
55.2671412
46.59881961
40.65135767
42.53568255
57.74950702
67.7002572
72.41855571
98.60684755
128.7262515
122.3608451
109.9109474
145.5477041
203.8285814
239.7189338
276.3204161
327.400306
336.6976519
288.7043819
261.2328144
290.3339681
313.2523244
300.3270293
296.6036975
297.6529308
239.0555672
124.6594108
22.59335848
-52.9339076
-132.1638444
-202.3753643
-236.0777378
-258.5073498
-307.4704976
-372.8685387
-425.3537663
-460.022173
-484.9192002
-505.5914034
-529.7720055
-557.8280551
-583.337339
-615.9781659
-655.2524677
-656.6356472
-606.4090261
-576.5777102
-606.8482625
-624.261233
-566.2264758
-463.0567049
-347.205163
-216.6181893
-102.2103072
-37.25981682
22.08171037
128.7530225
249.4367336
336.226684
411.8488078
497.9049825
556.9115398
571.3235534
574.2007058
570.7357579
541.0890008
510.5689384
505.4157954
485.6089363
421.325607
363.698537
358.4890629
372.8732088
367.5951949
358.1089524
361.5027244
356.5854532
324.5873296
271.6665493
205.9170484
139.910506
94.06127736
61.80011563
19.54653398
-22.4550881
-47.90156995
-77.92362731
-117.9232549
-135.7323401
-137.9788103
-166.4995225
-208.1573793
-218.2474086
-212.8219642
-234.1326124
-265.6724578
-271.9848586
-269.0411519
-277.0812892
-270.8083235
-247.5440547
-258.7508263
-309.5507741
-333.8600414
-312.4630714
-288.5984964
-256.9990051
-174.6862772
-62.2439329
