336.6976519
288.7043819
261.2328144
290.3339681
313.2523244
300.3270293
296.6036975
297.6529308
239.0555672
124.6594108
22.59335848
-52.9339076
-132.1638444
-202.3753643
-236.0777378
-258.5073498
-307.4704976
-372.8685387
-425.3537663
-460.022173
-484.9192002
-505.5914034
-529.7720055
-557.8280551
-583.337339
-615.9781659
-655.2524677
-656.6356472
-606.4090261
-576.5777102
-606.8482625
-624.261233
-566.2264758
-463.0567049
-347.205163
-216.6181893
-102.2103072
-37.25981682
22.08171037
128.7530225
249.4367336
336.226684
411.8488078
497.9049825
556.9115398
571.3235534
574.2007058
570.7357579
541.0890008
510.5689384
505.4157954
485.6089363
421.325607
363.698537
358.4890629
372.8732088
367.5951949
358.1089524
361.5027244
356.5854532
324.5873296
271.6665493
205.9170484
139.910506
94.06127736
61.80011563
19.54653398
-22.4550881
-47.90156995
-77.92362731
-117.9232549
-135.7323401
-137.9788103
-166.4995225
-208.1573793
-218.2474086
-212.8219642
-234.1326124
-265.6724578
-271.9848586
-269.0411519
-277.0812892
-270.8083235
-247.5440547
-258.7508263
-309.5507741
-333.8600414
-312.4630714
-288.5984964
-256.9990051
-174.6862772
-62.2439329
23.72175478
73.89351751
101.4095467
99.26278908
73.16312127
51.58737114
38.33862079
11.01603354
-30.06586523
-59.42893789
-60.04897025
-23.03987221
49.61323094
116.850667
132.7626546
113.3682845
101.6922985
104.4183919
128.0781794
193.6245758
261.7091504
256.1473034
190.3323688
149.0691581
152.2271738
159.7294761
171.8802432
204.0623859
219.3779313
188.9382072
148.5418739
123.5741362
89.20349578
50.16881268
48.97400806
72.95527892
68.7615105
40.36925449
24.03549944
4.985052852
-47.36104023
-115.3400611
-169.1867309
-207.2512444
-227.6187369
-222.28418
-205.9639061
-191.4010664
-160.290285
-120.7009826
-136.6791336
-229.5736653
-328.4675112
-380.182109
-408.8437993
-432.596986
-433.8510557
-415.7193922
-397.3152494
-383.8857025
-382.0396201
-381.7106717
-337.5045496
-246.1407129
-176.6199353
-143.5515259
-59.06693391
108.5848655
259.9663356
325.879753
364.4316408
426.1367586
468.3968388
469.0466198
479.416907
516.5947132
538.5339597
539.5264233
544.2135895
526.7823739
451.3352325
354.9452564
295.2947743
261.4893829
211.0100086
147.4381603
101.5772086
76.47362036
56.83165913
39.11155565
24.18786802
7.388094448
-18.54794842
-60.50141776
-100.7352958
-98.70680708
-66.97323645
-76.64353504
-131.9502565
-157.762939
-149.0251539
-171.8547455
-206.7526348
-169.4246331
-70.13224441
9.723825579
52.03402833
81.04127928
79.94295667
34.72839932
-16.95820089
-58.61535463
-132.4138608
-251.5830394
-364.120283
-431.4143646
-458.1458604
-446.365965
-395.4895852
-324.7098981
-244.9026855
-152.1728474
-75.30542851
-67.17821606
-130.4807283
-210.6895427
-267.2616414
-296.5182753
-295.5281117
-264.5516536
-225.8808804
-183.6926661
-103.2657552
25.33391288
160.1090259
260.7371503
306.095417
287.2430473
242.0497025
232.237883
256.6306791
274.4688715
296.0131884
342.1494233
366.8873718
330.7272509
279.5401323
259.2526448
242.4578026
208.836205
193.0836262
201.5808697
192.9988305
170.5402847
175.2433949
185.9655576
150.203083
88.52366445
50.40630983
20.97735117
-24.86051271
-51.85688948
-33.73153615
-10.31735033
-14.88194746
-28.59601502
-43.8249871
-87.77733057
-159.9014125
-218.0576444
-232.3800852
-202.7025045
-150.6682071
-123.1218814
-140.2875452
-144.1265262
-84.28867735
-4.437117308
48.94786231
105.6889412
178.0480839
209.4718592
174.4059734
114.0531689
55.85630315
-1.244628835
-43.52603509
-71.54033289
-119.7148867
-178.9295268
-183.9725007
-130.3979455
-93.27903853
-98.86639326
-109.3263398
-136.5951061
-222.803737
-325.9511517
-364.374573
-340.7753889
-314.525333
-300.4700017
-272.7236051
-218.7384472
-142.0464527
-53.79582278
21.88062523
75.05950932
132.9288516
209.2345456
265.3723677
275.6149408
270.2528692
262.5250757
221.60828
155.8812322
121.781558
136.7588773
166.1682542
174.3096823
142.9131167
91.3694739
78.65798937
116.034647
125.1388981
60.34453756
-12.58782607
-35.59616611
-43.02845861
-61.98603212
-60.84338592
-49.10511715
-85.34954528
-153.1348294
-172.1626948
-133.8589463
-90.60707762
-48.82918768
5.630819863
42.99687276
44.20971713
41.51746092
53.98490005
66.04625569
81.66354313
116.6410319
149.8963176
156.2011615
159.0076889
186.6719089
213.4907843
199.9732889
150.7748853
95.15611913
57.25256123
51.78071733
55.65442893
18.22788065
-50.83814835
-82.09031205
-71.41435387
-93.1248396
-166.3732351
-232.0474417
-265.3495744
-291.7405954
-308.4151309
-297.7087118
-284.3825488
-288.1704556
-269.1249656
-195.0447203
-101.2491352
-30.99016504
11.68253954
30.01304127
35.23038254
64.9535617
127.0385644
170.7742629
169.6764208
161.6140153
170.0790601
170.2433845
156.7347583
162.6138846
198.0859787
238.6245032
267.1003487
271.1234279
232.6689477
170.0216983
130.2842345
111.1684469
76.65004613
38.74444368
12.80322681
-49.60801121
-165.0902767
-251.2053315
-250.6593901
-205.178903
-153.3926438
-89.08731469
-39.03624519
-50.17966901
-101.7825436
-137.1890781
-156.4464102
-192.8064332
-243.1490756
-291.3159412
-341.1627745
-374.1946566
-350.3583547
-284.2279937
-234.0756243
-207.8379038
-165.1557776
-92.84091008
-7.345948579
77.86253904
142.9245363
171.9937912
187.4249411
217.5222243
246.3398075
252.8854181
258.9836916
280.102455
287.0368139
268.7890048
256.7344586
248.3657144
207.187997
154.4948294
144.7177211
163.0038279
162.1072268
153.9091135
163.4432189
161.260219
118.9831082
59.41689378
12.12424761
-7.809076996
19.98252481
83.58621788
114.4800333
74.82645178
10.95616692
-38.19767548
-96.01121538
-166.6946835
-207.7688443
-209.7348193
-201.5492619
-188.1708469
-164.3913179
-144.8158548
-129.9807152
-108.6204599
-104.5221429
-142.8364715
-187.6354512
-193.8503194
-185.8734793
-206.3311191
-234.1516985
-230.865038
-211.3517949
-192.3397233
-140.4873835
-42.48260838
52.84520878
108.1558946
131.3721252
136.5819235
146.5485148
186.6425797
226.9879382
217.3259321
189.1476321
206.779196
239.0029862
204.2149047
104.4996651
7.409955796
-53.41019674
-76.4449746
-56.58652348
-14.06387488
11.74412172
26.32355336
54.23534315
64.6076497
26.25838279
-11.14845813
1.522317665
23.07068871
7.685136165
-11.45861019
-2.55779039
2.747178437
-9.29268643
5.254054719
58.7712164
102.7817614
115.3644183
121.4231194
122.0271363
94.06071968
39.17849776
-33.48154076
-120.6816291
-191.1187483
-213.5877294
-209.5378466
-207.0175164
-194.3168621
-171.3069843
-166.8389026
-175.7579538
-162.4902818
-128.3295579
-100.5689783
-82.06854182
-71.60689473
-81.41708457
-88.53358245
-42.40198204
46.82064652
118.8888945
175.3385705
267.6148657
377.104508
429.2406633
405.1077773
335.5838054
240.2185798
149.5507371
105.987329
93.35581314
52.6676875
-22.47232197
-94.4891867
-161.4550523
-238.025203
-294.6472927
-296.7315986
-261.6566655
-217.8102286
-166.1372727
-119.5294015
-100.7269916
-89.00686529
-55.77558445
-25.72493291
-22.44200214
-20.66843489
-12.57396737
-30.70670328
-77.57254073
-124.3238795
-161.7418261
-170.5537229
-110.0433365
-11.63224004
22.80531982
-19.56092797
-35.81102234
14.28155414
54.90090765
48.02892441
41.80585584
57.18060729
71.78693388
93.26063551
128.0305294
133.2348213
93.41650941
70.47198
110.754058
178.8197838
222.7556324
235.1295656
230.8944833
223.6867892
223.7716925
215.0800283
164.8502934
94.80245187
75.37597037
111.7754761
129.3687695
94.11921333
45.35840103
17.52972433
17.27226445
36.89360007
38.66842137
-4.448460549
-43.38911191
-18.34119336
36.45462366
52.0309498
40.94520453
57.70692048
97.93823092
117.6247878
97.0760563
37.47603309
-38.83013637
-75.77773318
-57.32266342
-60.30195573
-134.3244789
-204.3960813
-197.1322447
-159.9340287
-158.0312356
-165.1816625
-133.7816977
-68.69180144
15.11694595
111.9549641
186.7472053
205.0150453
190.8842936
178.0695574
142.0392302
49.76343757
-86.57960612
-250.962118
-426.5159644
-550.4081359
-581.4260603
-579.9243811
-611.1213384
-645.601096
-639.8351929
-606.1914274
-554.1212804
-479.3941472
-414.4590165
-379.3450989
-326.7824874
-228.4534781
-130.0892369
-51.96137748
43.9620205
141.0561571
171.0639922
158.3903746
203.3347104
316.4685459
421.2982396
496.706329
575.657449
641.3476403
641.1228367
568.7773332
462.4277203
358.0621556
279.1207111
232.8318703
200.0488901
155.1869357
94.15691853
26.81012834
-33.10895322
-58.24078862
-34.15268851
4.41033641
27.64287877
66.43819751
136.7957122
189.4940768
209.7420501
246.0049084
292.5596867
293.12733
270.1940817
287.8370875
311.9377962
266.7494466
178.376989
119.5559086
79.89458583
9.99218852
-75.45784592
-128.1345809
-138.6343808
-128.6105355
-124.6888384
-149.5882179
-191.3571403
-206.9317662
-186.2604803
-153.6268671
-97.99750181
6.12805229
109.9545782
129.6360156
71.75157102
16.59332073
-6.700823714
-23.51744599
-27.71424239
-5.10031717
4.917663608
-21.63965871
-32.41535902
4.625855166
38.67575015
26.09109396
-23.87585266
-101.8516939
-195.7204201
-267.7057005
-304.7607528
-333.5077163
-362.1321551
-381.1765783
-404.1636446
-436.9513276
-453.4357232
-449.0577804
-444.8396416
-415.4903226
-312.2090461
-170.324212
-87.39889701
-89.75025087
-122.3186782
-152.1961772
-181.8063977
-196.5495549
-185.5674088
-167.3899924
-145.0205313
-97.00455025
-29.33066766
33.60481823
100.8636947
187.5263504
260.9416862
281.7152275
268.029652
262.4886796
270.661593
277.8132558
281.4680039
276.6509943
264.2511276
276.3001469
329.2464586
385.8651357
418.0212604
435.9764778
429.8463537
384.184622
339.0089776
322.7761231
281.9785511
190.395489
127.9308164
143.4778255
165.5424903
138.0957061
104.0177153
90.17575845
59.50697219
13.19691129
-8.22517741
-26.60938327
-90.33260983
-174.6806823
-236.6358427
-296.3679161
-369.2152725
-408.3476059
-387.9539016
-353.2569254
-338.0815878
-314.5307356
-258.378671
-193.7421972
-148.4166166
-119.2301491
-90.38772757
-50.21263492
-4.495454824
16.7036622
4.957915567
-0.749725216
15.36863516
21.38650445
25.70360612
77.9527325
159.8903963
202.4936531
204.7182844
215.1961231
235.712591
245.4121158
254.9234831
257.1802684
210.8232604
130.0731854
89.34231871
100.2843416
96.89667156
58.78582388
28.37415957
11.9555751
-19.91735908
-62.1432919
-97.55277894
-137.0682582
-176.0308291
-178.5080462
-142.1380159
-113.0025152
-121.1556005
-158.8064465
-216.0607075
-279.3322456
-310.0602232
-282.9631629
-223.5310798
-165.8405272
-118.1875945
-90.68396313
-83.58119635
-58.20749918
-7.489922879
-0.184337965
-66.95035405
-137.1365331
-156.2898141
-149.717458
-135.8652967
-97.44583964
-42.92179836
3.747616855
49.82418754
101.9122159
143.399777
184.0979047
251.5099867
317.7048135
334.2227047
327.9221355
349.413383
366.2957813
328.6197995
280.3987254
288.6918741
325.3880064
314.370127
237.5903844
130.8220489
26.74827909
-58.13499039
-118.4804862
-160.8340003
-189.7094147
-202.6612566
-216.4692615
-262.9853635
-334.0775344
-383.2853214
-397.6775637
-395.517542
-369.5646665
-322.2390386
-299.4321817
-309.8547327
-307.405832
-292.0230854
-299.4769484
-302.0329597
-259.6900917
-213.5959282
-195.2979184
-138.8935133
-7.348270088
111.6791355
148.4539327
161.7901957
213.6982621
274.0264925
322.6490227
396.7472828
491.6704068
555.822215
582.8458906
588.5587735
547.8586346
454.0105728
364.9701137
324.029277
314.8187742
322.3420115
351.7640757
377.0115456
351.064089
269.5550952
165.2683225
60.49139382
-26.81588979
-73.47612936
-86.76235692
-98.56367481
-117.1230387
-135.4240791
-153.1160696
-153.1146902
-123.9250188
-106.6803011
-128.1230933
-129.5777499
-68.42049333
-10.82028659
-20.58642725
-61.84853655
-97.87715858
-159.2689996
-245.8191337
-296.2437855
-303.2441656
-326.1705853
-371.6377954
-389.5342403
-373.4932368
-350.7090635
-316.6997393
-269.5727332
-239.5805872
-227.2197588
-198.8376871
-173.2533294
-213.8378968
-317.0101859
-404.287853
-431.2156392
-416.7212288
-375.9148435
-309.0237834
-232.8495972
-155.588821
-67.48230492
9.727674821
43.73478763
58.19551602
87.72676098
119.0863681
152.0811887
215.4772642
277.8745096
276.3311991
237.6776288
232.8239098
250.5904411
249.4410831
261.1601377
322.3591362
391.7432184
428.9690272
451.0510338
452.5100044
399.1337599
328.2070026
308.789271
310.2619883
261.6584421
198.6352581
203.1929568
255.2591001
270.7285188
230.1607619
177.2090444
138.8883547
108.0787514
69.80380141
18.07885162
-28.1012485
-34.91878467
-7.267508736
7.780916945
-1.019597157
2.97234645
22.41639576
27.57495487
28.15545121
40.54392696
37.51110612
18.00027618
28.7501743
60.04719983
46.05214485
-12.68144981
-60.08304796
-96.97925993
-153.867951
-202.3331974
-211.7125079
-225.7264027
-284.4026925
-352.0624614
-393.3430802
-421.7008431
-436.5540184
-426.039987
-426.5878524
-464.0330792
-487.4625707
-464.3074485
-447.0424967
-460.782143
-442.5106789
-358.5463078
-263.5782354
-196.8795798
-128.0925448
-34.75816923
58.59842294
132.8438564
190.5909998
224.6008634
232.7197634
240.0133878
261.0478536
284.7991973
308.8683655
328.4040187
319.0288099
286.494084
269.1932229
263.8728239
239.8910268
217.2867169
225.2789566
221.2441294
151.7776464
40.43865392
-63.44175444
-151.2991586
-210.2316795
-201.9204977
-143.1745502
-107.2859033
-98.34095975
-36.82092137
97.13857737
221.4409866
266.00936
234.9382134
172.2015457
133.7183499
156.4926538
216.3874689
259.0377588
274.8892636
287.9066403
289.7847646
253.6761478
187.9772116
114.0330924
31.16287992
-46.78884509
-86.79031527
-99.37666175
-119.9579245
-133.8263837
-118.522299
-112.9801348
-148.513318
-187.3993805
-200.1678033
-210.785111
-230.3259869
-242.6639747
-256.46656
-282.6022127
-290.1879568
-261.0276369
-232.151013
-221.8391324
-190.5161612
-125.788367
-75.17771791
-61.14757152
-59.16613567
-62.88236702
-75.74724741
-67.92989294
-27.67294843
-0.104662076
-10.25975457
-21.89936089
-14.79339468
-18.98622588
-47.06311052
-70.4231331
-69.13827871
-37.30015303
45.63175336
182.3450349
325.2184488
431.0020797
499.8403454
529.3770096
507.8567946
462.8201205
433.2439261
413.8534132
392.9692604
387.3628435
390.723096
361.9740572
291.0124753
205.4839933
118.5820147
33.12489562
-39.78269012
-115.2189203
-221.9507161
-329.2822402
-380.9249677
-404.1546174
-466.9661288
-547.8872829
-579.6163898
-576.9231657
-591.6980437
-605.7983788
-578.3959113
-523.4004054
-464.2029609
-392.8387106
-313.8532262
-248.8591228
-187.3177956
-106.2468714
-26.45307776
18.34975148
40.8973116
67.97698153
90.44365645
96.86285625
101.1996814
108.4293985
119.6025951
159.0150138
224.8490845
265.6081732
261.0501633
246.2380581
237.7404337
232.9084219
259.7820271
325.4393032
366.7898538
347.9385822
334.1150256
384.8925301
457.130061
486.6340272
479.4451251
462.8427282
433.9260732
393.5683618
342.907141
250.6842042
117.6354059
24.52165648
22.74407365
51.41478556
30.95330679
-50.06516104
-169.8689006
-294.6272502
-363.4710629
-346.4932641
-301.4684875
-302.5759181
-352.1228019
-414.5323241
-471.2738241
-495.0526314
-455.6038296
-388.2099363
-360.6961281
-370.9066889
-378.2658154
-385.8053864
-389.7921622
-342.0583439
-246.8237117
-181.1295267
-170.7342923
-163.8866699
-133.2803147
-87.1233351
-9.853352855
96.56658158
165.52004
157.7743193
132.0614336
147.7971966
184.0811368
210.4289154
239.7927489
278.698312
312.161451
334.3977912
333.6124732
292.8697815
240.5178376
228.7793422
253.4358315
266.6769674
253.9745371
232.405192
201.5826973
160.2929303
144.466545
184.815448
250.4991415
289.3360696
285.6177527
240.6767147
162.2992117
90.47672367
56.98354686
36.67568312
1.551692116
-37.86882854
-80.0878599
-128.4074567
-142.4859334
-102.8059813
-79.82108124
-127.152741
-183.0174234
-184.3398234
-178.4326511
-224.1834358
-295.4716694
-361.8905674
-441.0565843
-515.6440318
-531.2108367
-501.7595813
-485.7761584
-471.6183463
-414.6492096
-341.5851763
-302.4863186
-280.0781997
-231.4303756
-153.639761
-61.75708172
32.79993903
107.2590538
148.466684
178.3493352
214.920367
245.9534852
273.3350427
318.4354449
367.2524194
390.01172
396.7603753
395.5699506
362.326042
312.3592735
295.0937967
289.8502113
236.3256098
160.6749734
138.2412665
164.6512132
179.9955483
164.5280454
118.8478258
29.76213964
-70.99345776
-110.4640419
-86.61192688
-67.94908122
-66.15539412
-37.51450626
2.031196307
-0.888660577
-33.67924915
-52.37637518
-61.11229909
-69.91242683
-53.38691121
-16.86587512
-16.2695317
-64.31105464
-99.72232589
-78.85116723
-22.35357385
36.1635531
75.21134511
72.86226568
33.35249323
-7.324575439
-36.6786366
-64.83690381
-72.40527394
-39.38241852
8.002926948
43.35048536
72.66549895
93.1030351
93.8567043
89.91196306
87.00157594
56.36515602
-3.631892036
-49.42285842
-68.07823262
-92.38903176
-130.9627842
-166.2445718
-213.6434171
-295.6233939
-374.8590314
-400.9187313
-394.2383789
-400.359907
-408.312667
-388.7577212
-350.9178644
-305.7519168
-240.6655066
-161.3596984
-93.26922568
-37.96955777
14.10680745
50.21662178
64.88911536
82.5727248
112.7087263
137.288282
163.549669
217.1935036
283.9684399
337.9929923
392.9356178
449.129047
466.7662151
449.9078746
449.3168294
457.6141182
424.2943493
359.8106688
304.5881433
244.4726751
161.6651443
94.26351723
61.62257888
22.15061062
-34.36906937
-58.10285458
-44.01042553
-51.88911225
-99.92399155
-147.7923299
-177.2646544
-190.6025191
-170.7958132
-124.6271889
-98.75705344
-100.6412381
-86.62873805
-50.07858519
-29.06099254
-28.48068326
-24.7815465
-28.91477285
-62.82076566
-103.4616702
-118.346958
-116.0173214
-112.2839252
-101.5140767
-87.54037906
-80.96986664
-72.17715473
-59.92062892
-60.53167263
-58.27297406
-24.73227933
12.40224456
10.45182655
-12.51285791
-27.80374702
-54.66160902
-98.99465152
-126.7851198
-145.3426294
-195.1521519
-238.2170073
-192.5435812
-83.57080995
-14.39333445
-1.949072349
12.08976031
35.41065169
47.81190835
75.98087667
128.5471245
144.3875233
91.08748027
23.52330939
-8.082367559
-20.10918154
-36.6447892
-46.76573882
-37.53467322
-12.51241671
22.97595159
55.34065903
63.64738731
55.30532977
57.68981298
68.62767301
79.53913478
117.5484324
187.7750252
236.9041789
233.6927876
198.0334654
135.5814651
49.76907698
-12.10740738
-30.78702228
-61.04731512
-114.8934534
-108.4874808
-5.505019919
112.8368242
179.7291884
211.0632164
212.7961025
164.142532
101.2128415
77.14279246
56.87157483
-19.74975555
-115.9608172
-153.5248651
-130.0667379
-95.13771135
-76.02788473
-77.77919732
-88.76657053
-71.46953189
-11.33157434
44.12223843
53.00504099
39.06094417
30.59631079
8.62157653
-36.98106198
-83.68669746
-135.3152687
-212.5055291
-293.1359822
-346.8517358
-376.4977661
-370.0200903
-309.1745816
-245.6732746
-242.523114
-254.4475189
-196.3583871
-83.47524939
14.62213528
86.77253571
146.6057206
172.1230439
160.0666866
155.256593
175.2243008
195.168829
222.5589288
284.2164829
350.9738686
375.6329458
369.3702305
358.9482202
329.1055614
270.3857569
213.7362107
173.3376614
124.2580268
62.97598854
22.8051312
14.00684369
7.541801714
-16.91086647
-49.37248138
-65.1531269
-42.80745206
6.5402578
42.15679604
62.99230845
114.9436669
189.259717
214.2202158
178.1825481
139.9622512
117.0637302
86.50769959
56.87044842
28.91352083
-43.31245679
-166.4967687
-273.9976841
-329.2149056
-360.4994649
-374.0342068
-348.939703
-321.3648274
-349.479242
-405.7024992
-425.8198151
-430.4801142
-478.0546172
-554.6661616
-615.6483315
-656.0298096
-661.3246862
-587.5314701
-447.9319356
-325.9986554
-271.2398544
-256.4535125
-233.3722347
-164.1322344
-24.86158833
157.730722
311.5320958
410.4001672
499.5265954
603.5830228
699.3167099
777.8445396
838.5976667
859.2220252
841.6569276
814.0595657
761.0097004
650.968217
517.6694064
410.6566959
313.1769202
200.0836169
101.3627383
35.42708897
-28.42919998
-93.43587274
-119.4961295
-103.468748
-83.14188196
-74.54372975
-88.57476106
-162.6012991
-297.1924854
-426.2555943
-506.5596727
-560.5672747
-605.8395604
-628.9016224
-634.8331592
-642.9178196
-639.7149337
-599.0814678
-531.6883982
-465.9648628
-403.0822259
-327.6239488
-232.362534
-111.5105428
26.84870908
146.1603734
238.1657955
357.0084748
533.8544526
723.2215684
873.1696839
959.7002458
958.4839242
893.5658138
868.5284145
933.7160767
993.4924994
944.4104117
814.4555651
688.3189289
597.8340098
543.6217839
520.9071176
485.0054743
383.1941978
229.6077936
69.81950737
-96.21836431
-279.1845398
-447.8854448
-576.5715792
-675.2225767
-738.8526722
-746.014975
-716.39317
-694.778729
-689.2104347
-682.1193023
-670.523925
-652.912888
-621.2428713
-594.844774
-607.649717
-648.359921
-679.8119263
-708.4083118
-753.472535
-782.0278142
-760.3407568
-717.6038944
-688.0599058
-656.0278246
-602.2078478
-536.9930712
-474.2255954
-425.269147
-395.5133857
-347.3969313
-221.8890504
-28.6672868
153.36194
286.4009335
409.3613533
556.0683136
720.6260445
893.8368011
1045.899466
1109.397483
1069.847614
1014.245883
1012.712841
1027.380617
993.9858627
911.0691744
806.7935198
688.0739802
553.0435504
407.0609907
255.8254132
118.3648806
38.72528619
47.44932128
128.1371976
244.671445
362.3357102
441.6085446
469.3165615
464.4396279
404.4217288
239.066231
20.84821506
-117.1848644
-154.4773898
-222.8751808
-441.0055747
-803.1799148
-1192.777468
-1442.18585
-1467.022293
-1386.33497
-1405.636245
-1566.986048
-1732.888688
-1798.007395
-1766.409132
-1640.297449
-1399.206964
-1084.870249
-772.4522363
-477.2088308
-171.0480286
172.1191801
588.5053404
1081.462351
1552.25457
1879.553537
2049.23411
2107.536359
2048.747504
1870.999502
1681.418677
1610.375006
1649.94997
1679.56356
1618.444768
1472.850723
1265.934439
977.6580123
562.6402273
48.29492085
-416.6624314
-699.4626836
-825.0889113
-880.4292658
-867.9035012
-774.1397142
-667.3314358
-590.4049822
-456.6072744
-163.8344675
270.1651964
755.4432131
1219.269876
1602.849136
1869.475708
2045.324927
2161.082947
2161.12199
1958.722494
1540.604234
944.1781057
206.6181683
-593.0702606
-1315.730518
-1847.879021
-2173.730847
-2362.615743
-2525.64387
-2753.183713
-3042.169804
-3319.411529
-3562.624349
-3819.909519
-4088.766511
-4294.975183
-4408.034378
-4441.716653
-4352.240882
-4074.617632
-3621.677185
-3043.861695
-2356.299614
-1555.794998
-632.0153877
432.5493461
1586.214378
2654.497013
3433.488485
3826.914145
3881.480399
3734.374676
3538.017626
3390.192004
3314.564165
3305.280926
3341.259193
3335.574649
3177.343496
2901.215744
2694.363525
2629.682055
2512.176942
2099.78562
1381.49145
561.7111867
-144.5808878
-643.6364004
-955.4000135
-1133.154085
-1194.04841
-1129.997178
-963.4312909
-736.9548366
-462.9286825
-150.5302793
161.2423719
478.874765
876.5937254
1351.814669
1769.027852
2024.530502
2155.316879
2244.251656
2305.611063
2253.379009
1934.670332
1284.52742
494.3172655
-115.9572533
-458.1252023
-763.2927717
-1273.996009
-2041.254387
-3050.950729
-4273.673481
-5490.921073
-6334.619056
-6634.371222
-6563.2073
-6392.810254
-6232.65816
-5989.299313
-5479.358011
-4629.989693
-3611.386419
-2672.436775
-1819.218597
-789.3538133
599.3829932
2184.583373
3608.919746
4658.464785
5388.618856
5963.083661
6449.70567
6807.431882
7018.255483
7119.985931
7117.352583
6984.869012
6714.722375
6222.481221
5330.76234
4044.169362
2697.738294
1623.135824
788.4880369
-80.18635421
-1156.880272
-2401.706556
-3630.001986
-4591.910317
-5117.313474
-5267.984534
-5266.794145
-5269.612531
-5284.947015
-5258.366281
-5124.921516
-4828.931214
-4373.814966
-3816.6246
-3201.762445
-2555.079625
-1912.085432
-1278.686286
-600.4947156
171.3712224
1017.990472
1859.925468
2548.448464
2863.111459
2650.63474
2003.176154
1211.292334
536.0586706
81.99351613
-187.4809603
-400.3235876
-654.0610438
-890.4042379
-993.590387
-984.2407743
-947.981187
-834.4312754
-532.6277138
-82.01102344
376.9872242
788.7002244
1180.435768
1566.305502
1951.134843
2345.029254
2730.926769
3104.650678
3531.83182
4052.931957
4576.075194
4982.613081
5272.161825
5489.840424
5584.320848
5441.877147
5017.834951
4375.590954
3607.885874
2721.663333
1622.091758
285.9273044
-1075.117571
-2159.349207
-2867.373635
-3304.436553
-3573.12465
-3790.647965
-4207.249904
-5005.417251
-6034.664188
-6971.802339
-7642.034596
-8012.786657
-8027.291582
-7630.026485
-6891.609247
-6008.309605
-5165.551761
-4379.479296
-3488.130048
-2366.762672
-1106.463025
119.3695702
1265.550904
2331.902564
3191.055567
3713.350959
3966.409704
4109.646249
4226.454518
4399.714154
4732.605972
5138.636714
5337.123455
5183.401477
4790.23576
4250.125048
3461.844765
2315.675854
898.2126344
-534.6170829
-1703.793496
-2457.629623
-2880.254811
-3219.02496
-3613.696911
-3927.250562
-3905.812458
-3468.662045
-2792.641361
-2119.22367
-1518.477431
-923.7895437
-397.4919031
-158.3853841
-234.9430132
-317.1408509
-113.255566
352.4289872
908.2512085
1448.718929
1885.666275
2161.290646
2402.820413
2817.270184
3382.505285
3871.806714
4178.784583
4384.240456
4534.43928
4582.258668
4527.994327
4441.215144
4347.345231
4191.020458
3911.756223
3545.033678
3265.555849
3242.703633
3331.158522
2984.247222
1689.016686
-465.0337193
-2768.630051
-4472.761668
-5350.620287
-5748.353507
-6151.320926
-6713.854513
-7263.246254
-7687.558399
-8042.692961
-8250.702406
-8023.115989
-7182.718039
-5839.688176
-4258.762132
-2753.870367
-1620.40346
-934.3551686
-459.561672
84.15006275
692.1161973
1127.992741
1282.837908
1354.09573
1604.823316
2021.704876
2323.924141
2309.224398
2085.11292
1918.500412
1955.984243
2151.059814
2367.523124
2478.833098
2431.974265
2268.026257
2068.550757
1909.745798
1875.172579
2003.751198
2153.359417
2027.270278
1474.669436
713.1624498
108.6707097
-230.1518333
-489.6115648
-840.7483668
-1280.01618
-1746.441297
-2211.063321
-2646.111867
-3032.691213
-3394.496996
-3743.238051
-4010.296144
-4077.973639
-3857.059396
-3335.814324
-2581.224725
-1650.319543
-493.6269349
925.0725118
2388.251664
3507.354108
4129.107076
4471.885282
4781.843335
5015.680265
4923.61325
4351.240033
3444.750753
2576.125539
2011.166667
1665.169327
1272.972878
756.0955441
290.7829838
36.98832567
-50.80078297
-121.2613596
-252.7317549
-412.7673978
-511.1616828
-464.5410154
-222.4687344
253.8401866
949.6153859
1695.732182
2246.608367
2507.350105
2532.953025
2304.87812
1719.354941
820.2069605
-144.8723462
-943.5679861
-1534.210627
-2026.921421
-2531.342451
-3022.092469
-3346.407599
-3400.932947
-3244.607067
-2970.059314
-2585.186344
-2142.029719
-1829.435889
-1769.091992
-1833.655664
-1787.973921
-1506.510179
-1001.426037
-362.724688
289.6778095
866.2689175
1305.464352
1499.329576
1350.727657
971.9404219
683.4755092
690.9934763
843.1054233
810.0867734
438.2369802
-151.8708797
-744.2723755
-1203.600891
-1484.514186
-1538.959488
-1302.88773
-820.3026702
-289.4519095
109.4628462
356.2824845
495.3695347
528.7776695
497.477707
526.4553775
647.5526418
657.4751982
280.2773308
-551.2384956
-1629.223193
-2631.58762
-3318.490757
-3643.553277
-3701.925644
-3551.72182
-3160.431751
-2571.077735
-1993.633539
-1640.146255
-1542.614935
-1566.216475
-1525.883558
-1286.37826
-826.1719023
-211.588805
520.0351512
1405.336326
2458.437478
3607.770555
4742.440845
5726.844943
6408.132844
6745.18387
6864.745534
6865.885654
6678.484588
6212.190163
5519.565397
4768.106403
4164.22067
3864.896116
3837.74903
3869.126951
3771.718735
3439.139168
2669.647191
1224.436984
-783.6337876
-2810.48012
-4383.73836
-5504.967696
-6425.156542
-7236.80321
-7836.919512
-8131.099162
-8137.618548
-7946.158899
-7620.776458
-7138.013343
-6440.224279
-5528.541307
-4449.870939
-3230.031492
-1882.95222
-449.0849241
1006.550146
2385.610273
3576.571608
4586.04898
5570.828254
6568.533299
7310.012577
7536.771599
7385.954244
7200.391528
7058.405186
6703.518214
5838.843944
4353.296175
2384.351138
276.0652854
-1613.391812
-3132.881337
-4330.973992
-5257.247603
-5850.551673
-6008.862482
-5722.223093
-5147.326628
-4525.820357
-3976.029502
-3430.24856
-2838.964057
-2302.546176
-1918.416083
-1675.33368
-1572.651449
-1621.644465
-1649.348362
-1343.813834
-619.5316351
224.3131219
796.8541639
953.878652
817.3664537
592.5918015
423.9680057
342.6567702
286.293903
183.1566442
40.34486314
-36.45734002
73.14957829
342.8557422
565.941879
620.9346255
711.8926746
1144.306227
1923.04237
2774.752965
3473.925681
3940.03697
4126.204191
4043.960221
3852.377
3752.369734
3798.451909
3878.714459
3818.341483
3474.978118
2857.867453
2190.129227
1705.785421
1350.356671
822.7936872
-67.39597284
-1200.748643
-2312.484989
-3267.913176
-4129.139801
-4964.601523
-5669.156879
-6056.507048
-6088.3782
-5896.805837
-5607.841182
-5280.084307
-4988.251636
-4791.097343
-4612.435861
-4317.49878
-3903.873692
-3468.537581
-3015.399047
-2426.693639
-1582.332888
-440.2002881
910.454953
2243.575666
3347.433132
4175.631696
4775.06381
5155.717483
5332.046281
5384.480389
5381.288634
5338.002544
5314.355427
5421.364589
5642.515953
5745.047811
5469.545447
4786.384303
3935.096076
3222.449961
2762.626225
2397.689582
1894.464806
1190.011023
387.8045272
-412.183648
-1153.542972
-1744.478453
-2080.294721
-2150.822387
-2058.209056
-1939.153786
-1889.616014
-1920.727077
-1974.776618
-2006.393342
-1984.516258
-1788.379728
-1283.250144
-600.8103042
-137.9470754
-154.418383
-536.4266231
-997.2779681
-1335.420574
-1494.940109
-1534.677417
-1555.630817
-1603.50227
-1678.866636
-1843.585749
-2233.73822
-2959.068631
-4028.834619
-5309.666967
-6494.272745
-7235.362285
-7443.257912
-7361.945606
-7244.13883
-7062.917178
-6634.236154
-5877.086105
-4838.954155
-3583.350152
-2159.421557
-623.1083587
950.9935916
2441.093238
3710.753218
4747.078224
5686.741026
6615.943964
7456.283198
8140.327925
8747.173059
9340.899877
9798.997312
9905.877236
9555.31377
8835.495281
7959.300906
7108.264875
6334.400127
5608.302845
4889.052265
4094.165836
3080.70874
1753.706896
182.9579294
-1419.214262
-2800.180318
-3750.109125
-4194.828185
-4255.982047
-4138.147908
-3959.893685
-3774.581494
-3641.402701
-3518.064845
-3212.870554
-2601.849643
-1782.262619
-949.5142096
-288.9405015
-5.017559304
-239.7987367
-898.0872631
-1682.647938
-2324.069303
-2710.610159
-2861.74673
-2895.451061
-2984.421132
-3242.021928
-3659.537502
-4170.342889
-4709.103838
-5208.400287
-5599.780746
-5800.118628
-5695.841898
-5215.137589
-4391.532517
-3293.079379
-1981.32483
-593.0879951
705.2384646
1910.522532
3130.728572
4288.119367
5107.269702
5458.597279
5497.370602
5426.633406
5317.87623
5172.835381
4995.860139
4802.250761
4633.361483
4512.228127
4361.677268
4069.260565
3645.939689
3212.030284
2827.577784
2443.159787
2014.3379
1574.838438
1189.960555
881.8830628
614.6137332
376.259724
274.3784795
448.4437571
836.8001399
1170.504856
1283.517006
1255.530995
1150.631212
822.1522076
81.9188874
-1122.532831
-2735.07043
-4585.640672
-6344.7702
-7676.031574
-8449.951662
-8716.879126
-8565.733069
-8123.211981
-7567.47155
-7002.43755
-6385.353674
-5635.92029
-4739.141622
-3739.819034
-2712.601193
-1691.713337
-595.8204437
643.6561507
1856.218532
2732.991774
3194.061158
3470.433314
3815.037029
4305.314172
4890.552737
5441.487883
5769.218956
5744.605551
5408.62402
4917.0568
4426.238718
4047.690359
3814.657696
3660.302947
3493.675753
3278.790398
2995.891419
2609.882272
2129.888539
1615.879828
1110.222796
626.3726518
164.2519404
-302.6611222
-770.523781
-1135.968852
-1314.435784
-1403.648981
-1567.091682
-1787.364083
-1918.754739
-1950.522803
-2007.928957
-2115.809664
-2201.564983
-2337.976763
-2719.349367
-3309.380612
-3706.880378
-3501.307861
-2706.357186
-1755.094911
-1073.053481
-738.0923335
-603.0929461
-623.3636932
-860.2348141
-1195.667259
-1318.541203
-1099.201075
-768.2561066
-602.530114
-621.8350851
-720.7975365
-912.1285761
-1258.06617
-1632.714389
-1702.846738
-1213.794659
-277.0848791
706.1559353
1423.200352
1850.021213
2084.732635
2182.279751
2224.779886
2378.974827
2792.881734
3508.99893
4421.450325
5204.0359
5430.387839
4968.654768
4155.429625
3439.877974
2988.955883
2711.495403
2435.038688
1942.171714
1059.664791
-142.1987409
-1370.961074
-2381.333474
-3089.670667
-3446.646973
-3404.316385
-3036.276466
-2520.63998
-1973.082614
-1420.154932
-942.3062256
-719.1362071
-867.8905187
-1257.060931
-1548.666705
-1508.710133
-1237.40971
-980.4156632
-795.4893098
-578.7932463
-323.7681025
-143.2577999
-99.8836847
-184.1548089
-394.6080875
-711.2955987
-1057.59792
-1378.181552
-1689.989818
-2005.64354
-2273.818674
-2413.662284
-2346.136204
-2034.070282
-1590.37142
-1273.138829
-1249.02718
-1440.248232
-1697.885094
-1992.217514
-2318.461645
-2547.092949
-2513.440511
-2202.254951
-1728.309873
-1150.42033
-436.252707
336.3660663
894.4833102
1064.266825
1087.682687
1416.630392
2157.131007
2939.027445
3398.288246
3543.35278
3575.461615
3628.135302
3781.202649
4085.575222
4481.425609
4841.705849
5112.764753
5326.329936
5524.786089
5715.719062
5806.547227
5588.427879
4926.944074
3969.133376
3024.376941
2252.585404
1602.258811
1017.386906
536.2360575
182.2114637
-109.3290654
-423.4832497
-770.2585484
-1075.085432
-1306.365294
-1625.62426
-2299.788911
-3388.046604
-4613.862136
-5621.383382
-6252.037168
-6506.141095
-6404.877527
-6050.745457
-5705.210089
-5615.996475
-5779.62446
-5934.593032
-5753.750329
-5082.30248
-4074.121039
-3051.018204
-2199.222245
-1471.614886
-718.0731221
223.5153593
1457.110006
2860.12248
4044.463535
4641.855836
4619.60322
4257.722589
3880.003596
3668.418498
3654.670992
3776.85424
3924.594
3944.730858
3650.319426
2954.120942
2035.10644
1217.708887
606.5130829
-12.265063
-825.3312844
-1687.61196
-2256.825733
-2344.566093
-2069.150139
-1731.584274
-1604.867837
-1809.296007
-2323.661389
-3057.695419
-3876.340542
-4603.045465
-5083.325024
-5219.217292
-4928.721114
-4219.730874
-3326.152627
-2548.28624
-1934.382296
-1332.533472
-691.8201951
-70.65477918
541.9043598
1172.395286
1746.959278
2213.903249
2652.338
3143.52398
3698.880703
4373.73947
5223.664522
6081.048333
6605.491615
6621.472126
6235.1342
5638.734482
4980.563482
4369.42783
3821.8377
3239.738005
2558.860323
1870.51593
1327.237351
976.3169068
708.3259351
333.8775225
-256.149169
-968.6482747
-1591.146158
-1984.138425
-2111.612383
-1968.967654
-1651.667807
-1405.932444
-1417.474316
-1626.50667
-1877.377537
-2126.87139
-2418.951608
-2779.774009
-3175.528109
-3500.938221
-3669.589299
-3757.189938
-3902.669717
-4031.512551
-3889.959693
-3411.547332
-2845.389342
-2463.88728
-2305.167002
-2217.032433
-1999.511041
-1503.531864
-717.2884898
237.5105575
1225.846891
2152.667351
2919.259688
3474.797582
3917.718441
4389.169493
4829.370632
4978.984232
4694.956843
4159.231307
3674.381943
3329.153877
2981.469399
2509.119233
1934.158019
1306.055486
586.5070665
-285.0085599
-1263.538024
-2217.235352
-3046.133083
-3694.853055
-4112.165157
-4332.722008
-4511.625823
-4720.532225
-4815.809824
-4643.352506
-4221.681564
-3610.815094
-2787.530343
-1749.733392
-580.8878285
621.1343058
1712.341214
2431.612283
2587.54621
2328.422587
2026.078908
1860.105287
1676.003583
1284.409226
755.7903524
339.8704234
166.8841809
127.7841269
51.90365304
-86.85496143
-191.5480529
-190.5840903
-70.17517902
187.1882687
568.7408182
958.9199442
1240.169395
1451.407016
1707.542605
1996.955584
2186.236662
2161.058879
1885.542057
1447.625549
1090.790669
1043.796758
1286.358508
1601.962434
1826.35091
1917.182288
1838.56337
1517.229198
902.2041649
14.87641522
-1009.457648
-1910.869831
-2431.439704
-2499.467473
-2241.259182
-1829.255596
-1376.997152
-937.0703392
-542.1007363
-259.7740389
-168.0453229
-232.5865487
-315.9322241
-384.3362389
-572.2745874
-952.9871702
-1380.843155
-1654.813228
-1721.749217
-1641.860977
-1475.572227
-1286.204539
-1135.107713
-989.4258971
-729.7031637
-296.4742049
242.3476346
762.7543685
1188.303299
1575.969369
2057.544265
2592.65552
2905.65775
2821.661042
2495.120974
2141.324928
1738.995443
1155.781648
375.0922624
-525.8075555
-1446.506189
-2223.893591
-2670.128389
-2724.612368
-2502.218662
-2188.041865
-1920.126008
-1721.578295
-1505.83169
-1199.094568
-856.4835037
-585.1593822
-378.8576424
-119.8951802
265.8394314
716.517979
1079.498817
1213.903058
1076.009077
732.5482015
279.5727312
-235.396336
-772.8233607
-1234.382211
-1527.230102
-1648.57955
-1618.835347
-1409.541122
-1017.710885
-514.2720122
17.20752931
483.3062599
760.6648698
795.2188953
641.9936397
338.1329716
-87.50275251
-417.8598663
-310.6936751
314.1005896
1126.560036
1710.284705
1894.31104
1758.89059
1505.587463
1345.875528
1358.933856
1453.556246
1547.557789
1687.491214
1914.096978
2148.456407
2306.135307
2421.53847
2586.519354
2816.703118
3003.672912
2979.239773
2646.927007
2072.558888
1426.116415
842.4143962
374.175027
31.82404231
-215.6174805
-423.9597022
-572.6701094
-577.2560088
-492.4408266
-568.1995338
-993.5010347
-1692.176871
-2450.274164
-3147.304272
-3789.393407
-4373.37045
-4794.578744
-4917.573956
-4726.685713
-4352.515438
-3919.459392
-3440.285217
-2928.693537
-2509.735378
-2272.042087
-2095.637545
-1800.094246
-1383.401454
-948.300814
-492.0311239
70.06302795
751.1142023
1466.242582
2096.454959
2547.477988
2803.563838
2913.05722
2893.62263
2718.914501
2429.703945
2165.530724
2040.23833
2061.405614
2182.237425
2339.713218
2453.791689
2470.130735
2359.663563
2060.558642
1546.859849
937.5652443
382.3782279
-104.376098
-564.405016
-966.5840156
-1266.100255
-1452.361835
-1481.806087
-1341.931654
-1225.09845
-1444.70351
-2107.3829
-2991.845515
-3755.598751
-4140.774468
-4049.309302
-3602.131368
-3067.891336
-2575.815686
-1978.932658
-1106.270316
-19.92137762
1057.812359
1930.467078
2496.845418
2773.961655
2874.454277
2877.546332
2774.539068
2612.396208
2564.533625
2729.991191
2941.851392
2873.157885
2308.230012
1326.147581
273.167077
-509.8879304
-979.8468319
-1326.30607
-1644.849386
-1842.433683
-1837.712999
-1665.047938
-1380.099895
-1007.31923
-593.2524028
-227.3884553
14.61520312
147.8552826
305.6254867
642.8027853
1161.468179
1684.611378
2057.380334
2291.04942
2447.738756
2513.838808
2469.962041
2346.700011
2145.729731
1840.605796
1480.163343
1159.625353
891.6607132
622.660615
363.8337554
212.091415
242.5601527
411.1596428
530.2741423
365.0084299
-140.3092363
-750.6133677
-1178.84956
-1396.270679
-1577.913731
-1814.603972
-2023.669708
-2104.209454
-2090.643973
-2149.696819
-2405.603493
-2758.042863
-2951.348125
-2842.846431
-2510.756627
-2103.789247
-1704.046387
-1331.967836
-972.0089606
-613.9566591
-368.1820566
-479.2990316
-1114.483442
-2194.57224
-3469.186524
-4620.475389
-5297.607203
-5280.521782
-4667.517183
-3758.150604
-2769.745473
-1782.3962
-865.7194972
-80.46899371
619.484862
1347.133931
2139.071556
2942.791178
3731.223763
4533.490141
5353.275165
6116.415599
6684.290584
6910.170293
6728.09917
6169.452187
5278.543465
4111.060599
2838.761084
1724.37512
945.8954809
498.9074912
233.452387
-49.69811024
-444.472346
-843.986627
-1092.043315
-1209.485052
-1330.274257
-1451.323255
-1438.170598
-1268.794653
-1069.160137
-898.796529
-688.999635
-401.1135053
-94.30742505
157.126782
315.4176482
373.5870759
343.42072
224.4245717
6.612037182
-255.4561869
-439.5631585
-503.9441483
-581.6262479
-835.8621329
-1239.592147
-1568.98408
-1626.568993
-1445.057487
-1264.528532
-1297.228605
-1504.898493
-1630.042052
-1435.518178
-882.0811644
-139.5608293
514.0898595
905.6266894
1135.651924
1409.561029
1692.739424
1724.521641
1374.626598
768.8892567
67.45509584
-655.1762864
-1297.87293
-1695.564787
-1728.355677
-1381.261649
-758.9704819
-122.2772446
225.4942376
215.5880476
67.45399682
-15.68237101
-63.22896008
-172.6416903
-280.9634648
-223.4882791
35.84694503
326.6730284
461.3170777
476.5376802
592.1422388
875.9364922
1072.167594
908.6308895
486.9408575
191.8741746
272.297544
646.0401298
1012.000277
1040.107595
592.1684814
-142.9546825
-822.2835132
-1240.71994
-1368.104592
-1234.323777
-923.7319357
-552.0978868
-149.5730859
280.4201607
570.0712078
503.7630179
159.1909305
-124.195711
-144.5860861
31.17051635
325.9525652
782.5254054
1379.695283
1871.253936
1880.277579
1171.049268
-120.3433106
-1544.019886
-2687.863051
-3435.542
-3825.885509
-3777.683161
-3149.556826
-2072.049229
-1022.153264
-464.0858482
-489.7124942
-825.3146087
-1090.584018
-1047.265158
-694.0208823
-171.0201056
418.4958882
1102.593751
1980.475708
3024.182799
3918.985488
4249.788929
3949.047668
3399.523271
2965.433449
2591.358996
2018.247056
1244.332091
578.3318161
278.6478183
267.8174131
225.806856
-67.83917507
-522.1057316
-906.9329217
-1179.675152
-1483.925338
-1840.100989
-2054.432566
-1970.016771
-1617.395052
-1107.264614
-543.6784443
-18.46884308
439.9564442
846.6709063
1113.402962
1066.638681
705.9612456
293.6897995
88.63742402
107.2751262
203.5420135
262.1996906
263.2439199
235.8588932
167.6748543
-46.34145671
-485.127441
-1028.35623
-1431.194835
-1596.965956
-1666.825112
-1822.691416
-2087.272542
-2341.760612
-2492.44372
-2576.247461
-2677.872496
-2761.647936
-2657.541004
-2242.713127
-1562.92734
-739.5985979
134.9852085
956.1737852
1600.677397
2049.243855
2408.684135
2770.674552
3165.147233
3652.684359
4300.509901
5029.261874
5610.997208
5861.216097
5764.79718
5430.274286
4996.434161
4543.805912
4022.880589
3325.576075
2479.123818
1673.15628
1044.482992
528.626091
-55.15651066
-840.1322157
-1797.413318
-2731.322602
-3459.533795
-4042.328228
-4764.751895
-5842.369902
-7146.426148
-8224.881071
-8640.810543
-8338.735629
-7635.096664
-6831.267163
-5971.84923
-5044.098334
-4185.133571
-3482.859668
-2744.955687
-1732.358597
-526.5133596
572.4166672
1430.831377
2157.721683
2873.85835
3566.165573
4086.981857
4193.578615
3705.113907
2715.192863
1562.938497
564.4297701
-125.9107868
-404.0955696
-141.7831281
676.9731671
1788.00326
2716.771057
3127.170561
3124.787911
3115.842532
3343.547228
3663.092588
3765.779821
3520.349963
3107.328304
2872.046683
2992.615516
3281.141105
3403.014544
3253.142695
2966.646192
2626.791401
2181.147086
1613.493738
986.0009219
319.4819973
-412.1898961
-1190.407626
-1943.98818
-2575.262017
-2973.034267
-3122.451647
-3205.854388
-3441.116056
-3805.448753
-4044.340257
-3951.422739
-3543.65943
-2984.731344
-2421.889321
-1883.779053
-1290.002133
-588.2362506
105.8193657
575.9093776
719.183717
597.5405791
288.2005429
-195.9172295
-831.1358737
-1497.680524
-1993.202594
-2195.663043
-2231.222091
-2328.506353
-2476.178801
-2435.237724
-2110.450839
-1665.038489
-1245.182302
-822.0980159
-329.4727512
231.1259969
834.7589608
1442.063742
1964.110307
2304.415783
2404.072745
2224.272307
1807.728028
1381.175878
1217.718518
1343.147862
1522.049706
1538.22819
1353.754524
1041.400901
724.923502
557.6176554
617.1988712
818.1968858
1007.150823
1125.421364
1208.562498
1251.854644
1169.936302
921.2471103
626.4766263
493.8733847
588.532944
731.0848422
707.0929242
536.9112012
448.8574326
613.850883
971.2560592
1290.230626
1375.304165
1236.636924
1042.9454
896.1114417
746.0747163
566.4553326
454.2063608
448.9979386
416.4613118
254.6711576
67.27385711
-21.20522964
-87.01869422
-304.9964543
-728.3119039
-1252.019961
-1717.398746
-2043.924975
-2320.188785
-2710.050297
-3222.14351
-3675.663332
-3935.107626
-4050.93809
-4125.273589
-4161.743389
-4089.428893
-3839.958761
-3381.081309
-2738.423045
-1970.481919
-1102.573123
-156.0860212
782.5285811
1657.607454
2555.159617
3539.531832
4439.818888
4979.765384
5056.170858
4741.255399
4123.087116
3317.329545
2528.387251
1913.099684
1435.758418
964.3518251
445.982759
-66.82292709
-497.2327206
-842.5986218
-1219.957226
-1724.205924
-2210.506127
-2387.366947
-2197.781618
-1927.19658
-1830.125444
-1800.665789
-1544.10013
-988.3023853
-387.0183123
-32.35050864
20.75476996
-77.80349886
-192.8816472
-319.7734014
-477.3251303
-564.4358354
-439.3736929
-131.6953344
148.2572104
235.031113
179.9165811
182.4651265
351.2206595
564.4725826
658.3775069
705.4564997
918.9613609
1311.490382
1688.747648
1969.62707
2247.987161
2525.352301
2642.211396
2506.041577
2161.289735
1622.746265
868.8931436
28.1077439
-624.1294127
-909.5149438
-904.7947441
-858.4991306
-980.0993413
-1274.146389
-1581.259118
-1801.216663
-1999.94163
-2236.997717
-2374.145198
-2154.254847
-1460.849363
-463.6100947
493.6133338
1146.145099
1454.969146
1520.267063
1425.155543
1252.063364
1183.162381
1385.123433
1774.122014
2070.752015
2104.93543
1929.117484
1669.940813
1411.68097
1189.945542
999.2302803
821.5342485
645.6236636
412.0906368
19.63592413
-515.7365045
-1008.655156
-1328.835788
-1562.220977
-1819.391653
-2024.124249
-2056.681569
-1974.01217
-1918.117684
-1926.676651
-1979.345448
-2108.344606
-2325.223529
-2527.489374
-2590.883581
-2515.508425
-2426.261369
-2450.811942
-2602.304353
-2753.398879
-2742.483083
-2528.215453
-2204.47465
-1868.368414
-1542.946913
-1205.558883
-806.1835392
-278.359203
421.3443711
1286.830366
2213.149541
2956.18314
3305.379088
3350.573825
3388.168195
3541.243072
3692.137239
3757.427227
3749.052165
3594.327809
3196.475684
2679.737594
2324.151745
2251.289333
2361.053793
2533.341998
2706.108925
2805.939302
2771.578258
2620.585473
2401.622175
2129.451151
1807.451739
1448.184533
1055.095516
636.6587284
220.5001664
-196.8341114
-679.6686784
-1285.582401
-1993.833895
-2714.857148
-3337.994314
-3796.340555
-4136.25782
-4469.80347
-4818.329895
-5089.712338
-5209.415442
-5148.523433
-4865.681504
-4363.994854
-3733.276521
-3026.482209
-2217.578992
-1363.942398
-644.0637184
-149.7507031
218.5435319
614.3521618
1120.699454
1720.737814
2263.122433
2530.987735
2445.09514
2093.608231
1539.180382
795.2328935
14.07483178
-527.0876489
-666.9700433
-433.320913
82.88525684
757.816957
1389.477368
1792.218464
1934.80313
1896.956126
1730.289753
1449.375107
1121.883736
874.484365
809.1330321
949.5319691
1244.015463
1597.202401
1908.505276
2073.572503
1989.954057
1646.104513
1174.088989
734.3663193
396.7884901
177.4477096
93.27001897
128.3468126
226.0004466
333.3916674
392.4553364
314.7917923
43.91650752
-384.0647364
-892.390112
-1413.957539
-1853.066057
-2114.032491
-2221.846391
-2283.246308
-2303.356892
-2201.411509
-1997.879535
-1799.889854
-1633.057284
-1462.829119
-1307.319373
-1157.003892
-889.2555769
-436.3403403
63.86422104
423.9176028
607.7735365
681.9067778
692.5730786
671.4551239
659.4290503
679.2587279
729.5251182
776.8505892
770.4557819
769.8282973
976.4725562
1451.944768
1897.071766
1919.435098
1445.848174
725.7424717
45.85801034
-431.7300783
-681.7248755
-795.4824376
-880.2197295
-944.77829
-959.0040633
-973.8756111
-1060.059145
-1197.80464
-1340.410696
-1487.964358
-1608.812136
-1598.632093
-1379.92591
-965.8286683
-432.8241475
98.44119214
499.6031308
720.1938619
804.0619671
809.9202109
782.4966578
785.711267
858.1631762
947.7500541
996.1841019
1046.268728
1154.631458
1278.679453
1353.121403
1362.674489
1272.596711
1035.926303
698.745593
362.6864571
74.15630176
-148.1302195
-276.1995266
-339.5466398
-395.4352828
-404.5299987
-298.6896345
-158.3942653
-135.1125765
-228.7984367
-321.8171024
-371.5765978
-398.5844562
-367.2358415
-229.870806
-6.658997062
263.6087034
544.2154199
743.5854465
777.6537425
707.9281364
701.9496059
857.7706999
1132.555223
1390.50608
1470.755906
1289.762806
921.5774827
508.251746
101.2124664
-320.5400452
-736.5451025
-1110.464335
-1450.383742
-1741.904237
-1937.947916
-2083.07862
-2297.416708
-2594.494465
-2843.929284
-2902.488904
-2690.691218
-2216.825814
-1603.551151
-999.239388
-428.1019506
156.2300262
674.1614754
957.3442036
1019.675154
1110.408173
1418.200149
1857.028971
2215.021967
2397.576881
2429.782796
2277.946091
1792.566402
895.2545075
-229.2753638
-1226.427791
-1860.938952
-2152.539955
-2244.691007
-2217.585667
-2032.853989
-1602.780315
-901.5138937
-33.94222721
812.9811759
1492.945745
1931.878478
2054.033153
1802.205196
1266.71314
676.6793354
231.165796
-0.936878534
-84.30125616
-193.7313688
-461.6137521
-777.4783437
-881.1379095
-692.521956
-394.1213618
-176.0917353
-49.58327081
94.03696998
356.1869688
727.8372947
1036.628592
1093.712755
966.3093269
940.5694267
1111.174143
1225.401427
1079.428162
826.3547244
698.8505548
631.7491706
363.937874
-204.5888059
-894.8175619
-1399.127362
-1467.80283
-1045.338148
-330.6092886
322.7509362
639.54144
595.2015949
377.525681
192.4870483
114.9973161
125.7270619
218.9693031
375.0675843
483.7143737
436.2657333
262.6257963
72.4015797
-71.15132889
-141.5732525
-126.1162803
-86.60723975
-132.291628
-280.7144942
-444.012253
-562.5405282
-638.8025011
-650.4706962
-568.0889603
-457.6017507
-440.5707787
-565.8531653
-802.8933459
-1091.918748
-1338.44553
-1459.684173
-1468.58378
-1418.11079
-1296.034482
-1072.236688
-779.0552193
-464.3782395
-151.0834472
119.1047471
307.3980758
447.38436
581.0059184
665.7780463
676.2234138
723.6032025
919.6599728
1190.07437
1346.925925
1273.056378
981.5642121
599.2285373
298.2047603
134.2525821
-19.28521097
-300.2103185
-697.5586543
-1110.159226
-1444.478859
-1619.149879
-1611.104531
-1525.747739
-1494.051744
-1497.327624
-1405.901811
-1149.351127
-733.026544
-168.0352022
480.7774624
1056.777654
1436.99254
1640.396923
1770.682754
1925.95909
2161.983109
2447.034453
2647.704646
2628.285692
2366.571699
1954.515152
1531.376351
1228.682094
1099.466899
1066.011919
995.6569747
818.6067692
510.6179551
52.3551387
-476.040608
-872.7989382
-1015.039192
-989.0230311
-954.0849974
-967.6801415
-963.0587163
-833.8415656
-556.8808959
-250.4283442
-59.16596956
2.63755626
28.87840924
95.38557981
228.8091015
419.3739801
586.6077053
630.1895981
574.2930442
537.8178522
534.4585555
461.5137155
284.7458969
57.05452527
-214.4304425
-547.7719516
-897.55195
-1248.085955
-1706.509188
-2338.626163
-2990.991162
-3429.100215
-3589.053033
-3558.537892
-3367.73426
-2944.138246
-2276.550623
-1525.39987
-912.2371705
-501.3772611
-153.0359797
252.2116156
638.9972862
902.5909766
1123.497768
1448.066372
1857.98333
2195.650165
2308.837847
2084.806642
1487.214618
653.1377316
-153.2970365
-746.9790529
-1112.818652
-1299.165909
-1343.46324
-1316.791638
-1314.634219
-1364.86886
-1405.292444
-1335.477312
-1066.167211
-580.3306537
47.71563763
743.7572176
1498.375412
2309.627302
3150.177359
3979.979725
4652.74367
4871.23565
4465.018811
3688.65162
3004.371608
2582.514188
2252.059971
1897.474071
1609.716447
1441.200397
1270.390109
948.1545361
438.9475477
-179.0954021
-790.8956208
-1334.945208
-1809.723805
-2191.810259
-2433.649976
-2550.573918
-2595.790525
-2551.647502
-2367.472298
-2069.150597
-1696.811861
-1210.489088
-616.7310892
-84.78750956
243.115181
450.3985732
700.1934545
1013.572824
1294.591408
1413.933612
1201.339864
539.6381173
-466.5558357
-1536.550956
-2428.104652
-3026.194664
-3304.564623
-3323.806972
-3213.029033
-3064.346852
-2880.639912
-2638.78007
-2328.462374
-1947.074254
-1528.931361
-1104.92816
-585.8014947
153.4350044
1034.026195
1820.637575
2403.449643
2808.736858
2982.501023
2812.000164
2333.510108
1743.358743
1236.284536
919.1476604
803.9731445
809.6294529
824.8903652
802.9584498
759.8226549
711.2555377
664.4734848
613.4622692
504.1881991
301.1872341
98.58898446
26.73666885
62.06935769
81.38618774
57.37531187
41.9074268
20.12916566
-62.72037166
-179.2562774
-241.7838693
-203.9375244
-84.00617289
41.79702964
52.0632116
-104.3721379
-306.2493971
-391.1792435
-352.856824
-288.154784
-214.7630101
-60.32823649
212.2698166
536.4908532
780.2967868
857.8337189
817.6561971
773.4081283
749.7114163
687.9828265
607.2771561
640.239128
873.2780843
1235.377814
1565.550172
1732.774296
1709.736981
1588.011887
1485.769748
1409.819799
1278.512622
1083.81867
916.4447809
828.5338868
793.9037134
780.0798987
703.6905908
335.2340004
-558.171424
-1925.826676
-3415.713987
-4679.060952
-5608.965962
-6289.817527
-6816.20141
-7176.113436
-7270.139466
-7052.10516
-6618.016646
-6096.066473
-5507.314976
-4798.969715
-3937.825726
-2917.880477
-1731.439181
-345.1668844
1304.228891
3218.868551
5220.598227
7002.603608
8301.691957
8961.540843
8928.521835
8342.064656
7546.290181
6834.301288
6230.908061
5625.457952
4979.728656
4300.132216
3574.442065
2834.176725
2131.006552
1412.777647
568.8591832
-401.9141296
-1384.477424
-2252.043556
-2886.507638
-3224.055175
-3395.859375
-3673.362659
-4147.14521
-4603.177349
-4817.534542
-4814.055679
-4742.30534
-4653.69231
-4476.921013
-4129.79024
-3633.638994
-3122.993926
-2688.251692
-2254.709072
-1706.617231
-1044.285878
-322.3149957
466.5356355
1366.230181
2387.905845
3462.326752
4379.331625
4851.284511
4766.427261
4304.696009
3708.521126
3076.529848
2474.737966
2036.55472
1784.704908
1521.761768
1058.9771
445.6920613
-126.1558646
-550.7548388
-872.8134423
-1180.868183
-1475.55282
-1636.229143
-1531.882851
-1170.421028
-716.3052201
-370.384974
-258.7748802
-399.0205346
-704.0504334
-1034.560291
-1295.145603
-1446.275603
-1434.604854
-1235.180305
-944.5883262
-675.0596468
-405.6107709
-97.02299902
146.1593704
192.81358
60.62371979
-135.1980538
-279.4580993
-246.5218188
37.48456797
468.4429065
846.6985634
1089.27166
1221.899629
1222.759373
1047.929171
751.5009477
440.977108
188.1624913
51.31721369
59.75572851
146.9492867
236.0108557
371.9129383
619.669956
878.8878832
962.3483672
833.866612
640.3498101
522.2179246
480.5896144
420.0808332
260.9233184
6.409113177
-284.2676696
-584.4486845
-914.6827276
-1255.771402
-1533.599233
-1704.66063
-1759.633696
-1666.875426
-1417.632186
-1073.409629
-692.1333079
-295.3865767
51.46540535
238.8960342
212.6122612
-12.15215969
-389.3821647
-788.1721831
-973.1156885
-787.1972655
-330.7064133
134.0851772
400.021737
379.9732396
87.5045204
-336.576921
-665.7052984
-738.9503448
-546.7412813
-179.7661808
266.7651502
768.4457558
1366.891109
2056.452509
2722.110737
3273.563012
3777.426475
4329.190335
4848.561961
5146.567689
5144.283637
4890.450349
4437.371734
3815.616467
3043.038455
2094.801155
950.3518934
-352.1723215
-1785.391526
-3336.797604
-4860.009111
-6104.776149
-6993.440508
-7681.339376
-8268.517783
-8646.076711
-8695.916189
-8465.154522
-8075.301395
-7578.247164
-6918.825607
-5954.367381
-4560.020147
-2794.045625
-883.1997756
979.9629302
2689.478176
4083.709743
4956.967745
5285.064549
5321.408285
5409.797005
5729.84532
6190.640632
6509.344214
6424.661358
5901.153486
5134.270985
4368.729963
3736.720077
3206.050855
2619.207689
1862.61289
1044.19963
400.6301108
31.67783456
-154.8479426
-304.4197406
-550.6249515
-969.7997471
-1478.134408
-1893.174233
-2150.093918
-2310.217096
-2369.215332
-2253.576846
-1989.553443
-1683.557901
-1361.44727
-995.6544311
-630.7095456
-316.179034
-8.664163632
301.6033551
501.4205211
544.4890988
582.2558254
791.8669241
1225.622177
1856.09689
2541.856455
2931.142639
2671.687207
1795.722452
726.2347262
-118.2351204
-609.5944348
-870.5744378
-1096.981363
-1381.461759
-1625.220301
-1655.10259
-1441.959641
-1160.852311
-1056.072962
-1256.360335
-1664.076515
-2035.469183
-2215.346829
-2246.523243
-2244.363779
-2277.368122
-2375.542897
-2517.671755
-2599.016207
-2530.843923
-2357.786755
-2169.592091
-1954.395001
-1671.305656
-1391.348458
-1204.534996
-1046.765596
-759.6490934
-276.2230253
325.1128798
889.3350315
1283.348747
1477.227403
1523.155364
1470.12063
1377.911659
1376.764514
1577.464078
1927.697972
2265.317183
2492.752322
2613.225693
2659.889951
2699.213166
2832.308028
3078.277453
3325.556988
3470.417559
3502.281269
3425.061502
3228.05018
2936.869806
2580.840775
2153.89942
1686.715393
1268.989692
939.4585892
645.5712963
343.6280645
57.14020896
-168.0028119
-302.8854715
-363.2982841
-455.2258304
-719.4570934
-1164.506037
-1642.287195
-2028.084821
-2311.921758
-2523.731548
-2721.539021
-3012.614893
-3424.757116
-3817.499426
-4048.065301
-4131.419586
-4155.274047
-4174.070323
-4242.404568
-4388.236
-4496.313193
-4364.337644
-3917.113225
-3270.408828
-2609.987988
-2081.045761
-1699.405574
-1303.138029
-711.1276312
55.33813766
840.775449
1584.203048
2323.805079
3058.721185
3733.106506
4265.890017
4557.635239
4612.045149
4638.999512
4858.241751
5225.127688
5506.870871
5566.745056
5422.146428
5100.787482
4585.432426
3853.541058
2910.639747
1859.744119
918.7791577
231.7955828
-302.8804203
-888.9062502
-1589.398867
-2328.86851
-3011.225521
-3525.21464
-3751.365786
-3664.995728
-3366.150459
-2988.484439
-2654.304695
-2467.149709
-2409.339267
-2290.200015
-1928.987871
-1337.141602
-644.2659099
33.01329391
587.0177464
940.0629437
1133.226831
1282.321967
1436.093085
1570.889429
1688.535627
1804.909945
1849.909706
1664.484926
1124.240784
268.9438702
-675.5059663
-1441.984614
-1930.9612
-2227.83509
-2408.423806
-2452.415359
-2371.07648
-2260.078436
-2176.52668
-2080.024603
-1899.629091
-1570.293674
-1057.275347
-437.6665998
106.0681089
444.8511722
601.5137424
676.3091895
752.1074435
877.6319939
1070.59366
1322.484045
1612.98543
1874.772953
1947.777424
1681.000912
1111.015067
449.3039444
-93.60420345
-400.6219648
-464.4286442
-410.1773901
-396.0342245
-430.3100094
-407.364808
-328.9784504
-322.4572062
-432.7354491
-559.4797319
-598.4161675
-508.7429378
-279.481342
44.28342848
367.9700545
675.752911
1033.064157
1384.684795
1523.140643
1347.674898
997.0435157
669.5367377
456.644903
382.0791366
468.7937358
713.124112
1044.045431
1336.874752
1484.920347
1493.445576
1490.657573
1586.982991
1721.732499
1708.273499
1436.617273
987.0525356
554.1536937
282.7741505
146.664063
-13.31822552
-303.6652825
-678.9593659
-1046.16401
-1364.816728
-1623.745638
-1839.691836
-2078.078145
-2347.38215
-2504.460063
-2408.59839
-2134.098277
-1885.305727
-1733.954893
-1580.090329
-1345.745872
-1086.010678
-921.3707269
-915.9346698
-997.1446796
-1024.827089
-995.1537395
-1068.246664
-1298.133588
-1480.7661
-1390.241061
-1034.191054
-581.2167632
-166.926029
143.7453815
306.4777805
287.8908053
81.12807219
-252.7446
-540.6427685
-593.3697433
-398.2176919
-93.73343198
272.8500647
785.0445018
1447.674011
2146.61073
2809.757304
3420.527475
3912.268497
4207.989552
4314.565991
4276.142073
4101.782981
3799.048139
3412.342655
3006.281977
2660.348402
2443.020483
2328.7221
2202.373163
1999.812477
1755.53776
1482.150311
1127.435897
673.465727
163.1229378
-361.141735
-861.7624856
-1317.080639
-1793.936332
-2404.236778
-3133.306879
-3823.417583
-4365.192729
-4791.792395
-5160.103544
-5457.965821
-5650.342689
-5697.869069
-5521.043575
-5078.631209
-4493.496464
-3986.632235
-3677.557829
-3502.96239
-3295.309339
-2913.282124
-2339.087515
-1660.616203
-962.9969082
-277.646729
397.0989799
1097.242846
1855.062102
2581.250071
3074.962422
3232.931852
3142.222407
2912.02151
2580.417337
2245.068014
2065.382543
2060.326014
2125.533316
2275.967236
2622.305915
3109.785128
3526.246922
3759.822839
3860.397703
3887.402435
3848.859891
3749.689208
3597.567827
3392.849419
3151.526254
2894.222218
2609.466112
2265.766797
1828.527395
1254.021406
555.6273281
-126.0071094
-640.4668137
-992.6311352
-1283.69499
-1567.771942
-1859.539767
-2167.071967
-2448.16133
-2642.234086
-2754.690743
-2814.462178
-2804.433689
-2736.937631
-2723.954143
-2882.616064
-3231.947155
-3707.451645
-4174.161953
-4422.533142
-4301.760747
-3893.028916
-3429.088735
-3032.711017
-2647.137963
-2197.644599
-1691.533755
-1180.593804
-730.0949909
-386.7602101
-100.6964917
254.0794835
728.8857458
1271.608274
1882.326541
2641.575856
3516.376584
4297.729102
4814.595761
5070.940277
5100.746072
4820.755572
4131.772618
3123.592255
2081.223069
1228.26901
530.6001222
-136.3127539
-719.8984948
-1081.284761
-1268.93009
-1465.877162
-1709.516527
-1875.757042
-1899.448407
-1818.934943
-1644.130452
-1357.717135
-1016.073754
-710.7603605
-475.0758014
-319.7705628
-273.9129389
-322.5539004
-404.0687503
-497.633581
-612.2273949
-705.7713468
-721.2445178
-670.6841709
-593.5972279
-468.6908494
-237.9768632
101.3482276
467.1118831
753.4029586
933.9613806
1107.722826
1387.350501
1743.52611
2058.0591
2310.723381
2571.664905
2857.110647
3153.889799
3500.467675
3880.493051
4142.098689
4154.632246
3934.208782
3554.656643
3085.634173
2637.998159
2287.607965
1936.550506
1403.240094
621.2496169
-389.1148372
-1644.450973
-3106.407955
-4553.37621
-5705.952961
-6417.31353
-6684.988821
-6604.686017
-6353.42207
-6098.616775
-5890.833887
-5683.338123
-5404.789705
-4982.242969
-4378.414626
-3640.830243
-2850.592644
-2033.015719
-1188.620177
-375.4766927
310.9895358
801.6476352
1079.109034
1226.120176
1419.314199
1726.190359
1952.049125
1852.437846
1440.208616
945.4176493
557.2993407
325.0666829
229.8152229
246.6142467
353.810597
512.4403597
661.0868946
801.801147
1080.105676
1640.752048
2373.767211
2961.481066
3232.965543
3320.020798
3420.510304
3570.899679
3693.754106
3733.079368
3716.224845
3749.743314
3909.248196
4090.343395
4069.735625
3762.995605
3304.998613
2832.000735
2320.226682
1700.176726
996.5106181
273.7241531
-449.969256
-1158.631315
-1780.327383
-2216.341463
-2396.398263
-2318.538494
-2067.953051
-1799.909499
-1710.330615
-1965.229308
-2544.668168
-3188.346036
-3632.04287
-3857.925045
-3989.112476
-4048.500812
-3997.034723
-3891.913546
-3803.404306
-3666.669467
-3393.907789
-3041.646499
-2723.653341
-2463.397929
-2235.166262
-2023.240165
-1770.591391
-1402.046265
-935.2082751
-452.1418877
31.77873656
562.2532705
1137.145088
1689.417716
2139.928259
2415.360951
2476.336961
2372.216552
2217.053817
2107.835813
2120.823965
2329.182628
2719.314025
3144.781259
3449.951585
3586.267853
3586.715132
3506.536548
3376.422088
3157.149748
2792.881607
2315.766854
1796.527622
1225.979336
580.7335446
-53.61129523
-571.9744284
-990.2233424
-1359.388946
-1627.773299
-1718.643593
-1654.374862
-1507.547894
-1348.834191
-1297.073045
-1442.187652
-1671.72831
-1761.128897
-1649.65348
-1450.890036
-1227.00437
-938.1173598
-585.0533231
-255.2622047
-38.09296644
42.8793246
47.62111437
74.5321644
132.4657873
85.56314651
-185.6374915
-613.1684711
-1014.879463
-1265.048136
-1342.662173
-1327.706244
-1363.408061
-1491.975243
-1566.586079
-1445.629994
-1188.800316
-964.8828344
-864.2169982
-852.71098
-809.636811
-599.0602882
-194.4810889
284.9486907
728.7118204
1164.871264
1672.192611
2257.254786
2887.685298
3531.862905
4105.816481
4504.068185
4701.107455
4685.109975
4330.892362
3521.862622
2365.910628
1122.305068
-42.99654803
-1084.891705
-1942.874219
-2555.872252
-2977.940222
-3333.777637
-3662.711602
-3880.865522
-3880.343513
-3641.250283
-3271.36251
-2922.585641
-2660.387533
-2459.611391
-2288.008493
-2105.594698
-1843.148241
-1462.82855
-959.4458098
-279.6409583
613.439201
1582.950003
2390.894418
2932.8258
3263.219415
3435.451184
3467.764768
3405.754985
3275.22189
3045.627441
2746.239625
2500.22979
2350.982871
2186.577541
1888.619875
1426.914827
819.5163136
132.418501
-523.8867646
-1094.227639
-1608.060503
-2067.562663
-2412.161827
-2627.604428
-2785.975274
-2940.464034
-3059.061682
-3089.528456
-3023.183039
-2875.542208
-2653.952217
-2343.580171
-1910.280185
-1356.651318
-748.3378861
-115.5311491
593.0864068
1371.042812
2087.590361
2646.195066
3069.103927
3357.934864
3422.88459
3203.923482
2737.804217
2103.102225
1412.129213
806.2310715
339.0006852
-66.41686797
-464.8450832
-823.2264841
-1162.963387
-1582.304281
-2073.321271
-2486.526608
-2705.969994
-2720.975341
-2549.126012
-2219.458438
-1804.233352
-1369.197538
-910.8511415
-399.1980934
138.094005
613.4751777
955.1988507
1175.745413
1365.475416
1588.729864
1788.257484
1871.293588
1877.103243
1921.894791
1995.253534
1973.599897
1806.489873
1549.793219
1276.799275
1059.184719
942.9157549
876.7081777
766.9056466
626.0985586
550.6460511
549.8322075
523.5388609
405.7588295
210.658246
-38.43547206
-305.9911855
-516.8678818
-633.7632464
-697.2575804
-735.1734223
-721.4717273
-640.3308684
-508.5311502
-351.2062165
-202.1524818
-80.73848917
35.43351588
143.4370213
162.8052537
56.49670266
-65.20073155
-108.0129649
-191.9204509
-519.6273532
-1111.221814
-1820.881103
-2526.856195
-3168.736052
-3697.945738
-4091.369628
-4335.612201
-4383.681291
-4209.643572
-3872.262872
-3459.169549
-3022.354006
-2588.033757
-2141.807482
-1607.380153
-939.2072258
-206.3924959
516.9543251
1275.213745
2122.949888
2985.06717
3760.239904
4456.77588
5092.01424
5574.557115
5807.104957
5803.840427
5635.719321
5356.220445
5015.313509
4668.658366
4346.543073
4036.3419
3693.844376
3279.574111
2806.99126
2339.931934
1911.23193
1467.737499
933.2587376
273.4911719
-560.754804
-1670.577105
-3081.532162
-4612.964804
-5940.669901
-6800.683669
-7167.578228
-7250.649361
-7258.268952
-7179.369319
-6882.230576
-6361.330767
-5735.230628
-5055.603536
-4281.213164
-3406.939665
-2486.184005
-1558.203428
-640.757763
260.6413507
1173.871966
2090.584583
2891.091609
3498.063397
4046.298065
4689.772572
5318.579296
5683.233517
5697.626605
5419.375967
4867.078013
4073.247381
3211.591715
2479.199488
1913.417785
1444.60381
1054.385903
780.4752009
617.5201613
484.6294973
290.9440615
43.35150614
-129.5236938
-134.1267
-57.15710312
-48.95389382
-128.3258492
-226.8754497
-344.8473506
-538.5222126
-815.3606255
-1119.921246
-1374.320777
-1517.443574
-1569.923517
-1646.775881
-1833.124687
-2079.447922
-2289.597331
-2445.897753
-2563.11967
-2607.691269
-2551.832764
-2417.457096
-2206.679089
-1880.293185
-1432.011395
-909.7213785
-370.1356185
141.0034433
601.755721
1027.266401
1410.931368
1667.135364
1730.159954
1689.876234
1715.211454
1863.995639
2071.38171
2275.521635
2446.625963
2548.122111
2543.906586
2383.368085
1990.342173
1382.101951
742.7257276
237.6824859
-164.755676
-571.3494999
-987.6985001
-1366.60394
-1692.945319
-1939.117068
-2058.359124
-2054.169013
-1949.821679
-1719.641319
-1366.323076
-1004.741802
-754.1868259
-610.8983268
-498.8919743
-369.7179297
-223.3197895
-101.0745862
-40.33156494
5.057749894
118.1152826
259.3515805
275.6322378
118.2369871
-68.06779831
-133.0073143
-100.8421329
-120.1401143
-320.6629
-735.4765796
-1264.979089
-1703.16995
-1878.825335
-1771.719841
-1467.529766
-1061.975244
-622.0601727
-170.9780489
282.6771666
685.6325234
989.6447532
1248.658369
1542.865657
1838.924869
2055.499771
2203.787276
2332.005055
2407.729532
2377.047675
2269.261469
2152.072817
2054.058109
1984.682991
1948.859343
1920.705479
1883.744258
1863.516777
1828.331643
1638.737168
1208.166977
635.8361319
97.0945289
-316.5350469
-608.3555514
-835.2684545
-1093.228642
-1446.633534
-1840.263291
-2148.567696
-2304.248757
-2318.604844
-2235.124873
-2135.697947
-2107.998667
-2152.762899
-2206.304084
-2232.927061
-2202.022416
-2063.372698
-1831.479487
-1569.396048
-1248.279256
-782.6554562
-211.037294
323.6934065
745.1114905
1053.054603
1252.888621
1406.143843
1606.347903
1785.450069
1741.279564
1463.110779
1192.681047
1068.748009
959.8065057
722.601144
392.6982558
62.05009267
-242.3841798
-519.4815628
-773.598105
-1061.08978
-1463.189996
-1978.29681
-2472.817293
-2756.013866
-2719.442915
-2426.740668
-2051.40613
-1701.907001
-1341.811141
-895.0130526
-350.1187411
255.9800637
854.4072819
1338.021067
1641.810875
1817.347302
1960.134689
2113.150536
2274.903418
2419.284039
2492.709423
2477.556
2443.912849
2454.312567
2460.660139
2375.108169
2176.188623
1882.182089
1514.686138
1130.948895
772.3959406
371.6016496
-139.1980755
-646.8279541
-954.5277807
-1025.607636
-981.2564063
-921.4069461
-870.7571394
-815.3272945
-694.9591545
-450.082477
-146.1948612
33.26268924
-35.41783048
-317.2321371
-702.7884317
-1099.959926
-1446.128477
-1722.64961
-1949.449175
-2118.501241
-2187.489811
-2154.926605
-2060.281269
-1922.641049
-1747.752356
-1549.72083
-1328.274577
-1087.121322
-865.6676358
-677.2714939
-460.6786292
-176.5138625
107.7588561
312.7269787
458.2784788
597.6580954
719.4615027
801.2533114
877.3560365
973.3828204
1054.781918
1095.97986
1121.367468
1152.930049
1189.414448
1234.498772
1289.242838
1341.605751
1398.47317
1484.637154
1589.447656
1665.8608
1694.795585
1702.929205
1716.545378
1734.664298
1725.216751
1633.369224
1458.783003
1312.444039
1290.686585
1331.636104
1305.180201
1156.80905
864.0947845
383.3433176
-265.5665918
-978.9710977
-1673.136418
-2294.578863
-2747.631798
-2953.328518
-2966.793701
-2917.656564
-2852.370081
-2727.968758
-2531.501211
-2329.482559
-2224.003785
-2282.565493
-2457.123947
-2588.284853
-2564.571212
-2431.108993
-2267.093828
-2040.859398
-1676.86224
-1195.029391
-710.9608827
-336.3786786
-95.72676979
93.89439488
338.8365848
636.3504783
882.3968858
1035.393129
1171.997453
1345.804731
1521.61862
1689.42229
1902.841147
2177.147092
2465.841383
2715.963942
2854.192885
2800.102031
2584.768356
2361.275867
2231.06624
2153.214732
2051.225912
1910.37765
1768.604769
1695.419619
1739.943891
1821.866269
1760.526392
1502.163592
1210.668348
1048.091687
975.5086252
827.4717551
485.0769775
-38.72130513
-606.7335512
-1068.345129
-1401.434257
-1688.415233
-1954.986758
-2147.113812
-2268.234849
-2395.850287
-2543.929609
-2642.514658
-2660.688914
-2629.139399
-2559.032821
-2436.067514
-2245.510683
-1953.916878
-1561.647366
-1177.370344
-917.5762148
-763.0456964
-620.4847574
-447.927802
-231.0814119
60.67073566
417.8409005
770.9267664
1053.206918
1209.246555
1165.038347
894.5273059
498.7972816
128.0305734
-148.5264734
-336.0300389
-450.3888393
-518.1242865
-559.3959557
-547.8656477
-468.1046167
-382.9046761
-348.2915797
-314.941371
-204.4779565
-21.966287
179.8202014
381.3046723
584.445074
778.3812371
949.4749744
1083.486921
1169.487848
1245.478179
1385.888986
1586.920279
1734.607243
1731.518708
1584.905694
1367.875796
1164.033084
1014.970688
877.5098606
703.1972785
556.1350032
531.8274414
587.7574945
599.4143005
543.0558327
482.0687246
428.9103843
349.0769511
240.4805294
112.0651244
-41.26952567
-185.4467175
-274.0693123
-354.5325776
-519.0607594
-751.1260162
-947.5595045
-1056.696361
-1085.011168
-1041.396325
-970.765027
-951.3514333
-981.372311
-964.1730074
-858.017016
-733.6636695
-647.21811
-572.28313
-482.0005774
-386.1117401
-287.1468713
-193.0313073
-138.6267797
-139.5782546
-188.3428476
-287.9881206
-398.5727221
-413.4542754
-290.9783442
-125.2573638
-20.14912938
1.674430919
-54.45826051
-167.4954911
-259.2704606
-263.7671469
-215.243027
-167.6479722
-94.1515304
27.63815256
122.1773128
114.0648174
22.23139322
-116.335448
-296.3340693
-474.5076317
-576.8887342
-594.4932743
-577.3942917
-556.4444392
-535.802124
-513.3901872
-467.5968199
-370.4716275
-217.8761696
-3.976611752
294.4775917
646.8250222
939.9966161
1095.093078
1144.833493
1139.003387
1077.350115
981.8868257
912.3062692
881.9688294
863.8939819
863.7400675
901.0276458
964.3823278
1041.924485
1126.876033
1160.856923
1058.712617
815.9974476
516.1042071
231.5295499
-12.39667684
-211.5960373
-396.0371005
-612.9325361
-835.6486995
-966.9578223
-968.3811905
-885.1655222
-739.6068435
-522.5200353
-277.2491128
-74.60912979
74.61539776
201.3170303
315.1982411
411.7043251
485.7688897
510.2009501
459.1058078
363.1466935
290.0252577
277.9569444
321.9534358
387.3219165
417.050408
386.4294213
340.9474522
306.3174273
216.5561181
18.37637134
-237.2508441
-484.3608991
-725.9187747
-980.2108607
-1239.346815
-1493.931532
-1713.406093
-1831.259616
-1834.092947
-1805.977955
-1802.067428
-1762.51693
-1631.894787
-1455.337051
-1277.896423
-1071.080945
-820.1067672
-555.4328824
-272.0030238
50.82196073
357.5477396
570.4699813
704.1330087
822.5705385
933.6561861
1010.684517
1060.780883
1103.235754
1130.096123
1132.163604
1119.307575
1098.010817
1070.844198
1046.714188
1020.282384
985.268099
972.4039555
998.3265376
1007.132912
946.1129186
832.9197394
689.7887262
517.6325407
364.4874088
293.0767637
274.8986087
233.7087702
163.4065841
89.81204943
-22.29203863
-203.044674
-390.5805311
-521.7615966
-623.7816111
-724.1157982
-778.9638286
-766.524317
-735.2569688
-710.3891432
-659.365698
-568.4223524
-466.1015129
-376.5457141
-310.3835816
-277.2586269
-266.3220766
-246.1290113
-205.4855071
-156.2034202
-91.29005343
8.664448329
130.4162645
242.3919355
339.7388978
434.4630924
533.4559511
634.9599019
694.0023799
633.8696597
464.4030498
304.2901473
217.2418818
139.2060947
10.9482214
-149.3924654
-322.4313327
-502.3407252
-638.5669269
-680.0766319
-657.5805349
-629.3693256
-591.3704943
-521.2600797
-444.1672925
-381.2665108
-313.0435197
-246.1725545
-224.0009057
-246.8373823
-278.2742337
-314.6670644
-350.2247724
-323.6043059
-197.6157327
-30.14658179
109.3713625
218.4395647
307.9317093
359.1177918
368.2130637
356.3829008
332.1435212
307.7536499
313.9493655
339.5338025
326.043402
265.4652021
223.5775955
259.2561639
384.4931574
556.7843218
671.4976816
651.233517
551.2058897
470.5431344
394.7657365
249.5144782
51.65951943
-122.2536928
-253.9046043
-356.2439804
-406.9335709
-406.1651979
-408.7889687
-426.4731686
-406.8276575
-346.1903648
-298.7195644
-273.8735362
-247.0690489
-234.2046264
-247.1657758
-239.7195592
-184.7141425
-128.2086179
-104.9299334
-80.02494157
-16.28519801
72.34501995
156.7341631
224.6474511
273.0013647
308.2160393
336.6013223
336.4629999
287.4312663
221.4113017
174.7561066
131.3157186
89.90437874
105.2977476
189.4841461
276.451249
325.1858879
342.3247113
311.3073495
226.3671509
152.1007651
124.6107428
66.28705138
-86.23827955
-265.7912457
-392.7684646
-492.6728777
-597.726963
-665.0590893
-674.760441
-667.8328623
-635.7739715
-516.5160835
-326.3168693
-167.845404
-97.23450397
-79.20895599
-65.54144067
-41.74864645
-7.061315403
37.96305458
91.03290037
153.3597463
215.0538038
247.1956312
244.4112735
240.8285989
251.4330513
261.3028603
282.8544585
331.813563
368.148408
356.7604806
327.1591166
300.4525498
254.9746166
204.1727125
188.7338728
185.9010315
149.2021576
108.798906
112.4132018
120.4703804
76.72963799
16.68069094
-3.893772487
-6.99293719
-21.10066704
-16.87412955
2.876776646
-29.40560955
-132.6473752
-249.9881347
-346.3873362
-423.1358883
-459.3535653
-433.5018281
-366.4150437
-284.022298
-185.671245
-78.36475124
8.653110467
51.77855433
38.55613105
-31.02692404
-115.5625967
-153.6107767
-141.3027873
-122.8464992
-105.4536728
-72.21770214
-43.03829757
-27.82998001
7.126794426
52.39098676
49.95333047
18.32202887
40.9567444
114.2399964
150.3046534
118.0914762
53.88754561
-24.77709975
-103.2867887
-133.7974361
-108.6328275
-89.59303273
-101.7788849
-100.7527693
-78.23490581
-80.83287706
-112.1490016
-125.5575169
-99.68767973
-40.94619156
43.92047431
123.5332019
154.2699321
149.2938227
163.1723631
199.0654096
216.0306206
222.9401933
268.637336
347.1686756
402.3642883
407.7171187
377.8426027
345.5022449
354.256367
402.749708
414.1938667
341.3635278
235.1691195
139.5750857
30.12174969
-90.84527352
-172.4266648
-217.0059061
-271.4393447
-322.566228
-325.4663335
-301.0901906
-295.1457881
-296.4683003
-286.5493858
-286.5072587
-283.26796
-219.4857393
-108.7478869
-35.21280132
-15.61512594
7.408759999
40.32936554
35.05830299
-8.433053275
-42.49478701
-50.30834767
-48.96090221
-47.96240415
-53.30483437
-71.28409257
-83.90230745
-68.51677915
-39.58016567
-18.00516993
8.451400379
42.94876636
56.06498398
38.09750762
7.346660592
-25.65599389
-39.1817677
0.052026017
73.37920049
125.9237619
149.9019671
160.3188892
130.7084117
53.60162723
-5.997145492
-9.450052707
-8.868374847
-40.16543088
-57.12677077
-34.13405553
-21.57239356
-49.13884772
-86.55898026
-122.5069061
-168.2733834
-192.9652424
-163.9335579
-116.8918966
-99.67787062
-100.946166
-94.5404419
-88.2036457
-85.94871474
-66.0925605
-23.69960335
18.68359721
49.89599067
76.09979759
102.2709496
138.8212707
189.3298764
223.3121673
223.4105157
234.3174517
283.2119587
315.275378
292.1902417
256.2228626
230.1234801
176.6290672
95.38484677
31.99461545
-10.09027526
-50.41283629
-65.49131719
-44.0393098
-39.27357641
-81.83900991
-123.1005018
-127.9299771
-129.0877097
-143.6298294
-139.1864062
-110.5670947
-86.76469713
-65.56177575
-36.87211238
-33.08269657
-72.35080936
-109.5169279
-105.9754605
-83.44992657
-70.4274514
-62.73884634
-56.82869977
-57.66026584
-49.62996018
-16.11521356
28.47485095
72.12037759
124.3411254
167.0001589
161.9417012
122.5096083
86.6622879
46.32878872
-2.353337296
-12.64563369
27.4533928
70.63832616
116.8097149
206.6706364
294.153445
277.8936565
157.6971636
21.68548512
-93.25659233
-202.4483749
-286.6363845
-325.5580023
-359.1842689
-415.585593
-454.4493746
-449.2246167
-424.6701466
-381.5514347
-293.9024134
-179.7154363
-79.40151478
7.740839079
96.93158585
172.9009122
216.2360027
229.4900765
220.4193467
201.722922
195.9356757
199.741913
177.6882154
124.9985
80.24801459
56.14446213
36.59258013
39.5388609
87.18748177
144.7272795
179.1834299
212.3262309
248.7525679
252.7898433
233.6634435
237.7808535
253.0990551
233.3399575
188.6465225
151.3105541
104.2339817
33.72241542
-14.27806739
-10.44682976
4.516953291
5.501952715
23.51185485
56.75315347
57.52454161
27.77086823
6.421652283
-24.48157602
-99.335508
-175.263555
-193.1586261
-180.37019
-197.116675
-239.1117705
-269.7601896
-289.469326
-314.2153431
-339.1093726
-355.4743604
-354.3368625
-317.4506019
-253.2664326
-202.9534758
-178.1117255
-155.4707493
-129.4756207
-99.40491174
-51.62441961
-9.941666215
-18.58248244
-51.02164382
-41.83639107
4.753673604
49.66359191
111.2901604
208.6208538
280.5474693
272.2002189
226.1995414
191.2511308
136.8906152
51.60781897
7.744111032
41.6866366
86.46270057
78.59885958
26.09042179
-44.50024022
-118.6807366
-181.1523424
-229.0228581
-267.349147
-273.5093865
-224.9357826
-154.5573607
-100.1838708
-26.96644447
110.1650963
268.4675684
368.4254178
391.480303
366.287131
327.9511249
315.8343559
330.1678689
309.9369898
229.2770036
150.5976975
124.2049729
130.5693341
148.1504985
164.4147319
131.368819
36.65054923
-25.87273968
17.46147441
97.42768793
119.6659074
103.3712214
102.5084882
106.8510433
102.6219734
111.9691294
126.2267488
116.9591798
113.7870782
155.3263081
197.7617817
180.2279589
127.1095119
94.27137761
75.69602117
35.61070845
-27.25361881
-98.55647913
-179.7654844
-275.9337486
-389.8161338
-515.3458777
-608.2350429
-618.275162
-575.4068254
-559.8240172
-583.8248747
-602.62062
-605.2559377
-593.1444236
-542.4399922
-466.4667884
-412.8020383
-361.3510829
-249.2718576
-97.02036754
15.47110263
68.39672579
91.97370298
99.06886572
117.8276465
204.0507771
340.3486263
420.5627529
394.6076671
323.1258635
260.9301079
205.0857853
162.9377072
158.7512252
183.5622638
215.799735
254.5987121
287.2388761
281.7268018
239.5474041
197.9800278
172.3320686
151.7211678
144.5193168
167.8885017
203.6087672
218.8287009
206.1580674
166.0149866
102.8131086
52.07483949
36.66864784
19.93238365
-21.71384456
-47.19111577
-35.63408417
-28.06923443
-44.70769926
-61.25680072
-73.57714933
-87.11873977
-67.59144807
3.329734716
68.39020583
68.99268837
17.08746656
-57.04014709
-138.8261268
-183.7099133
-152.5507242
-100.304792
-109.4035981
-162.8739623
-196.8335997
-208.548394
-208.7840478
-166.4482772
-90.30574823
-54.31172844
-71.5067282
-59.33872793
16.29671156
79.71750301
69.10303833
13.28392371
-37.88143803
-62.68645055
-46.87710292
6.519027026
67.71925655
119.8763863
160.4379935
173.9068112
168.1068373
182.7901161
207.4884664
181.5761453
106.0838771
47.22865645
27.66197503
18.752297
11.64598799
5.581241909
-21.41675648
-60.81247701
-65.10566216
-37.33604649
-35.49083049
-62.13758858
-64.08500315
-44.78809316
-49.62279266
-63.77511755
-48.21225344
-24.0031095
-19.58296248
-12.41192991
5.780420098
0.007428538
-31.11698404
-50.03241472
-60.38434831
-85.98961771
-88.49243249
-19.92113552
78.56100097
138.3046249
163.3968221
177.311324
160.7287199
113.5608223
73.99599124
45.79255311
5.77057906
-37.62844002
-71.85892593
-107.7948748
-139.7195345
-157.2156357
-191.1112057
-258.0655207
-303.0187106
-283.6546694
-240.2906032
-208.138697
-158.2484525
-86.92510614
-45.37950672
-36.64052844
-15.88284645
-3.390828926
-46.91214715
-97.68208419
-82.43509489
-44.05403787
-61.80624987
-107.5533506
-110.2832067
-75.50308996
-35.25066607
27.18383488
122.960019
217.6401214
287.7756073
332.2598262
331.200322
280.7485558
228.3239806
200.6673704
170.623065
133.5778051
115.6266609
106.3901448
85.19800234
73.60737159
86.53080652
104.4155598
130.9691511
184.9204775
232.3531031
225.00197
179.4119008
129.8106577
60.66299993
-29.81103474
-83.55910115
-81.89031357
-88.79132479
-129.5756779
-149.6115551
-135.7502145
-138.6734289
-158.5179876
-145.6766823
-104.5175088
-81.10848221
-80.00709938
-75.44569768
-60.54508615
-35.82847727
2.424457633
37.28755194
41.50922523
21.43742166
9.711327163
23.20838731
64.28857371
129.9848844
186.5544055
187.797518
136.3783109
71.46530998
16.02234848
-16.12644049
-20.62469699
-38.50271271
-110.0876961
-195.9856196
-235.4399015
-247.0520533
-274.2702826
-291.2565164
-261.2490566
-216.729765
-194.288019
-171.0935934
-134.1408413
-116.8897436
-120.7990768
-108.1041763
-86.03891543
-83.70504738
-74.71246491
-35.18222057
-8.11684809
-11.15948175
20.0488968
113.5135974
193.2832592
197.2598884
165.1657061
158.1882011
173.7521095
178.5190414
160.4398946
123.4853836
76.93601081
33.4688864
-2.350723778
-17.90771724
18.00830425
91.80418924
125.1317937
86.63291197
38.40523756
21.94474416
9.006972574
-11.47439456
-13.65149782
0.714366219
13.2574105
30.68541845
43.99093479
12.35333698
-51.51877663
-69.65601167
-26.49117783
2.105661019
-9.055293299
2.789735112
53.81527677
88.51453748
96.42255933
112.4786489
120.8244973
80.49723685
10.85080667
-36.55474453
-47.17175672
-35.95606014
-20.72815306
-20.6921175
-31.84493073
-15.14674097
39.59712613
76.93592435
59.62948109
29.8866282
34.70376347
65.43342808
102.7255695
139.9205938
164.3839681
183.2408691
221.9020672
256.1053985
230.7978684
160.389697
103.8617232
55.76151045
-23.43889656
-110.4308269
-166.7352666
-223.357828
-315.2476665
-404.5736691
-452.8100042
-481.8407329
-500.5660128
-473.3600838
-406.583904
-359.5190647
-347.3179101
-329.716966
-286.9160578
-227.5585699
-159.1160136
-108.6900648
-116.8227132
-172.6562307
-214.9152979
-210.1166453
-172.3121973
-117.3234964
-54.75180769
1.740881407
61.24370142
142.903954
214.8155226
230.3444048
222.5576242
256.8734942
325.8517078
390.7001092
452.6061053
508.7067703
535.1128583
544.2931793
554.5220426
525.3455178
433.9546482
353.1802382
345.4513312
364.311156
353.3750591
337.6848001
338.0317504
313.233227
255.2110218
222.384302
236.2714127
259.1621452
275.8790792
289.5152416
274.1093573
223.7584337
183.1322633
167.5276573
139.8806561
98.19335431
79.66937747
63.38769967
-16.33929523
-154.459663
-287.0034188
-408.7707036
-567.5680922
-761.9228775
-932.959202
-1024.184895
-1014.059605
-946.6526744
-914.6019187
-951.3806799
-998.870615
-1018.468634
-1033.557858
-1038.950964
-981.6892898
-846.8062625
-671.3454645
-484.0111179
-300.3055574
-140.09986
4.045724433
161.4808842
314.8568719
412.272202
458.6235146
502.6746684
546.3269885
567.2891562
589.8058384
631.4300634
642.2508303
585.6954964
511.8784162
489.9642291
530.5678138
599.7513226
648.4777765
629.4279802
543.5729136
453.0115181
400.0154329
359.0667612
314.7730022
306.4299153
340.5982691
356.0601674
317.5669564
248.9015224
172.689737
104.0185387
62.46193154
35.29851485
0.906546094
-10.70183219
19.21874063
23.39378143
-47.76202746
-126.6171128
-141.1834725
-123.5093358
-111.5560471
-72.19696195
-5.616039125
18.38606144
-10.11734162
-30.04327693
-47.071764
-117.1622566
-210.926016
-247.6511525
-215.8579478
-146.2284965
-47.84504123
41.76943427
39.68589478
-75.08426757
-217.3938705
-307.8981673
-354.8287574
-393.4986824
-421.8328929
-423.9994472
-399.2947002
-362.1364805
-344.5561153
-365.0554448
-391.5049973
-392.5655926
-385.57057
-370.0140264
-304.581288
-206.5021639
-150.7866164
-139.5259063
-105.6525355
-39.77926359
22.84690748
100.8259511
217.69594
314.1243631
329.8728573
303.4940968
295.4153326
298.3141753
291.7618
281.6303784
247.7196181
169.7139525
107.9891583
133.8143245
203.6173772
220.051605
172.3709354
115.6385561
73.85804835
46.98849241
43.86247268
50.12381296
35.59522487
18.03708913
42.38974101
99.7615686
140.9616371
144.5301139
119.1085984
89.03907651
94.10056134
137.9311782
165.0816361
145.2682726
104.2241493
47.00188049
-32.58310304
-80.81440609
-57.90516306
-29.81472978
-56.81669901
-85.06299643
-67.35218839
-64.78034079
-117.2708383
-152.3641
-122.644503
-91.69485105
-100.4095167
-92.71495001
-38.19394504
10.7081116
21.61983519
18.78965348
8.573108367
-26.90625443
-71.50165202
-90.21595797
-82.05107439
-65.94105435
-47.66205545
-33.50021199
-37.58054183
-61.19044584
-97.76022561
-139.2405713
-149.9141812
-94.21874965
-12.20686091
21.92819078
8.262729515
-15.29831736
-54.71005989
-98.47373128
-87.34085105
-32.79562961
-21.06174806
-47.67687595
-10.49961055
110.9253375
224.4903286
271.1480359
272.1375537
256.5092688
241.1434114
240.4230199
231.132599
172.3635136
90.55569181
52.31081646
52.62700034
40.26898149
20.67369775
19.005106
2.463763675
-56.25631988
-113.5975968
-133.1130778
-145.6158239
-176.0165158
-195.4124921
-181.1702147
-147.9007438
-112.7650042
-97.65033917
-136.6473355
-222.1171923
-301.3276562
-358.0193396
-404.6924701
-400.6986781
-302.8610541
-162.8529353
-51.66363307
50.33922691
188.78257
337.6614816
431.7790234
428.9380331
325.3860367
174.2271049
65.32198177
29.56246959
11.58701742
-22.56916079
-30.45797797
18.23989871
92.06638068
161.8519286
218.0419568
227.3161866
171.1974371
97.76205333
51.69946597
14.24155935
-30.5625538
-60.58017054
-80.90210258
-121.5970254
-159.0835895
-143.8712284
-97.12043459
-78.80333037
-85.7381819
-74.87148486
-44.6821819
-11.15955503
31.62441526
64.52461578
47.67978134
2.968964748
-12.33503357
1.470500448
21.72863113
63.19160963
115.740197
125.5845597
93.41239524
73.3099845
63.71659745
25.37941665
-16.58839961
-10.52040056
26.04253395
47.97774978
56.09826463
54.36091051
20.49793108
-22.70355647
-8.718272235
61.92722978
116.6016593
122.4094755
103.9014519
76.3443603
46.92353103
34.07817198
26.84909572
-14.07636225
-86.48262362
-143.2123308
-161.1283529
-152.4942487
-126.6888827
-98.14401465
-99.1747444
-130.3816265
-141.9012673
-106.1231868
-50.88921926
-4.929621351
16.12386285
-12.15619618
-83.89960726
-148.4196077
-181.5504076
-196.3270256
-173.017222
-81.44235948
34.95966261
98.98305233
97.55139346
58.71465076
-9.77534247
-83.08024931
-101.0396731
-60.06458979
-36.10376462
-65.19057518
-102.0621839
-117.575338
-120.8204089
-93.06558201
-16.16806409
65.01230443
104.076548
126.5104735
177.549731
259.4642518
353.2039672
433.1582851
454.6816863
399.0143001
317.6559737
265.9082606
229.4952577
178.5839564
128.832096
91.87855797
47.76934416
-3.229466117
-48.15018016
-103.0133435
-168.6304986
-206.8906072
-214.4505965
-230.6269271
-255.4763221
-260.8672569
-260.7368447
-267.1519797
-230.8208551
-126.8983828
-29.69123799
-13.6029123
-57.72993001
-110.3824634
-152.3297651
-157.6345601
-106.346072
-52.31150068
-59.72840598
-93.37948256
-85.48698835
-46.71456069
-7.377793584
54.35520288
137.8226619
180.5444853
156.708456
115.42563
90.50467722
67.66299734
47.47881967
47.31750042
50.72495246
37.00994981
25.002501
25.04960485
16.95570438
8.584376219
24.79360502
44.76238013
39.28723942
22.21476173
2.330891344
-33.58284665
-62.85327058
-50.90757198
-21.28541202
-3.0047261
35.53564781
100.4988369
114.8787295
49.55273533
-3.145631247
19.6922725
56.07444616
46.94078939
24.38319036
28.24444352
55.13853985
92.53718876
112.9040225
76.79020979
-1.91682884
-65.40377635
-103.1074325
-143.3176952
-167.1380336
-133.4811831
-68.8144878
-34.64197802
-31.8009051
-22.10808262
-4.283857347
9.83607985
37.95312448
84.05409778
125.2863204
167.8604562
227.9450809
273.3807338
270.5034041
238.3511907
198.3194273
143.9975319
83.59140942
35.99343114
-4.862304775
-44.0814095
-66.43632476
-77.7026249
-99.24386722
-107.236334
-64.83083639
-14.61719546
-29.4347993
-82.19725766
-93.02852736
-77.10214456
-101.413197
-142.4178779
-136.1083208
-111.4445263
-138.0856583
-202.8641897
-247.9825039
-268.7039381
-289.1749626
-303.6572681
-303.4390137
-305.0252565
-312.2697223
-301.6530314
-261.8974922
-204.0207235
-140.1399672
-83.69248632
-38.70871495
13.9236874
70.52351665
88.47290096
71.87158247
84.66473988
136.2800201
176.9878231
213.0103928
276.6434962
315.183927
271.1057035
210.6607403
221.4774357
263.4956941
249.2988912
181.9304722
114.9592215
70.0008562
57.38346505
79.86568441
90.19576179
45.61866341
-11.75154027
-23.16648645
-3.672354467
17.46463967
61.15400187
137.1119286
207.068043
250.5771638
285.9756256
313.8285554
316.3224309
302.8074049
289.9737998
270.5622772
247.4840494
231.4048217
185.6784913
74.73263346
-49.85438114
-125.2869283
-173.9246635
-221.5292244
-232.8069844
-210.601183
-226.0681112
-295.7330194
-353.6373791
-363.7861082
-349.2404125
-327.0158323
-312.8858754
-340.0005426
-383.8849652
-351.9421347
-229.5717744
-131.0768473
-137.2579121
-199.6436241
-247.0763632
-265.325886
-254.0492126
-209.3628733
-144.0650577
-61.62401296
50.78717743
169.0277864
235.3303205
236.7856109
217.7569906
211.4800753
221.1358672
251.2141216
289.3442818
289.5867791
241.8737526
202.6826971
199.9641465
191.9000434
155.0783648
116.348993
94.88907873
94.24259452
116.8675914
138.2084845
127.9199172
107.9194082
114.2895233
118.9715487
67.70876446
-34.6629862
-144.3446539
-241.240559
-317.2141893
-359.0659351
-383.5973665
-414.3137922
-409.137405
-317.8785432
-196.6376727
-134.3499723
-113.4757349
-76.63070222
-46.44158819
-55.59198948
-60.58605573
-22.53579201
25.40269163
47.17707135
49.86480524
43.79890715
39.67623148
73.1719255
154.9916354
231.4192227
261.1511921
266.9256971
261.4547817
218.9958637
147.9295508
85.55293277
32.82485106
-14.36867058
-28.66553307
-13.63156358
-14.9053819
-34.20293036
-30.1124757
-5.591720756
5.604865042
15.77187451
52.61270599
94.87472118
115.9241253
126.1956048
117.7382713
63.87303891
8.780355052
29.7900562
95.61320154
104.9532514
54.82054917
28.0787597
48.05677761
71.1427592
76.6065247
68.9504295
47.18449005
32.93707646
63.51994164
124.7779982
163.8271276
172.6183641
177.9146678
171.4730477
135.9666811
94.4016968
63.45030864
28.81664985
1.537478897
4.089538435
4.377055759
-41.22302445
-116.0966667
-183.6773346
-237.2064895
-278.3261618
-320.1687098
-402.159314
-523.3306022
-602.3106287
-582.4521911
-515.6379851
-464.0361592
-398.9375284
-283.9617851
-167.4493821
-105.1712967
-84.89681692
-80.22628713
-76.3240373
-39.54554606
33.32211969
77.89459241
60.91145818
36.4680981
42.40389418
46.48770069
39.93812053
69.37050358
142.7900093
208.6996112
240.2153647
251.4818848
250.740593
250.402242
273.8674845
303.014051
292.1721663
247.716867
210.4925699
189.6542676
189.5973824
228.193539
269.838308
242.7282768
155.5728598
84.87522544
48.42919211
7.915437284
-36.11778087
-61.52558603
-80.01802571
-92.63147966
-72.62840492
-42.39706032
-59.09757045
-105.4197406
-118.270122
-108.6512357
-122.2145945
-133.1551074
-103.1985081
-68.8992702
-67.77298193
-69.11346382
-46.9903802
-25.20262925
-13.7843912
3.722866054
11.11364226
-20.36979971
-64.75014279
-79.48798648
-78.08787801
-87.9035833
-90.51553372
-64.40913813
-14.93173372
61.58689483
157.2885229
216.4980817
205.9600829
170.3709361
158.1292143
163.1856616
166.4412361
157.4177547
119.0422365
58.93248481
22.14552659
18.72370906
-0.636387303
-54.66465085
-99.77477865
-120.3096561
-153.5711607
-204.2177477
-235.777179
-246.8911369
-258.8975982
-258.8338021
-236.9102915
-219.8319622
-208.8618951
-165.2434207
-87.87451626
-18.85484408
29.66858656
67.70374209
73.61946805
36.54055286
7.763373105
26.35306655
54.29039395
56.57802086
61.70502968
86.53318769
100.0147656
85.86859277
47.51855575
-18.94065333
-82.30745405
-87.8447132
-49.94090592
-23.5528531
7.099789678
85.98967253
179.3563918
235.8464272
277.0316552
319.1668113
305.5671411
214.4038894
122.2939778
83.16982424
62.11210019
38.8389753
48.13779415
89.20913818
114.3919374
107.2105735
78.24559753
23.17132448
-44.74061081
-83.2133809
-87.30893477
-96.26589751
-113.1015939
-95.03136662
-37.37813586
8.624243362
11.31463996
-15.27768474
-55.33445258
-100.9910462
-140.4241676
-173.3102317
-196.2816311
-179.2011713
-118.7510563
-69.71114447
-63.50466153
-72.60723574
-86.62030232
-124.123051
-167.8177203
-188.1408505
-206.5208068
-249.7442523
-287.0962336
-283.5316824
-259.6290434
-240.8060127
-209.5215058
-156.0084453
-105.9434564
-65.05174788
-18.16736592
12.71080053
6.148053435
8.250059725
58.70446907
104.2273637
84.22037469
38.33547834
44.95798431
114.670165
207.1201234
295.4017154
370.2727798
428.2739764
473.8962421
499.1250431
482.0228511
437.9863138
