-0.667125779090041
-0.602390273320033
-0.411964487822473
-0.254769437296289
-0.193876964762779
-0.138269064000205
-0.0393581105785474
0.0244570797827337
0.02040260386772
0.0264410928244885
0.0802714742876147
0.140439265068519
0.195415974449118
0.254988254990524
0.284253049578011
0.270823153080607
0.264383839706827
0.27278398910256
0.249579524940349
0.209121149605922
0.20086517140995
0.194587867934615
0.145842739715831
0.110296533695902
0.154976463134865
0.241386905690412
0.296100380374386
0.297720335596999
0.237919741209703
0.111415442495147
-0.0271574354451977
-0.109529938059917
-0.148015634025432
-0.177910245010551
-0.176093843376071
-0.157103428900041
-0.22529152208165
-0.393588353335474
-0.504813342793168
-0.462310235219558
-0.374497196450701
-0.381147228289844
-0.499605208029294
-0.677129804945606
-0.841419600921431
-0.908771916294849
-0.855525326083594
-0.731967906888361
-0.56612940513773
-0.365234356854042
-0.193298511778682
-0.0836297256010263
0.0719505986241815
0.368285293737249
0.70567773606481
0.926348758779742
1.02067528380027
1.07327898163417
1.14032909678669
1.26067438854974
1.44403547520406
1.60862153470761
1.64676130222619
1.53445150864015
1.2980283568236
0.956773314747595
0.566749037375746
0.216990002723073
-0.0644556881451086
-0.302778877194507
-0.48220172502461
-0.581500691693915
-0.666842513456312
-0.810439216350273
-0.972208292391135
-1.09075791925396
-1.19924651552748
-1.33798666582893
-1.47224807569626
-1.56798471500942
-1.60975234995128
-1.53903059526406
-1.33127837012778
-1.07530588486245
-0.830718096288762
-0.540520676285716
-0.215949667426624
-0.0061052822472117
0.0500507864345308
0.131002566618194
0.386775205989077
0.768428407559046
1.14106976636133
1.40617045074644
1.53538521828229
1.60801467732209
1.73664813079914
1.883891733028
1.88498981093342
1.67957270761601
1.3700069036896
1.07340023509342
0.852765760570878
0.708226427748634
0.518664573186248
0.12657118575725
-0.427656825062772
-0.917942570495103
-1.23221708976854
-1.46745786871844
-1.69314453824368
-1.83900976635993
-1.86033543492939
-1.81358783523273
-1.7342643992116
-1.59081183343137
-1.34674356461949
-0.980239359582935
-0.535903487617102
-0.195384265876302
-0.121520808486602
-0.218159766588241
-0.24860012564172
-0.162156920942856
-0.0887429317302841
-0.0793656709436409
-0.0620032141212978
0.0188762416868653
0.170802422566968
0.378889187726335
0.596426212728339
0.810120684316595
1.09331870788963
1.46419054793768
1.77002488653095
1.85989605288482
1.779719525988
1.6863856690078
1.67580532199735
1.74383650707217
1.79272007242237
1.67784240695716
1.3571381512788
0.941781411494325
0.53319920909399
0.126184120556997
-0.287677819967334
-0.676344296816163
-1.05156843900458
-1.43991658832878
-1.77297405538131
-1.95999420465243
-2.03732273152818
-2.09792034403827
-2.14115132492488
-2.13443895856993
-2.11545965635437
-2.10019627173362
-2.02356175405166
-1.86804373724247
-1.69956057888263
-1.53900507938469
-1.3603119792259
-1.18093634985543
-0.988368951024095
-0.676394151862797
-0.214281319398806
0.259380770917237
0.639929609860167
0.990923616099331
1.39367193292145
1.83364291952693
2.26928652411598
2.65920594782179
2.9428963945699
3.10975177353262
3.20395184050817
3.19969045972849
3.0227961642653
2.71745392822206
2.40125727994314
2.06709188415353
1.62335068894742
1.09059301814241
0.591017823725434
0.200630879028252
-0.0751106073714027
-0.265198235148539
-0.44603777650353
-0.689952876521041
-0.959735686775021
-1.15054997957785
-1.22752075835932
-1.21939917274123
-1.14373735377186
-1.05966616938594
-1.07548319645547
-1.17146698623565
-1.17344673708512
-1.02213880450297
-0.881240393459949
-0.886890884913288
-0.986012509107177
-1.07418661470083
-1.11167602778758
-1.09060661500516
-1.02230872764885
-0.927857886301681
-0.784459805625049
-0.576446358646044
-0.394278853141661
-0.329194360448105
-0.306637555718867
-0.191121126231644
0.0120358970101874
0.200734989956716
0.30724802202044
0.283085598973281
0.113613036623001
-0.0767174317728263
-0.0952294569104074
0.113032538827076
0.450993621543916
0.795634281525114
1.01637496830146
0.983425405739936
0.683966567403033
0.236694146593919
-0.257366365431161
-0.753697230711979
-1.16318985692677
-1.39724742854736
-1.51599694645072
-1.64992392074992
-1.78871532588985
-1.81476089422228
-1.69751146927043
-1.50948898535587
-1.33029591396743
-1.23435766340608
-1.25773989745323
-1.32589899497217
-1.3335771027257
-1.26827422181336
-1.13456327132086
-0.869120456285723
-0.468942724884359
-0.0631487101196458
0.255584523340664
0.526578882783569
0.802111468113219
1.09054641134418
1.40711893344161
1.73371396472081
1.99786504277912
2.20857350913837
2.47691624712517
2.81381003721799
3.08691892157374
3.22464040162248
3.26173148179507
3.19011936913756
2.98246990154682
2.73311053829216
2.58372609367741
2.55292537852889
2.56621654307523
2.57458594492127
2.56016243865234
2.52475757725039
2.51997631853194
2.58525813269999
2.6589321402679
2.66839616407043
2.6574333101573
2.68629111036938
2.68827266892989
2.56104128895216
2.29428217197365
1.9054786174063
1.38003159048984
0.731688918708834
-0.0122993699782707
-0.879848725759582
-1.88027966887898
-2.92637353593871
-3.92532145781455
-4.82384930472642
-5.51506806661586
-5.89385195255007
-6.03853112782446
-6.13148700304544
-6.20319782179291
-6.15152597143689
-5.9556943418893
-5.67856210314338
-5.34136246224819
-4.95086513176834
-4.55277461693495
-4.17292203647803
-3.81513098587764
-3.51918287056739
-3.29498539266487
-3.05967186166445
-2.76236088006566
-2.46525383592055
-2.19644828372667
-1.86398783974129
-1.41361060017903
-0.927576735680836
-0.490243945682612
-0.0952463917766674
0.273187543370807
0.616316312705459
0.98759544486036
1.43046708827521
1.87461059610051
2.23455081416144
2.54941111796333
2.92330994501456
3.43832792660128
4.17553014986297
5.14001189420262
6.11207325542978
6.74592802111123
6.85700499328737
6.51845539496556
5.93561406664442
5.31869073504386
4.78277886859148
4.29062023934409
3.75501614982839
3.17617985619966
2.59054662366767
1.97987023080577
1.35180018127884
0.795343935216505
0.359819155661049
0.0131169691757792
-0.240900196652274
-0.372939187093209
-0.452242248183346
-0.582264007012253
-0.750697717211915
-0.890948545664208
-1.00230677211835
-1.08429808461775
-1.07777691922927
-0.97745060496892
-0.869678578475025
-0.791881124294015
-0.704108649242617
-0.629473005034841
-0.649221311039268
-0.751175821681172
-0.856057781919994
-0.964635650992415
-1.11699762784098
-1.27481454463397
-1.38388824724967
-1.46613648340255
-1.56357446401471
-1.68746013903776
-1.83271188656697
-1.93655801767617
-1.88567440426341
-1.6769502512158
-1.46281633216859
-1.34645966783725
-1.27910827979409
-1.21518342150757
-1.18387841771606
-1.17175502669955
-1.1237749336363
-1.07001202218454
-1.08457201602842
-1.14660656744972
-1.17403251687151
-1.13362667404396
-1.03417818565911
-0.898391006381741
-0.771258578171586
-0.659102193467042
-0.492206479026771
-0.251620593961304
-0.0508191056086929
0.0228731881722302
0.0498232280286593
0.151637193282067
0.318964363633078
0.458185684293045
0.524285039191862
0.542234418567013
0.566004827464131
0.634745232568727
0.718439339100675
0.756497479297039
0.781622032947808
0.872580577049485
0.963249127876355
0.90137204855732
0.715653901765472
0.597316847623223
0.617528311096631
0.681283254752313
0.724369308222385
0.759497205497179
0.786778115485275
0.803087533094541
0.821599933416675
0.812481206943799
0.730816419689725
0.608853196761079
0.508187527056129
0.441982008146004
0.442992351606337
0.568864232894669
0.745665371435055
0.793396293525254
0.682220933618682
0.562064611416023
0.5121714702317
0.478038164394224
0.449196095803298
0.488407429869421
0.598334929066122
0.717061944234051
0.806640366374271
0.840844948907078
0.780369521630942
0.637606619698101
0.472651348431404
0.284514079378125
0.0300974706727977
-0.235755610075117
-0.390455015654166
-0.416967181003439
-0.414943745020887
-0.470243053662801
-0.608598578446514
-0.804763683574485
-0.982616763426745
-1.0978589123966
-1.20824298468338
-1.35773493310715
-1.47515150422295
-1.5012607339856
-1.48416064378174
-1.45107082048861
-1.35400673907019
-1.2098804535305
-1.10548247757765
-1.0314653589541
-0.89424517139516
-0.678192203588535
-0.439699495514565
-0.209490018845366
-0.0230217281522524
0.0636447008159899
0.0674279111961663
0.0653649851780604
0.0812870058662734
0.11154918683978
0.195229997686793
0.32406418730233
0.389186247419922
0.334797550168364
0.242804796945906
0.192233985534319
0.180826107988045
0.22057237209684
0.334008656918871
0.432924612603576
0.381287707458736
0.181363786509425
-0.0594316548725622
-0.282653374529499
-0.43797886194999
-0.406721882274615
-0.141883289711225
0.222722989515771
0.513234262192484
0.651452175828458
0.635519429043382
0.542293800906367
0.521410979160228
0.632291557495105
0.740554686903674
0.683989691158532
0.454239308315487
0.166940824265614
-0.0262576850909481
-0.0039769761380886
0.199160308006461
0.375695469876455
0.386879294983432
0.333723323662143
0.382502283903655
0.553379157797668
0.765567020442617
0.94457627207368
1.03248397819811
1.01881669387532
0.965498999554527
0.918794410320502
0.861170147918737
0.802692894158047
0.79933754377408
0.837614964383747
0.836129985181584
0.780153807997229
0.71567568951067
0.630919431004961
0.497117508948682
0.364334444035741
0.243774866040779
-0.003428361883999
-0.468532923791573
-1.00171509272292
-1.38394530140985
-1.56687207003199
-1.63403972887776
-1.67007796683298
-1.72238581355239
-1.75779576727625
-1.67423059202397
-1.4611518138162
-1.24475730716475
-1.08151651848016
-0.869595644770048
-0.548157343357079
-0.207831699980093
0.052816879816277
0.223335702787135
0.327570657025057
0.396753796668541
0.448187611539667
0.422438304592726
0.258762351805404
0.0555472843864317
-0.0209267640032244
0.0115038571518626
-0.0223138689637545
-0.200474058020539
-0.44350438499342
-0.658199184587622
-0.808982286063212
-0.911038001281514
-1.0405086368505
-1.26756204442374
-1.52289238259938
-1.62486624816209
-1.47029552332137
-1.10947587741092
-0.65164879883499
-0.205080260257887
0.135607038352858
0.345291192211244
0.445583538619366
0.38874089186093
0.110291666799428
-0.287135373079955
-0.593823747007832
-0.740358296507565
-0.811251732240787
-0.865107035366681
-0.907742834790617
-0.954857351886785
-0.984248763070318
-0.932197639647455
-0.806956468497199
-0.667241597354161
-0.486364354812781
-0.215184566806625
0.0594365090089871
0.209250077796848
0.256252518200763
0.313786453517682
0.433034738737126
0.618654591266801
0.865971280845454
1.1076697419649
1.25421458783638
1.31711117577756
1.38627394289415
1.51091062179248
1.68520061012984
1.88333081246917
2.04753357234881
2.13386307344909
2.20394224213303
2.36092888002589
2.59165944321402
2.80105382517244
2.97298643466392
3.1565960705465
3.36081833418027
3.6004770043013
3.93670860144846
4.34720648815208
4.69390398047401
4.90948022907303
5.07365402640367
5.27208740244071
5.50584374235532
5.69187986113656
5.6404851223362
5.15689089822884
4.27240120133317
3.21630258813134
2.09434801648865
0.798586562735074
-0.719592934618842
-2.30066754942446
-3.73561233707712
-4.91359156013323
-5.83549737488872
-6.59915235282078
-7.30582893983733
-7.92417422996325
-8.34517385055447
-8.55426944434203
-8.61968560433344
-8.58707902002997
-8.5223364793827
-8.53146152004022
-8.59617754601759
-8.52915776429949
-8.21398774890189
-7.75122031300526
-7.28447684571007
-6.83957137926947
-6.40182744185241
-5.98420525413496
-5.55273127556018
-5.02153337279538
-4.35047554028315
-3.55190930049705
-2.64441227583624
-1.67447266366703
-0.685321139773056
0.376210572450571
1.58073334267497
2.84843683178228
4.03636181557795
5.16208610377196
6.35685585109484
7.62961244848179
8.81274390260785
9.69396582437105
10.1438484491957
10.1965645592281
10.0050031240413
9.63881215002508
9.0314457866213
8.22686324712057
7.47438122999179
6.91292649781009
6.36382168842251
5.59188464477106
4.59021057482868
3.51793775707182
2.53862529733388
1.75748604585487
1.15899257436799
0.613701639641646
0.0539819344825734
-0.437952979210402
-0.810860443974416
-1.17924844814353
-1.65934031725833
-2.19696472991639
-2.67279800279025
-3.06637260720389
-3.42041194227535
-3.73073506636205
-3.93007420000071
-3.94383633314344
-3.79434388847226
-3.66445713615324
-3.7355585723167
-3.94183940613434
-4.03734655102321
-3.90218257187107
-3.62771416184472
-3.35212753892764
-3.16625411528139
-3.09333701312137
-3.02727625302
-2.79636135856824
-2.36794063909929
-1.85991419257692
-1.33568164911857
-0.761304862289868
-0.155635798865189
0.391294189165412
0.827306738585593
1.15264881592423
1.40130142821333
1.66528497565634
2.01395824329526
2.38171605854346
2.68136891816048
2.97474363025305
3.3616199313835
3.78651153604395
4.12810299194033
4.38821779736481
4.64661093972497
4.923506096825
5.19598758548991
5.45303069539863
5.66922646989412
5.82190167287523
5.92229683701456
5.88483464120315
5.42768205435819
4.31030636769592
2.64645238392083
0.848567409995434
-0.677288841761445
-1.75143099262243
-2.52387529750233
-3.40491953957913
-4.69420933380581
-6.23763326103614
-7.58233783154527
-8.41597412530771
-8.7385221288919
-8.735381620689
-8.62059519485023
-8.49319135245668
-8.26725010849158
-7.83316842218822
-7.25379155355414
-6.67013403321547
-6.10440511594571
-5.50336178777078
-4.86239007482178
-4.18880837945554
-3.47347409078184
-2.76377131877618
-2.11964081050791
-1.48272898844549
-0.737320755429714
0.111154346805881
0.936653954167477
1.63361046631416
2.17914795993099
2.6128843984711
2.99268814580922
3.30207851009751
3.43292127651561
3.38124692732257
3.38014852031716
3.64982396657453
4.10788635693881
4.54012498015426
4.93649251570147
5.4198895705461
5.95251701090576
6.32632209678382
6.37776914980311
6.11303062840985
5.70106899929555
5.34453592249313
5.0621048975936
4.66954214927332
4.06077706879959
3.3645372370614
2.74314180012957
2.21905153709534
1.7665737998583
1.38812118716186
1.06322404567193
0.776645266249359
0.56816172010956
0.432013338514666
0.266303870149914
0.0229343818715776
-0.225291812022521
-0.426460908049538
-0.617315289344556
-0.842369953999569
-1.13178366776268
-1.50807284236821
-1.90719120875773
-2.19565865390473
-2.36035287460056
-2.5421276362429
-2.79308004825855
-2.9662554094764
-2.94541960878821
-2.82713552069774
-2.78319878795484
-2.8622677319397
-2.96460397688811
-2.92655844110626
-2.67321501859287
-2.35084549339281
-2.19273573754572
-2.21978609287323
-2.24300376471245
-2.1558281665515
-2.01502977095272
-1.86704614862164
-1.71044224159346
-1.58392514284737
-1.51717883663629
-1.45589044591387
-1.33076997091052
-1.10529101897167
-0.744447128141515
-0.277893552956754
0.154397499208273
0.475164258882021
0.780448741847734
1.13488829986834
1.43291156005544
1.59626856044957
1.69561127761857
1.76803756910064
1.73776373319128
1.59591368598141
1.45566846325614
1.37749616730248
1.29034482256695
1.09973457087508
0.776800814408774
0.371563195333756
0.0055277182331717
-0.208758125577346
-0.283152579531842
-0.31486564183915
-0.339574121894587
-0.336084214706114
-0.334426105964215
-0.377512214646398
-0.433340254332551
-0.465698036124743
-0.500751971274609
-0.543200127131198
-0.550807799917126
-0.529108506496691
-0.520564453815834
-0.518388915541943
-0.503922232918126
-0.480906494352437
-0.382925554203789
-0.104242028342467
0.298554206657304
0.623305997347566
0.791795151711922
0.912539495475223
1.07183731101166
1.25125520628724
1.42121551550269
1.56122664969197
1.65749204867673
1.7789692993382
2.03395221048085
2.3885664960136
2.65954284388608
2.70284828449817
2.49932154722264
2.10867736379212
1.65662398882108
1.29440494107973
1.07252976470798
0.918522553730597
0.769657882309117
0.620882637332262
0.43876482068719
0.169135654624111
-0.169268639478447
-0.522206957112085
-0.879452643440585
-1.2039027412893
-1.40234394639437
-1.48636950806391
-1.60633712467297
-1.83375599125468
-2.08942312921567
-2.32431079552412
-2.5645870935817
-2.77756696210598
-2.89152975671833
-2.9112108842772
-2.85737713966023
-2.68440433891066
-2.38249473520884
-2.03964288602978
-1.72007447303714
-1.41115638473407
-1.11395121149175
-0.851718335314515
-0.611804037627038
-0.389410801637799
-0.215767925778516
-0.0685254713164907
0.134220209139122
0.420941488382962
0.7734281175683
1.20947683261005
1.70649265348781
2.11323760135867
2.29764358560271
2.30872725695421
2.26626581064122
2.19159255906941
2.05805820387872
1.88940490179667
1.70593016581295
1.48760912603954
1.25241308652973
1.05053031081862
0.872023968110504
0.689403008502307
0.548002859914551
0.488475367108463
0.462349681273455
0.4165991668271
0.348722745357711
0.241713160951463
0.081498519698067
-0.0787184098949102
-0.203697083970963
-0.347080862149014
-0.526748917661909
-0.666132676614394
-0.744260277365291
-0.830022757564249
-0.91930818133122
-0.93155303744797
-0.874722092015472
-0.822461796631042
-0.765400661845897
-0.654914878031119
-0.515168723444277
-0.382511539881386
-0.247334656379486
-0.129760962166956
-0.0690479509216639
-0.0124082319993314
0.129658896357503
0.328696063917336
0.484442855546143
0.580502683057845
0.662281708770078
0.727510513800003
0.756058144792136
0.766424777884173
0.741181130142553
0.583859411203698
0.226769478911573
-0.288748733756109
-0.843659547784863
-1.27488150344299
-1.44895236758907
-1.40404377231213
-1.32698877812725
-1.33083575924608
-1.38678447449739
-1.48098257514484
-1.65943320548875
-1.92487205415335
-2.2405802682251
-2.58381274383214
-2.8943746803239
-3.09190850898868
-3.20825854743281
-3.32907848164729
-3.3807758053469
-3.1934679347867
-2.77786053984687
-2.31700553371238
-1.90667537359066
-1.50203251445713
-1.06403089758119
-0.593484602871404
-0.0921910432838184
0.405815139974178
0.851697664991313
1.27311739883101
1.7544738775546
2.32565828021874
2.94012396871356
3.51534426880549
3.94931296321765
4.19545977528024
4.36613049956741
4.64337516921944
5.05890759567711
5.49828052463392
5.91592460513667
6.37114172424035
6.86687439873619
7.32838380416493
7.71297371467288
8.01667422536031
8.25789704142051
8.534545125781
8.95855831422989
9.48394736396107
9.93521872031314
10.1651355993676
10.008275079761
9.17431362922457
7.4280694959168
4.86327101306254
1.87275864608308
-1.12459805558091
-3.91640853462899
-6.55272767119229
-9.15131716183105
-11.5849331445465
-13.486563467245
-14.6424155533096
-15.1958613567539
-15.3927790852012
-15.3513395066815
-15.1423521755269
-14.8577283604335
-14.5322175412483
-14.1583059224655
-13.7642457264198
-13.3399925993594
-12.7546208770767
-11.880008448754
-10.7255483107074
-9.36786831272197
-7.86039000190428
-6.28166379133232
-4.73054409783651
-3.19889405212779
-1.5719912504234
0.217325442302956
2.14410478329632
4.14352205473236
6.0614249803685
7.62752585833559
8.62308761126146
9.04100781248194
9.05333381744989
8.91023887366449
8.83939148223044
8.91849265135532
9.07526474317309
9.25620677162091
9.46542394129353
9.61189016123472
9.52528704239143
9.17477323828071
8.68866267941615
8.15179632845677
7.55253091972417
6.88344022427806
6.1419323366814
5.31302041283471
4.46012279829371
3.71760398981847
3.13690163388356
2.6738669334994
2.32251576269739
2.10282932803251
1.9475809342374
1.75016725039687
1.48224471393143
1.15575363825843
0.736417686471418
0.174820233778099
-0.55534096676772
-1.48283632620999
-2.58513777486291
-3.69209538628272
-4.57141798586701
-5.10941561228629
-5.32237329935062
-5.28796673847975
-5.166478718145
-5.13600208236197
-5.20050386769292
-5.21236037720082
-5.11631089187706
-4.98892626058335
-4.86646655615803
-4.7358698949933
-4.62623213932972
-4.52546157098408
-4.32060156737809
-3.97286170522861
-3.60230336871996
-3.28420294175588
-2.9224637089303
-2.39050839193218
-1.65323294337965
-0.760829353225144
0.146465872594155
0.907009515734223
1.52299185253089
2.16246067127933
2.92727912097958
3.77750774066373
4.67565810449367
5.60361655867805
6.47029545135914
7.21399456510946
7.95826607404412
8.86905375984749
9.86956102590826
10.6185933957786
10.7452099222221
10.0799675175248
8.77416816832506
7.20536690061889
5.61047549386447
3.83350540269157
1.61774022983741
-0.921836434083434
-3.33394501366669
-5.27266871342371
-6.73499669396654
-7.9556803426661
-9.19313490620584
-10.5179403289648
-11.7429814471356
-12.6323483190692
-13.1432998778566
-13.3943105076644
-13.5187107401366
-13.6275568422724
-13.7509541008863
-13.7486150016927
-13.4432753890912
-12.8489194980393
-12.0948057535439
-11.190904167568
-10.0659303902778
-8.73805097921379
-7.25998509996212
-5.60495793439615
-3.75054511437909
-1.76892708500389
0.241681509263878
2.21916942092928
4.13097383139948
5.99103852010758
7.81531621800057
9.47960312117759
10.7527711967736
11.5874413834859
12.2495378020406
13.0432089913112
14.0089716496918
14.9410194783106
15.5576315541464
15.6317828522902
15.1210590076213
14.2044821245637
13.1111834970293
11.966712762415
10.8384710062339
9.77577160286268
8.75861850637209
7.76265016756276
6.87606152204735
6.20833266950034
5.74460812506455
5.42013935976332
5.22360554128528
5.12201014079574
5.03735968610097
4.9620234078557
4.91574198955606
4.78234113479677
4.4233961989404
3.97110106753926
3.79266636187598
4.09190826645375
4.57325280668709
4.45978877521565
2.94223839524518
-0.161013706781779
-4.19482230041706
-8.26241969029393
-11.9448753128847
-15.3240525743622
-18.5119286702204
-21.3779609288733
-23.6048002195574
-24.848431464689
-24.9712259063235
-24.2396333054247
-23.1804420775048
-22.1750440539616
-21.2596920559489
-20.2262731115391
-18.7591194571458
-16.6265046822179
-13.964868921249
-11.2500477232487
-8.82648990210739
-6.62607914183976
-4.43839475180113
-2.21427277073617
0.0057849627349087
2.25048894881651
4.60421252900742
7.13311392965349
9.80147975424732
12.3794197307703
14.5075401329094
15.907246991882
16.4760796622972
16.2748431829347
15.5842280334726
14.8469416733062
14.3504374207629
14.0922528732567
14.1099745743038
14.7316293799993
16.2814257577535
18.6498420396183
21.2655932146053
23.3973040222078
24.4743137622049
24.2639588911966
22.8088419986431
20.1923225771067
16.434191721237
11.6429796434015
6.16883888206642
0.556312246567551
-4.60200256949098
-8.8403833280135
-12.0402734854343
-14.4751777232633
-16.4898444196382
-18.172461415843
-19.4500887296752
-20.3678360932709
-21.1003256186356
-21.7770341089017
-22.4035020669759
-22.8727120679901
-23.026718288417
-22.7992738306054
-22.2763883208474
-21.5568261445841
-20.647140383528
-19.5329372399148
-18.2002911418883
-16.5564373227068
-14.4966473871603
-12.0461019238908
-9.27413569041759
-6.13067301821033
-2.54430009974338
1.37198639986057
5.29341510957072
8.73942875950278
11.1747979907532
12.3300717010265
12.498047675507
12.3267227968705
12.3102623445515
12.6143475581499
13.2685641929171
14.269788979002
15.5183904239187
16.8269169462849
17.9766589369811
18.7046117662194
18.7797823981196
18.2190463944879
17.2958362717387
16.2005757528156
14.7816895235599
12.731045189688
10.0077131693218
7.04627072225838
4.51423704865681
2.8199011027808
1.90235617562893
1.51877948344896
1.54526730285917
1.89327417689908
2.3986329729719
3.00851024469332
3.86923241339228
5.02980486424809
6.22417571059095
7.09630583150995
7.5396768191231
7.76636563892592
8.06372199516751
8.3371104119995
7.84746344846862
5.71678407966838
1.87662943812529
-2.74752889969151
-7.12624647931284
-10.9217445949579
-14.3155990071014
-17.3966465328177
-19.9513200355056
-21.7222067653538
-22.6919644811053
-23.0512872944852
-22.8883002329472
-22.0152493233909
-20.231239637853
-17.6678516059657
-14.6934549796627
-11.5963317592832
-8.64702247761297
-6.38999504607566
-5.5102740157423
-6.31767588840867
-8.47706350338622
-11.167778801906
-13.4341125320901
-14.6155637678193
-14.6521051588318
-13.9173993750107
-12.7558579047657
-11.3107157727461
-9.69709103714714
-8.07674770979732
-6.53798414677472
-5.00660728069187
-3.21927498324726
-0.762875194450548
2.68196277400868
7.03816598602978
11.8389563100814
16.5153747141361
20.6272099920132
23.9485845478718
26.4651766771564
28.2452751321616
29.305239080692
29.6505773417825
29.3169691697335
28.2555546640685
26.3918999254644
23.9775213081383
21.6227422327052
19.6986968017514
17.8825048996267
15.5773221240457
12.6748848776973
9.64188330849278
6.90100076831531
4.37337871256236
1.71244314248148
-1.12018176917836
-3.6630358273197
-5.43773193270844
-6.5266841376669
-7.43595543482729
-8.41954464976834
-9.26415725828867
-9.78343137008759
-10.1777421759003
-10.7721816985026
-11.6302380611315
-12.5329382689679
-13.2190435158369
-13.6190750610175
-13.9102338022797
-14.3348919741097
-15.0233361879162
-16.0648771403834
-17.5436872555479
-19.2423991468062
-20.4958952538129
-20.7107719731377
-19.9939123311328
-19.0362059098996
-18.4440181087573
-18.3136627864806
-18.2946858599989
-17.8900590127674
-16.766443252439
-14.884755411699
-12.3793867280002
-9.40885206930421
-6.15067784398153
-2.7898204430467
0.561018364471387
3.80325359780533
6.71979020544327
9.13553983610253
11.2543268940167
13.571321231041
16.3411552251054
19.3105541024628
22.0212552536644
24.2155633507178
25.925078105239
27.282335011168
28.2879339978635
28.8011054131192
28.8164115625009
28.648694814198
28.7427142353263
29.440382390046
30.9844506322704
33.4168340164214
36.2638086320558
38.6340904839232
39.8952991385703
39.9951714063256
38.8456830721065
35.6371213879846
29.1879349744397
19.1135393193034
6.57208798592544
-6.23083556407299
-17.3202802458342
-25.786898128477
-31.5840424493999
-34.9557144979303
-36.3192585482345
-36.4123268121446
-36.0945579077919
-35.90715623916
-35.9381863085228
-36.059602587446
-36.1564677629762
-36.162475122792
-36.0169320425677
-35.6696202992284
-35.1602162962081
-34.64908165364
-34.1823668720287
-33.3425529177912
-31.3998857670171
-28.0826796141234
-24.0653645664226
-20.4608855819685
-17.8772314165345
-16.0338462479623
-14.1592564094621
-11.7237305185821
-8.92911505032196
-6.48906168971851
-4.83225356487751
-3.58040008875266
-1.83958414133914
1.13617895986816
5.48394017324018
10.548861182558
15.0998654173278
18.1002187631976
19.4454413439189
19.8370882879974
20.0308905548879
20.3967425331555
21.0108854468715
21.8102047947131
22.6156726640463
23.1707820201849
23.2472635183421
22.7839645538384
21.9815340678921
21.2024212408873
20.7183879017942
20.5949218525744
20.7729044383355
21.0814794990825
21.1668526856586
20.6533883084029
19.4910443185394
18.0226031435716
16.7059019303927
15.9046823557965
15.834886947145
16.4350763514993
17.2852711585551
17.8196650622531
17.635675648085
16.6417191954873
15.0807882375885
13.3496790119603
11.5328804193218
9.17046659396709
5.76594084083797
1.46343077944245
-3.05491247900225
-7.31810527506737
-11.5073719937279
-16.1409034977837
-21.3757999731867
-26.5799488685247
-30.6369409191977
-32.7837719383774
-33.1171603371945
-32.2918180481887
-30.9630089733426
-29.5847948035678
-28.4036105143144
-27.3928355692693
-26.3275676861702
-25.0531757682216
-23.6012775830053
-22.0303676510007
-20.2611319464967
-18.082770293174
-15.2919510489455
-11.8964621664115
-8.19406768103792
-4.50914646592866
-0.834990268904239
3.06629958828832
7.15540682029549
10.892982025899
13.6233293047279
15.1652642155331
16.1002317207883
17.4679937558189
19.9103811189077
22.9451309816456
25.2439730511801
25.7805459068058
24.6646848817949
22.8534581906037
21.1347406222938
19.376077577694
16.7013436795955
12.4218221591903
6.8003016650031
0.897984994334122
-4.198451984805
-7.94605805326648
-10.4515698063969
-12.3034338431461
-14.1542073070045
-16.2355187399556
-18.327509513404
-20.1862886485872
-21.7697301619994
-23.0622888687693
-23.9724250401628
-24.4396696432455
-24.4416018966176
-23.9121798963645
-22.7926638539834
-21.0858220373327
-18.7694687052157
-15.8165893885015
-12.4064795131641
-8.92638198762794
-5.63804372982848
-2.47664051563582
0.816483341603985
4.56620914232319
9.09624991364713
14.4503893492264
20.1322774582109
25.3517545267368
29.5760985400566
32.7643666871345
35.1505009473608
36.8807385179353
37.7840912899494
37.4696555252435
35.6983008247176
32.6083653336367
28.5775697531542
24.0524021297788
19.5551470401206
15.6077519219914
12.5170301902044
10.3403235904756
9.00891510985428
8.28375764928525
7.66238937401895
6.59796808859382
4.89411888985408
2.85193863068937
1.04525244315301
-0.117847343342121
-0.713835662623449
-1.12497472649403
-1.55323163779486
-1.99440868457871
-2.76787310928181
-4.61573294653699
-7.92443242072009
-12.1449048839167
-16.377055958266
-20.3589211283318
-24.5345944428713
-29.2486386063868
-34.1656608374003
-38.4693498063917
-41.4511391952493
-42.8474764418085
-42.6707879591481
-40.9254189936083
-37.7490409972125
-33.7410378954342
-29.733913288475
-26.0993790571979
-22.5188988383259
-18.5135816561376
-14.0327429442941
-9.53972234171453
-5.68608781090976
-2.8620878096968
-0.914798533504187
0.726168663153368
2.65992733602441
5.24162955043155
8.50180082491771
12.1915520933909
16.0581747281685
20.1340161798188
24.4826834152521
28.627709094396
31.6670677971668
33.1474856579146
33.5074592455752
33.5221043463182
33.629144217203
33.9218984264818
34.4044664547894
34.8750237952573
34.6800418843655
32.9959554809882
29.6065798642976
25.3190326292075
21.3097505702591
17.8700637036259
13.989359331863
8.47678576177657
1.40133554734341
-5.86865860907466
-11.9651210135558
-16.5752257964079
-20.2926008495451
-23.7129136826052
-26.7237462554968
-28.6104419505518
-28.8425642967677
-27.6526856315726
-25.7737664893171
-23.8113980226574
-22.0061039894728
-20.3492196629221
-18.7368393207844
-17.2165349879381
-16.1694349439582
-15.957017642703
-16.3033571376893
-16.33852059723
-15.3739426218948
-13.4421087829887
-11.0589671259224
-8.64750223981678
-6.2200619085311
-3.52718259015762
-0.4959813898986
2.53109549549241
5.10874622079097
7.22708307869835
9.42483396589202
12.350019256738
16.2335930167211
20.703741320182
25.007987530188
28.4557699829432
30.7665721821552
32.1126134207253
32.9337593984385
33.5843784696871
33.7407242058101
32.0533135511893
26.9666717969938
18.3724571917396
8.19286361503032
-1.02268223086062
-7.91337463224986
-12.6628088311497
-16.0344654162258
-18.4288298459651
-19.7137815370082
-19.6867779369535
-18.5799366738846
-17.0227396469346
-15.5243125353668
-14.1513664305271
-12.6933770388899
-10.9400505653688
-8.84345791797759
-6.63905524373403
-4.75985207108947
-3.4325619223319
-2.39943189734063
-1.1269852901876
0.813132137706662
3.57715440638505
7.03971066979222
10.7837058469876
14.0418912532776
15.6279899047072
14.1813539260784
9.01077507178823
0.939497763449435
-7.92185111667971
-15.413086354146
-20.2797076475652
-22.1919867972265
-21.5146487557345
-19.3057772047733
-17.0163669931829
-15.6342474937688
-15.0394097252862
-14.289334104629
-12.5781573070125
-9.99729922559134
-7.41100661270127
-5.58815916078065
-4.54681421137924
-3.77163705202401
-2.81113461321132
-1.49051151727343
0.184349253654923
2.0578230306219
3.9102074228019
5.68005658410389
7.47968069928659
9.36504027629393
11.2671412090305
13.1044911371084
14.7642054077452
16.0658461690738
16.917881718555
17.3688335002768
17.3949432313526
16.8575180745665
15.7613250173131
14.3217364884863
12.7129407974434
10.948166387264
9.01769828344212
6.98735905092657
5.00587430689577
3.31494053475735
2.10356500495062
1.22831146027366
0.264451856263593
-1.01016337589167
-2.31916762543166
-3.14820267698267
-3.15389613137042
-2.32133664824402
-0.923280031279281
0.636922391188252
2.04880354758954
3.18404418866343
4.03579327476061
4.70748456922505
5.32025312137513
5.64872256526298
4.99575826608606
2.83867937940586
-0.417962797496814
-3.66207412847115
-6.0524751273248
-7.59603316557776
-8.88625474281164
-10.5178758293343
-12.6814782766574
-15.1023135697268
-17.288855974605
-18.8141446684309
-19.3787548008036
-18.8034397388234
-17.147982971029
-14.7771361984922
-12.1815420564784
-9.70428944671288
-7.39640024129845
-5.08399368077242
-2.63004696681458
-0.171283193617147
1.98277957939483
3.69874097288374
5.13483539881992
6.47626710008931
7.69730753593557
8.62513435053581
9.12119398493938
9.22142316062587
9.24391716025936
9.68337097926575
10.7857024579054
12.2412066293114
13.4185508020299
13.8593436882034
13.54448145168
12.8289396678844
12.078029581808
11.1770528550668
9.52080027094555
6.76753713381082
3.49850387068336
0.841376952721932
-0.524910567249619
-0.860887762838803
-1.01252078581321
-1.68412660589014
-2.89166156727185
-3.99883826039689
-4.33998646471688
-3.8183044185851
-2.9127171737394
-2.25301659736237
-2.21628615562618
-2.76159272890086
-3.65349417789433
-4.99124257627702
-7.3442551781309
-11.0063931876268
-15.1730029617714
-18.2497673011256
-19.1034554717358
-17.8492054724992
-15.4439601584361
-12.7662216096822
-10.1485025309768
-7.56915966653085
-5.05832077725374
-2.82714280283725
-1.06755579192769
0.193297589737242
0.991171737140366
1.37913314158596
1.56629191536787
1.86402255135227
2.34587510304137
2.71683975841572
2.6250341134244
2.03384278764718
1.28324827565811
0.786730576919863
0.556760148319595
0.0893608900999005
-1.03339061281335
-2.48356483531819
-3.43568169723848
-3.39922274191649
-2.47360701545756
-0.899200132956747
1.23260577614545
3.83564466775057
6.680418465665
9.38635191550741
11.4690653194451
12.5498206194355
12.6376012301317
12.1077560722932
11.3756416282601
10.6553075689397
9.93679970442086
9.05643735485662
7.86062633243526
6.40728516408023
4.93247399897039
3.59347279284769
2.42372677946541
1.59208497235823
1.47758816063899
2.38659506113716
4.35782604408235
7.23805705226632
10.7169661053321
14.2868645568049
17.3845907666232
19.6123306871206
20.7987671597932
21.0319817108082
20.7259527683066
20.3873332149158
20.0541244125161
19.0174727908245
16.2632360518335
11.2928399039637
4.61800726223258
-2.48124368495484
-8.74058952676944
-13.5956173702212
-17.3193083542681
-20.7403284960966
-24.7711021959704
-29.7841060617863
-35.199361279291
-39.8404304391158
-42.7622946522649
-43.610145497748
-42.4043787791802
-39.4602839665367
-35.5094645848328
-31.4596152502817
-27.883286533173
-24.8659931838437
-22.2315224869012
-19.688599335375
-16.9058091610521
-13.7521727681853
-10.4302521667686
-7.16782992446422
-3.8290431760628
0.0176813613923612
4.66822230451292
9.93181824334377
15.133551075987
19.5536666259828
23.0067332429655
25.8492015780359
28.2461164755873
29.644087603263
29.2879132575038
27.2297397516944
24.6076471991526
22.8488645147449
22.6220940302242
23.5423168274021
24.7560401727465
25.5785161826461
25.5233712729722
24.1415320392883
21.2910919939587
17.40057589373
13.0038192836388
8.05901904403714
2.10800466956644
-4.89389097856068
-12.180321320941
-18.6042298201704
-23.3336538987522
-26.2362296003178
-27.7836944269502
-28.607824356847
-29.0587216647914
-29.0794519463342
-28.3756008972393
-26.6645510794926
-23.8787520476998
-20.2198602025121
-15.950874736924
-11.1215719337623
-5.6533710962999
0.274673970184786
6.14121817693606
11.4834743211912
16.2440008015937
20.6771827652777
25.0245250606398
29.2888536269088
33.2412959275979
36.5543951402534
38.733162341836
38.8868003555512
36.0927165732421
30.5437665122678
24.1129095239911
19.1909610504607
16.9266774473107
16.8245315476554
17.7231415549305
18.6378194020911
18.8311388569297
17.7815410830758
15.5346616261009
13.0265528496665
11.6586808581802
11.9809612003646
12.4680282258598
9.88347630064385
1.4589033662069
-12.8783116688221
-30.2384566041792
-46.5824949561449
-58.9378183280684
-66.389081481909
-69.5826617851027
-69.6376218295843
-67.448545654975
-63.64201168277
-58.8193996914197
-53.7571485590395
-49.4487941086258
-46.7610592666612
-45.7022524445575
-45.1017207156233
-43.4113474480803
-39.918801102101
-35.0401280784299
-29.5922606179733
-24.0422511220977
-18.3132440426816
-11.985846065676
-4.62531070623799
3.95305856837694
13.5605619940684
23.5431448185536
32.785852623191
40.1721278129562
45.370247295126
49.1130051225769
52.5759995360095
56.5048900529216
60.829586952567
64.8096356168246
67.4107668303221
67.6851563383381
65.0889550337442
59.8546321839233
53.2979729940241
47.4080435843537
43.5527413398588
41.5118894280237
40.0342733919639
38.2442918565594
36.2258773676956
34.4132786836983
32.8667043559531
31.1814612338072
28.7809830295895
25.2436506801693
20.6084273519915
15.4455020455943
10.4263099808613
5.63624139906818
0.253702825051525
-6.98461907815203
-16.6934694760089
-28.0184001229687
-39.100931510796
-48.5742857360421
-56.4627864884671
-63.5139882532434
-69.9366294039324
-75.0283822949939
-77.8500838066952
-77.9841555515152
-75.6364166803486
-71.237527646587
-65.2274413635768
-58.2795400591425
-51.3647715370629
-45.1911547687569
-39.6969734412071
-34.4432143326978
-29.396999243425
-24.9630126531082
-21.2845252289153
-17.834258261677
-13.7626177641893
-8.52309793853839
-2.14407639457207
5.01481047699721
12.6422422647283
20.5302455505452
28.3962811516293
35.9028444887182
42.805149726461
48.8005192421414
53.2646898087843
55.4791176343432
55.1682002167432
52.5558370826521
47.996157419652
41.9936680157423
35.575028788134
30.1089732325262
26.4720499363356
24.4819174767758
23.1481419707181
21.445402960449
19.0391726063103
16.4023824895283
14.1727643385447
12.4848409607265
11.0336210939078
9.45303105907851
7.26811971856373
3.82266618899445
-1.14786560706084
-6.93782466185296
-12.3022252407265
-16.4962882449671
-19.7067240959115
-22.548976685377
-25.2735998985388
-27.3856313181842
-28.0057015162694
-26.677485749576
-23.78774662388
-20.160170256258
-16.3506407443657
-12.3900521218585
-8.12935820878231
-3.82365471523053
-0.378829583411435
1.17161458824635
0.621775522578373
-1.0556098579587
-2.42687627416702
-2.5608557951742
-1.26518914558511
1.27392356171857
4.73227422772439
8.59842905374654
12.1767501217088
14.8174957778543
16.1822444879154
16.2511093315918
15.1039497644733
12.9101244049774
10.2036707831702
7.76381886167451
5.85287585559193
3.8189041937683
0.815172391543734
-3.23364591671074
-7.56365958710159
-11.2235562800266
-13.6889087692976
-15.1565553828466
-16.3432530484366
-17.7362600309092
-19.0577757830061
-19.7108413987021
-19.5952650474659
-19.1733051405117
-18.8863343733376
-18.7691012418559
-18.4789049292589
-17.5454750151451
-15.8121020975165
-13.7464529495152
-12.0695399290364
-10.9711426963572
-9.90950261172905
-8.25007889462929
-5.87261740438205
-3.07508281840282
-0.105522287506788
3.07103759632457
6.64458865323097
10.7088424433657
15.1661241392466
19.8655723889423
24.6836074729087
29.3177964428344
33.1453929998866
35.5174978001143
36.1556466966955
35.2132236466142
33.1723112029898
30.7691307699534
28.7020840721537
27.1336471044446
25.5155296555804
22.9795348033005
18.9472740746406
13.5522657607832
7.63937405485459
2.29494454564088
-1.72123794258544
-4.15687757186795
-5.15047852200427
-5.17846536052464
-4.91844706961472
-4.80804076295613
-4.76629731754522
-4.53054677367612
-4.15605551670693
-4.03972630906081
-4.60118699602852
-6.09945908851588
-8.68104196107279
-12.4666998522676
-17.4895219727534
-23.4284024732132
-29.4186390514314
-34.3827115455976
-37.7499889473305
-39.766601922328
-40.9949276863869
-41.6190220902678
-41.3135282587849
-39.6679141988688
-36.67585580889
-32.8728547965707
-28.9516133146622
-25.1616928216011
-21.1456483168473
-16.3803464018384
-10.7004063727391
-4.50589683509615
1.34977600462726
6.02040110578165
9.28600400169546
11.6863466319302
13.9979017434795
16.7940929252353
20.4844856348708
25.2671419575745
30.7616068725495
36.0163541230289
40.1902820404404
43.1742729622434
45.5029539151255
47.7166936118507
49.7187656169001
50.6840395865605
49.7347684465801
46.7609766491594
42.4883841971338
37.8632572559507
33.5640052767537
29.8893254373463
26.6897330201049
23.3627068084974
19.1754588571157
13.7211229837888
7.12118523510399
-0.0577306438504194
-7.10526684392762
-13.6284259999535
-19.7004773108569
-25.3383429280377
-30.0400618980667
-33.2745828189295
-35.3184966709409
-37.2093560089296
-39.9560477509258
-44.0043999829268
-49.11220668286
-54.2896163950979
-58.0373514841755
-59.0882465697211
-57.074192900416
-52.543138266135
-46.5094712057033
-40.0015885095798
-33.7991713738683
-28.3199892681589
-23.5362048564546
-18.9543874408443
-13.9280990602125
-8.23299629890555
-2.24508728294366
3.53553706649654
8.92099529542453
13.9252735280856
18.5240325133352
22.654581029099
26.2537967304978
29.352354275593
32.4452398249221
36.6154201154288
42.6860784589846
50.0573227237997
56.8058174675158
61.2492556927428
63.2722813571306
63.9461915858768
63.8829030165386
61.9893082120064
55.9079232288348
43.9777745848804
27.0279166702785
8.28117796170971
-8.4733116186462
-20.7102154215542
-27.83730622516
-30.8584368217053
-31.5275302829563
-31.4010320209035
-31.2926857443816
-31.3546617208933
-31.468512420134
-31.5593341306331
-31.64665389252
-31.5960501821504
-30.9149742452486
-29.0942089621251
-26.2459652805654
-23.1604380668412
-20.6229309815334
-18.7965374694121
-17.2100257003442
-15.1574290856492
-12.1785330629299
-8.30605071196166
-3.79308373229569
1.37595176344207
7.42806851727984
14.1136882416149
20.2316475269689
24.0513618497636
24.4184281402652
21.6722397292465
17.4726128989955
13.4590434741981
9.96632448010931
6.2076688448305
1.69441660623403
-2.82980570027215
-5.92581021171985
-6.64137648905552
-5.1095466248251
-2.29707933672694
0.67966428007661
3.17195068959386
5.14044589177303
6.84004023654224
8.51071501533968
10.2830937017582
12.114423097434
13.8185348773377
15.3500172443622
16.9317099226821
18.6003406174459
19.6740474500157
18.9578867826836
15.6416445407746
10.1219651900177
4.05151407062121
-0.606537101203748
-2.90887525382704
-3.38913597098891
-3.16595618447718
-2.81368043141883
-2.20982744225315
-1.15274266308927
0.14450731556381
1.00493080474196
0.584373218614098
-1.59040860501484
-5.2244784329706
-9.50387079887918
-13.8459167833211
-18.370623000597
-23.6445098294826
-30.020863982389
-37.1171675503619
-43.727345578048
-48.2808897171014
-49.668971304007
-47.8234410820633
-43.5307756837597
-37.7028019502283
-30.8443447936698
-23.198625781843
-15.2900239958176
-8.0582241228812
-2.26487565127026
2.04467545928573
5.23529631189137
7.46445046595579
8.74052578994621
9.4158647084897
10.1760478763474
11.549668355523
13.6922235578424
16.5782414824805
20.1596092458118
24.3425610001025
28.9413459153484
33.6925257038148
38.3408163021091
42.7139419459951
46.647801412379
49.8810540137915
52.1160627818829
53.0464841559495
52.233069127088
49.3078652899482
44.5898285546527
39.149432446584
33.904275530204
28.9478263610744
24.0609987162219
19.4555910949385
15.5319860390953
12.1384340756688
8.463648332055
3.56848329861341
-3.0492851501484
-11.1080833397315
-19.731536310892
-28.3739509505599
-37.4702758729702
-47.5854890665242
-57.9282953905109
-66.3587500109365
-71.0676350859538
-71.8507247515675
-69.6530809923875
-65.3271380265369
-59.1408666031721
-51.2693008905075
-42.3185134895378
-33.142095510533
-24.2890892908093
-15.8802681046875
-7.98455076614305
-0.870422546388492
5.14791621364219
9.97461322383712
13.8636855849372
17.325857996205
20.7342910005249
23.9705100536542
26.6963134366826
29.0176433072522
31.5598686150011
34.7269386609971
38.0997514063297
40.7902125311225
42.4069519239045
43.5152491465007
44.8542257143318
45.949824387765
44.8124439385063
39.4901914454951
30.0011157248337
18.5071554393776
7.56044772694461
-1.74158524634194
-10.080104471444
-18.6638914591119
-27.5912556819709
-35.4093404170734
-40.4757251273524
-42.6541216618618
-43.2745491353718
-43.5199039201757
-43.4088227202142
-42.3988868913407
-40.4128135916042
-38.0196970262855
-35.8503084952063
-33.9247317552131
-31.4818451257191
-27.6389888907851
-22.3804472590988
-16.7338075869253
-11.8689644410755
-8.17067566122832
-5.12371904255091
-1.76073555065886
2.81817146647159
9.01109752008521
16.5067739664456
24.4134184888091
31.6038678908142
37.1790699495678
40.9328392998613
43.3431703871062
44.8353745337734
45.1042004909477
43.4766879089004
39.9167396803367
35.3219026609243
30.7512188766549
26.5840038346995
22.4745401744955
17.9663507608876
13.1094753356796
8.53589001810944
4.99313696875505
2.93518563524178
2.5477552949849
3.81068096484189
6.30953130872786
9.23944834927871
11.8001305426024
13.4537556288039
13.8947132061354
13.233611005887
12.2917240237617
12.1928732067516
13.2499332659858
14.2982302569145
13.3265717422753
8.97891012115605
1.6743493655771
-6.69301246132054
-14.2972653416921
-20.7056747592443
-26.7643221144294
-33.4308298094635
-40.7981200700468
-47.9442240932479
-53.5166569181979
-56.6466378922704
-57.4507492179771
-56.5727500996945
-54.3252415889626
-50.5510397982843
-45.2988389660872
-39.2690453143016
-33.3911534210055
-28.0841628120312
-23.0535656211816
-17.7998634540098
-12.3062202464105
-7.14612333867838
-2.74867856219699
1.36586420641458
6.22291142384719
12.0630388967282
17.6555300666052
21.3071186410299
22.5768702059123
22.7496133825888
23.4814657883157
25.1511234561328
26.7518465903172
27.2282060666556
26.5470666413114
25.5213489865267
25.0316099303668
25.4916838417518
26.6418150037582
27.6308841205809
27.5059353232251
25.7855426133233
22.5954195454268
18.5007902706071
14.4363992316732
11.4952082132832
10.2610301492884
10.2869461889035
10.545000986157
10.5150898806408
10.5941306690826
11.0965652388832
10.8547230802397
7.42739616975069
-0.539335263706369
-11.1377596489722
-20.035343217833
-23.8052551884673
-22.2113637486243
-17.3834922177414
-11.554366648886
-5.91998008025436
-0.973337981182699
2.88721146781541
5.23029576616635
5.91864840104451
5.48529084113454
4.96524010217791
5.08955667921348
5.6807102934867
5.97588761602687
5.44520638443066
4.16593580023894
2.46132491366325
0.263912110998671
-3.09528710721834
-8.29071894252103
-15.0786604927171
-22.0711633997146
-27.5069807775297
-30.2013166639464
-29.9072262217347
-27.1428881299014
-22.8114488363108
-17.8084909669056
-12.8623337661187
-8.66581965518328
-5.92047220240428
-5.07204413087307
-6.08067869179913
-8.50512629268334
-11.6871451603274
-14.8315884336956
-17.1173562323434
-17.9500761623711
-17.2141917107924
-15.3261052195774
-12.9749644067973
-10.6147022031939
-8.10654598927596
-4.93688978692907
-0.786571339932724
4.22328484140587
9.73787683540577
15.3645399451607
20.6981399811748
25.3669349368768
29.0723219869487
31.6155014787005
33.1201648461075
34.18443422368
35.3703896264533
36.4309561718192
36.4480771137018
34.9284034889562
32.5437795164212
30.7263093024429
30.6607397203707
32.525627109426
35.4063927865644
37.891951322539
38.8568667724267
37.6993032434032
33.9698688292385
27.1051775904928
16.7413131073876
3.26750927103227
-12.0019413149292
-27.2488216446309
-40.8037014943127
-51.478865119383
-58.4745495408093
-61.3166364255296
-60.1414218548571
-55.9720055563564
-50.4520134835974
-45.0842679355393
-40.5538287942518
-36.6166636964105
-32.5881029726399
-28.0574586370637
-23.2525097221662
-18.8009968543999
-15.3380615672302
-13.4292210847273
-13.4836884778965
-15.2703526764054
-17.6357776511095
-19.1239018251855
-18.9032668962888
-16.8939855019586
-13.1553552907836
-7.53345359479503
-0.0160481936805485
8.7176116242797
17.248656842039
24.037452300143
28.19853747226
29.752240230889
29.2883807388347
27.5810498652192
25.4505992448245
23.6515052893765
22.6346662892702
22.3474002050776
22.2760442454902
21.8558216902568
21.0664729206398
20.5149338697013
20.6333708033813
20.9374509496243
20.5354115991697
19.3548626039968
18.3653903387055
18.4264629983701
19.2967081054288
19.9900871482988
19.8000489200384
18.707530526673
17.0155311691602
14.9731068738156
12.8137354265802
10.9110231057766
9.67261577383898
9.28390555459051
9.64841327114824
10.4705999164081
11.1808847203404
10.8871045414087
8.75858936273288
4.54255673513388
-1.41635583602266
-8.49929414941095
-15.9394158071788
-22.9035658450022
-28.8732575887917
-33.9111824076797
-38.338128461613
-42.2148863799696
-45.2114122980028
-46.8322577003033
-46.7881277494995
-45.3644117488995
-43.3297176572836
-41.198927008282
-38.7072555768784
-35.2838063997816
-30.8535652753372
-25.855851967363
-20.6410389908991
-15.1940152103092
-9.44368563982152
-3.67786411404322
1.35995673599583
4.81430505340959
6.33226848752722
6.43009066518369
6.19146168985466
6.57813599683163
7.99619413247863
10.3185279723297
13.156748801781
16.2186495203159
19.5305460668078
23.2514553683504
27.2509872179799
30.9538780564595
33.5778567048156
34.5139313552059
33.6591334754738
31.4975444386994
28.7633577698933
26.0139425223637
23.5776072177866
21.65708454388
20.1547653393337
18.5268199303317
16.1286146308503
12.6811126486176
8.31170910170271
3.38188042395414
-1.53799392296035
-5.73504396241107
-8.62598216180764
-9.99532860548693
-10.0771727631423
-9.53583415858343
-9.2148306498339
-9.68827448421442
-11.071631201541
-13.2333867297643
-15.9315942694343
-18.6587378009039
-20.5925887078139
-20.8924966140514
-19.0958265448746
-15.3665235149061
-10.4692919663201
-5.36805156804984
-0.750734798829601
2.93943070448631
5.1412805291479
5.35447461244323
3.87121738391718
1.96927591198078
1.09315936626503
1.85324536264115
3.74650426546644
5.72358331233493
7.13630389346701
8.2606135750856
9.83004591055166
12.0623409347552
14.2615239070588
15.3244388347834
14.5577784565332
12.1935505704879
9.30552394973445
7.09838069825979
6.07208060836447
5.78034429074993
5.22666848617735
3.40474335680397
-0.18812099861667
-5.130219862967
-10.2175172642245
-14.2525254426822
-16.6599532398233
-17.4272976282725
-16.9217447275201
-15.997732810647
-15.9191833264235
-17.7247415548726
-21.4970677731702
-26.2087050523778
-30.3279654067607
-32.7711262520729
-33.380555536255
-32.4073969882227
-29.611589205168
-24.1757822206513
-15.5859285623649
-4.43751653547338
7.525037894166
17.9918803241796
25.1234149683597
28.6202164096728
29.7184682095328
29.8264057128457
29.3874809418367
28.2227390858262
26.343625258636
23.9037721428903
20.7984780288189
16.8488954268783
12.1589451037632
6.98806333739202
1.50015795907673
-4.13547937324207
-9.52005199565225
-13.9927354611702
-16.7881387677363
-17.3337531460939
-15.5566462395517
-11.9557333801929
-7.41137104586435
-2.89970438980194
0.79160244435079
3.22565273069068
4.26349743160166
4.03262016516355
3.0977424336205
2.40897926998754
2.67680643534941
3.80765960904482
5.24370041067748
6.86224202144382
9.27404687956322
13.1427844856006
18.3153862775605
23.6377089187952
27.5908011712021
29.1980247988055
28.4325919613675
25.8744760476834
22.2378742525263
18.3494444975268
15.1605255542628
13.1572830614055
11.594383326591
8.61268058137413
2.53328461134169
-6.57832696725809
-16.4710289285993
-24.0611673914861
-27.5828865057405
-27.579170513335
-25.9926858569579
-24.5964018484357
-24.1958240384399
-24.7203406375034
-25.6566068531662
-26.525510651256
-27.1655894200666
-27.6105553396098
-27.8045797269609
-27.55379446726
-26.658099637016
-24.9855662013436
-22.4893453970339
-19.159012250664
-14.8716202906603
-9.41102351276857
-2.80294924735205
4.53545295509935
12.15548288705
19.7464740471398
26.5506060088962
30.9466506015021
31.3284065681487
27.5730208061073
21.412668584727
15.373503213594
11.3652343558467
9.85373945485783
9.91525990876547
10.0861431144179
9.40245450713248
7.8593897863256
6.17202702090192
5.2152679969372
5.3736938314062
6.06348844456981
5.88541138932036
3.44115889599705
-1.75225299727627
-8.79824408646937
-15.7396345220852
-20.7228711728784
-23.2057312102462
-23.9345495209581
-23.7422074891682
-22.7317199407946
-20.627816641263
-17.3416237946616
-12.9632245261685
-7.6757476481993
-1.98955207888022
3.23776197894871
7.3368838424585
10.324524635843
12.7163814641498
14.8852336284921
16.7734178817648
18.3224703214135
19.9984831726747
22.5350827352876
26.0759131404337
29.9367327435736
33.460413971066
36.7699549628487
40.3125551108418
43.9206361145488
46.7183902398292
47.7604167757736
46.3634063072369
41.9021631337921
33.7005008354165
21.4386852694576
5.86303104941296
-10.8944017344618
-26.0267452801087
-37.4691408666332
-44.7382201610463
-48.489716665518
-49.583666208133
-48.7256649645026
-46.6412709442364
-44.098496638039
-41.6684488856946
-39.6898436200182
-38.5109836496273
-38.4499435555473
-39.2600492389729
-39.8466615481191
-38.8777810408281
-35.6579196205181
-30.2688317197922
-23.1724316210406
-15.0821373476539
-6.99467066190741
0.21519717185827
6.38100006931258
12.0505425146388
17.8207618048434
23.5721954623685
28.2169714419454
30.3389810923126
29.3867145092912
26.1604051256386
21.8586447343461
16.9348988540016
11.4511806105306
6.28735539374467
3.06583364005778
2.64471163227053
4.33383530965939
6.91287163632675
9.98888842771376
13.992248675932
18.9704526557135
23.676029798525
26.0949403312573
25.050780120246
21.2639248386274
16.787169995556
13.5717455925085
12.5725408405884
13.6829893274545
15.9949628256278
18.244406597684
19.4269993684977
19.1418741051106
17.3678220270226
13.9919837187006
8.58766686429382
0.745564705009647
-9.1374676086056
-19.4068638023483
-27.8598490624797
-33.1470111296521
-35.4480231166429
-35.8947423063936
-35.5877479730523
-35.0987245705867
-34.5349319591626
-33.7880521902942
-32.624081775447
-30.5606938830689
-26.9269381076842
-21.4572868326945
-14.8828799937898
-8.56206843356185
-3.33580557659024
1.07477446847012
5.51993759494881
10.4562367891255
15.4035116496888
19.1293291312051
20.6028574453472
20.1461611981952
19.5654658391535
20.8326748849871
24.4434405457002
28.8145332070255
31.0884627890011
28.8752765221311
21.8634313235756
11.9928538434845
1.99048969828858
-6.28614705742893
-12.3167745203374
-16.3395044878433
-18.6118399815238
-19.0593496925387
-17.5084413025871
-14.2414164374545
-10.1087940957602
-5.95545845634898
-2.14813384241386
1.27499048364777
4.37074899132091
7.36892327386322
10.5919983571824
14.0496752560493
17.4061401515481
20.5568744939879
23.9390748035508
28.005491479307
32.5738091791643
36.8646965830471
39.9037200466349
40.5307499434782
37.1919274183118
28.4723159128049
14.5243657469569
-2.07034542915604
-17.4950326676976
-29.1914497962917
-37.1668523166944
-42.9609228621298
-47.7595447989884
-51.5973617425193
-53.8342946669698
-53.8796992873141
-51.4979138550735
-46.7336267417693
-39.8028695339748
-31.2756020619205
-22.3767744107847
-14.7342543488686
-9.47826848565129
-6.63767853422143
-5.46489041276853
-5.03007152569215
-4.30937772160451
-2.10153900988693
2.55310061912644
9.65061736741514
17.9774907089634
25.6559031964579
31.0506337029766
33.3681575620782
32.6150079455253
29.1692950730263
23.5356574663007
16.4982284689513
9.22760647307712
2.84649717904684
-2.307145825617
-6.86232108153103
-11.5450541211781
-15.9487491741523
-18.389747315674
-17.309727700665
-12.7516791084398
-6.16537345870874
1.16911178992336
9.15844956244964
18.1998761119138
27.6427580268568
35.2826668533605
38.8026959499258
37.8915926089985
34.6588005709449
31.7168495289147
30.0419511377936
28.809316193946
26.9270892204008
24.4556636034564
22.7359590859956
23.1747495502987
25.5604378473865
27.5423758391779
26.1359066534108
19.8281152975422
9.14830299675878
-4.35901713435663
-19.115052511312
-33.6237641220573
-46.3119481588886
-55.6868844998005
-60.7625191296912
-61.4722122606564
-58.7749001176158
-54.2359164987134
-49.279791345412
-44.691389861781
-40.6687480666523
-37.1586579370192
-34.0838095261924
-31.3364993712927
-28.6613119475553
-25.6731697242292
-22.0796088953754
-17.8116029461502
-12.9060612731469
-7.43068476808344
-1.49729528484582
4.97813580380726
12.4663745558725
21.2234579380566
30.3844324147618
38.1722267696685
43.2403399107228
45.5872731285614
46.1906054659305
45.9910253666316
45.0970035854105
42.7544006545994
38.2468422242672
31.9111270782076
25.0385158451079
18.8544078039633
13.9682419749571
10.6343393164052
8.90369208330406
8.42980627398779
8.59579498731646
8.97226219673455
9.38255197309262
9.4778124476437
8.53152444445419
5.88023933337685
1.61481059721359
-3.2565645314843
-7.59278553077667
-11.2667718847619
-15.2868021740406
-20.3572226575767
-25.4704619624252
-28.5499479325901
-28.6573709647309
-27.1275523919946
-26.2863273747283
-27.2873248805572
-29.368342362358
-30.9998854312333
-31.4044465814891
-30.8337544086027
-29.6435694941511
-27.5391448176318
-23.8557340739219
-18.3887495933519
-11.8622846063842
-5.59207122925488
-0.46129333104406
4.00770521071198
9.37014000881214
16.6951817143267
25.261983438321
32.9484457578904
37.8967207468217
39.8193937769111
39.8582873914672
39.2716393168108
38.2730323321517
36.2150112536344
32.7747232730242
28.5541839481955
24.4193003647148
20.6765563968472
17.1167527881113
13.4630903708403
9.47787041684736
5.02595261482553
0.481426383367666
-3.20969956969173
-5.46925268328259
-7.16226294981179
-10.3189046675837
-16.4326197938434
-24.9208305288056
-33.308994400265
-39.065040976905
-41.3660795142026
-41.1751361830958
-39.8693604650386
-38.0770468953644
-35.7149656910922
-32.6872887502585
-29.2556338298337
-25.7682784589209
-22.2151981098415
-18.2750923804108
-13.8861795932582
-9.53908135815487
-5.77245636596306
-2.54149885966184
0.680550185887182
4.35092895391707
8.6673243371108
13.7424950410558
19.5719833226849
25.7197054268425
31.2254250248976
35.0895222026383
37.017524606018
37.5840290902495
37.447062598079
36.5278788793697
34.3221842506592
30.9379461433739
27.3050075232648
24.1745105598546
21.2548675230347
17.5457909940127
12.3396313980543
5.81666775990329
-1.1176829260859
-7.46390432918181
-12.7136031823713
-16.8742647707956
-19.9479134318385
-21.5452893086843
-21.1301650456065
-18.6529193244367
-15.0208831330112
-11.8947018272796
-10.6032541680157
-10.9363040840726
-11.2111480503353
-9.80693790448215
-6.5560940334361
-2.57563033557649
1.00462522656939
3.92521673088667
6.49280506205576
8.65310375006683
9.75220744462675
9.45682444742243
8.49354512661104
7.78684338663085
6.99280021261885
4.67642863725078
0.0608295432592686
-6.05533585408012
-12.2857307735266
-17.9882227001515
-23.3214830617456
-28.2999808583936
-32.158709847486
-33.7786297451547
-32.7065459179853
-29.5880617410661
-25.4914168885106
-20.9981783241816
-16.1127799089221
-10.7233051671257
-4.72900132045098
2.08002552584378
9.76954040515056
17.8835178669879
25.5925706046348
32.1516029454108
37.0770630342842
40.1410328404962
41.4744611860847
41.4995620591527
40.4279307401684
37.7864634204409
32.6537424602741
24.613456057827
14.5954549925795
4.64558222239198
-3.39392038909204
-9.08722147698284
-13.3109618676833
-17.1050886770113
-20.738453778989
-23.7520418225282
-25.6419767194268
-26.3750961520115
-26.2517163865623
-25.3921014833725
-23.6016303666173
-20.7905128899906
-17.1790781531856
-12.8227493106536
-7.2160386892407
0.15750685240766
8.77869803950137
16.8274547761629
22.2164171790538
24.0609478116367
23.1884623406738
21.1523813495476
18.7670266834304
15.7540924049585
11.745343891669
7.19398194244305
3.07582018964628
0.0162709917476057
-2.03407197641108
-3.50287607518261
-4.78650436609312
-5.98936042398977
-6.97501515357635
-7.69173098459219
-8.27384850007277
-8.72920654616953
-8.79958323531668
-8.26241796612209
-7.10285715332126
-5.35690317324839
-3.16989106893094
-1.08281989132791
0.110209056146337
-0.0864513994584221
-1.61157924911359
-4.00396265517076
-6.57104499088175
-8.55300809440041
-9.39734733579158
-8.87415237794798
-6.94067297528868
-3.7357637456229
0.189558631947358
3.82714372527007
6.13306888496223
6.71186156743082
6.27480291058533
6.33780090800319
8.06041486879631
11.0430589398024
13.2814414246698
12.54132229195
8.0445858619958
1.07533437744755
-5.88673702406255
-10.7258889504677
-12.7616105020368
-12.7146109628615
-11.9398326196643
-11.6470516593316
-12.3246225488738
-13.3949886546906
-13.5395048662398
-11.7737629955013
-8.27341533216169
-4.09398499821866
-0.333197386280517
2.31052738517607
3.60578683426856
3.90973109305997
4.15910096562153
5.39041871234247
8.06882715783705
11.8052686839433
15.66203586219
18.7451594367045
20.5867186005646
21.1018746724422
20.4118231776977
18.8468242423769
16.9779670564671
15.4409978850817
14.6799508112129
14.765242408011
15.217065365095
14.9283771284398
12.5057891877022
7.04828959366183
-1.09653126218339
-10.1893268939469
-17.8669342459922
-22.4526895174291
-23.820914561064
-23.1038597525757
-21.6530364029625
-20.2640608968732
-19.0391564202739
-17.5721911915254
-15.3572127165241
-12.4715093711843
-9.95642494750654
-9.20199232628292
-10.730531902352
-13.5082047963893
-15.3187368613859
-13.915879219382
-8.35507862652996
0.312084213840332
9.60929995354626
17.0734249169488
21.4183230373077
22.8274940627534
22.5604015497532
22.0872739771959
22.0686033423606
22.0037122064314
21.0214487564184
19.0372317847633
17.115238852414
16.717899498955
18.3334045631203
20.4718023770335
20.2330876854956
15.4927150799389
6.72266927159144
-3.50252166121713
-12.6507766702749
-19.6956030985442
-24.9047313466848
-28.9354984047843
-32.3133792394816
-35.3277923296475
-37.9219758990331
-39.4869734334748
-38.9529705738854
-35.5782901390384
-29.9781468991024
-24.0975542019299
-19.663893713924
-16.6156277406713
-13.3386370917619
-8.46522284982049
-2.16894504108816
4.3410104198637
10.1476992195643
14.9920941966168
18.57796502821
20.3915319811659
20.603090769975
20.4952377858472
21.3089905565938
22.8855564588844
23.899466709807
23.2438112721584
20.8990162594869
17.7148668956539
14.6056909976473
11.7198838336622
8.25425418797564
3.36594880434094
-2.62676117127686
-8.17988494713688
-11.6766816981771
-12.4944007660009
-11.1177418925038
-8.58764189759749
-5.9065049086935
-3.72365070553147
-2.28867446796812
-1.44195599244484
-0.546386346745085
1.35755583946902
4.95859491405291
10.0128176657347
15.2312535880089
18.905345549244
19.9272035841733
18.5545424248488
16.2473512324363
14.5870879527907
14.284358818599
15.0854405309663
16.1582939457713
16.3667915350501
14.7547750647828
11.349175975827
7.30286566558894
3.87828868860123
1.37054226780479
-0.901080709296145
-3.80011206348308
-7.63318992888577
-11.9183846615908
-15.779009856332
-18.6460377148305
-20.5062921029881
-21.4808703362024
-21.4938868704782
-20.5329444894774
-19.002755252639
-17.6335477406149
-17.0580293669301
-17.3982409601764
-18.2077889812444
-19.0062233067549
-19.8824257065555
-21.159650789575
-22.3165043347288
-21.8060915488466
-18.4960356213142
-13.1261520127444
-7.93249640124916
-4.84107128966837
-4.20002811237259
-5.10583117360595
-6.5887215091039
-8.28023205247564
-10.0299137546063
-11.2460474983161
-10.9412195420615
-8.28877061122169
-2.84355385451244
5.49855090961566
16.1023030024713
27.0152832296514
35.2792515170529
38.4393911950798
36.299943283559
31.4373843017364
27.5561716735076
26.6666794646546
27.7502248281588
28.3024889792856
26.8385861806971
23.6421615448888
19.699696960409
15.6729861907298
11.7749708968722
8.06300583973069
4.69921221514375
2.01650034803582
0.262522548305419
-0.739047043168842
-1.56351310801756
-2.8142561796803
-4.75722859201318
-7.17956799360463
-9.63970897300911
-12.0222178251506
-14.6414113169779
-17.401818358418
-19.0893089764264
-18.2460146958782
-14.9188846599581
-10.9079253808206
-7.91806871411691
-5.8878619744676
-3.55351419775166
-0.400158896741983
2.49262536720477
3.68230276594271
2.99123049346355
1.40395706803371
-0.418403558770354
-2.63756909867693
-4.96597931911199
-5.7727870906687
-3.41856048489762
1.49831056836377
5.77619521392951
5.9225443636064
1.09364471331644
-6.16644185155395
-12.2023802542261
-15.2752932372741
-16.3064326411902
-17.0771125271071
-18.4012707470319
-19.977235434633
-21.1033025694716
-21.0045449265458
-18.843269944019
-14.0116883054745
-6.74171717102364
1.48324307347985
8.34714266693549
11.9951188319235
12.1804845883976
10.1453655903455
7.48800314988412
5.28689190083279
4.06011753017307
4.00915567077232
5.03493846499682
6.70663094309768
8.47856804625789
10.0921773503397
11.8565393609108
14.3908147986451
17.7405027803477
20.7341811895983
21.6467715480389
19.7070454038464
15.7316878604129
11.2527014836866
7.32458053715522
4.17529469302215
1.59928944099635
-0.503566782907944
-1.76254101608147
-1.39779173890046
1.11942508286193
5.22864625328299
9.15925076215826
10.9584437059033
9.95095371942565
7.24441265524298
4.67337289180631
3.22866995794333
2.57181664133827
1.87764565542311
0.771494889759792
-0.63460917636809
-2.27416442055728
-4.25911386924407
-6.3492854737232
-7.61938237530848
-7.16135421857958
-5.18785872269495
-3.01772994173981
-1.77552885030646
-1.42865978991592
-1.27532503010952
-0.994893669506272
-0.914252233095709
-1.53790609198092
-3.16069727665705
-5.74552492059059
-8.8719897533274
-11.9232239722153
-14.5525280022993
-16.9321839116572
-19.4950497020445
-22.5090378219696
-25.8659520284403
-29.189568036753
-32.1924508674885
-34.8550206653119
-36.9717400150597
-37.5743533137595
-35.3319669509243
-29.792776207313
-21.9471396276102
-13.3502230428311
-4.83443991061445
3.83896951305815
13.2161698850679
23.1617768901985
32.600855616616
40.0609256610544
44.2139894319651
44.0428479178707
39.2126677894779
30.7500288383799
20.986084682759
12.3340388423932
6.10143857107778
2.46295983427898
1.18753731327622
2.08195305946058
4.78261628092526
8.33249616318716
11.3731781461633
13.3048886250338
15.2343201985264
18.9384793427684
24.3761829912631
28.8021788255506
28.9921534351253
24.1547869007266
16.4371414746564
9.01855733111644
3.95467504028217
1.2692057986647
-0.547268766352108
-3.19083329003904
-7.3147543600108
-12.2339948681645
-16.5969769849422
-19.4230677742617
-20.7251560498777
-21.1533346807942
-21.0204492635905
-19.9572849881223
-17.6817377952185
-14.7172762741918
-11.9921620033259
-9.94587513207131
-8.32591996748455
-6.76478815885366
-5.3742400447105
-4.67946255429573
-4.80194038586821
-4.76178481605471
-3.09166156056665
0.54430984881251
4.65849802243361
7.18000344437538
7.2391612579422
5.59720791921868
3.57108523497926
1.80153414597603
0.028723603821888
-2.15756649312814
-4.60585657804086
-6.74567274102934
-8.17677390299652
-8.75316138795624
-8.24887184270327
-6.47415179988241
-3.79719038935131
-1.18596409768098
0.378257030029264
0.496864440962279
-0.371113778223375
-1.14163590472044
-1.07292804189137
-0.742808474772143
-1.65023300877531
-4.56520011762412
-8.51377351842927
-11.487497395518
-11.9431541226226
-9.75027171325246
-6.15064143503457
-2.8914134793058
-1.04989148661818
-0.399876906952138
0.252630151803955
2.19888157712728
5.98542161478695
10.8467386834196
14.7919824606763
15.7132789322719
12.9966090816839
8.29993363992224
4.61138971796949
4.1435720946525
6.76592226748942
10.3508354612927
12.6472990130077
12.8224263464642
11.3535310579749
8.88548707142774
5.63375884487564
1.92282548914833
-1.05226761480923
-1.47995603715823
1.60900933959461
7.00199549395093
11.8051045364952
13.6802071436209
12.4835637764357
9.67018162827366
6.74191162196635
4.71658558279834
4.36977743356002
5.95387635093725
8.62164814445674
10.6645402336301
10.5228150609538
7.5894904996588
2.29705878467269
-4.30119385011858
-10.9925631823636
-16.6145478865949
-20.2260046936979
-21.5451834421369
-21.2096503228418
-20.2061948483966
-18.9417777045791
-17.0521349987931
-14.0174910103239
-9.71000764028096
-4.43717020380515
1.22605559540468
6.49683808709125
10.3741914933427
11.8871623432973
10.7410599495226
7.74788799913488
4.25501528831774
0.98983000528095
-2.32404467008147
-6.26418823254714
-11.0655148931478
-16.6619179650334
-22.6890656665325
-28.1355586646817
-31.5715296061744
-32.2696400176667
-30.8828146000672
-28.5893680647987
-25.596075801243
-20.8145399136122
-13.2492204290866
-3.60200773208547
5.9465878536452
13.7824548471361
20.1793344987355
26.056499290896
30.9489462994699
33.2038230838971
32.1603736043401
29.2369220142324
26.5286448260374
24.809796242984
23.2196719000904
20.6625907015544
17.1454273911321
13.6005850638835
10.6655868733334
8.16327090657782
5.84323071776599
4.01227779644669
3.0602247983354
2.74451555729163
2.266796781763
0.840387749242294
-1.8973129800259
-5.65671556744881
-9.48744687187751
-12.2594827546193
-13.3550239040058
-12.8868170725275
-11.4183612285625
-9.707316235128
-8.53115035422502
-8.32915988621347
-8.85859560677798
-9.28050164508712
-8.69086521185489
-6.7758625854724
-4.08748455801652
-1.52327719204407
0.532669160375199
2.3008199075387
3.89318042735787
5.07756239527304
5.92877367362912
7.10271618698638
8.98328457412424
10.7816580414375
10.8290215867793
7.84333774215903
2.02931387755017
-4.88470240161359
-10.7248469518075
-14.1446908120677
-15.009755392915
-13.8688621002802
-11.3250686764869
-7.74150940073163
-3.26921001734926
1.75596732314214
6.40980165019204
9.58077543501151
11.0039428003005
11.512293816004
11.9833410595823
12.3744923098111
12.0427695309523
10.6298539814489
8.33124414434803
5.65179201783462
3.22859513260539
1.60649868227258
0.83646322367696
0.383506376454567
-0.421198698312311
-1.9075858583682
-4.0434185816492
-6.71308051902124
-9.89937025539504
-13.5662478379051
-17.4022589026238
-20.8259584799564
-23.4011138553085
-25.2324711981302
-26.7507562895835
-27.8576170860146
-27.2656045312849
-23.1358117402685
-14.9158589004065
-4.45373199215369
5.26836996066629
12.552970730773
17.7054176550071
21.5058394153351
23.8008109273083
23.9547999052791
22.2277290975737
20.2356681455519
19.8597160953334
21.4876655149949
23.299371064967
22.6359160901017
18.3099200841695
11.4766458401808
4.36386658078083
-1.4442772269707
-5.56561762862213
-8.40885992941489
-10.6389405855858
-12.7774903734213
-14.9873308893335
-17.1446620530345
-18.94980108747
-19.875442087193
-19.3348490109955
-17.1579799916197
-13.6092649648201
-8.74896951313534
-2.27666429957331
5.54998388702081
13.2271384339051
18.8745468674202
21.8276969650899
22.9940252069005
23.5439811925211
23.5330174153461
22.0023104722376
18.2457169960503
12.6686216409923
6.44707664462517
0.723068795396455
-3.75680998401601
-6.6432303183534
-8.059493805905
-8.64881861224034
-9.31578843788309
-10.753204986445
-13.0372433382566
-15.5454742526937
-17.3290637781222
-17.6640907722013
-16.2720619830686
-13.1908947952217
-8.75859399514022
-3.76957778515426
0.699056018390062
3.93093480967535
6.0503266611613
7.76218956569136
9.58444401603796
11.2784591509438
11.9355764439276
10.6242806251858
7.06050478197026
1.81355830924635
-3.92724521136879
-8.81213895920277
-12.0514398124694
-14.0943863269478
-16.3207863565999
-19.5638328087778
-22.9561855172302
-24.5127466999136
-22.871485833985
-18.4537783322807
-13.087095417023
-8.44300555428526
-4.51121658983509
0.485424445764165
8.38131907296329
18.9326376228836
29.1332811999091
34.7021121494805
32.9448049696006
25.0601953035362
15.7340799100555
9.75822465225213
8.51878117215512
9.69265934220071
10.1097450093247
8.56172038457681
6.07641538832439
4.22615256797131
3.61844655983229
3.8117721323559
4.20688778851637
4.70734816498863
5.55040273770453
6.818998380924
8.38233554327017
10.1764705737831
12.2202005571383
14.3009279176155
15.788174481504
15.823302671547
13.8266909022238
10.0481889391743
5.55466661424512
1.38454361894372
-2.27261112837023
-5.88605972214159
-9.7880489673072
-13.8692853663864
-17.8888878042528
-21.7666267045835
-25.6350659539583
-29.7616020321342
-34.3049536678929
-39.0121175782909
-43.135112458186
-45.5786990672904
-45.2425482412971
-41.7006974708346
-35.8045386541007
-29.2646147344382
-23.3299887186225
-18.0356905427946
-12.7629813688326
-7.12816768712415
-1.14387605849543
5.12223228804817
11.6694093033123
18.3797720518336
24.9596435833103
31.1595343826954
36.85616566635
41.6608806212461
44.5614804583117
44.4276626191839
41.1067754713718
35.7598841648568
29.951108092305
24.6748859824695
20.334182599038
17.1089275629686
14.8692643355311
12.9228962593477
10.2868202267495
6.42146587903563
1.7455901725931
-2.67826717090033
-6.18452858189453
-9.17675358914311
-12.4567927780365
-15.9589095141868
-18.6122037355554
-19.5215547139029
-18.8750884849212
-17.596955342476
-16.4482988862526
-15.5353096405379
-14.3726392649393
-12.2910501602748
-9.01712637840404
-5.13189310402408
-2.00755211997891
-0.992613841609482
-2.22769071404633
-4.26307481502003
-5.27931323236094
-4.7966317601832
-3.82662519074512
-3.34953167591489
-3.19168466968283
-2.55895391980663
-1.11758494155255
0.804036410368375
2.70405918584815
4.21676120501634
5.15236452614638
5.56081820960164
5.7229608788511
5.94382529366283
6.34532254840284
6.83457005252757
7.25334533890927
7.60473159772553
8.06569680537775
8.67624449168213
9.18587637719946
9.39655439040704
9.45171660688137
9.55157742693107
9.60664783202201
9.45207419509545
9.22819565711699
9.2522697013705
9.53485609943416
9.56665341479111
8.62643231521956
6.36695812113778
3.18295818804231
-0.0271200740612718
-2.50112744420946
-4.02660157029436
-4.89665482848952
-5.68854056095729
-7.00040599786199
-9.09080926720748
-11.6231321521657
-13.7980479140166
-14.8305765092311
-14.5177628675564
-13.5658822373507
-13.2739964239489
-14.5913676274307
-17.3431920607125
-20.3728051068884
-22.363131379264
-22.5995492072616
-21.3220095337225
-19.5067265939231
-17.9827673812924
-16.6145190563114
-14.6762957097182
-12.0384266068707
-9.43514284529705
-7.40089866664245
-5.43211334248122
-2.42216267524031
2.3679973869597
8.81789234313401
16.0457914627689
22.7598143416764
27.6040277901001
29.4767468017616
28.0260411993406
24.1449182711409
19.662031562039
16.0860486980413
13.6801727981131
11.8675735085492
10.2403316863255
9.00093683227988
8.71550772969913
9.7463115842549
11.624407770219
12.9620629132337
12.3732663249173
9.63876052120108
5.83754807181437
2.36429987523939
-0.0864751897348128
-1.70919406084416
-2.9633877504799
-3.8142214331879
-3.68402902605089
-2.26981852035843
-0.24485677893133
1.16443033410878
1.32123536883883
0.709267342117682
0.328881703291599
0.684241251111731
1.3171173488803
1.24774100199226
-0.107494825291117
-2.46000249465009
-5.05873465745537
-7.39219500992184
-9.44976381079311
-11.5669407271004
-14.122297611915
-17.1218100495779
-19.9713997673625
-21.8398103382895
-22.2244866225593
-21.0519637312448
-18.5599645746476
-15.4237579972971
-12.5931255276642
-10.4315366843834
-8.21330799664152
-4.94223216818944
-0.544006663636737
4.06826828412375
7.98339868760445
11.1167970876661
14.0715441294479
17.1880404614377
19.7399293355067
20.3499060113128
18.4304624266481
15.0055418179304
11.8685955338256
10.0740196498967
9.36621373400127
8.78724172861901
7.59164073035806
5.76840649270861
3.94997651406722
2.82576956674466
2.57157844344185
2.78085703543808
2.82678867583986
2.31837259008676
1.40485759358994
0.617552183687458
0.214613273040922
-0.231183432409577
-1.3727209864799
-3.33303125920266
-5.5816140325296
-7.38241812061416
-8.24904050546538
-8.24732008396978
-8.00111883833841
-8.12455386171163
-8.53424812668292
-8.56747985299135
-7.80937675673421
-6.5503670847762
-5.43041989998195
-4.84174169937042
-4.63972571335586
-4.29634215453881
-3.44570448149334
-2.43846870792608
-2.29517361013993
-3.94694983867944
-7.38166777909057
-11.4403826819888
-14.508905571874
-15.591591135008
-14.802656823216
-12.8447750654833
-10.167111477535
-6.72257951374089
-2.31121649431563
3.06439815606036
8.97558252985462
14.4417517948373
18.272811963921
19.934359453145
20.0531540250504
19.8510091809036
20.0400573709243
20.2458914355145
19.4325696621728
16.9696559971333
13.3488865937138
9.7074901159664
6.68130027184429
4.08604810585125
1.7449159351301
0.0776767807130831
-0.458466731402066
-0.213279295975742
-0.28426650457333
-1.58597839183606
-4.00035049991209
-6.44597868314969
-7.86065473168483
-8.09693840836615
-7.75688602160902
-7.33176646100162
-6.81509011967975
-6.05066249230325
-5.08831277226488
-4.1395221632964
-3.33854274662904
-2.52636902108783
-1.24816907796647
0.825753079239217
3.33373662011628
5.24673377578171
5.65766799185007
4.49784329560738
2.37435638351771
-0.158715641519791
-2.94760935592736
-5.90944062763224
-8.64292648716595
-10.5607667790018
-11.3051923961768
-10.7861394678543
-8.85553118825364
-5.4084964599118
-1.07450187077297
2.62338907089374
4.38304330272037
4.40088791472233
4.20055595402268
5.09850928517231
6.96005330632868
8.52933296128641
8.93974253672514
8.7127255179882
9.03292736267495
10.1485892444278
10.9054941906725
9.91015320518733
6.77407701129318
2.2289297449188
-2.46765606367297
-6.14417386770449
-8.23257389240961
-8.92756997953058
-8.7264456216038
-7.97985431952613
-7.16290022271666
-7.26363175937104
-9.26839515026495
-13.1413709108691
-17.6236727318763
-21.1057760838455
-22.5233871159245
-21.5242623124786
-18.2018838545866
-12.9564989621113
-6.60177261573944
-0.415214753728559
4.26230165483667
6.79109287529139
7.57933984276949
7.51109959853699
7.15769894333027
6.79323293778236
7.03711367538259
8.94362838314653
13.0079327985525
18.1290145979925
22.0512717515361
23.1942163074094
21.8629576176684
19.4638682452156
16.9304857264854
14.2892053599201
11.3193172650018
8.04099631683685
4.7441186330249
1.94106640801528
0.0782728579518082
-0.995037018292861
-2.02795217402923
-3.6457242698827
-5.85375918962243
-8.25680146030886
-10.3461095318665
-11.4670262289953
-10.9548208575135
-8.68990802809705
-5.49391405453961
-2.75273587708922
-1.43179737191276
-1.35495477439662
-1.50723146117295
-1.09299043295362
-0.183129032437962
0.681881015934434
1.20742444685032
1.48152511403052
1.72375067265676
2.17725538277976
2.98716339854106
3.91086382409698
4.33664599638323
3.76497201143454
2.12478645367142
-0.398787600759491
-3.61133061091369
-7.33107500404192
-11.2614220357434
-14.7872209397255
-16.9725598142964
-17.1656748133588
-15.7815077040879
-14.1548565637499
-13.3866428417401
-13.4714272027109
-13.5376178298193
-12.6362085077637
-10.2678529653169
-6.53618522121571
-2.11448531300517
1.98135953812647
4.90063663337398
6.56461716423701
7.8027206200812
9.65914623383114
12.4931948786964
15.8734963105103
19.1859597521376
21.9744211930558
23.7531080279207
23.9500584839453
22.1915295170579
18.4610734150303
13.0796291252595
6.82972596239481
0.937442837315679
-3.53616322869363
-6.34573858057521
-7.9160090287835
-8.69717228448336
-8.88535591221517
-8.5945844710831
-8.03520678533864
-7.50438705494125
-7.16087728321438
-6.72082664709124
-5.56145244287789
-3.35936475575185
-0.494497296510439
2.3686525914093
4.95102675860557
7.446543758061
10.0826502144483
12.7542539574749
15.0315607488503
16.3810074107985
16.277532309991
14.1957551516928
9.898282436963
4.02446763515723
-1.92692084513221
-6.67123733916416
-10.1283955895659
-13.1352376998965
-16.4045985638503
-19.9454627433817
-23.1323856392956
-25.0392043400471
-25.0191457405888
-23.3089916819966
-20.8874509103414
-18.4916034264195
-15.9418201031084
-12.6134677480387
-8.32042890407131
-3.4616424756758
1.52053816979623
6.49637032963736
11.4342571167717
16.0126073195711
19.6167170881326
21.7809142086221
22.5050397849567
22.0134196288522
20.3824125459416
17.6204890811507
13.944257976099
9.72282368595853
5.25515393533233
0.758701111786082
-3.55326355341607
-7.4793760189892
-10.7932406699758
-13.2108704728469
-14.5696621553034
-15.0059907533558
-14.7915994159469
-14.0398511577525
-12.6726767731329
-10.575727653021
-7.70717143058079
-4.16524514989896
-0.222703084135994
3.74787460345636
7.39952763341781
10.5038483166294
13.0215735146745
15.0592359298432
16.6398799627284
17.5517970160886
17.5209138585076
16.4393399684821
14.3279079632378
11.2806381470448
7.67537101892014
4.24729916049511
1.62453084236589
-0.144508568757569
-1.3987746908314
-2.35784753221119
-3.01407556270424
-3.34712328768974
-3.428489971408
-3.41680417095317
-3.53469402032375
-3.92058242915978
-4.48168490369335
-5.0097093667603
-5.40119817921788
-5.66765942808603
-5.81843154713037
-5.83223003152373
-5.69498982865459
-5.45604729390903
-5.28493227231242
-5.37974860809165
-5.7667550051071
-6.34080133491537
-7.11911404538872
-8.21746963860405
-9.55575492787917
-10.8185289904455
-11.6476932709663
-11.653943870196
-10.483071518677
-8.30783505680316
-6.12540457468629
-5.08594183288085
-5.41460460212164
-6.18148935218211
-6.11940848175542
-4.53097773812424
-1.4905343939087
2.56163546163333
7.19904299813264
11.9265698838509
15.9358250852624
18.3682736431385
18.9869967672303
18.3294554403687
17.0786129207458
15.5441840374584
13.8164138038634
12.0705056201382
10.5349493047283
9.33592618615983
8.45694514432229
7.76964783034888
7.12914915890907
6.46324277187408
5.65904489517233
4.39834278089659
2.32632077170332
-0.577192253541288
-3.89140169325018
-6.92790992134025
-8.97661775520373
-9.69846420937485
-9.48020779212313
-9.15703883600931
-9.23702991941803
-9.62267745262217
-10.0901851869848
-10.6159701524977
-11.0399488302833
-10.6988450735223
-8.68553996621703
-4.55061613948692
1.16969454666962
7.04471440104537
11.5014696425424
13.7524848006253
14.1277209138136
13.527113922257
12.5858829859166
11.3500837139924
9.61914181145247
7.43570467952022
5.10555725572919
2.71523867579258
-0.121794711543699
-3.75500958632899
-7.86909031885573
-11.6823041817212
-14.665161873571
-16.7789039732397
-18.1615999913436
-18.9037996961235
-19.0678493502058
-18.7446146241695
-18.1179730464761
-17.3632508304176
-16.2299369021418
-13.9433330813955
-10.0658718365856
-5.44544000312177
-1.77488885479813
-0.046158262241745
0.2687050033775
0.478533425372938
1.45978110037057
3.27683243783834
5.61886089927084
8.12504125700325
10.2193224249402
11.1054653965003
10.3915084635042
8.62927981752413
6.92407132825365
6.07534118090405
6.28411898626156
7.42381475291354
9.14486419426327
10.7877305889525
11.6509194806638
11.5149189685543
10.7726804965703
10.0431742317925
9.70553436304005
9.66888834522663
9.52007815441026
9.02819070394956
8.48746513847469
8.3894862490309
8.83305416521721
9.43064652187163
9.66062370378202
9.18900211785786
8.10057456160838
6.94826337231771
6.25181150513631
5.78454395974737
4.66202498621385
2.27820906138811
-1.09088227450958
-4.63577349132689
-7.67983157571248
-10.0010797676289
-11.7766249557255
-13.2820960349447
-14.5613769786062
-15.417294883296
-15.6784612973425
-15.2904707386128
-14.1843270093353
-12.3310967331108
-10.0048691592393
-7.77355572826136
-6.01119353811109
-4.38296284198166
-1.98559792363106
1.69316895341589
5.82860490047047
8.55033622432707
8.48886888360544
5.91146148625636
2.11190624407869
-2.04553734566325
-6.58272232268623
-11.6233472185096
-16.6535887988462
-20.6674343187554
-22.9083386080344
-23.4508437033302
-22.9864135775168
-21.9456629054214
-20.0554831906639
-17.0055721367929
-13.2564837085683
-9.72377324148739
-6.72418978508588
-3.59744039338685
0.541659018975105
5.82016430046722
11.4776694465257
16.7103598483829
21.4245658572766
25.8764420616799
29.7366473379841
31.9841154677569
31.7365437311304
28.876420504256
24.0581749614457
18.5605087967738
13.9524926080875
11.3250670303245
10.6884936817244
11.2181926525406
11.9463870955647
12.1417912470539
11.3847372392117
9.67656397063416
7.47884495867679
5.45337864108144
4.04930920710288
3.24766756336622
2.6503650871089
1.88916847495306
0.938335536353387
-0.127890379418796
-1.57032253020906
-3.78640137581663
-6.65512185595713
-9.46511001899838
-11.570474106277
-12.8396232968093
-13.4913634735685
-13.8288605052763
-14.1774994526042
-14.82925768389
-15.9170556346308
-17.3355579479376
-18.7564710112465
-19.7901356573655
-20.2562301487055
-20.2505579321662
-19.8561073785592
-18.8808887234988
-16.9632294086108
-13.852347830562
-9.58930860069135
-4.56827454947512
0.531662856403511
4.91600829056022
7.7957970074978
8.57321556475441
7.31830878229582
5.08994068278212
3.37495595887773
3.00378662442282
3.75446355933377
4.96106713545734
6.19578562361296
7.34468634835157
8.37239820792986
9.18465378004678
9.59236664364641
9.39380926349498
8.61354397371833
7.60968372765343
6.82483761427847
6.4838990049382
6.59704156263328
7.17795808122666
8.3786185961928
10.3279111295178
12.7198272018524
14.6764210444491
15.3500721513917
14.6957870991594
13.392624124121
12.0694084534994
10.9120063418401
9.87449064060397
8.81678846864026
7.46126019683813
5.59599906874798
3.3344732342622
0.94256290202476
-1.51546326080726
-4.17007304554088
-7.09211595366979
-10.211026130954
-13.4245821043411
-16.6753080781077
-19.9043169115441
-22.9555232092153
-25.5771782910911
-27.5460168093668
-28.7046540372023
-28.8412656442191
-27.7351547679807
-25.5037098977686
-22.7469462109142
-20.1100379323375
-17.7536840708481
-15.3286311050016
-12.2360311654481
-7.78581023021376
-1.47253425257726
6.51278444320444
15.069476808461
22.5774874254961
27.5084077316162
28.9738864154096
27.1949290507313
23.5408981629097
19.8366923663657
17.4290896579103
16.6988199760396
17.0862128806319
17.4895629808107
17.0075674846523
15.5779437557221
13.8573778827997
12.4890895935088
11.5526735367868
10.57333711796
8.92570748515237
6.37508017972033
3.33694223613273
0.494193054081582
-1.83598365706145
-3.81365606595871
-5.65836295205735
-7.35982508012103
-8.78052184918734
-9.85160729727515
-10.6183981560141
-11.1551760374366
-11.4738572070965
-11.5448140994067
-11.3754210830957
-10.9434638058352
-10.0654252288738
-8.569334815298
-6.66844715525155
-4.89941480780942
-3.60989767235601
-2.80219248571696
-2.51804001529012
-2.97004581978997
-4.16003711786501
-5.68457978040757
-7.02610679410766
-7.8625942026207
-8.16064941390195
-8.16210669195385
-8.17687929483128
-8.25088469421929
-8.18657283605474
-7.95578431142977
-7.84285027932717
-8.02557639846759
-8.14970306871103
-7.46970271846309
-5.48977835138206
-2.48008757621178
0.83592507286904
4.23746053265369
8.25736618427613
13.0670684515005
17.5217135999545
20.0173740872708
20.1917876724364
19.2177877403603
18.4481613827275
18.1768301097539
17.6722820171795
16.0595072552823
13.1407265630175
9.57584083410853
6.32329497759756
3.88138185403676
2.10399346716003
0.618899201724055
-0.835532106755919
-2.4153972843413
-4.135265361556
-5.69907980675167
-6.57439249028854
-6.38960705459778
-5.25330034376663
-3.65504323339242
-2.03281387862235
-0.467802509498074
1.12626619656042
2.60776467494684
3.60688874911721
3.86469061390693
3.34354063423835
2.07155322382955
0.0970209920794992
-2.54072452333885
-5.98899115889607
-10.4209246228301
-15.3621721773321
-19.514176874843
-21.7724483426166
-22.3520915090118
-22.5090094584803
-23.0302921691972
-23.1369815764979
-21.0681334674923
-15.9185124119855
-8.82976400104031
-2.09748767603495
2.87408307742107
6.43324635078572
9.63363666256211
12.9079889760843
15.9449564094347
18.3540557514471
20.0356033933664
21.0937929138063
21.7005572971234
21.9958944257241
21.9379765424403
21.2256489988133
19.4702740358289
16.6292952925803
13.4049524392926
11.0256158061751
10.2678273013837
10.6206902895169
10.5800674077558
8.80155066169073
5.00804627362
0.0483286798818382
-4.74688329679917
-8.42561927575432
-10.8423421367259
-12.3388752299731
-13.1967746171986
-13.5060002652124
-13.3116201487004
-12.6500539782673
-11.5973644093706
-10.4263192578562
-9.54065269057155
-9.17731180852786
-9.31680533933493
-9.77646187518236
-10.1094785856493
-9.5510668017279
-7.49070864464012
-4.10925504203006
-0.423366317330255
2.27745054973866
3.05599819651165
1.72237953845186
-1.07923945703991
-4.21866582143482
-6.70118833591277
-8.07019230963126
-8.41348292660288
-8.20072435175381
-7.98711376995512
-7.95039601846873
-7.70295673730405
-6.75567667276417
-5.15245026609179
-3.53237798896555
-2.59326128708572
-2.47670341409716
-2.55434238218441
-1.86928508117123
0.0001339032580592
2.45935280630187
4.38779367619419
5.20478231599848
5.50251929128943
6.57004497053359
9.09770437120737
12.3054910805567
14.5691469815045
14.9559578217581
13.9180107066653
12.5827272665285
11.8559315589823
12.2242440157371
13.766911326033
15.9517303768366
17.6509820010895
17.6426786339678
15.2194453381114
10.5561527843106
4.70587685595834
-0.891168556699492
-5.16977333249892
-7.87647143281734
-9.43218342377909
-10.5486063738482
-11.8436243610771
-13.4623116940532
-14.9544532971114
-15.643281591263
-15.1029419682038
-13.30170964221
-10.6119807898586
-7.82721796468226
-5.75209242726976
-4.4322560059993
-3.00263126301374
-0.535006149259245
3.07178677887046
7.0692209791708
10.5049692993142
12.8285664104027
14.0191393518815
14.2550670518893
13.5932322088288
12.107012085275
10.2245723293041
8.63848287496386
7.79584247065519
7.55347798267036
7.28160691396715
6.28943919519723
4.37223065821974
2.07639182233708
0.28462911122191
-0.540634169431268
-0.646543294709799
-0.637697912491303
-0.986294333304246
-1.75412456957259
-2.62243016104128
-3.31783996092602
-4.12941473839453
-5.7972631306818
-8.68771103690149
-12.2384608626691
-15.4459246658254
-17.8351764834845
-19.7909266582708
-21.9472381364242
-24.3375971774837
-26.217478956976
-26.7855810509842
-25.9736297661932
-24.3224162449853
-22.1904066395202
-19.4179744093119
-15.757587498779
-11.3396920341886
-6.67272583503202
-2.27745899476518
1.82375171017095
6.32217629246458
12.0202717356253
18.8160308643261
25.4998628738389
30.6842337659395
33.7498757961759
34.8863990842076
34.5543953809325
33.0991423292793
30.7354655344429
27.6849594918887
24.1638080954187
20.2076718732726
15.7372272115071
10.9829820017945
6.60576921987514
3.08199652578857
0.0925882881132785
-3.19664599671067
-7.25091320252825
-11.6444450300952
-15.356871899827
-17.6308287686974
-18.7007484169944
-19.567533079491
-20.7606521955666
-21.4239958818854
-20.0637185695336
-16.2690000586266
-11.3211366609908
-6.94717685137548
-3.73329430926696
-1.01365828364746
1.73377627805324
3.737791377324
3.59898612691506
1.11832851927384
-2.02413503923215
-3.70507289976001
-3.19917126279009
-1.45451416985758
0.0482905597164132
0.451605350491167
-0.0944105981776841
-0.789620831478172
-0.899890338756782
-0.193997501721487
1.22045756161767
3.18186996373854
5.42657671690965
7.53930489276876
9.19769364066457
10.2832120203974
10.5839707607111
9.61977071716559
7.07542134748332
3.45498646615362
0.120388697063328
-1.58358821613122
-1.40463596984786
-0.341824687471078
0.347338392266536
0.239936475735996
-0.15749870754347
-0.173880896408588
0.358641528776837
1.05013124811514
1.34599667647595
1.0465435697363
0.552608523466232
0.476178364520336
0.960612855731771
1.57063804798476
1.84698858331437
1.7248770492033
1.43248150354317
1.22839920766978
1.20779134532469
1.20054931609879
0.966168361578007
0.569868387511091
0.337326328768823
0.370657964755153
0.41739853294978
0.319984825394714
0.304170047266371
0.701387284324088
1.55867252404714
2.54545571070162
3.12830850676509
2.90924433783884
1.91948604958401
0.558557082008551
-0.739800329932964
-1.71914188254219
-2.34001031841754
-2.8346087390241
-3.64014920093155
-5.04367727995013
-6.86373186836262
-8.57467188342282
-9.73708860633651
-10.2771742029705
-10.3935985995506
-10.2238352591708
-9.61974488744733
-8.36039748224001
-6.63546935867202
-5.12520878649473
-4.43689315437285
-4.57535111868591
-5.03250924606659
-5.20509657510636
-4.70366695937434
-3.54990254368159
-2.17871621679778
-1.05383692663435
-0.254670334348624
0.428682233689923
1.11103238237084
1.72318414066381
2.20619655595289
2.62049065927128
3.10405377255553
3.73497300691726
4.29998744137344
4.25222875612443
3.16398677409346
1.29917868993372
-0.416058547686608
-1.07740149433317
-0.461071283414242
0.934941989293929
2.42213055275273
3.63861496348793
4.56540366694999
5.27456914559747
5.93508615080568
6.92853473897076
8.5529431749024
10.5674790516816
12.3358707182432
13.4625160310434
14.0353543921387
14.2673571851327
14.2092972764551
13.8357165428081
13.1435707865767
12.1191252366228
10.7141865886294
8.75383189333715
5.86095754424057
1.83691842033993
-2.71905095126568
-6.54478501453344
-8.74735913923351
-9.52001959546712
-9.71013764322628
-9.87762346715354
-9.90277248570678
-9.36635441433395
-8.10692987715478
-6.31947747293541
-4.23821782311256
-2.03834719150949
-0.145990479505807
0.720643188178154
0.1360102311445
-1.56195027139135
-3.56772337852295
-5.24419865868139
-6.47585956424054
-7.67293419315514
-9.37642483961149
-11.4815536792657
-12.8885084858524
-12.3473551930783
-9.71190828232399
-6.08481131852398
-2.77869263286484
-0.438899737927241
0.906834711621269
1.40165175848354
1.17032694684367
0.382446111652898
-0.690278569511436
-1.71634949953925
-2.38447763746771
-2.40238560062525
-1.47679315780685
0.466952016115823
2.94569818283329
5.03947419971189
6.04357294083794
5.91521521428685
5.07216735252152
3.945157686953
2.74819085694252
1.5050588370104
0.222277486140989
-0.981069626798094
-1.98579017113447
-2.8280071727445
-3.54236992705683
-3.91922954307541
-3.6330789582406
-2.54371921422113
-0.752513696596962
1.39987894692617
3.21837623254582
3.89604939963476
3.25918568486187
2.14125708819555
1.71863423374821
2.43493676927036
3.63589883867939
4.23215286622255
3.68863555775472
2.38088810014222
1.08497026788238
0.325560097940733
0.274679169489033
0.962409472994257
2.24100614109978
3.65766113249471
4.69938783228124
5.15718546467874
5.04923054390632
4.331293237821
2.98488469984399
1.29224812219339
-0.262573788663363
-1.31699047035571
-1.67623579068974
-1.1277156216128
0.606734717997596
3.65985711437639
7.689399206085
11.7739251634246
14.8626094329676
16.4554599640371
16.6969338344229
15.805628285011
13.7138683549441
10.3599794468043
6.06912769836
1.50999632915189
-2.62711169590569
-5.95969790558877
-8.58342310225441
-10.882694713757
-13.0869224503801
-15.0499480093205
-16.4203292491212
-16.9280219906861
-16.6415276370727
-16.1078668822645
-16.0450410797276
-16.6497355736221
-17.34223848069
-17.3863499964508
-16.5924383580968
-15.2125585776603
-13.3496491872883
-10.7983119916086
-7.47257734170657
-3.79122486511816
-0.528202079097769
1.74746960285802
3.07472413345399
3.92253947682863
4.69303143728865
5.45360190272119
5.90532499589062
5.39203695226168
3.26931294161194
-0.298018706263455
-4.06093302552307
-6.55255451128366
-7.13070338364019
-6.0590630623306
-3.95601584533534
-1.48100871380222
0.758810002752087
2.462462354762
3.86549405731262
5.58855879144793
8.17106737193724
11.6445541380117
15.5051325149698
19.1450821001732
22.2342594778878
24.5687083296419
25.7928871305544
25.6605435409446
24.5011760472409
23.0630042576575
21.8377261664023
20.7092956262245
19.2187837502939
17.0220594785582
14.154245035587
10.9766689494692
7.83024579359115
4.72015822212229
1.42789223943809
-2.1440910508768
-5.93791639861905
-9.93658901537885
-14.0719432396835
-17.9406738626589
-20.8772863838426
-22.3817735800109
-22.4237337264662
-21.4015153683448
-19.8504978958834
-18.1217129039416
-16.3505325770196
-14.7365148396953
-13.6557072239065
-13.3698924353722
-13.7802167096619
-14.5649938871499
-15.4153115815747
-16.089294248102
-16.3894427954968
-16.1377485752812
-15.1297332136744
-13.1937914548773
-10.342495279149
-6.75141546013313
-2.61489689972806
1.77434918766896
5.8352510047143
8.84711178182032
10.3622549038968
10.4016819267189
9.32491257739849
7.62557191410444
5.80385318467339
4.32339046409134
3.57281004746672
3.68413480236046
4.32347049922018
4.89051936308394
5.13797024373285
5.4699647350157
6.47252315045547
8.29145292825324
10.5565631842711
12.6508337962382
13.9252647937651
13.9778356680942
12.9786550224248
11.5908717269121
10.4654673363763
9.84912093725096
9.5356366229555
9.02196354475767
7.87865638759676
6.19768674034026
4.61519922581176
3.8203855172075
4.0962870706885
5.15880420891371
6.12953246866063
5.81241101314323
3.48253327455006
-0.444982990273712
-4.68474730460384
-8.04470874138797
-10.1440179946239
-11.3963893729887
-12.4177915797181
-13.3814284919602
-13.9377747856525
-13.7420687518617
-12.8514149530256
-11.5308504517529
-9.95046193353799
-8.25204686520206
-6.66741464451627
-5.31723811521401
-4.00632152959441
-2.41600169938858
-0.471312975961145
1.57590726882546
3.42721692648116
5.09256812960405
6.9115468643561
9.08083375624479
11.2038181328467
12.5543723939441
12.7839021986378
12.1220741145124
10.9293622701501
9.33620682861073
7.30019834643675
4.80813253686197
2.05976245890556
-0.473266720364683
-2.32435066730354
-3.4075102024533
-3.94706911523655
-4.1179025746227
-4.03681870082598
-4.00040273967653
-4.36475068322921
-5.21029999822347
-6.38088254894462
-7.77354155182244
-9.36383419299809
-11.0223754413947
-12.4863746120768
-13.5078647751723
-14.0082909181215
-14.1248001792043
-14.0392739261358
-13.6761030081682
-12.6459316068788
-10.6058662933175
-7.67636932384393
-4.49236342935038
-1.88499148521115
-0.450352869102379
-0.248309381028964
-0.844765504285765
-1.70737765801324
-2.57499381539596
-3.44493704463535
-4.31234767813899
-4.98425444343236
-5.08694862261816
-4.31364669538715
-2.81013396153014
-1.21707720983187
-0.11409210003794
0.548524937108955
1.3787868984202
3.03053024881659
5.77076453797792
9.28387384485556
12.8254793719756
15.808899104919
18.2926008290091
20.7324331847316
23.3550348268444
25.9626154270348
28.1566607230483
29.5265816939379
29.8537744444726
29.3775845123172
28.662862756418
28.0263676216634
27.2699867212208
26.0611301612175
24.3621669682784
22.3914305256333
20.3140420714447
18.0644867188543
15.4336664341293
12.2915592984628
8.66044802628841
4.50368505629746
-0.432424454918994
-6.34257913090564
-12.9462396562251
-19.5026905091539
-25.1597131688487
-29.1838438476367
-31.1407099412767
-31.200852203877
-30.1834872218157
-29.0755907749445
-28.487752179739
-28.4863329166607
-28.7420533793994
-28.9073691350942
-29.0772606946887
-29.8335977251308
-31.7097912244923
-34.7025123627669
-38.2631438475984
-41.4371952571793
-42.9684133178964
-41.687764365379
-37.1270955066316
-29.8035055577419
-20.9840370738624
-12.1722234284831
-4.50280472672952
1.68905318060966
6.75395267316554
11.1769433863674
15.1470268083976
18.554327549449
21.3014009324988
23.605671211947
25.8572750543024
28.0353676599214
29.5287808884333
29.9064045932342
29.6684493058881
29.7596554093604
30.438270904601
31.1061812808526
31.1933550453884
30.7024737820778
29.848998688205
28.6057844438595
26.7419955642687
24.1274760373451
20.9898522279245
17.9217787637156
15.49512161639
13.8332873709842
12.7000653822117
11.8907186461583
11.2582550389539
10.4883335977445
9.2575373823437
7.64202672398787
6.02522862534645
4.43996430037797
2.18600009837942
-1.64113931758844
-7.14042466378594
-13.2388306204443
-18.4883492835981
-22.1686517554624
-24.4971133801267
-26.0003210746024
-27.0300140888285
-27.7525775677127
-28.1873334837401
-28.2076265457134
-27.7252383079188
-26.8591297154731
-25.8066114014589
-24.6590828264864
-23.4562674877294
-22.2828416617745
-21.1704110818303
-19.9618070111314
-18.3308472681423
-15.9269281034688
-12.6209330577871
-8.752727156157
-5.00810905992877
-1.8570117640471
0.801888817050737
3.35308260263154
6.02415497290353
8.8121556290409
11.5604104014604
13.954581019175
15.6590527781745
16.6032179950409
17.0594433158941
17.441665217475
18.0542027250749
18.8903515283418
19.6056275764187
19.8482374286816
19.6471562171207
19.2942506413248
18.8724495464136
18.1417682109599
16.8977314587272
15.2479751063657
13.5223660011499
12.0185541327434
10.8264869390929
9.85666294344098
9.00851823954151
8.22050902128679
7.38380126876127
6.43795015758606
5.60357373053817
5.25752206833089
5.47158176160185
5.89627151955186
6.17540833678337
6.23563506908099
6.06772412841145
5.4080630834179
3.69668790257327
0.237053516319242
-5.48710951958708
-13.3683814375891
-22.49275822846
-31.4860716243082
-39.0523724740411
-44.3248339114202
-47.0251107906219
-47.3991464781648
-45.893326769705
-42.9108105910335
-38.8782885228661
-34.2796208328125
-29.4610225071061
-24.574799696172
-19.7519450719765
-15.1036765945755
-10.5976143183456
-6.23987834757689
-2.32579541668545
0.835773692065835
3.45991695444066
6.30583115023492
10.1311737466174
15.1660897612098
20.9997625450057
26.9677184329709
32.7991732015011
38.7989451668664
45.1455403102315
51.1117426643266
55.324577740304
56.7928357504461
55.3602424787347
51.165430037113
44.1789292817323
34.677898117685
23.9923022603647
14.2812046117981
7.26156266946853
3.16261409582123
0.983939763863043
-0.416470329146501
-1.75496376597431
-3.60214213472256
-6.56797804011758
-10.9438451178172
-16.4846766933424
-22.709336076893
-29.1579169697195
-35.2521614906418
-40.1597355964287
-43.0374230935126
-43.5273315285297
-42.0726024649089
-39.6003546588686
-36.6797850123373
-33.0680727873976
-28.2265631351306
-22.0832448486386
-15.1390637194291
-8.17289930383672
-2.10892833591704
2.18847501075943
4.40930308890146
5.0332423062575
4.93983319354009
4.81772755573629
4.8326193145305
4.6665807426527
3.95885477490396
2.86538267424557
2.11590828163669
2.48777805698641
4.34999273182463
7.57069658083103
11.4273397730396
14.6063905088775
15.913301623755
15.3765186178906
14.3805239426163
14.4311125929491
15.9207754872109
18.1673403319604
20.3770279704641
22.3486501043888
24.3351863240528
26.4389040547219
28.2816633006711
29.2137808967158
28.6369559676185
26.1076156146821
21.4884606767409
15.3116403476806
8.85583961287476
3.53541556805298
0.0327691317680265
-2.07729624662934
-3.95177697450499
-6.68001291820299
-10.6667792879655
-15.6062842332772
-20.8110139007644
-25.3904452984857
-28.3724333786355
-29.183660295656
-28.1554278714855
-26.2856438257603
-24.4171594447814
-22.8099844846511
-21.4409431169125
-20.3842460622423
-19.7328197248651
-19.254056380517
-18.2567712407675
-15.8734170480002
-11.5987208607183
-5.73977406228683
0.522564944706888
5.56884546812883
8.17791332571571
8.37255495221396
7.53775823981424
7.40491301226029
8.69713570210143
10.785045306431
12.5265937912095
13.1856110258828
12.7092626284281
11.6059559687648
10.6379569830053
10.2849116176421
10.3335500005753
10.0570438916534
8.76693933568924
6.17931820471755
2.47120093387703
-1.79090978112329
-5.79107136990587
-8.68004161260737
-9.86007006440586
-9.31468091282608
-7.72235499995449
-6.02578749913288
-4.75246832894121
-3.85233350604224
-3.16980423529852
-2.84017088931995
-3.15573800584939
-4.18932316115171
-5.61954917205353
-6.91403241245595
-7.72381869309693
-8.10092370379066
-8.29372340004606
-8.44050632859751
-8.58520677811904
-8.769095309347
-8.74879585400922
-7.73678648671669
-4.89515058248639
-0.230491936518048
5.19891122166301
9.96981930512114
13.1098880829923
14.5002301698445
14.8000360588999
14.9461737557305
15.569980835301
16.8123579856323
18.4857357287168
20.2201397101185
21.6237528732561
22.5418929954238
23.0979912000214
23.4566359554684
23.7551349689722
24.215563000639
24.9456215892331
25.5842072732983
25.4952943895349
24.393478474256
22.5139304281116
20.0854934574184
16.801229723129
11.9239905697305
4.98871855956427
-3.52901349691321
-12.3003075623875
-19.9796163914069
-25.9288176251891
-30.2066634249004
-33.1520170221347
-35.1064186428251
-36.3196060728863
-36.926514517102
-37.0450310896892
-36.8966144668731
-36.7407042180499
-36.7289474316866
-36.8720684092884
-36.9683739555038
-36.4673016236497
-34.7022654392428
-31.5014755607772
-27.3610026571763
-22.8008273613184
-17.7175589979569
-11.5972699350205
-4.37403344417693
3.02002567165782
9.13602746033001
13.2355305467537
15.9494926809014
18.4275274814115
20.8809924692043
22.3220153412139
21.7892862623955
19.5516037080602
17.0404027791109
15.7346670144789
16.0345437784965
17.0692768099636
17.6485865130838
17.3943536627643
16.8061065931939
16.3879460427044
16.0956492237687
15.5890720860244
14.6353186055473
13.230900885493
11.5940697529598
10.0171864829913
8.53931994681314
6.90901459986248
5.14643439769976
4.03086447329792
4.68874527908644
7.59905958881687
12.0715698722131
16.6365332419354
19.8831932216368
21.0915075946104
20.3468375891949
18.2812133622227
15.7492629513321
13.4614478126623
11.522635699052
9.3187696534523
6.18395397546839
2.25571804668271
-1.55336020145702
-4.47864977741998
-6.6220318084276
-8.7017362146234
-11.229523960216
-14.1227949179208
-17.2242174553353
-20.9677029016402
-26.0250465729758
-32.1680733341492
-37.9742546332337
-41.9870076812126
-43.8686540203772
-44.2009564889879
-43.5048230099206
-41.7392801635106
-38.5709001767161
-33.9394972994607
-28.3982974913402
-22.8830438765283
-18.0738186772161
-14.0226574912185
-10.3614816726676
-6.66246010855422
-2.6262758035625
1.69777810876362
5.72550932414354
8.72147312279086
10.6248578620998
12.2589987910835
14.4769095387288
17.2712588939275
19.9920549430817
22.3768497799272
25.0562374119279
28.8596481736545
33.7894664229044
38.9456990307443
43.3107134602475
46.1630671976448
46.7941598900667
44.5315217718246
39.4424445527379
32.6869575096911
25.8659722955339
20.1293715436142
15.8867191187532
12.981285440975
10.9238265445557
9.14735813414224
7.25557344368136
5.12498545349661
2.84525100074976
0.499805204143414
-2.14612349364298
-5.62953419767569
-10.200690618434
-15.3129690316452
-19.9566582479376
-23.4700231358144
-25.8517756996477
-27.3905075787234
-28.2262644617963
-28.2665941936404
-27.3899558378953
-25.7112339664136
-23.6559583012885
-21.7155508337703
-20.1673118412353
-19.1256932314859
-18.7197426544193
-18.9474886690206
-19.382224639178
-19.2805021293405
-18.0899566382302
-15.8453311320345
-13.1301551133769
-10.6533113595769
-8.71431133112643
-6.94605190829082
-4.53436121488731
-0.757687351688101
4.41794632718977
10.0313955217967
14.5790086530254
17.1203350870063
17.9232344140878
17.871869837931
17.4751759509619
16.6931881483914
15.4031186072611
13.6326072964495
11.5268153080332
9.42186556063746
7.82066993070477
7.04747947549134
6.97932955844181
7.20464646246598
7.36658545653108
7.3353774262235
7.14621170418866
6.80976087519328
6.1895786023234
5.12794630887219
3.69919226711894
2.23052814319006
1.01451549334585
0.0577654754017342
-0.861887563503341
-1.91004058661703
-2.92839254788106
-3.47972974076932
-3.32379972306231
-2.82971650930871
-2.65098092779945
-2.96131033697704
-3.27861201725003
-3.07492061941568
-2.35473184743996
-1.68843725449692
-1.84893113939568
-3.2381719398545
-5.42207238525563
-7.34491159513558
-8.17088630009366
-7.84129121588564
-6.83709505472943
-5.63733490947891
-4.41517562773815
-3.02359088278443
-1.24605090349106
0.833289530426392
2.80935967904867
4.39556033717662
5.71569367893155
7.06665414801018
8.54957179756893
9.98938975572688
11.0888823926936
11.6710144539634
11.8954355992389
12.1858152678231
12.7718873493939
13.2575257177417
12.73411450341
10.4782210390626
6.73448377846025
2.85678897046579
0.423956086577578
-0.0102607475466694
0.807908529421662
1.81087660796932
2.4761674074102
2.59475420767293
1.77432504282767
-0.318608467616419
-3.50048891452423
-7.27247528916256
-11.3391061190796
-15.6363089961522
-19.9210988781805
-23.562035211795
-25.8335815356475
-26.4431386865674
-25.7344515819864
-24.284281085594
-22.3501990985065
-19.8847331579853
-17.0477184447134
-14.4220714477099
-12.5649985580579
-11.4233270236759
-10.311611039264
-8.53229605692766
-6.00459470403556
-3.20574907645047
-0.548520339515987
1.98771975204455
4.67831084804478
7.86384927822628
11.9489720617237
17.1186796470442
22.8379620332208
27.9682821536514
31.6315847338911
33.8020314818665
34.9980457481098
35.6763514919494
36.0204526525602
36.0464218073026
35.7478546930223
35.1750370570573
34.2634057474015
32.4276147375466
28.428145492294
20.8714319716338
9.13546098114211
-5.70462072649391
-20.6282482125282
-31.9187308338953
-37.4771358645686
-38.0906532124725
-36.3261790933047
-34.3809375359143
-32.9958295490462
-31.7904889129214
-30.0922867191077
-27.5986516449649
-24.5988545136201
-21.6658160750572
-19.2084742927838
-17.3608866169998
-16.0867485389567
-15.2076994779836
-14.4616787540549
-13.6324804649307
-12.511901730356
-10.8067063073867
-8.36690135131519
-5.52389081456414
-2.92071814434408
-0.870196289333
1.00420543064933
3.40716944168561
6.70970991475182
10.6912046377899
14.8664052866195
18.9030204180624
22.5800651480748
25.4393896793535
26.8229158029693
26.4239373621768
24.6121362268338
22.1277558138568
19.6746192539409
17.7919667147155
16.6972996955897
16.0696861592241
15.2418682132544
13.7390752540729
11.5475622050429
8.97774257577518
6.46599954518365
4.38890244992679
2.8493861977663
1.66645399061423
0.61591027273067
-0.413957467294017
-1.44754528474061
-2.40784499405102
-3.11526072985843
-3.47240807364638
-3.60952860211096
-3.75325765773033
-4.04610033013924
-4.54011096668665
-5.23013218798341
-6.04641603070081
-6.90205918172408
-7.74321594527761
-8.52301399100534
-9.21733255127442
-9.89134052162093
-10.6132017158412
-11.2787155846447
-11.6883275136811
-11.8255197308912
-11.8848093884162
-12.0067965331965
-12.1509161986709
-12.2089208041812
-12.0814606096802
-11.685661460938
-10.992834661253
-9.96068392455881
-8.39916417701723
-6.10931159656565
-3.21319900762914
-0.178429712768761
2.48960856655896
4.47938291584634
5.74308725423462
6.51506641925227
7.15482422660118
7.84747085123846
8.52351737662092
9.04270274824988
9.31959808161523
9.3713167789525
9.42175035828325
9.80890019840695
10.5841259400177
11.3512772372575
11.6688019549873
11.4669601188781
10.9844111346821
10.4773062888561
10.0628267109029
9.70441315214194
9.29176077794367
8.75308880269015
8.02532684250832
6.94926833712768
5.38823480282479
3.44167957522266
1.27817837051031
-1.26888660051976
-4.62294969816982
-8.85642889847184
-13.3679451706564
-17.2477912228217
-19.8629191687908
-21.1646565621646
-21.59355340463
-21.6304448300469
-21.3571936287294
-20.5282892959385
-19.0227511103176
-17.0462793260169
-14.9580261472272
-13.0926864481254
-11.6433745184032
-10.5057802927252
-9.32942472124135
-7.88438144125391
-6.29183746700632
-4.81640665350664
-3.54670690113771
-2.32045348568213
-0.882691341877145
0.852591205233378
2.67349133101368
4.35004959183911
6.05926824622201
8.28766428721576
11.2480769350911
14.6194417226904
17.8957624618909
20.744733085112
22.9563077491242
24.2574772843096
24.3556241818538
23.1929096565316
21.1414170296902
18.8699463475582
16.905110319198
15.3332412739523
13.9969059851987
12.8534114456885
11.96028000214
11.2408910411967
10.522839007602
9.76184321692613
9.06906019537863
8.609900274212
8.57266505967197
9.08202347257617
10.0387356739435
11.1287174047865
11.9757916643432
12.2115336937553
11.5277801242093
9.80196031982397
7.10488139275907
3.61912578564947
-0.257661983098361
-3.87961272828437
-6.8773590558444
-9.76417657124995
-13.6112183918835
-18.9283489709651
-24.9986643476535
-30.3394037074229
-33.7587359302788
-35.0960834926669
-35.1161103704738
-34.7493062050493
-34.4708604233794
-34.3194046713412
-34.1820899476939
-33.8599065453752
-33.0775841394157
-31.6864128994172
-29.7775230515581
-27.4653467059028
-24.6791420775816
-21.2764822938458
-17.2306658573664
-12.6155090303449
-7.53813106026389
-2.16700980493947
3.25776694174814
8.47307227722577
13.2495955360387
17.4894894382777
21.2472882757808
24.4846656433317
26.8541883815449
27.9920088142798
28.0497574002723
27.7227986323492
27.7000479408255
28.145281121516
28.6206767616815
28.4256766044979
27.1187024546001
24.8241805586653
22.0755037221548
19.4733546515271
17.4956285355339
16.3214198773038
15.6180496691695
14.7106942569991
13.1586841594746
11.0379317879732
8.64085361593228
6.1596914870895
3.70893859691233
1.39038488572709
-0.764833432395616
-2.77287740538423
-4.58667007646214
-6.11969281799212
-7.38352765944612
-8.52016003656823
-9.68682760339334
-10.9193926888995
-12.0872231635923
-13.0196854301063
-13.7149044065598
-14.3210688151362
-14.8596035042425
-15.1462880773182
-15.0632343054837
-14.6859135604522
-14.063868576451
-13.1177757373966
-11.8190959843579
-10.2657151247674
-8.58329119180052
-6.92427922621493
-5.46110572355498
-4.18308267510169
-2.82296803368357
-1.17047323949631
0.63181765625157
2.19404074516247
3.17728306675212
3.50501330074151
3.45537558581588
3.52051198672809
3.99777236690983
4.72289819386959
5.27788135039675
5.37825668132364
5.02439979002104
4.41677399645766
3.78505257217125
3.22949024513723
2.72695270388717
2.28798320962536
1.9776008262503
1.74038572437045
1.36676608284887
0.714050922070058
-0.150432316885517
-1.04698923854753
-1.79809166591538
-2.27987746618652
-2.53265102270328
-2.78140768123749
-3.18483048571111
-3.62437849099369
-3.84606248978967
-3.68244969106754
-3.07494362067844
-2.07493292637061
-0.885209860755012
0.26836335710106
1.30954897131562
2.24310006934672
3.03132229581196
3.66381268867475
4.17436468203922
4.46480958056225
4.31073298022296
3.66168349744826
2.77426635805002
1.98889884357197
1.50118504151142
1.3180854959121
1.29194679866151
1.24033243790924
1.12056516148829
1.02014902973116
0.979737436575746
0.960803900699532
0.952129943949938
0.950711384163244
0.885840979710967
0.696828673956856
0.416292655206996
0.0760592079482937
-0.367308677866538
-0.924271065997728
-1.49724808065849
-1.96829439515266
-2.23534024929749
-2.15379578891456
-1.62998923935664
-0.802301481117166
0.0281387570551085
0.64502771726475
0.994245877395288
1.10106924736136
1.01055531910143
0.728818209934936
0.210686217622738
-0.490080916577128
-1.14045751626963
-1.54930357118236
-1.75390472540941
-1.85201167703082
-1.82070003787146
-1.64755047794752
-1.47171983074644
-1.45952079940261
-1.64294029357889
-1.91874882594138
-2.12607015074268
-2.16963850440209
-2.11966109547725
-2.07533391834332
-1.92487512404121
-1.44234651500849
-0.631006323032883
0.234483340817229
0.892965776680196
1.27197672298048
1.49426350178908
1.88518004628941
2.81970685999141
4.34310223486004
6.01967546338548
7.2753845826521
7.77897301133787
7.43225494312907
6.20545470280735
4.15265591514974
1.50782395504686
-1.31421318280181
-3.82119616642144
-5.67162725671717
-6.88146109220996
-7.65691431177938
-7.96699573552671
-7.4862231196696
-6.02145571090174
-3.82037235473417
-1.47642982966593
0.293289718218725
0.898678637815124
0.22981459641666
-1.14255177859566
-2.1852460748988
-1.89055695824958
0.187098803620775
3.51562768110074
6.71870377050018
8.44422842429768
8.22556157534165
6.49798118478436
4.02740786123168
1.52393291127343
-0.447440285267686
-1.55403937631681
-1.76067447862326
-1.25843175869214
-0.376724159119265
0.456847236140376
0.829307302679345
0.545675242537779
-0.234118325395713
-1.064599086278
-1.50680769231431
-1.46462936919615
-1.2211701046413
-1.07317009918882
-0.990276654951204
-0.697555245957828
0.0464528262694141
1.31997295504485
2.91831220151667
4.19995043249785
4.33176100775036
2.93275030439005
0.353288767378853
-2.72924360968074
-5.76250604178472
-8.31781448931959
-9.89026217399455
-9.9078694218632
-8.06450177534049
-4.78630753343106
-1.29765238292557
1.07328835813659
1.76799548487539
1.13188084838129
-0.0930806270245784
-1.10670605433986
-1.10537784091379
0.448057846170233
3.37950233309571
6.72730849308083
9.22624581722083
10.0497422633434
9.28583876990441
7.67102138140139
5.7747879234764
3.57374333518075
0.879736791077187
-2.09852947910703
-4.80775172058937
-6.73516814053185
-7.57491811587701
-7.25994988808728
-6.04135481675887
-4.36153242016081
-2.51838657557258
-0.646981068212164
0.934617259412529
1.70728822466077
1.45817804585868
0.590805729484895
-0.242333629687604
-0.746185246079948
-1.14368774473629
-1.74587215954677
-2.46105347662962
-2.90336273637893
-2.98831683646516
-3.12102099682396
-3.62027354678968
-4.1944923800576
-4.19692231257544
-3.24242523677888
-1.41254214383474
1.04293101451042
4.06900083380902
7.78087200628436
11.9446057585814
15.5535445639026
17.2722082816412
16.4422158948689
13.4838893428551
9.37808489074252
5.04605050257689
1.14908473863452
-1.90527877874664
-3.9282371584297
-4.90518164681758
-5.05026679514355
-4.82886464381974
-4.64198556362676
-4.4468096132686
-3.9466784025367
-3.1541255907014
-2.44962090932006
-2.08641977786511
-2.0053603735998
-2.1777502125479
-2.77199810388967
-3.87153065466857
-5.23273080240171
-6.37301122445041
-6.8332891618701
-6.44437169251028
-5.4156102873284
-4.11464773488642
-2.79431488576813
-1.58172161925239
-0.562151809314028
0.270741858402844
1.00168871824847
1.62630510435811
2.04369222317123
2.24248137405055
2.3062360253707
2.24165599544379
1.99183308697865
1.59307845921596
1.18661949489976
0.950345935799521
1.06583626745688
1.57638892238583
2.23560892668009
2.684977409638
2.79446328998785
2.67305100914397
2.41246287550352
2.00359906755673
1.43357701007576
0.694800824278227
-0.247826567094747
-1.37413508568659
-2.53082896829736
-3.47872969701525
-3.960933090511
-3.77926348808219
-2.95154523749672
-1.74779782473769
-0.452647967551879
0.79279033369393
1.82859023106962
2.40564470639208
2.45361014724435
2.2161348841721
1.97827717387347
1.81584445026033
1.65388295526256
1.39273704877843
0.963472554733164
0.403844065461824
-0.136188729017854
-0.536689931188252
-0.781143088140754
-0.879821844802425
-0.872809798169984
-0.911594687364492
-1.15595703590385
-1.55947302493177
-1.8637447810311
-1.79006532941452
-1.21265209150114
-0.263747491933764
0.688581081965466
1.27810439968091
1.37709791805894
1.06787273172238
0.522238603326123
0.0169545936721397
-0.123566868638566
0.203610537458891
0.808481871666404
1.60610035435317
2.93517751262667
5.13514657584186
7.71160611563815
9.16553705725886
7.98210958596202
3.98200361272026
-1.32368335396926
-5.80665466063235
-8.1262823929832
-8.15589653156087
-6.52945070416832
-4.26282337516947
-2.55214921796153
-2.20766213770435
-3.02957812381985
-3.99197476952698
-4.14374438699323
-3.28323542593498
-1.92033899348102
-0.763899380059396
-0.163985510270485
0.0662973048768132
0.312313933196846
0.75474567754374
1.32589472089651
1.79455069772996
1.76938690925695
0.949367045169633
-0.423733039965266
-1.63677141053295
-2.17803483061036
-2.07620119662605
-1.49433987231604
-0.323060608078015
1.61865075976619
4.13971500244126
6.62948819652383
8.48388508862752
9.49624662515256
9.71749110657138
9.00502896324086
7.04214295656659
3.95603616437122
0.568643364874892
-2.27574245278035
-4.37137420960012
-5.87747600756856
-6.75740158275006
-6.89394953512131
-6.48229707220309
-5.89070040270296
-5.25142811442864
-4.43773008334694
-3.36276392550143
-2.1938622234895
-1.30673526642921
-0.952538033597154
-0.898973478107844
-0.579992170573795
0.279025029947296
1.35898054218577
2.13778675646556
2.38583859703748
2.2448490394869
2.03238543482886
2.00851828558544
2.18955733811946
2.37445375104867
2.38211696545147
2.1968757112701
1.9336335592517
1.79330518809574
1.93300759936195
2.18357270990996
2.03216447614268
1.10896247676013
-0.406720451655913
-2.00591010466884
-3.31603388656128
-4.22863664904119
-4.78661919659068
-5.11734969547114
-5.28670428579977
-5.06776988899327
-4.04866014932308
-2.14046073735214
0.124767435839443
1.89172383124038
2.55386590989077
2.11522599054285
1.12250494766226
0.241796454398903
-0.139109510526111
0.0557942075150131
0.74654446402596
1.70811068646071
2.55155007216922
2.90361563173626
2.61370596122626
1.79681919752623
0.808068654368379
0.112469976417939
-0.0680264397462308
0.033877055504129
0.0627058948708939
-0.0146045127670398
0.0006335857930209
0.155472026535205
0.294199117775152
0.293179443444296
0.176782689657781
0.0556178923688947
0.0058359798037949
-0.032960491894839
-0.177652729212688
-0.34250887439265
-0.180565475819577
0.587401515017781
1.84746527470536
3.1274552976657
3.84095094176913
3.5388723031624
2.18397754006202
0.263009867488612
-1.5225430844429
-2.68201516827791
-3.01198535236847
-2.53979122373529
-1.66201604867927
-1.0878578172324
-1.29230440820124
-2.07473337269576
-2.7551456548668
-2.69209192809942
-1.67558851752052
-0.0753462053218704
1.39856063280915
2.24493259552328
2.44348249999886
2.20533408815986
1.75056213768387
1.38311942535017
1.38838541406544
1.64802977795464
1.59754555714728
0.752442828974343
-0.768222507161404
-2.23140887874199
-2.78412502628736
-2.10714694329887
-0.693566091015317
0.548661488038871
0.973589932633465
0.528885719606957
-0.357613328770091
-1.09850543531575
-1.34295007909825
-1.23537564060776
-1.23016762905426
-1.61237315374593
-2.28797407873109
-2.99089120027701
-3.48775124871382
-3.59323293058425
-3.23681189476418
-2.58083410699039
-1.90802159583205
-1.34119489705711
-0.72080389835845
0.286854514273631
1.91629816787383
3.93478160596147
5.5575046164094
5.99182704474533
5.14382073294137
3.6562443227136
2.27629384965365
1.30889338474099
0.614792442704605
-0.0204274998682636
-0.564423859304497
-0.789970272765683
-0.620461348063943
-0.266036023939095
0.0596993181279323
0.372529453899417
0.765169040486742
1.21741923715199
1.64273724619784
1.93561868706196
1.95897245031926
1.69814413241377
1.39539663913564
1.30801264499392
1.37681264783478
1.3109171541063
0.915914941666581
0.196961984401665
-0.730349096567885
-1.67552428593081
-2.42762841861782
-2.89521267967782
-3.12019964516684
-3.14340213344395
-2.99185315471694
-2.77445998582436
-2.6310841902881
-2.62289555148814
-2.77258882185976
-3.08496334972894
-3.4174250704772
-3.46230185873427
-2.93392695405611
-1.71098727301418
0.0861391380279317
1.97877456254512
3.25539842444215
3.49639911154535
2.93325661530969
2.14706545320498
1.51151338372857
1.01812037408907
0.504164743116332
-0.0411408014753221
-0.335764533148847
-0.0121528078991242
0.940324761084071
2.03367477567834
2.68961604931923
2.72191561385166
2.39865092953333
2.14091932675519
2.14404447674083
2.19377747023063
1.90845576683867
1.21082439796343
0.420845710228162
-0.163556935172395
-0.570155494513577
-0.955594086462878
-1.32867839343539
-1.59543548398315
-1.70417213619247
-1.64436549758366
-1.44003529460283
-1.18497954116234
-0.968605172333673
-0.795125008271042
-0.660721056562431
-0.600110348523921
-0.587685693153118
-0.549109656784871
-0.512961302203064
-0.586494958673409
-0.782642482623952
-1.0085368352846
-1.1549773116089
-1.09353985163211
-0.738366242743449
