-0.728123310181337
-0.541183404054355
-0.340021478490148
-0.13189610066549
0.0358858635768604
0.133727085455592
0.21262310497966
0.304305760273368
0.385898037701325
0.500624075483168
0.703710272221524
0.868746945721097
0.825890659700993
0.675947793545971
0.653379437173248
0.744149459909766
0.770201016498474
0.736899166984071
0.756273367662408
0.754526791674668
0.571845864591815
0.237589333172232
-0.0942642533194559
-0.347953174047621
-0.4868818007089
-0.448599276404518
-0.2812748422216
-0.175819225014816
-0.240387091136921
-0.391884032975449
-0.513991117042678
-0.565076163857346
-0.540781650997882
-0.478404944904739
-0.461802097456745
-0.525181879538824
-0.609709594899715
-0.643237012946101
-0.589763370553685
-0.452641922408598
-0.303376436116333
-0.239394463627153
-0.267448252058718
-0.31363410572404
-0.332451900670488
-0.298104510957286
-0.169183388919442
0.0075894800806065
0.0842094954473263
0.0254556519969576
-0.0221136947976721
0.0455445996771547
0.192911650345752
0.39105632193203
0.626266689561997
0.791963280388565
0.8122837561065
0.799883592257382
0.881803043933889
0.999938789428907
1.06203740424139
1.10964029085244
1.17741709489759
1.18665742576865
1.10886173070514
1.0209828068898
0.902796536860514
0.617271111074173
0.164580132935974
-0.290116567437708
-0.676066393240886
-1.05292163127977
-1.39145886249428
-1.56694186015636
-1.56030353980915
-1.46861939990317
-1.33822355430698
-1.12515668227064
-0.809371979274371
-0.480345660692672
-0.285617292865906
-0.269803123982888
-0.30165796690826
-0.238685146805432
-0.0953364912612383
0.062180426176546
0.26693489973882
0.546315874230504
0.805623142810971
0.957540842284376
1.00706182705917
0.927562521825176
0.679961582028753
0.397314902992011
0.282979094089623
0.320845430154234
0.345315232863977
0.328265784514125
0.336126310618524
0.320835244754531
0.200205590645118
0.0159992899104483
-0.175991485796647
-0.409067324820597
-0.651959183118685
-0.750573383441326
-0.658777786823999
-0.528067570066202
-0.460612506815468
-0.370923037171281
-0.165679738566194
0.116744940552582
0.370379945677608
0.488811323092774
0.410190024300374
0.197376402542837
-0.0006446111799493
-0.11031197377963
-0.166702050620171
-0.212413722965505
-0.271808967647956
-0.371315087292026
-0.502812581467027
-0.631605775912971
-0.748716249956781
-0.818003373511044
-0.734664025102713
-0.469288579529909
-0.153439392867797
0.0890895148628914
0.239507606138844
0.256434580351556
0.104706911612962
-0.0495961340824713
0.0216052065516858
0.258719516513408
0.405332769421828
0.392241634039584
0.32439175728203
0.205557596783592
-0.0006109579470317
-0.165514283511202
-0.151364361785038
-0.0459928895760472
0.0004155229653317
0.0235882234039378
0.12139111989932
0.245491646622694
0.298733965311931
0.286340579964105
0.241155806488574
0.149561539897954
0.0332605622290503
-0.0215163930498799
0.0462004031378053
0.218088185764633
0.403533701582072
0.484717782382723
0.434741344184456
0.383341027901612
0.485624359546979
0.761634413261401
1.10917264831706
1.38675486060773
1.45339676184965
1.22719112839421
0.721195337695002
-0.0075943921100914
-0.827683684367991
-1.41992904699913
-1.44935926705293
-0.971894239604093
-0.42918946908753
-0.152573772878257
-0.119124423409135
-0.197357612853527
-0.315427423289799
-0.38714633201339
-0.368813392875059
-0.3708553915014
-0.49140122570336
-0.632520118009561
-0.669873190629272
-0.6548751322319
-0.669114828890626
-0.649583260633762
-0.525095103055813
-0.355167614302698
-0.20592304890913
-0.0657690460955325
0.0431725748866194
0.0644057647049491
0.0423509391249324
0.0682301145297765
0.116763328081922
0.109987865944745
0.0848289851192372
0.152580657059036
0.342534079644489
0.565236558426555
0.700130197998036
0.716515064737573
0.711671270975795
0.768027601440031
0.816849626397774
0.769684650540148
0.688554789136964
0.636906319817157
0.494266147772924
0.148586754
-0.270022577022034
-0.556301880050572
-0.662735340417183
-0.620291370636087
-0.451809107264504
-0.269110849850217
-0.214821395373909
-0.259808202996853
-0.282337317204762
-0.300584476677942
-0.38591164602757
-0.44677141926006
-0.352700322371695
-0.167006807659591
-0.0333758383733903
0.0430677257889026
0.109968560292864
0.122260100893791
0.0625694241574133
0.0387409527562865
0.109092978037801
0.173363638903499
0.137779719959299
0.0341208020636591
-0.0729761760414247
-0.164160023924591
-0.237962068305807
-0.288993447348072
-0.306603267455944
-0.283455440170869
-0.252179901200287
-0.266939115015268
-0.320941770458983
-0.367684519883583
-0.418654864216388
-0.492419164041773
-0.512039322659497
-0.411831110860063
-0.261385871641113
-0.126262996959774
0.0433956260053019
0.23100199692678
0.278300532618379
0.144553190693288
-0.0030013111452623
-0.0619489309824728
-0.0878915288147831
-0.075534529943071
0.0524146205309073
0.234293083439687
0.337047626517987
0.392596547064794
0.497281347280348
0.570071945073671
0.489834078827105
0.367655311570156
0.40982235875662
0.607938561812567
0.792560168202091
0.875824313559232
0.856453868834261
0.724252046845985
0.512220238063639
0.326047572107388
0.233316368668396
0.209090085626165
0.206351530953565
0.209668421178818
0.228300028224189
0.266294635997973
0.293448186419689
0.275591993944391
0.229730896950661
0.172631327039943
0.0565874692141646
-0.114651935735217
-0.192821352310424
-0.0896497380485168
0.0428215108743954
0.0365027890144087
-0.0477098254552761
-0.0930277577600464
-0.128153535248628
-0.175442666815839
-0.161070859231622
-0.127492191517514
-0.244976129367136
-0.506472661916323
-0.705855288393602
-0.759551734171243
-0.749691787668285
-0.661160485621671
-0.384738320123986
0.0388503314159525
0.448091346113804
0.788196722177349
1.08324687546226
1.27059007069228
1.27347185465021
1.13742125260929
0.934457390420603
0.660657439375706
0.339855044468834
0.0822902594375947
-0.0374747461792997
-0.0524958238233781
-0.0457299043995128
-0.0980893172397154
-0.251683162705782
-0.478073566732023
-0.728123648204626
-0.990456163450029
-1.24756957698729
-1.45622057172594
-1.62082572568214
-1.7677949936528
-1.83522697325288
-1.74983394435603
-1.59209302701459
-1.51356313920987
-1.56900048898063
-1.78682915979848
-2.22496288310267
-2.7754695848655
-3.14689482480763
-3.21929603943307
-3.17854060932903
-3.19022986844474
-3.2104260965597
-3.17148476756332
-3.06486631350504
-2.81250725192153
-2.32327601027579
-1.67712016987226
-1.03247547733704
-0.401965070507822
0.286067281172878
1.00853084698036
1.71874205699677
2.45262559139333
3.18149356189573
3.72522939328766
3.98941654385021
4.14755257352192
4.45709559484823
5.00124695084081
5.68148832077091
6.38436039405455
7.09913546597587
7.859950798398
8.58348676242879
9.05463048078855
9.11169850661741
8.72834642585648
7.89126767217596
6.57436286787302
4.86363327411811
2.93402062597087
0.924422347532667
-0.999593311228305
-2.58790560675493
-3.72686884982101
-4.55239479864083
-5.15686974485997
-5.43791733433964
-5.41251061243876
-5.34867339009941
-5.39246301607465
-5.38367090476281
-5.17960398292078
-4.8409300481923
-4.40854184305172
-3.81519728525917
-3.08346702994121
-2.33213116326385
-1.57167133624982
-0.753609785235616
0.0052708392708231
0.500182990922381
0.701100018311964
0.743340894375802
0.732414918650189
0.699202827234977
0.639615142379305
0.495723992090991
0.192588071598406
-0.261082300251088
-0.776737279934454
-1.28763091982871
-1.81585920782955
-2.45232799711716
-3.22766918405771
-3.97574500628193
-4.44496079989259
-4.59807460602225
-4.65083424184339
-4.77875085962077
-4.96370869609505
-5.11743437122436
-5.13071304645581
-4.83680603661559
-4.1677776788684
-3.30331627538623
-2.4874618948188
-1.81609644256744
-1.32197026701689
-1.03879301205066
-0.851225482459248
-0.528320936886793
-0.0052233994573057
0.593075888586541
1.21507735395847
1.90827472191455
2.61280300828831
3.21564024818601
3.78023043448946
4.45302561226452
5.19454897560394
5.86901352330857
6.53597413396265
7.38856561334143
8.43254064722317
9.41242763619814
10.0218538515019
10.0913145482769
9.63551238064203
8.77901571593856
7.61531689299037
6.17489681288287
4.5694225142561
3.09470128522969
2.11914017741948
1.85034233330275
2.15886072644079
2.62454291401363
2.84886024659284
2.71216541533227
2.22502297097283
1.26754162045954
-0.260014118869034
-2.13086647832218
-3.93191717470282
-5.42637071571927
-6.54615074975117
-7.21018089561824
-7.42021193043807
-7.35951493331287
-7.17765252917152
-6.85284583170157
-6.38161924838416
-5.85817793980559
-5.26431499485909
-4.42736046164035
-3.27886534783348
-1.96307771290453
-0.667667633709319
0.4613489272739
1.25565614804568
1.57166130705232
1.38640057732233
0.733694945511558
-0.356108530592645
-1.76184413815267
-3.2540365390079
-4.62624188171051
-5.70829491707309
-6.2729399136418
-6.10509024406083
-5.16754199387473
-3.63581607418788
-1.85991571131435
-0.317394348928941
0.569397468988714
0.679731236894743
0.239742455323849
-0.344857848927728
-0.706035249552403
-0.714675174285117
-0.516981055640241
-0.279706607723315
0.0098371495808977
0.335749392954823
0.459859996137463
0.221747020664489
-0.161123017022937
-0.367372365532476
-0.325684288781676
-0.0563642453333161
0.571032399948687
1.66052925230817
3.06080313796169
4.47266406484431
5.62443854501339
6.31210296486869
6.49508989338769
6.37384807087686
6.16017822049145
5.80025571973938
5.1389148145253
4.27156778605041
3.48610716727834
2.94435945742102
2.65211928317445
2.64529582940674
2.97059368313674
3.50448006403791
3.93993706534801
3.99243420928793
3.60859466341264
2.96939399149143
2.29220291795271
1.68356200114565
1.1868824628785
0.813370328587103
0.447129701122529
-0.0941697257583442
-0.804211009395274
-1.49987599404718
-2.17957388280926
-3.13501395204328
-4.60339837496049
-6.49559674537118
-8.48742595783987
-10.1813007680592
-11.2003353404807
-11.3004222657002
-10.3849197039529
-8.43764642773485
-5.67095649510265
-2.72126529757195
-0.338011120242112
1.21648453626585
2.20778633563374
2.90534991903603
3.35100220010415
3.61311322874338
3.85459648061462
4.05665155553094
3.99334062636129
3.57805927486517
3.01466708063108
2.56583419206038
2.33503551168084
2.26522074473436
2.22375597147307
2.09518445015666
1.84063788940282
1.46510798800893
0.968265221700841
0.356747906797555
-0.358120415561505
-1.18846599208324
-2.13635520713335
-3.15779105862034
-4.18889807705216
-5.11623242740444
-5.73832439077166
-5.95433109554532
-5.96810957514899
-6.03297497607593
-6.02236531215222
-5.56478168009046
-4.54707558877323
-3.15297216205523
-1.51330822329232
0.312858780862063
2.11660986064111
3.64073114506734
4.82137771385387
5.71186984236576
6.30930595764588
6.60248323643176
6.59173550833285
6.13466169861226
4.98299946393095
3.10676786618891
0.850105465781929
-1.26992411007164
-2.79831526034443
-3.45834565916264
-3.24873290657685
-2.39875546111148
-1.12108976364162
0.457445518550841
2.0457841439832
3.1328554353399
3.38734049885913
2.98715669382578
2.41681816703622
1.99009495231499
1.63255320581749
1.13725084087625
0.60672425952343
0.521839693589741
1.28161825327383
2.78894501905185
4.58805465438421
6.26456057333218
7.62782219588943
8.69128642713143
9.55617912343423
10.1502862703282
10.0959177864425
9.01719862945991
6.87737508459496
3.85501468391967
0.146058535815316
-3.87974969541049
-7.64546090674388
-10.8039416201264
-13.4955562666952
-15.9738144277224
-18.2019427529934
-19.9452486718132
-20.9999488351418
-21.2033252919803
-20.4409830507441
-18.7419983553329
-16.2176879516892
-12.9421168460565
-9.09618831228205
-5.14913881883028
-1.63656643972766
1.25099373126239
3.7458237622572
6.21365470739218
8.79557873191526
11.2262636252899
13.0335359177739
14.0295788683644
14.548216169351
15.1186525623693
15.9790191947574
16.9218474494239
17.500344174359
17.3872341220818
16.6108716924482
15.3977475713038
13.8002942897725
11.6702811206529
9.00546493876912
6.08769072786925
3.27453273770956
0.846767773033448
-1.06574406399954
-2.65633485349381
-4.36116352494403
-6.35364295904853
-8.31677313561083
-9.88287651106887
-10.9900986775747
-11.6477887905836
-11.7464306646378
-11.3373833338335
-10.7556790552704
-10.2052293305949
-9.46414274292894
-8.19802016951157
-6.39245718049942
-4.38707129253242
-2.65363699648557
-1.55442452973672
-1.13547037402981
-1.14660256212633
-1.35101921401696
-1.73758481871343
-2.38842419667274
-3.28393285123221
-4.29334596572929
-5.27150077425359
-6.18977271884637
-7.21968468702878
-8.55866323654968
-10.0782994852974
-11.2374741940175
-11.3790714278647
-10.0455340957686
-7.09173050826521
-2.6777067101512
2.79349406391281
8.7033862029172
14.1464251509289
18.0832111832916
19.9658272022395
20.1833834650383
19.5723047300185
18.5298200944669
16.8369500208774
14.1878112670532
10.6382919538152
6.70946029679869
3.27556359587458
1.17789744512411
0.725110613355206
1.59130383410043
3.15537498676716
4.75353256098328
5.70119486397509
5.45772454086211
3.91218432601544
1.35254358354372
-1.81173131297219
-5.10623086059437
-7.91419031876887
-9.70192430005901
-10.3851949776443
-10.2980708297228
-9.76822201321997
-8.81347673139975
-7.26796938146809
-5.14193284611045
-2.77952137362002
-0.651373148854128
0.884229258423322
1.56860291458833
1.23888409421011
0.0365920077923559
-1.57237089153244
-3.1607576468895
-4.51287807215687
-5.36454213047176
-5.38643250652057
-4.64336857127159
-3.70373767070901
-3.06287040783476
-2.706103550997
-2.30744501215369
-1.56996866945224
-0.362589560585546
1.17187355323331
2.60460798122463
3.50690322851468
3.74548635607806
3.44237992266812
2.80653822495971
2.08794030133624
1.48257981763618
0.955009617875488
0.323548099179852
-0.399561652714612
-0.902629076733099
-0.834721995700987
-0.0815985595405251
1.11182866951043
2.18998950561681
2.65202893833617
2.52893363513447
2.34934514343668
2.53617890087497
2.98895189126272
3.34128788214869
3.51370594564849
3.8908026896325
4.87569966219991
6.25926513036797
7.18537121222517
6.88387020230065
5.33855304403569
3.13888680064126
0.851597900171731
-1.33856682044901
-3.54495271373392
-5.83606148473028
-7.85705232090024
-8.89792466367941
-8.60387217377384
-7.48211756950588
-6.37828293049452
-5.58045656146371
-4.74334221306269
-3.54561706882332
-2.13721517268108
-1.05746783860808
-0.902374827700356
-1.92444057761028
-3.81515204657389
-6.00508505728446
-8.1832846389426
-10.270619613545
-11.8938355258457
-12.2953358705457
-10.979045538985
-8.26409608947107
-5.07772472086044
-2.26823215634745
-0.0885530920161615
1.75711012624028
3.59003606305343
5.33638496676285
6.68584316332187
7.53355647220994
8.10072138334987
8.69669065617108
9.46646949234747
10.2602037879825
10.68846218107
10.464248080001
9.77147580528803
9.2181955127911
9.46209460422034
10.9351347652216
13.6916839431952
17.2088230433922
20.3590515966271
21.8400639766112
20.8839451826434
17.7790616474258
13.7496452759232
10.054001829711
7.00905039181405
4.06051929011324
0.814712272898859
-2.43098254018995
-5.34583669164931
-8.23364738010354
-11.578405331501
-15.1232099651687
-17.7821480343663
-18.4876819747424
-17.0679398589664
-14.4325705401869
-11.9510931404534
-10.5149886876386
-10.1533425755974
-10.4781057543969
-11.1765195297987
-11.9339995371963
-12.2834044823519
-11.9451354255731
-11.2352344342051
-10.8818468512451
-11.379570175566
-12.5399677344491
-13.6353520127138
-13.9335122417572
-13.0609171783241
-10.9509495989503
-7.75877805917476
-3.99661621793092
-0.459260031458725
2.29182939926437
4.24271063160756
5.60817395477608
6.48419972089992
6.96811951373572
7.29794913500392
7.67457013804109
8.16297841208604
8.82641329374303
9.7056606173011
10.6449789695706
11.3747864405066
11.7850269582662
11.9874353694099
12.1858991204859
12.5571205190364
13.0380425499902
13.102291130706
12.039132731259
9.68739190604744
6.68413156212039
3.82883489526499
1.46116080095678
-0.377543257616685
-1.51936555893673
-1.82319055442858
-1.73288442085395
-2.29862509514156
-4.25944821843785
-7.06273180621199
-9.10740836513281
-9.18703146490259
-7.56412231625778
-5.49216173451105
-3.8529504165123
-2.44925837700732
-0.573320402956135
1.87361817345575
3.94508114360291
4.44830221065957
3.12298978477072
0.824400670100218
-1.33343225027847
-2.6176648593406
-2.60534813898892
-1.17151270303104
1.2078345228047
3.57172448035182
5.1633542891298
5.91766860512591
6.36594978911041
7.26028237040467
9.11110946117379
11.7633286800918
14.421152752328
16.2069403228932
16.6244002134572
15.4911422208367
12.7331016573575
8.45395070974757
3.05796332429389
-2.82475355417823
-8.47095245148187
-13.2075749954761
-16.6577517249148
-18.854292461909
-19.9968799022991
-20.1979564633791
-19.5839864816558
-18.4978750299481
-17.4217180542576
-16.6946377892438
-16.3074288834689
-15.9507232989285
-15.3460702808597
-14.5881139337352
-14.0848645762989
-14.1441843663917
-14.687280484608
-15.3012370263342
-15.4861248487976
-14.9717461104032
-13.840603145577
-12.1427328885441
-9.44378794833871
-5.15664307359079
0.659560168195531
7.24480319213764
13.8465999994428
20.0095375706675
25.2100199961307
28.7676839739771
30.2741571385251
29.8402461347494
27.9579072876783
25.3728182928918
22.9533109955678
21.3457221819036
20.7332588506741
20.9405175966606
21.4775926172614
21.4228097460119
19.7834155653631
16.3565158890769
12.0241724388447
7.98795087025165
4.86531629435276
2.58818257986099
0.896833427006603
-0.326000070905108
-1.17708432116638
-1.96795647889303
-3.14099195863552
-4.96024038024647
-7.42318894815817
-10.3967336072582
-13.588173320058
-16.4633736494303
-18.5711152318997
-20.0106121398515
-21.3289385335271
-22.9447218239389
-24.8088705626861
-26.4903871290037
-27.45073996577
-27.4210574754322
-26.6072580062878
-25.3272350386971
-23.4747960084308
-20.6187211695873
-16.5504993333411
-11.4415038032357
-5.63610914501365
0.313418521167298
5.55459942785497
9.35633155978713
11.6824419329523
13.1080739831245
14.2246352465067
15.3178833931291
16.4639651698756
17.6425128307184
18.7630896703057
19.6967394551674
20.2533804317523
20.1869532329267
19.4249769342278
18.2984659297989
17.3195646791337
16.6119012428214
15.6669950406211
13.8232608576985
11.0097841355093
7.86512143075433
5.02964582364436
2.52617431189306
0.0423691114695187
-2.41311065363137
-4.46901181986967
-5.8155147039183
-6.29998212270181
-5.75923199863628
-4.17445506092912
-2.00669120437144
-0.154955288623602
0.486852294241088
-0.453056223320349
-2.53408436550245
-4.82532201669406
-6.8066313556899
-8.88259519002286
-11.7567807886051
-15.4188677368561
-18.9700671301687
-21.2299753415407
-21.2526100023146
-18.6071170832927
-13.7659459515089
-8.22555470280174
-3.7307583280035
-1.08721442696616
0.219154576287981
1.2667494134736
2.6932672240353
4.38282315389681
5.90523424387305
7.00991329155124
7.63468983922889
7.71996014073236
7.32595985662761
6.79324114295999
6.44679477508652
6.17723255103024
5.55486465269313
4.31905334609105
2.62156551656089
0.885956483102475
-0.500775744002319
-1.4912278073097
-2.3952596389679
-3.49670208321126
-4.79103100325724
-6.2396778835609
-7.95310843638614
-9.79652287472984
-11.1429638167721
-11.4627712942159
-10.9801775979866
-10.3983091684341
-10.0870967582569
-9.74213037382309
-8.70372832971516
-6.47370029282979
-3.05663072568815
1.04255822606656
5.09479917662417
8.3900996787608
10.375604083359
10.9472077577987
10.7442951488198
10.84411085757
11.9346414828724
13.8919642635564
16.148915549566
18.2450462641808
20.0633559275152
21.8021661809478
23.6941904889744
25.551924673412
26.6459846264767
26.1966226035578
23.9795288870863
20.463334498003
16.5014681455295
12.8879423738632
9.95495169333593
7.34935203805701
4.17189767235015
-0.443460311691464
-6.55972211491033
-13.1364972100117
-18.7156863308451
-22.5360492325556
-24.8134933284978
-25.9901807182988
-26.1692835183415
-25.3978992593721
-23.9930647673344
-22.304689148345
-20.4848983175788
-18.6720379567958
-17.0803836739271
-15.7227069266663
-14.2843288601083
-12.4376755659656
-10.1854212584132
-7.91122332099539
-6.25016332176399
-5.82655892809761
-6.86414558070232
-9.02268687989391
-11.6921576587744
-14.3142321791694
-16.350365952937
-17.2374646802896
-16.6549466046797
-14.7481643876425
-11.944092845885
-8.59552344247175
-4.83837797368773
-0.697859849091378
3.74363385965808
8.25659771472378
12.4574488316659
15.8671855319307
18.1435824532886
19.4578973059135
20.5219253560587
21.9363742503144
23.5658007713979
24.871519244476
25.7764521867201
26.7959011240131
28.2956318089507
29.9315741889835
30.8544094343211
30.3271406085644
28.2277609148978
25.0050080217669
21.0015734890859
15.9361308622194
9.42299863161183
1.95383267270499
-5.10812020799698
-10.6465894279144
-14.6091251253614
-17.6158152440627
-19.979122070783
-21.2156102014916
-20.4851783048814
-17.5751264341387
-13.4583136175185
-9.70153269016856
-7.31643229371097
-6.38745254111384
-6.66437793283985
-8.02302151165344
-10.2565340213984
-12.8083184992267
-14.9177074758654
-15.9282456190943
-15.4731853097474
-13.5351794734746
-10.4209704999476
-6.69104759375346
-3.03047116918803
0.0702661764221497
2.69444289943363
5.41909554549413
8.64931768249633
12.0536625818919
14.7156493270228
15.7909470504564
15.0722830718804
13.0532290339309
10.4207973129341
7.44907056120396
4.00891458857073
0.142038635369188
-3.6173873763522
-6.48089193844123
-7.76808002087753
-7.23231834470316
-5.42231946999606
-3.58446764496205
-2.74360466064073
-2.87381200596913
-3.25410728732065
-3.44338617287386
-3.46272568831174
-3.1838252302508
-2.13289654471409
-0.0220898330794959
2.85621186801389
5.82414677827615
8.15748064956067
9.19226972420548
8.37234838179383
5.49035158763144
0.951661658190519
-4.38396660693429
-9.75912296889039
-14.7586115897253
-18.8788141688473
-21.1683055348502
-20.6679908961852
-17.1909257157503
-11.5598083484288
-5.17413499613724
0.696152566611094
5.47094380868436
9.19678870924917
11.859047760319
13.0193962448395
12.4041507140538
10.5404065882482
8.42886710605784
6.81895747655892
6.08488699783822
6.46829756558887
8.01132317556008
10.3358832358442
12.7028410113758
14.2834385015453
14.4534248427056
13.0446800442148
10.3163575180674
6.55638162222673
1.84641971549571
-3.57969249367712
-8.92117970662853
-13.0868146520658
-15.4469528718346
-16.2679751600543
-16.470562475321
-16.8934652022137
-17.5794324513649
-17.7735640699625
-16.732040336868
-14.437110151741
-11.4209217853307
-8.05417428288473
-4.18800664361764
0.496684583514214
5.79409771995639
10.6819847743129
13.9318562642621
15.1052670451742
14.8133860868146
14.0200315752082
13.3175966797692
12.8002074829266
12.2897244475114
11.6950909975814
11.3992589855815
12.1006354919879
13.9160044325614
15.8545979608423
16.5713148470421
15.4684549727793
12.7855639537361
8.92000831708707
4.0392679443986
-1.82073743908254
-8.5249472402178
-15.5145928249316
-21.5654841333131
-25.1715701532109
-25.4757957685342
-22.8530244448164
-18.6659439456451
-14.5636946589443
-11.7103692639688
-10.1856219103464
-9.04259903297138
-7.16573867048507
-4.14933478950708
-0.385103597222536
3.47467676724451
6.92704946589491
9.5402215513948
10.7487036050736
10.0813334966682
7.70431849005026
4.49227202242815
1.40136091072915
-1.05029162167753
-2.68606417595048
-3.49299697781452
-3.71812844028412
-3.74993551308782
-3.67682503839932
-3.24414907885661
-2.3697758853113
-1.40792232171236
-0.783100886661855
-0.545391578395368
-0.317791316595571
0.367818631178815
1.50893690653007
2.34722587563174
1.97287162858904
0.399621995296698
-1.22386866556523
-1.60976748083543
-0.288401666513247
2.41512864688563
5.84863933580017
9.23755422677253
11.8360219893261
13.2713988100151
13.7056472550892
13.5970249251865
13.3655361214388
13.1575742246431
12.708659684557
11.4580184554364
8.9408726690528
5.12306547555821
0.439286365611777
-4.40543627721258
-8.790452355981
-12.5207325902032
-15.8042949818841
-18.8460447030437
-21.5859152504412
-23.9103640112322
-25.9249198850083
-27.7414594498202
-28.9604917803345
-28.6428133724757
-26.128373673376
-21.8666028317759
-17.0807511001915
-12.529521713167
-8.0012432604917
-3.14500144079019
1.75142731049588
6.12638108860544
9.81596687239597
12.9967695925609
15.8165978977129
18.4143002123519
21.0460652350552
23.914938172106
26.9928503618231
30.0500871538055
32.6008770172719
33.7938042236147
32.7442393159312
29.2178359476785
23.871431454101
17.7878985067023
11.9102973868665
6.84079165608376
2.87974302530688
0.0892238582352474
-1.67346298830929
-2.73901741706357
-3.54167598844612
-4.44253454501655
-5.63235268674381
-7.2182782940701
-9.33102165439304
-12.0548396569767
-15.1369117366883
-17.670933046528
-18.3095748641146
-16.3170473604994
-12.5056325057467
-8.62437749232117
-5.62230952456385
-2.97822098201613
0.0694841921850737
3.15213146082605
4.94634253799383
4.40966957767468
1.66432115302355
-2.05429354692275
-5.13852214357848
-6.50978240590666
-6.11473181570754
-4.79040673645912
-3.74399626201061
-3.93769835146962
-5.55333693061696
-7.86490316374819
-9.7568717157931
-10.4836201883339
-10.0055578807278
-8.83751333933763
-7.74052273966119
-7.31855687752702
-7.6359746039533
-8.3050815275578
-8.98662645082391
-9.56821280133423
-9.85702193087932
-9.45968528821045
-8.08866662751035
-5.78221115508599
-2.76280673972362
0.798809524643026
4.81688794430234
9.04491706942699
12.8230681184786
15.3446553477692
16.3769806909487
16.484252096102
16.3003963399004
15.8016745591083
14.4956559909557
12.0729935452546
8.7034919048508
4.96777603771731
1.65462326391588
-0.600165310469457
-1.58629306190122
-1.38269831754639
-0.140239194230664
1.83834781072867
4.08346046643972
6.25463100987553
8.19431689016076
9.5667611395922
9.90103173699976
9.28877095834457
8.63708143089081
8.82731163187823
9.80408084236799
10.7257049949616
10.8288557557482
9.96198759275977
8.40496368152229
6.35296996558786
3.66313697919367
0.143010941047408
-4.00779608974816
-8.18704908377091
-11.7970931072751
-14.629498430253
-16.9520044221918
-19.1672280542708
-21.1593454675655
-22.042506665553
-20.8633572620206
-17.5657919913197
-13.1021842629232
-8.74324670905568
-5.44696307081165
-3.61487022489407
-3.0937296650734
-3.39510165105036
-3.93894318987827
-4.05338349455012
-3.0920173902851
-1.04196437794136
1.13887416469908
2.29842111330784
2.18650304129704
1.50296723033818
1.06699881159244
1.2520309152745
1.9908731490493
2.94567500553025
3.73690274252808
4.20273560146694
4.41048355785503
4.50485396822487
4.81844442331079
6.02496532772483
8.68915769037573
12.5037967414638
16.2417562386285
18.5624725892611
18.7637280150737
16.8748865211844
13.2954747849906
8.47066766313735
2.9804144690827
-2.09737665682266
-5.32882427367111
-5.94249326135712
-4.73298497508604
-3.58639148800795
-3.91798147837153
-5.65006338519385
-7.72642096306823
-9.421516154818
-10.8956859978393
-12.4677626834553
-13.7599946199667
-13.9953585809932
-12.9559458530269
-11.1028038040935
-8.78003772179484
-5.88234074293503
-2.46721903262752
0.704644817078218
2.4247133640644
1.73247494667273
-1.46188110259797
-6.10308221096517
-10.3577066758572
-12.5487020036942
-11.9357010030546
-8.81156831920224
-4.19187269715567
0.558291025658477
4.29215539815582
6.70337604320777
8.31424270533134
9.73001577533376
11.0416387644816
11.9625458316147
12.2895832358205
12.1360646016672
11.8861676310624
12.0113610848242
12.8140854809472
14.1847365404203
15.5531879964148
16.2080513740853
15.8166160870645
14.5656540596325
12.7128172275942
10.2627370384932
7.36327017126415
4.77280937450697
3.48565513132476
3.87470241067366
5.36935652420381
6.83560890858921
7.16062741680449
5.78023424754914
2.93106943804101
-0.680608675121404
-4.48542579032833
-8.21525736883538
-11.6585406497012
-14.6161878969329
-17.0456648213329
-18.9289933204202
-20.0109232635757
-19.9397671770609
-18.7395706638146
-17.0332103417345
-15.7467196282957
-15.5295144680157
-16.3394990712261
-17.6132290173994
-18.9351881147914
-20.3752303465371
-21.9377012886598
-22.892146341875
-22.0758897064297
-18.8763602830437
-13.6886531941618
-7.48772975113209
-1.19332827208669
4.61864041950866
9.71055316610182
14.1122612826479
18.0220432763802
21.5728847859135
24.5283500814181
26.2605341123588
26.1793724675427
24.21522024067
20.8982250407458
17.0977481203914
13.683732586349
11.2030718643265
9.72979781462078
8.9957371951362
8.51436930857626
7.63894740549941
6.07089981760896
4.55691661876422
4.40179235577085
5.79382678960796
7.19726767283184
6.91875213081059
4.70563839864399
1.29694760496615
-2.90178061514582
-7.86172100255729
-12.9958664794159
-17.0032766639057
-18.7765884487407
-18.2152271555934
-16.211842274091
-13.9548436746273
-12.0857523070699
-10.4503070023559
-8.70781797847078
-6.97500302931334
-5.63441607963035
-4.69072359900095
-3.60862014256587
-1.735055565115
1.25924396671645
5.23174892076615
9.62816438239144
13.6022472981904
16.1755847137601
16.5571199792964
14.5958282895792
10.9605470811997
6.75797494401341
2.95871578182495
0.132195758861117
-1.56628249508674
-2.34792514830359
-2.55660667356847
-2.34734259094694
-1.73024250784583
-0.930890729149431
-0.473953315857196
-0.831432765366496
-2.01593489428669
-3.38971748760769
-3.88903853436089
-2.80361774009736
-0.487077309557465
2.03013737961892
4.23745255248985
6.52453861786415
9.20752126809861
11.7081003235409
13.0883094301517
13.0652977138451
12.1587571962661
11.095431405725
10.3694379803335
10.206415662189
10.6234146737835
11.3637992886559
11.735823552577
10.6598333251075
7.19446735482769
1.17368060809979
-6.72871363068054
-15.4627924359926
-23.9340953202891
-31.0428700528796
-35.8597885426205
-38.0266152877559
-37.9489135315682
-36.5063362898475
-34.4940181643365
-32.2443622173728
-29.6959768072753
-26.6903061250326
-23.0933062498496
-18.8211888863659
-14.0735087391538
-9.43855178671444
-5.36370296383214
-1.52944713357282
2.87621972804367
8.20567580321456
13.9169645717345
19.0634582890139
22.9529628448486
25.273713188316
25.7938422282503
24.2178160660164
20.5820355493607
15.8349676355078
11.6686918716846
9.30951955288989
8.46165641040314
7.75647084279864
6.24381753408851
4.20554812686522
2.64052601048385
2.32720900890305
3.37921520672424
5.39854742311161
7.93093886146001
10.8088372596765
14.0349067314628
17.3787426091133
20.2771911157497
22.243631217549
23.2722221905359
23.6298834602437
23.1675588219536
21.0954129657723
16.8621622004994
11.2511240965827
6.08927292727636
2.64372218888482
0.694510475634206
-0.667134953868052
-1.88640503045147
-2.93294836984864
-3.96297107477218
-5.45842636112202
-7.73393343818137
-10.5186107471405
-13.112542256631
-15.0359196791932
-16.495736154181
-18.0050549346243
-19.5618752293518
-20.5571899330919
-20.5708025762252
-19.8703464049932
-18.9857548740695
-18.1629258596447
-17.3728278101686
-16.4685686643367
-15.1585221163314
-13.1665832771437
-10.6249497042569
-8.11118492968151
-6.18243939320555
-5.0169436776361
-4.57996462807699
-4.9720238179245
-6.36577700611716
-8.51354203797348
-10.5339730213851
-11.4493086570501
-10.8232606152803
-8.61917041103743
-4.67434581996951
1.16094301626917
8.36003353223619
15.5739256318873
21.1695678155161
23.8266291087186
23.058336243967
19.6412265433814
15.2865945611569
11.4130013165727
8.29199384281134
5.5191662128627
2.96462425452358
0.99229784632359
0.075843834132875
0.528870429590887
2.36576324538205
5.05446628283559
7.47470067248585
8.39161850837199
7.07202872490275
3.56317896493803
-1.31660882064164
-6.11942282379028
-9.19619197183526
-9.46920738043298
-7.10145573468773
-3.40072823059964
0.165595383906581
2.99101843417669
5.34591247630192
7.55124220849556
9.48672767287285
10.9204408658781
11.9645500319898
13.0446694690565
14.5311102263146
16.4007857883047
18.1886868147847
19.3322835577781
19.5621156660254
18.8371355530591
17.0124350800674
13.8302375149307
9.16216898390767
3.0525134876642
-4.27820359806914
-12.1640553439353
-19.3387201484482
-24.2893234345249
-25.8795645247583
-23.9916036012913
-20.007194088204
-16.4096466716445
-15.1853809374851
-16.4141183828756
-18.6645303676811
-20.606150943474
-21.9029744413649
-22.8567288468069
-23.7799353431699
-24.6502335869345
-24.9379112055031
-23.8333660873291
-20.9455934001048
-16.6719184056349
-11.7521990784313
-6.74440390640938
-2.04969309912431
1.99316241536826
5.37239378831876
8.52105203404448
11.8390134941821
15.134405525561
17.7681809642724
19.3885801305002
20.2830768905071
20.8505172796025
21.0068475940292
20.4613653508645
19.3418557063082
18.0017257572226
16.2602055518151
13.4305706965972
9.32670527253068
4.9084668391679
1.67175125013021
0.410144955714471
0.585882390679004
0.954827176988529
0.916475179890729
1.17662700820577
2.92672455054655
6.5108532168954
11.0765080479332
15.2591796955977
17.9011561443445
18.4537696789571
17.2825331976317
15.543643332912
14.262478888891
13.4132340502866
12.1389108125227
9.79902709445372
6.47077665404911
2.44957450593249
-2.3468760457817
-8.20904911507996
-14.9129830771745
-21.3845926576784
-26.2829607639419
-28.8927436451296
-29.3173827874147
-27.9499679515295
-25.0496501106923
-20.7502228982638
-15.1500887750531
-8.39918045388898
-0.957540068531212
6.22701780309547
11.9940462509724
15.5154898740392
16.659378073979
15.9514695433674
14.1271565216676
11.6058253334176
8.48654343348058
4.98814188793133
1.45817585236061
-2.14572255840286
-6.25876522856377
-10.99594988607
-15.9047632089527
-20.5758120385191
-25.0144271219863
-29.2350137826471
-32.856737238468
-35.1769054518251
-35.3682854277755
-32.7515429085423
-27.3418040520605
-20.1271970796946
-12.4867660011507
-5.36903440918615
0.849037911824816
6.08630088749453
10.5185335494393
14.5335971623025
18.3064487588455
21.4801806886493
23.4843089721854
24.1363973128002
23.8266426187334
23.1225444378514
22.2550916797293
21.0303686530781
19.1750225999395
16.6307236949075
13.5569144675248
10.2469630869222
7.03728560480381
4.17789626919638
1.93572573830953
0.903972828677507
1.75231312785287
4.3139219428147
7.34794935991162
9.61780422105256
10.773142470027
10.8053510319875
9.26921450014244
5.73334762066514
0.714873604941706
-4.37420880804499
-8.13912508201086
-9.88125691318371
-9.64473927603389
-7.9126764164895
-5.27052452608619
-2.31009979788358
0.207077143406565
1.38740543500733
0.694632365958097
-1.68269011826793
-5.10346991223583
-8.89684733391933
-12.3137564096671
-14.3965182990096
-14.3917859251662
-12.317011373071
-8.84389917850298
-4.58749592277843
0.258073932450615
5.47905198287343
10.279143492416
13.4791183153501
14.3058272970604
12.8271632672195
9.72307182787352
5.92125179131082
2.32712639351131
-0.575511513134218
-2.97533580700713
-5.33232196869879
-7.76989203357787
-10.1024180822394
-12.2494571294624
-14.2293962356392
-15.8535038857168
-16.6926276288269
-16.2213829447683
-13.9814745904132
-10.0527827163995
-5.48643824055678
-1.71681919854707
0.76643895383491
2.82701986189707
5.65061063361267
9.71975296497717
14.8657777903624
20.6925639988332
26.5013147721587
31.0690798216086
32.9411827882172
31.158157826753
25.9004056912139
18.5656306706651
11.0596741959046
4.75974854072481
0.0101593718002997
-3.6361631089769
-6.92418478681281
-10.4125328663481
-14.0081267010724
-16.9211802648268
-18.3762334596817
-18.4903939310415
-18.3373342277915
-19.0538843641554
-20.8526430684493
-22.8908962424985
-24.073034761714
-23.864943509159
-22.2813757045519
-19.4030252326582
-15.3284585715385
-10.53246741483
-5.89922145106254
-2.31804939981289
-0.273962996515775
0.412379737535231
0.567479423276226
1.0917493980673
2.21696870476388
3.4780773576263
4.34653571028007
4.58741112186648
4.14197240217317
3.19470365162302
2.42877285519828
2.7468364024128
4.54496228287433
7.5272597840876
11.269389845808
15.5877313344544
20.1922648594957
24.2364659347098
26.4437244748483
25.7423731560814
21.9135248146668
15.8069137659655
8.96721370938594
2.91851044658963
-1.43100602482537
-3.95015007335741
-5.02026581387002
-5.1619878662212
-4.91247718216042
-4.91066297120921
-5.79989621588154
-7.83873244580204
-10.5914568416689
-13.0517415874003
-14.1931680566087
-13.6020913590359
-11.5898199167942
-8.49401708267125
-3.98257285877914
2.45868854302329
10.2440051626362
17.431016908624
22.0950596722331
23.769705011022
23.4980025212858
22.8131506666307
22.6803155262729
22.9400868587574
22.4677708255834
19.9866810148092
14.9031998596572
7.54978524490107
-1.02792994418478
-9.39199039558204
-16.2326946125055
-20.9791870907286
-23.8215526862319
-25.0500244718102
-24.6494584601092
-22.6166618621163
-19.2857882175785
-15.1614167246148
-10.7057036018725
-6.39555965436701
-2.75463822852999
-0.237369218263717
0.8375924036071
0.344626364530139
-1.47284291301764
-3.90531759623735
-5.97724642242539
-6.86313594627319
-6.32653381517771
-4.90519688455749
-3.52889306492286
-2.80526157421341
-2.7664641035085
-3.28342045858131
-4.41075209908004
-6.2107714442916
-8.47617567291878
-10.7293188381803
-12.3768982923237
-12.8989588127282
-12.023279587343
-9.72624685758866
-6.14363155505135
-1.68533688757228
2.86183962887243
6.76097146091574
9.94750317132987
12.8799159180686
15.6770026438332
17.7793453267192
18.6335495755081
18.3677390643354
17.5112086725126
16.1943982708908
13.891911117908
10.0831322093454
5.16573964162506
0.558501359284985
-2.35657779976417
-3.5483901430912
-4.57582723906622
-7.32814524921726
-12.2255232299265
-17.5498355026837
-20.7809124821006
-20.7639710511586
-18.4329634514045
-15.4817999139196
-12.808578483003
-10.3286801394116
-7.57947039765032
-3.99021671873515
1.02903676503198
7.71715556493502
15.6999676370851
24.1558844425699
32.0065693147765
37.9955442453023
41.0664579554102
40.9528563205936
38.307387579175
34.2036421340704
29.5426389380686
24.7620212361598
19.8167905684741
14.3601159907036
8.12844562065765
1.3926948543511
-4.84269770821433
-9.23470499039787
-11.1515928000854
-11.6842729301472
-13.3704897687553
-18.2947498879594
-26.120987806576
-34.0739478438446
-39.0416090143869
-39.910335579786
-38.0839951854442
-35.8431400097742
-34.2066415842392
-32.3546966037329
-28.8888161649708
-23.2745586952711
-16.0425634692713
-8.01757413979767
0.303717487832737
8.62158457700178
16.246706465879
21.9268852582252
24.6155442486427
24.4548213621336
22.7006829956181
20.5969600720651
18.5097847923406
16.0630957888176
12.7952945113811
8.70322412514196
4.33704562892919
0.254270761076723
-3.67740423048397
-8.09219636443038
-13.1171969560483
-18.0115517824941
-22.0416812768628
-25.1752969088077
-27.445435210214
-28.0334938887943
-25.6412676758745
-19.8170102744027
-11.5867612636078
-2.66358920352928
5.91231715999446
14.3332738348086
23.1990042196802
32.1483459446327
39.4689434902274
43.1958764980691
42.6434601156115
38.9670960730392
34.2874567281143
30.1268468239755
26.576929798899
22.9468424350702
18.9353762166628
14.8077050744936
10.6487800803172
6.10403027587537
1.02871894552583
-4.05058211862033
-8.42542298227021
-12.0928063129048
-16.0377399382108
-21.3782447506279
-27.8495706653949
-33.2453987079869
-34.9737395927687
-32.3638745851638
-27.1063958955051
-21.5172587672718
-16.9320814142008
-13.7308314158273
-12.0373309368215
-11.7716343832983
-12.2692969818616
-12.4196380659418
-11.4645811242192
-9.64498588764846
-7.92417558623548
-6.9815928118154
-6.53383041536518
-5.67472650589986
-3.67346992985464
-0.286548004916155
4.41725483728209
10.0887008606261
15.8972158681956
20.5956879451187
23.0995444174149
23.1748740185543
21.5193864907182
19.0212161561718
15.9670517482353
12.1156879130854
7.43166166788975
2.51759122695511
-1.58070027073172
-3.83818493580599
-3.80826814718799
-2.07757690623407
-0.0323562025265982
1.04154362575739
0.471068265228633
-2.12210264709991
-6.99279932287631
-13.6885768070584
-20.5626076025691
-25.2068711947462
-25.510646451024
-20.6817180065468
-11.6749538648368
-0.554004252877358
10.8180532657123
21.4065456393549
30.4921564416028
37.2528061730429
41.2490202063326
42.7774124890165
42.2153054008123
39.4232730922845
34.3528648707631
27.8977895427605
21.40971709285
15.2624802605311
8.26719330572389
-1.25384802731986
-13.6971662207157
-27.2953309639387
-38.9367608572536
-46.0856733449589
-48.2379746413951
-46.7362708926368
-43.275238000367
-38.6631343460272
-32.9843040999879
-26.5435567014676
-20.0985585742006
-14.1901384930221
-8.82134849133971
-3.95437835183369
0.209845748100274
3.66209965397018
6.76928346312313
9.72649488244284
12.1761470487945
13.5321793012667
13.4116817028585
11.8545141265268
9.5678530230305
7.81263197527228
7.44640077453256
8.01513581745683
8.20762128763063
7.23859256620659
5.46339545160278
3.69149713841138
2.33037855030549
1.31265515202844
0.480819546594711
-0.25622626577553
-0.983153503248712
-1.63482068412865
-1.68015003837427
-0.190916571427279
3.4738282636046
9.02209263655709
15.3486082248511
21.140011787085
25.2193359882515
26.6384226271953
24.9254239977692
20.2629964654923
13.2298806212878
4.47920978649729
-5.22148229484319
-14.9431971375163
-23.8960990393945
-31.6576371102781
-37.9176764480363
-42.1017143953848
-43.4033860296435
-41.2165854862899
-35.5713848681312
-27.1826917103986
-17.072055546984
-6.2725700923919
4.00198952210685
12.2997932263539
17.6647220694152
20.4992100220271
22.3154704459136
24.5036369843575
27.4365053380786
30.5897934820326
33.2000411867201
34.7392382706973
34.819198335682
32.69417524153
27.2671313075922
18.2650949783242
7.44779350412714
-2.15289554358593
-8.68735613696223
-12.7929721880672
-16.2037787546164
-19.6066831479516
-22.2972411671586
-23.5076358352952
-23.4323706361147
-22.9329167560883
-22.6338718773849
-22.4606797742572
-21.8106619869909
-19.9678092112949
-16.5813982460665
-12.0840985183199
-7.50006243587984
-3.4744558975523
0.345537970589957
4.54895900141609
8.83479340446658
12.2774267701947
14.5962063561626
16.4563784610798
18.4486337313919
20.4029714399198
21.868126024703
22.6735793643462
22.6527065071345
21.1844575646004
17.5128929376356
11.5859518707277
4.42106709502768
-2.38430052181479
-7.55896293208615
-10.8908719933268
-13.2982533513964
-15.9389474332582
-18.8625413947421
-20.6052623150771
-19.5153837089676
-15.5577054076073
-10.4738823802827
-6.07578109673128
-2.7864823674894
-0.0376748491577649
2.38177895106501
3.82976546903306
3.52210302111296
1.49487726634273
-1.06757636762317
-2.39257673632724
-1.17739151092404
2.65177731333389
7.95373523148641
12.9598684099169
16.08239790408
16.652059166035
15.1045274260937
12.4161421419639
9.39982742703567
6.45409198195001
3.55618449126386
0.322662744734549
-3.50142320193723
-7.37659959891433
-10.1524610248981
-11.1101817816296
-10.5517966845118
-9.34101807555405
-8.18327538391907
-7.3000098581675
-6.4843679876326
-5.55396385977123
-4.93483791625332
-5.4805264785585
-7.39424663868836
-9.69437130650805
-11.2099890182846
-11.828687516862
-12.2285111137546
-12.5687528228011
-12.1603705467666
-10.6580189253015
-9.00771087388846
-8.53927918300411
-9.14579886488486
-9.04807136307905
-6.73279312847363
-2.63294209549986
1.50954764485215
4.35662594076375
5.47359409661494
4.82185864561334
2.86442863434557
1.09581470973651
1.47414535133312
4.80845246962764
9.94050321216785
14.8100579838093
18.3208817449
21.0169982351535
23.969253195001
27.3906776577058
30.6039018018261
32.8798696116775
33.6755706158209
32.4224457315638
28.9918344278662
24.329656529939
19.8324733227253
15.9600492381726
11.9342851789807
6.75696842859854
0.177898109783019
-6.98632275084261
-12.8887896265856
-15.3266216569397
-13.2885729094254
-8.12667967134991
-2.87004043887111
-0.167443544440338
-0.686456578205179
-3.01470902067229
-4.9272113518463
-5.23584051261918
-4.80990711704282
-5.61983238812341
-8.60348629653655
-12.6560971902815
-15.8022962140466
-17.0557522081192
-16.8954204093893
-16.2784744549587
-15.8442190723593
-16.0852582717345
-17.3964561913788
-19.3286946957387
-20.3734393158826
-19.3049838333452
-16.5653606321851
-13.8473394229069
-12.6290020366781
-13.4519297543045
-15.9528802010099
-18.9022947750472
-20.7003651056695
-20.5900567706344
-19.2198500471022
-17.6655180162496
-16.2524061518268
-14.6354688999673
-12.5437079064726
-9.96257259368318
-6.90538946499746
-3.52475327869164
-0.349150372834821
2.02288092320665
3.55058299825713
4.84963938219097
6.55883304514407
8.70889174079222
10.820021736716
12.5595379451314
14.1259222245052
15.978970243358
18.4524768442208
21.7584027539925
26.1073085482304
31.5325337970108
37.5606999012915
43.1119867057641
46.8684145683797
48.0685459362927
47.099948179074
45.0923136890638
42.8257017119673
40.2369708983525
36.8892292299708
32.4562733296753
26.7704276603535
20.0071053570226
13.0418207893958
7.17585698468798
3.16119651167128
0.550034833474056
-1.91274829977041
-5.2408068521651
-9.51961626247168
-14.2913738355078
-19.4893246269248
-25.5210325876358
-32.2107969664484
-38.117519886162
-41.3513677364494
-41.0119217154033
-37.8509000301136
-33.8786145503795
-31.241079595378
-30.8232093083997
-31.6740792569783
-32.1223780041357
-31.4680086468804
-30.2030908508709
-28.7388979568583
-26.566882094768
-22.8337806727528
-17.4374271626572
-11.4736064754581
-6.58999649435462
-3.6454338453141
-1.97671974886712
-0.276747013726076
1.91701859796906
4.07772575476135
5.88522970903096
7.78904393237314
10.0733096188022
11.9194959178195
12.0178126485532
10.1435444938298
7.76438416309166
6.81697856518324
7.97813259586092
10.3900725181706
12.9339545836259
15.2293775680012
17.2985564458737
18.9372770639115
19.9400220189563
20.6381434549276
21.6983104409077
23.2899559017905
24.5235338958478
23.7800775902016
19.9417009145
13.6974674225004
7.4307444432551
3.21232299683412
0.81798416396935
-1.82331537342705
-6.13667939942487
-11.2628573076169
-15.0388908552255
-16.3397836559891
-16.3060270690452
-17.3018060956612
-20.5848452663386
-24.8847804045808
-27.3478949719302
-26.0065117488234
-21.3041884270026
-15.2001763163624
-9.05336474467476
-2.77105369768793
3.99837256384188
10.467309345116
15.0806025762857
17.1410869582911
17.5402940830612
17.7859288558625
18.6321802274996
19.7124307751302
20.1789568479141
19.5035225081868
17.765034968202
15.3670199900436
12.6590388211409
9.81918218751163
6.82109675550709
3.4232028627145
-0.434151211517244
-4.02117529163187
-6.00711494474891
-5.56758428548472
-3.09206368059367
0.266117501297257
3.34070705494661
5.2550408658754
5.69425633957782
5.24125221930195
4.89724802181267
4.84752477579156
4.12105177187675
1.86880212752576
-1.33779357877959
-3.83327758868803
-4.36190798700764
-3.17037468950149
-1.75967831090841
-1.574226717814
-2.90182499056375
-5.20795339746448
-8.41741227518076
-13.2012061868257
-19.6162077844428
-25.9935623632237
-29.9521342564971
-30.6273173426745
-29.4610079849295
-28.5311852117946
-28.3506379465489
-27.6676487921173
-25.2737757972654
-21.4387696175178
-17.474468835065
-14.4595169068538
-12.6001692958295
-11.2873881927859
-9.51444937922673
-6.73993391693853
-3.59979746222747
-1.31514746057425
-0.159518407821483
1.05217218508099
3.64422460434709
7.52904733199622
11.2497238246663
13.4628937396851
14.266163067898
15.1490622871865
17.672181828725
22.1570467673478
27.7155366684502
33.4221497145399
39.01353073867
44.3421555469043
48.7169392680269
51.1784535975504
51.0206276313046
47.6495600823498
40.4920686065962
29.9665270255089
18.4386313775009
9.02871805289101
2.76600754609311
-2.36797630376958
-8.69917787217036
-15.6494859148409
-20.2759982235114
-20.7765302085994
-18.4076964622789
-15.9464852617479
-15.2198575021795
-16.2262003822361
-17.742571363404
-18.4166203792001
-17.7725149536506
-16.5005802627117
-15.748382336204
-16.1900766626543
-17.6787200293707
-19.3614292281557
-20.0577495285738
-19.0468124574223
-16.7353288164216
-14.1944749062849
-11.8849051236137
-9.2445755910087
-5.74655067881788
-1.95434876902564
0.895479841871341
2.28756350860778
3.10234861787666
4.7495325635701
7.687208492294
10.9359297432694
13.0324206596128
13.249476425757
11.906466787374
9.93329453962125
8.4030923041958
8.11979665633432
9.084430366456
10.1957852312623
9.75353887651855
6.67456585545775
1.43719189705978
-4.30106519138896
-9.19723464687464
-13.2408026031962
-17.2269773886076
-21.5341787538542
-25.6344923941511
-28.4686798663956
-29.0002884200876
-26.7341003012776
-22.1142918894346
-16.3253290167897
-10.4973042665605
-5.13565746497637
-0.209485841493651
4.49104273454523
8.97052059084744
12.6283417477171
14.4239938696775
14.0389283523458
12.893965104319
13.4006984375996
16.907502954994
22.5615622705877
28.0839088259137
31.2604690499038
30.8101517747464
26.5962818233476
19.7002158690846
12.3240307160733
6.9686422057328
4.89576817078512
5.20812469125007
5.85444709052594
5.60376573749205
4.5966074127193
3.13468804637931
0.958551841404632
-1.81530304739675
-3.83582858116545
-3.45191623338473
-0.508092258238978
3.03839358847272
4.28542503893823
1.37772987901213
-5.0774776063972
-12.2136377395345
-16.7477477832092
-17.2559678781672
-15.2120891941261
-13.7746713130871
-14.956683225277
-17.6532118151796
-18.7777081241619
-16.5695314520639
-12.4949875175444
-9.73999786961887
-10.1065203069412
-12.4613453765745
-13.8874505766351
-12.1829224020423
-7.46182826557058
-1.5823365478346
3.76965156434816
8.17888171909915
11.8304986527684
14.4910178119064
15.7071110434179
15.6152639195234
14.8278394724382
13.5460509028047
11.4241714596647
8.51669407968576
5.78098546905833
4.09417706643399
3.09397349497844
1.76966289985589
0.212280540733098
-0.101977918637767
1.80041883869165
4.8766287265395
7.0364003163095
7.26732996182771
6.31607906908766
5.51547878524563
5.31112959858307
4.74495062805047
2.18868860026911
-3.07309679219003
-9.69940702984631
-14.9524067167249
-16.7313267145791
-14.9440518760215
-11.1333440820858
-7.28495451994297
-4.9539279563725
-4.71259138691368
-5.78503318193478
-6.4636598117346
-5.49035908574711
-3.17815077469832
-1.03288771403234
-0.417211650917805
-1.79549102850422
-4.92836704272052
-9.09826382326046
-13.0210710149464
-15.2091475391241
-14.9842022691415
-12.9840437783349
-10.4272194682453
-8.11841565820555
-6.31855549384253
-5.12914337500392
-4.6270041952373
-4.827007003334
-5.60131672229632
-6.30982600776913
-5.63925079324433
-2.53942086208262
2.50525632092669
7.82266827882087
12.5468804743002
17.8139549123038
25.527720750665
36.0195877105247
47.1149186581
55.5238271326883
59.1956331542752
58.4694077859282
55.1181931994658
50.3886679664911
43.8172978246798
33.7017198559518
18.96226347606
1.12627991616509
-15.5978699106595
-27.0573087494703
-32.4084529631059
-34.3598560259236
-36.2207909837983
-39.2485724572849
-42.6601409174223
-45.0333061492196
-45.166826602784
-42.3987432369375
-36.8667087089552
-29.3401898457632
-20.6372891107254
-11.4611101522555
-2.7670341509639
4.23545322630124
8.75008947633543
10.9520518153888
11.834076871186
12.5663852728019
13.773731645627
14.9851017164106
14.7894229863276
12.124786669762
7.74820539929148
3.95478043261137
2.33212902272592
2.08391235658618
1.04567718781483
-1.95533270807588
-6.27502734960252
-10.5733524001274
-13.9377694474202
-16.0122691022562
-16.8680936812308
-17.0176011470233
-17.0536510608625
-16.9078445448895
-15.6035700648704
-12.0799994258563
-6.51074541101979
-0.708875343802445
3.22444816223434
4.85243485763666
5.66200064491046
7.21676151397458
9.53902752492925
11.5916611360085
12.702764702855
12.8287311504898
11.7436151091486
8.75441129593996
3.43454032054674
-3.51418671374457
-10.0864177920592
-13.6873564779771
-12.4414264810977
-6.26259955018308
3.12390092892608
13.1456193641327
21.5828099277683
27.3309893004238
30.3923915463741
31.2314766721043
30.1830998736215
27.4672448438177
23.5112222300844
18.9604642251818
14.2954827573474
9.36758253952552
3.23997599154843
-5.17072871159937
-15.7437322353494
-26.4366104576035
-34.3113978756361
-37.3128028306726
-34.9988057787697
-28.1623736789609
-18.4271404222567
-7.86404179984389
1.86615793120414
10.1926144292504
17.2220014445169
22.8165262047968
26.3790744430486
27.3716023281448
25.7832899722624
22.2262806275989
17.6611883803268
12.7659706803503
7.50395288122634
1.57954573566295
-4.71050265102139
-10.4617076264755
-15.0978847064094
-19.0636498250782
-23.3335748378677
-28.0516086669001
-31.630063440287
-31.5441114881841
-26.4453774779566
-17.5619401797171
-7.98091981139372
-0.691277592201641
2.78619829179964
2.47296396465894
-0.680584754557968
-5.18898336250805
-8.97871670145862
-9.6867204410855
-6.00558480442782
0.902897698818675
7.74156539558927
11.2305691939689
10.1450142070078
5.7034726896123
0.47272960950481
-3.19800509996394
-4.2187259101298
-2.73970827861175
0.469555446337675
4.28751090105071
7.1544655241328
7.48916709304732
4.61131762971977
-0.805812351491898
-7.02738606645305
-11.7314012279927
-12.714984974608
-9.13632495217212
-2.31168694703238
5.1753773853388
11.2992449487084
15.4689792937792
18.056835598829
19.5784115472237
20.1083306934677
19.0419069004295
15.5727940504216
9.78303612205115
3.18179485717344
-2.14814352751395
-4.98618196954035
-5.48316391432361
-4.40261836150433
-2.20682478582603
0.901708083213545
4.23544442926688
6.43761678003898
6.44461258170186
4.6568237236278
2.98790142991905
3.55789940350729
7.019823864458
11.8963438284994
15.6159128449946
16.3427945364134
13.7562760372708
8.3055512804208
0.515427698658659
-8.5683448134382
-16.9608626933838
-22.6689315644876
-25.0290129986201
-24.6743261065453
-22.3579753441755
-18.4196239994568
-13.4290818440823
-8.65277985188575
-5.31973500098808
-3.4851205069274
-1.97045155675593
0.392695102199599
3.54413699568762
6.29694402802558
7.51667875343939
7.05604741433122
5.64842155883344
4.07041799192978
2.39374280347468
0.017861047056118
-3.52736877579139
-7.9335176500985
-12.3754432714359
-16.1179411629254
-18.5680044517199
-19.1708317050417
-17.9796778453473
-16.2463556410014
-15.6913344830618
-16.8245655445977
-18.260627862068
-17.9871537576255
-15.3207392922259
-11.4614149135747
-7.94371061952994
-4.60696251735314
0.478799126437612
8.81771826006682
19.5442747938649
29.9932874876402
37.935970059725
42.9376703742563
45.8678472315501
47.6317132705038
48.3112461532641
47.1393832456686
43.3205955849497
37.1106804863821
29.9426357659373
23.1115473829306
16.2515766775884
7.40375215169728
-4.9220862077328
-19.3697553376757
-31.6067110719938
-37.2856083364146
-35.5951271253222
-29.7880816275028
-24.1558820240273
-20.5643002705761
-17.6149545614287
-12.6457119361787
-4.54962571810933
4.93120688614988
12.4466708241502
15.5907982264545
14.4368679126093
10.9951945520227
7.42842085997459
4.51749658886177
1.6181716547564
-1.75523220406962
-4.64733789447242
-5.87634038314956
-6.48712309198213
-9.60081662813263
-17.0179086896782
-26.7429391976548
-34.6430510640504
-38.194179416293
-38.1740962563063
-37.0681088361472
-36.2483180212546
-34.5527725769813
-29.4350022775245
-19.6941582535381
-7.21727564751097
4.08967001609664
11.2033769105032
13.9913739559455
14.7911792005823
16.3379457636837
19.8131644033022
24.2578633622381
27.5189311353219
27.9457211870793
25.6292650186733
22.3012377976291
19.9520671563626
19.246613054356
19.0292596951281
17.2555691791646
12.5417681558288
5.25770879518955
-2.55323868819324
-8.53158263587531
-11.5969492457514
-12.1062652580248
-10.5022898970096
-6.57044544143145
-0.524897028850359
5.86139350866101
10.1223969677338
11.0947408974697
9.74277866896361
8.1576174280724
7.83100644478356
8.54075831537646
8.70695931923585
7.01380857529918
3.73680874805358
0.378775481753947
-1.83049937540973
-2.83006403033239
-3.29487904165924
-3.66467963819992
-3.68681374369597
-2.82438066704316
-1.03151250743195
1.06529859858956
2.89122386522477
4.52205417318781
6.13738997269047
7.04615873407675
5.87976554506564
2.09071880860514
-2.91695629909765
-6.58246453621498
-7.54104546248231
-7.25415450663574
-8.82739019658798
-13.7600323658058
-20.0651576333813
-24.0574417053526
-23.9194722896802
-21.1202374130355
-18.437669003161
-17.1386656713982
-16.3225162945674
-14.6810476941512
-12.3521101771538
-10.6797551340401
-10.2730888528721
-9.87284200764746
-7.51234574965621
-2.55781218173172
3.73434395466319
9.53641743915836
14.0270931046617
17.7452388079891
21.6730783047102
26.0273053160915
29.7827160125237
31.3122562593363
29.6598618888239
25.4026560698848
20.2837217769757
15.8238328247023
12.2010088768911
8.56488103642785
4.31269548093091
-0.390858629614889
-5.39650038639673
-11.1268154236606
-17.7139652307528
-23.8799750223508
-27.4065814348544
-27.0096377811737
-23.54372328365
-19.0906228843859
-14.8945106677293
-10.5577958901677
-5.39772726135206
0.0182782089541479
4.35357231761253
7.2124244147956
9.59100734913566
12.6012896714454
16.2776098061528
19.6353115348803
21.4657288151576
21.0822175158927
18.6366264139591
14.8141191395036
10.2509048058541
5.38821094773255
0.731052347256083
-3.16852262961688
-6.04408985307262
-8.0177031040081
-9.41622612530081
-10.5606258258097
-11.4708052787706
-11.6827421069467
-10.7872445547275
-9.30538639751385
-8.43739148073209
-8.61766310636969
-8.94459606422732
-8.52296159873888
-7.75763945692513
-7.52641644332001
-7.23905221986671
-4.53543954371111
2.42884623832419
12.2415741774313
20.2713842421495
22.2879434601051
18.3438653412413
12.6520054574596
9.49259169298422
9.67335170911879
10.9425592867076
10.940745558168
9.11596736445331
6.17599216941612
2.48352029285519
-2.57142669541971
-9.57994378140721
-17.6702678814986
-24.3192743972141
-26.8501316877537
-24.3211126392415
-18.1210332937984
-10.8113720729574
-4.39907670316573
0.354596431359704
3.37566774733052
4.72462690214246
4.7627089178123
4.25616139769207
3.82904390916922
3.52723140161385
3.0851764030984
2.16424857662474
0.104052163907962
-3.81751655269134
-9.11057723652552
-13.4094626885022
-13.9667986211119
-10.0710445248234
-3.77799465163136
1.69387591605937
4.19824499070596
3.71401425133411
1.79467741044099
0.209031520626964
-0.0642291429684291
1.10025566083396
3.46254739117264
6.69261371608548
10.1916764017345
12.94944111318
14.0513691213308
13.6368983184975
13.1303999387884
14.0211858681875
16.3093937141213
18.3951247955757
18.4441029019247
15.6419942781103
10.4097026580679
4.00493667286154
-1.97212138210898
-6.10692113765402
-7.69352083309993
-7.13799948074732
-5.97259677526441
-5.98092658412693
-7.65513560765823
-9.57378949129265
-9.83176664445781
-8.10351780251075
-5.87441837169058
-4.69926847485759
-4.78445006083082
-5.43704025988289
-6.43383111750167
-8.42627891814306
-11.7979515560892
-15.3180110916944
-16.5189945857557
-13.9436105433184
-8.93477699756683
-4.80882530339794
-4.17152142150297
-7.0178213174516
-11.0414501219379
-13.4099170603024
-12.4616371197602
-8.29828754884465
-2.23299290837191
4.16063972649038
9.71421559610218
13.9597093213165
17.085250115554
19.4160043888994
20.7756083205563
20.5780747884816
18.733293737828
16.2774804830133
14.8180836938914
15.1452686600306
16.2462232021447
15.8693422835906
12.6017306909408
7.60376759957922
3.83424562675247
3.15489294611662
4.36936476537574
4.34515337923971
0.935947738621983
-5.25113130220228
-11.6084338360187
-15.6623316224954
-16.5417072160653
-14.8360292447547
-11.6404274220787
-8.037364097304
-5.09518844197061
-3.63734135809018
-3.76075930851235
-4.76953395372106
-5.58470282503111
-5.16077353958281
-2.88687100593343
0.921910459021634
4.91575052053153
7.36316391708811
7.12322409563777
4.27965392688875
0.156933113755692
-3.40319234979295
-5.30369223383442
-6.03862693358578
-7.17868662397377
-9.85223784957184
-13.6683607324282
-17.0809057581366
-18.8019787844166
-18.9102412294891
-18.5521830740711
-18.4926394078235
-18.0360180082889
-15.5534030436206
-10.1750831089079
-2.95135960472209
3.77525345388694
8.32458801079375
11.0328091890441
13.5018994362483
16.5521913805865
19.264896895997
20.0942451148759
18.4589962387902
15.0410011641169
11.0192524196199
7.40719900538401
4.81305477779658
3.44976204728784
3.46241471805045
5.23027645547532
8.94656790118681
13.892793521764
18.7008873386053
22.5440942097025
25.6430262312422
28.3702804935753
30.1596751093377
29.5714010562988
25.4040427195487
17.6910142266058
7.69048492583123
-2.95716629390329
-12.9846543808461
-21.5639582293778
-27.9654520153608
-31.4603341020548
-31.7696056686455
-29.7462726973006
-27.4002984529665
-26.5933143559698
-27.3145858473135
-27.6198906712487
-25.6934989772529
-21.7371180065167
-17.5597344129845
-14.6675426504256
-13.1226931176476
-11.9807711650684
-10.3700016933101
-8.10348616904022
-5.48160807822506
-2.74231434815744
0.101976144142373
2.97682704774738
5.74067528886119
8.67233354470231
12.528074531628
17.6390528006331
23.1003876368123
27.2983891084365
29.3802934918799
30.0763175925195
30.9402458552016
32.7166962992006
34.5162887106313
34.6381263042332
31.9550045956251
26.3152706357856
18.0932468102174
8.05210231309538
-2.43952074076898
-11.6744043575783
-18.3287596406282
-21.9633062511881
-23.1553336662853
-23.2400040691305
-23.3979337416049
-23.6862752963117
-23.2917778025038
-21.815437097569
-19.8529078295387
-18.264304862977
-17.3805934194094
-16.9717975011396
-16.4536099180538
-15.0042774631402
-11.9991024092752
-7.67150279378091
-3.17481673281185
0.232370525963366
2.09911409755412
2.95460455582441
3.72526433834602
4.9904169432115
6.631288035319
8.05854037371986
8.81266779378513
9.05208160355563
9.45494226313228
10.5357822660936
12.0504443032916
13.1833443919897
13.2637114527297
12.0854877244249
9.63614481795592
6.01536429082621
1.87948131299725
-1.32830495136897
-2.01156004603989
0.450653540208803
4.99841186452344
9.29373359447646
11.1967627991412
10.2753749175245
7.94957632442321
6.08570979995803
5.51193657969349
5.88422111478037
6.63416080569611
7.58167215009478
8.4925867991646
8.41774165545115
6.12746673068865
1.49320569495982
-4.0483435406868
-8.99187485168373
-13.425505961773
-18.4595613333146
-24.1238116928097
-28.7456153744734
-30.7093594770104
-30.1292252546918
-28.2748253322578
-25.7510232222819
-21.8231256307051
-15.5447808121284
-7.26503522925804
1.12725465618908
7.50541032633311
11.054278498056
12.5015032902562
13.0170074876925
13.2354390994053
13.2710605204551
13.126207127638
12.7733693447771
12.0369918816808
10.6222125678502
8.3178172867213
5.29219195602843
2.30583381103603
0.481898216311183
0.550298860258805
2.1195245981817
3.74088054950902
3.9852247775103
2.74888602530276
1.37446235146626
1.12710932304368
1.67050989778302
1.51292751748947
-0.171430252899807
-2.76339178055215
-5.09191343150903
-6.30409700520122
-5.84965726804239
-3.55871324551464
-0.0924877426263207
3.44408829196461
6.83671270156964
11.1322390599794
17.0429388444622
23.2459373650647
26.9006323430498
26.0129017816931
21.1082708802984
14.5792703697772
8.59413640441341
3.69719128259994
-0.861470203179936
-5.92548995141318
-11.7369855629016
-18.0272168855938
-24.1957043623189
-29.2077899122882
-31.7275108653771
-30.974270109706
-27.6401082226687
-23.5700523735667
-20.1960136988194
-17.4747969226874
-14.5670470514585
-11.1776976571962
-7.78756272618359
-4.82868329732967
-2.19966108288247
0.365938867738342
2.81996833304338
4.86570179056193
6.45564581081705
8.10850634611258
10.4807438724304
13.4615159298354
15.9417152932703
16.7866049882677
15.9527828157658
14.5253191209407
13.8450284984165
14.6161319068652
16.4327544460159
17.9213071145689
17.6336420960656
15.0685480702823
10.7537255575618
5.42308338150224
-0.527702282127414
-6.8126711268212
-12.963048134555
-18.3857143830497
-22.440583786876
-24.5364163685423
-24.4966530918362
-22.7317385294244
-19.7028024324406
-15.3409659316567
-9.42310795973232
-2.56999241564886
3.50899353408806
7.127659047692
8.02734090070124
7.47382813531191
6.91318246148828
6.83254377723991
7.03841354260414
7.49194590123611
8.36280149078838
9.60225996061458
11.0378403483413
12.7307709435233
14.715552443042
16.3894203599708
16.6197110286089
14.7893949005478
11.7506362447809
9.47433224745195
9.39487065212149
11.0398806104142
12.4520864115434
11.797970447169
8.30771138004123
2.15748376502187
-5.59338300808562
-12.9400130060362
-17.8694438758574
-19.9353652673601
-20.4478832718542
-20.8546965276148
-21.3993947229526
-21.4755846399491
-20.654878930716
-19.0108580233998
-16.808981651473
-14.2545769690712
-11.5096544524682
-8.7941882301457
-6.38250808703922
-4.49775686535233
-3.24485840545742
-2.53950948576344
-1.92251721424853
-0.588441343418448
2.01038725246158
5.50286042088038
8.73956260535045
10.6203980011794
10.7616268224443
9.54560295770975
7.58387984756058
4.9501749477011
1.09933867838289
-4.01318094262312
-8.89649927949944
-11.2978773563462
-10.1743869970097
-6.53343781395434
-2.38127518567321
0.728204532300339
2.20497209469806
2.1331786658583
0.921317101976662
-0.629854963368955
-0.904022720301141
2.4799393269831
11.2852255095233
24.6897934058576
38.8816524099436
49.0745846439142
52.2075422783625
48.1564565714123
39.0900144974817
27.996874553994
17.4347801413745
8.869062707213
2.21199056533474
-4.51710529519476
-14.1366070044971
-27.2097253942581
-39.792919701456
-45.8571394941206
-42.9485286102702
-34.7041652897474
-27.113742820081
-23.0159360072234
-20.8807283238934
-18.0853125784506
-14.0319144966951
-9.98449906551534
-6.98864988651039
-4.84835246915848
-2.88830383897128
-0.897066756473654
0.90066086483015
2.30079849276553
3.25679039153063
3.83337224948747
4.26266630150181
4.96285880780722
6.39855698143596
8.90076685994758
12.5490743046823
17.1224637951321
22.0455047413404
26.2826969460559
28.4934727015031
27.8319670874195
24.7714469856331
20.5921097026911
15.7030620507642
9.07802340513052
-0.0675202013182739
-10.6106133174042
-20.3279086290917
-28.0111717422736
-33.9317919193996
-38.3092510442732
-40.1868750001921
-38.2781186781344
-32.6536274683751
-25.114481864699
-17.7290944487915
-11.2846964835132
-5.43383112676356
0.0232853320041247
4.61674789764912
7.83794288582732
9.70663263532187
10.7334533669736
11.8057275170658
14.0355725234368
18.1091214949531
23.4983341911634
28.5071598577743
31.3540577551618
31.4010920174933
29.3872187571515
26.3916338530147
22.7362889942123
18.2812076671372
13.5408724271049
9.51045140235112
6.0217374286494
1.2439194453265
-6.27519459160441
-15.5415136941374
-23.9179396189719
-29.6301103966907
-32.5794580020823
-32.9708890346198
-30.4310196969014
-25.0130287752634
-18.3106134449217
-12.693670628268
-9.34870887928396
-7.44932632555857
-5.34955188727364
-2.26244009169159
1.3775246393171
4.75625478397596
7.39807805435925
9.22860477834272
10.4703907938372
11.6399713194067
13.3448219701927
15.7577716517009
18.22548380502
19.5711212274242
18.9683574726607
16.4730937792089
12.651626879337
8.0471378715192
3.34217424549228
-0.450378350505084
-2.79416709300581
-4.58591610777561
-7.58828649875547
-12.6711869627293
-18.8395433955898
-23.8936832585735
-25.8317571044137
-23.9688770097897
-19.3064060056926
-13.9577299992617
-9.940606115197
-8.17539138487554
-8.19351363243241
-8.44282227585858
-7.11672596439251
-3.29611365806805
2.58718751887492
9.59239446000245
17.2335793865042
25.1322948546722
32.0908934906861
36.3332166079368
36.836995306002
34.0847495350201
29.4246102014725
23.9041191019775
17.812238030022
11.136884478441
3.98670044267119
-3.69119253704704
-12.2270455467613
-21.1957469985805
-28.4477097479852
-31.2627753361715
-28.9146655077226
-23.5565257976228
-18.2980443373413
-14.7439348726886
-12.4323814407472
-10.1605096158272
-7.47198590900377
-4.84462709785468
-2.71390334073444
-0.841202726717339
1.13513017105562
3.01979108725664
4.34674833248646
4.95383333560985
4.88590279898159
4.15853788954751
3.05820383216522
2.2892412484202
2.39771088856392
3.38103703721546
5.1399134279302
7.76378966704673
10.8723857300692
13.1131157447212
13.0033880569578
10.3565850072961
6.61745778712307
3.68087772928215
2.36142350386221
1.91803323584755
0.879876872111788
-1.81164953964119
-6.27275183557527
-11.7109301927545
-16.6149772231309
-19.1645977962805
-18.0747815333907
-13.5445439238026
-7.4770359009694
-2.39616087938468
0.344424522986193
1.36309232638924
2.12202466035163
3.2505603132774
4.3402486022321
4.93477527404559
4.85672626842025
3.71739427767996
1.14435145500351
-2.24037897344756
-4.88137905359683
-5.79528557802595
-5.56146273694785
-5.36877427997913
-5.2610859354534
-3.74680337519794
0.598540733604709
7.06473671590278
12.5121713359863
13.6125493048861
9.78564073896315
3.93703122612898
0.173870965208761
0.693159508599113
4.54787889468591
8.88007132493275
11.1681705634874
10.7254082283817
8.68943815485599
6.92425180563289
6.73001194901252
8.06512623805262
9.72523247551069
10.4297809953963
9.8320356911409
8.37940684051697
6.42744692847698
3.95091165837678
1.00594249273457
-2.07579857394452
-4.98091028840557
-7.54728371487865
-9.76430143475406
-11.9924004102513
-14.842659911817
-18.2991584502104
-21.1224639168905
-21.5312187312156
-18.4938092236056
-12.4671575213997
-5.30575428692891
0.571404156787839
3.54505197956511
3.70123214216424
2.2860893136024
0.321538728128973
-1.99677376061504
-4.65757074481449
-7.07006183289864
-8.27931656882537
-8.02728118646773
-7.46204822347536
-8.35752970994327
-11.271786461358
-14.7020411292524
-16.388119495325
-15.1758578888019
-11.3520134402788
-5.78065916304624
0.580865664919577
6.66097854972352
11.5865494461537
15.1795766912117
17.8588153877865
20.0135588948245
21.6350379760853
22.579582439291
23.0056086638755
23.2427332802516
23.0676722408427
21.4080101476453
17.2610761578892
10.9958279932101
4.46816503925552
-0.260005712350239
-2.24074830764455
-1.82984616324277
0.0586332741587952
2.58267377402902
4.91502794667297
6.11606100997985
5.72391986149708
4.43320329226466
3.50297451789204
3.23849618224608
2.58920444931493
0.546239978734394
-2.57085949652615
-5.62713420865076
-8.04251070483628
-10.1096012935821
-12.1235370924753
-13.7010711955892
-14.1098792148661
-13.1478034190738
-11.5997804374397
-10.7669469116675
-11.560741456308
-14.0636370239176
-17.6583506899951
-21.1753058481474
-23.0966249919481
-22.266127056632
-18.6964515414407
-13.5368836052198
-8.21796190887875
-3.68738840244567
-0.247551550274515
2.24248721669876
4.16301063904964
6.03931771521321
8.38455461145308
11.3081547219226
14.2638092667521
16.4787946726715
17.583210028232
17.4310979888768
15.5565800948073
11.6834255234323
6.88174824277681
3.29117756866551
2.17550174386082
2.70853960138422
2.99122338666282
1.86294165057374
-0.49152283521044
-3.19158525117671
-5.44223590998448
-6.886239617499
-7.59262806104731
-7.81230714930116
-7.75014581904928
-7.565847934856
-7.38076586074452
-7.04003482238943
-5.92823247963663
-3.24426341652119
1.41597560780477
7.67132819669737
14.4269443599757
20.2512764432247
23.8049523415769
24.3632696199029
22.4596609348048
19.9738777571783
18.9090677427207
19.6143778860058
20.3547776432814
18.8290273263437
14.1416579419759
7.54303622096597
1.52805893692415
-2.0293206894783
-3.27549222950739
-3.91760982509816
-5.32083765873791
-7.38717213257011
-9.36226315430432
-11.1249166611034
-13.2508225030227
-16.1156817540703
-19.3208589104536
-21.9788444752458
-23.4581919208005
-23.8312482326814
-23.5343704890325
-22.6640314608753
-20.9033801688157
-18.2175530277667
-15.2890166813039
-13.0716644919085
-12.1164946780668
-12.3736125141176
-13.2986554293623
-14.0116961282383
-13.6794203998099
-12.0055731714219
-9.32134042666655
-6.1802800971819
-2.89351318390233
0.600805599952143
4.44370785401999
8.41808775376524
11.8744626323967
14.0992260649658
14.666876392843
13.6508923948396
11.914326473064
11.0029782399914
12.0221994535972
14.5055432754802
16.9823578254431
18.7301958925106
20.4061150547984
22.9801016481324
26.6792492615689
30.9717936683468
34.9527577146016
37.6189805984037
38.1198783429956
35.7881335520513
30.0120004193116
20.7651586827436
9.6625583366252
-0.285594371084469
-6.94160890833776
-10.9591883116437
-14.8395948828571
-20.1407442063509
-26.0438873950786
-30.5415284732258
-32.5139583989601
-32.5067179543894
-31.8715267842126
-31.5779117507827
-31.8025935554238
-32.1231292671245
-31.751402189855
-29.8848743670101
-26.2690751237968
-21.4047620642688
-16.0723686981073
-10.7622172100373
-5.59236425538032
-0.557030907592238
4.26043869261091
8.63896300574813
12.3556178512484
15.3784160570785
17.889505268143
20.172906767726
22.491237969071
24.7970835559575
26.4075971001252
26.3450699044368
24.2990723638787
20.9006022825755
16.8170827770186
12.1199169921938
6.95145848201203
2.30063050575268
-0.51805721232302
-1.12334025642355
-0.585065931324251
-0.712120030032526
-2.74003806093963
-6.4632870292953
-10.633478313729
-14.2578834418953
-17.2033498983041
-19.3566726599403
-19.8371855842992
-17.8000416906746
-13.7812324648057
-9.49484588392638
-6.25008900004024
-4.03802284129756
-2.14321341972606
-0.131332560857783
1.94642786737576
3.94407917023231
5.80184827307971
7.31974741817831
8.01408800140299
7.3650107862001
5.18947056895135
1.86052976301066
-1.63007243425153
-3.9246741124414
-4.03409862144888
-1.98647952620882
1.42030977099739
5.46143504249032
9.84308257764901
14.3652699268021
18.5993752359536
21.8989493686716
23.5667581559324
23.1780214826201
20.9250539180361
17.5065380593045
13.6094701288094
9.62997142308691
5.73195620418034
1.79848633109198
-2.57027101041777
-7.56505878670483
-12.6997524979807
-17.2049677131879
-20.7997080085675
-23.7080312051837
-26.0703071957371
-27.7544308591357
-28.6059440352741
-28.4694251222615
-27.0488305704942
-24.1353028053092
-20.0768039155209
-15.8849871567226
-12.7358449158269
-11.2196310119558
-10.9609483246405
-10.8755744917557
-9.69470814904789
-6.38563976457951
-0.560093969783468
7.20947815433176
15.6248139189691
23.3166723839882
29.1879451874154
32.4445933922151
32.9126350753899
31.3241932567789
28.8145839130673
26.1635849382527
23.7559526923006
21.7734070772801
19.8561749894534
17.0727713047555
12.9453786995736
8.22213600493636
4.11517125517388
1.06865856219139
-1.35753893318063
-3.77646750527685
-6.52082109147748
-9.55821554890423
-12.48549301908
-14.7334008762957
-15.9004103412308
-15.7959975169994
-14.3348490775455
-11.7653219246281
-8.97773159043982
-7.23153455267629
-7.38291242910846
-9.33144181637172
-12.1376410675162
-14.6485750931603
-16.0660186823732
-16.0752062761096
-14.8115733668798
-12.9553879440948
-11.4539025607365
-10.5776813318268
-9.40482214162347
-6.73047299269116
-2.36970256514033
2.79483092984479
7.78529984075286
12.1347185409554
15.8030553354739
18.9624101961039
21.8084906516602
24.3652715606673
26.4713453123977
27.8692833290711
28.189653342716
27.036223052771
24.2224763838737
19.7322656707058
13.5416224060491
5.95217334208074
-2.00216767238418
-9.19179002868731
-15.5163015007489
-21.7072040149088
-27.8776764044068
-32.9819527775963
-35.9960488739883
-37.0577810735988
-37.0953754432737
-36.6688623103994
-35.3879490017195
-32.2750821478358
-26.6920799577107
-19.1252964909122
-11.0173800247374
-3.6263768489033
2.94413724502617
9.55287036045013
17.0303598248073
25.4268799550406
33.8750403441206
40.7688696935876
44.2652068328695
43.448300236861
39.5444382156645
35.4749425819614
33.3805351922921
32.6554394760952
30.9784417465488
26.9982118270919
21.2460085522835
14.7444467232353
7.92785797002273
1.18814164939263
-4.45872177215613
-7.85457112607787
-8.63653969433936
-7.61260896913567
-6.44282269966481
-6.82303998869363
-9.5049106598347
-13.900235230746
-18.7320371181591
-23.087458382407
-26.8175021485362
-30.099388853583
-32.8521957381347
-34.6371935309808
-35.1002232090046
-34.4697459769648
-33.4610145071945
-32.557372885206
-31.4820616406526
-29.4790167678748
-26.0198182610033
-21.197208759319
-15.5924490319858
-9.91227105347126
-4.7547254623897
-0.546007802247448
2.64428661097907
5.39169917628717
8.70733711316741
13.2023925770886
18.5858451541191
24.1533941921747
29.5393358489444
34.8417867195512
40.2659799549408
45.7255485978333
50.539586407871
53.5847283584509
54.0747706813932
52.0881242505493
48.1159158263405
42.4914520559641
35.6173866361633
28.2189280200224
20.8186220962261
13.3493740835085
5.70924649956739
-1.81644444958943
-9.19759743061199
-17.1952749419988
-26.5663815968449
-36.9666082145211
-47.0885763296471
-55.5795738439317
-61.459314022143
-64.1181713190505
-63.5699437136933
-60.618606245026
-56.2907722148941
-50.9377060679509
-44.0225054787301
-34.8893300527277
-23.7502046488151
-11.9450639891786
-1.32595530271721
6.66506055627084
11.6771492147532
14.5371137833148
16.5285848714777
18.3570338367174
19.9147657037258
21.0674467915343
22.298667826958
24.4412327005382
28.0802718811738
33.1649692127116
38.6959141755208
42.892182348433
44.4287160870643
43.6824589693499
42.2311008255969
41.0672069837553
39.728780931031
37.0548526497065
32.2951868296865
25.5944435058001
17.863133494943
10.1051447937212
2.51099494127428
-5.67435283413982
-15.0829365342772
-25.1970138258098
-34.7069971054605
-42.7097244447167
-49.1599389281432
-54.1768002760342
-57.2749563970497
-57.5132213086032
-54.4269731558144
-48.7839705189261
-42.3564905101626
-36.7743043254183
-32.3286453357658
-27.7829754007737
-21.5673312930189
-13.3385788345245
-4.21750345530861
4.50386679633149
12.4456524928058
19.8626724176488
26.9482739492637
33.7491099313053
40.2233571940212
45.9968787072972
50.4102685993539
53.0199316796461
53.861946026427
53.4027993396691
52.5021231262462
51.8539918472661
50.8660824262932
47.7346491815017
41.3967643071027
32.769626122656
23.2997367748526
13.1216221821852
1.69188330678522
-10.5116480993377
-22.2876618846251
-33.4194493215213
-44.740597527856
-56.2003002705563
-65.7641369857285
-70.9033735603153
-71.0712779126053
-68.3681096836798
-65.5972838323277
-63.7696685051397
-61.6838268669608
-57.666362586584
-51.0937552801644
-42.2306663844181
-31.4921949342967
-19.540539213091
-7.76722545197422
2.09843216216915
9.24367034962616
14.5037065565434
19.5938574107762
25.6373333213677
32.5849422128197
39.7745183873755
46.4969821283142
52.1249874390997
56.3676783971743
59.4264376749322
61.2886222049186
61.0130789716381
57.5896491688857
51.576085618849
45.1481505582081
40.4160417947388
38.0085235126023
36.7971631827632
34.3206251234053
28.1279312902017
17.8625441940481
5.82761434467793
-5.48058565753184
-16.2298374733522
-28.6384289740277
-43.5000764430799
-58.3242070946857
-69.3051743033132
-74.5151993873751
-74.7610939634807
-71.7714585625036
-66.3147059067032
-58.4069865963731
-48.8598067043595
-39.6365831507666
-32.1987380317597
-25.9770896902656
-19.1217850186364
-10.6855163110869
-1.55278492948876
6.82253497860202
13.9886636022621
20.4561003445384
26.694419420607
32.9566904647359
39.7618221445619
47.4665695896956
55.241764245852
61.4127542561545
65.0906230015734
66.8077458793297
67.524542909658
67.7336783884499
67.4367232387395
66.1989321695596
63.3016207894204
58.4026428692973
51.6100976810451
42.3591574292353
29.2656615722765
12.3900815978389
-5.28137805255545
-20.6729837829286
-34.8429633955598
-52.0865181627066
-73.7400620820944
-94.528007519927
-106.948206110287
-108.876358186409
-105.182397853191
-101.640197858895
-98.8754522702475
-93.3451581362862
-82.9211531738291
-69.3471752382596
-55.1786797525167
-40.5277719147056
-24.3339405288754
-7.79444562304748
5.4694877824399
13.0799782250044
16.5043618269713
19.2177769738279
23.1090940526631
27.7472113314207
32.5968889807494
38.3742901198489
45.855966945014
54.3890333853428
62.0925390501126
67.0068398223658
67.9687048547776
65.0973159930593
59.704819613907
53.2899726799992
46.2990132468987
37.6939016949298
25.6747078214096
9.45753707212093
-9.54858164724401
-30.1751394254232
-55.1200989463744
-86.2645846448546
-111.958067870488
-106.845851546615
-56.7508486155426
17.9957159719059
76.4384441191551
95.8930150135991
87.9502340086271
76.485595110985
71.6399416228038
68.6859881683432
62.1607524153274
52.9945778964362
44.3511810445027
36.3116428936249
26.4716795365806
14.233164254155
2.57132560001015
-5.08811529003183
-8.74208816694087
-11.5425270516555
-16.4089538133138
-24.2303027107072
-34.8759080420248
-48.034254816729
-62.3598418283049
-75.0498807816719
-83.561130876481
-87.6401909198665
-88.9504645937609
-88.8610022249316
-87.4308728297228
-84.4700840815568
-80.311644127648
-74.8544035957346
-66.7584962728141
-54.5704763461457
-38.1411303302623
-17.9604747576099
6.28217923027937
34.4416326380749
62.4362804842261
82.147454820266
87.7849748263384
82.59949446433
76.7426809611625
77.212065031044
81.6357696363511
82.962663973441
77.9240909997861
68.8595209037155
59.1738926322366
49.9402753901313
40.5366107122866
30.347070532022
19.5500554158322
9.41304769713342
1.74982639584273
-2.8153436361263
-5.84637429111091
-9.63847578600865
-15.0145362346483
-21.0930755477181
-26.838500096588
-32.24555382566
-38.1564735065223
-45.2256398569892
-52.9214571536945
-59.4286529167887
-62.7943160992262
-62.5125318196317
-60.1544269341622
-58.3624965844504
-58.8827081937682
-61.2145923867947
-62.9788277143131
-61.4232970638295
-54.5308143847196
-41.1891004175605
-21.2982873943308
3.45051560267529
28.8193221390993
49.0168650617727
60.1370514863451
63.4788167826538
64.5095304188737
67.4970071231283
71.8926929870902
74.7740445073433
75.2670523660158
74.6555300657918
73.1999732107544
69.3137729948901
61.9722456036625
52.2567857621835
42.2808389035868
33.6109907501309
26.5712565301744
20.0286331934338
11.9359963797846
0.955954269291323
-12.3645731632305
-26.2667436533953
-39.2194315277966
-50.497516520126
-59.9774934235048
-67.7781217968735
-73.7536815970695
-77.1431583701527
-77.057883768155
-73.5063879821518
-67.6824700649977
-60.9770429231365
-53.7610450579424
-45.3420164846608
-35.0640906672604
-23.1468618765194
-10.4501883192767
2.14178038358071
13.9689137398416
24.6070007365499
33.6366750134762
40.0150055630933
42.1258679551516
39.5432274078605
34.6814087323671
31.5477369499586
32.5500261521898
36.9335153218171
41.7522778705726
43.5536892307674
40.1079838278771
32.1512781961172
23.2347206821014
16.6024915014284
12.2735449818884
8.00943769702587
2.71594833002002
-2.22452335902713
-4.85467646520766
-4.90553626171399
-4.08199133388496
-4.65843927665627
-7.74990267479114
-12.5625282079275
-17.3803150917431
-21.4646532053579
-25.8503081416746
-32.1608268456672
-40.7477005423928
-50.0019828903098
-57.3269198458331
-60.7804840481046
-60.1354083012651
-56.7855721170712
-52.5408383584788
-47.8847947056703
-41.1383444264129
-29.8669262984805
-13.5599504825589
5.31736648082874
23.0401335559558
37.0278584018223
46.8265368077241
53.7956102203202
60.1327970137234
67.3723727971835
75.3716982744739
82.8296255963329
88.2668619611845
90.3082734536874
88.4570431342077
84.3106070324808
79.7054302797925
71.9931333373014
54.268445938071
24.0645263612757
-10.041192476812
-34.7928233747134
-44.7328132290101
-45.2241809900795
-44.3336127688342
-45.6390226302689
-48.6484185123112
-52.1116375554744
-55.1870362156261
-57.2610199468554
-58.1778240675794
-58.2739181563691
-57.7559978359046
-56.3673225388595
-53.7344631111222
-49.6895135192787
-44.2367355686454
-37.4108226854671
-29.0834210570327
-18.9398787087712
-7.09846766648269
5.19306411514182
16.1138262023725
24.7155881795079
31.2229887362302
35.868818367543
38.3674466450014
38.8815326088898
38.5968208468349
38.5940977427042
38.47201183623
36.6761632076243
32.3002817382107
26.2461986726875
20.1866375720089
14.5376029833231
8.4864777261814
2.52431834573606
-0.507286313636691
1.29488644391769
5.16411447387873
5.46312147988026
-0.300525921703183
-8.86616449194406
-15.1525849659679
-17.3194024316616
-17.2468174528843
-17.4741601345014
-18.9735026126765
-21.2600413480745
-23.3300966579504
-24.2995544372723
-23.9299163254211
-23.0081645540443
-22.8252369059055
-23.7074498909306
-24.0866766897396
-21.5152428866623
-14.9069208895253
-5.69856052625247
3.36551744903633
10.6186200964769
16.5204598730448
22.2781692321673
27.8216114408917
31.8130963076889
33.5988347807063
34.1085790836112
34.2829467570764
33.5679658579083
30.9730215684641
27.0743962431087
23.8550942602782
22.5495130432133
22.2693929317617
20.79309436996
16.5002519906354
9.78180554780167
2.72238994151337
-2.91128399060782
-7.38932247333365
-12.2976309531579
-18.2374562388685
-23.9909463694311
-27.9963784682247
-29.8691840777206
-30.3474980516899
-30.4472009095689
-30.8262443893533
-31.370559410318
-31.156934665709
-29.1657565262727
-25.2260673437524
-20.1759008791914
-15.1426509775832
-10.8191508571683
-7.33768529332573
-4.44667026500327
-1.56170456220078
1.97987244652204
6.05825643684709
9.23865198561651
9.95280468134673
8.52328985910123
7.29316644066337
8.35029831763792
11.7368567188955
16.1802215870189
20.7494803893617
25.1535199182715
28.9136079249662
31.0101097126181
30.5471840198162
27.6264952879383
23.3244518318674
18.6234130404957
13.6381993975906
8.31087405893801
3.43774713146896
0.0327523283053743
-2.28416963751855
-5.15074070218898
-9.36480448511972
-13.8100440247474
-16.8676032986255
-18.1155715267883
-18.2302762627764
-17.9668346689282
-17.8329500890519
-18.3160435851809
-19.7596620213617
-21.8923142876657
-23.6586204128001
-23.6827572679702
-21.0909837570499
-16.0793854772682
-9.76939746497163
-3.45185944239874
2.20085465133771
7.34424012025804
12.4547489747807
17.6547309810422
22.5251648635365
26.3228408355078
28.1495673516819
27.2935197490793
24.0406002920932
19.9925330393441
16.860266669482
14.8679599531241
12.7633070690919
9.18192684670911
3.5698311683228
-3.68485007079701
-11.1730889017456
-16.7890086939942
-18.9693851997566
-17.6968235608361
-14.0848340905422
-9.43260442167141
-4.99837419420825
-1.95572216040608
-0.791225758437586
-1.00939380351891
-1.89141201879078
-3.30365241837706
-5.53558673365329
-8.66368355025422
-12.20468306331
-15.1086051716628
-16.1716582516398
-14.9614066229373
-12.4599694582143
-10.3891181093267
-9.59358122362264
-9.18033109789653
-7.43099322205491
-3.49929123247071
1.95604570013625
7.61801845580059
12.484498622444
16.0027399125981
17.9790903095873
18.815845139266
19.3843276887578
20.1953788339055
20.9207203925414
20.8977944564135
19.7398204526389
17.3865593802664
14.0508015889726
10.2293968392096
6.38373520939941
2.5923647638293
-1.23419952680089
-4.97816140720558
-8.35361661938381
-10.9931752848592
-12.3829243397287
-12.2863232296186
-11.4538595028414
-11.2419992477693
-12.170192834127
-13.4138214771843
-13.9693084807832
-13.7043301501815
-13.0477933750732
-12.3135591827509
-11.6321713710518
-11.0286675450892
-10.2468939377275
-8.7391203382722
-5.96974820539128
-1.67208297444643
3.9889963139208
10.1775595651433
15.3688167104191
18.0155315674149
17.621550370733
15.2149321260972
12.609843699385
11.1021382855148
10.8071684390599
10.9599931539078
10.5348847811613
8.81634997718683
5.95372221186934
2.94672386480446
0.579583448845722
-1.53532655313509
-4.27895517516077
-7.55403526165098
-10.1929488432289
-11.2564534244257
-10.7723689498505
-9.28881089349949
-7.36929996653875
-5.47130235600247
-3.63707893600212
-1.20523432057171
2.63403522023758
7.77210877117148
12.834148562967
15.9050762585416
15.6597306754466
12.215350347743
7.13954349198098
2.28225997731859
-1.77558689003343
-6.03721337289411
-11.6702558110604
-18.3436934144264
-24.1588130477716
-27.2245660476628
-27.1193695475686
-24.8093806315449
-21.5064184335894
-17.866250306997
-14.0088429835763
-9.89994887354376
-5.69440908024246
-1.7736467365192
1.72920758599355
5.37912916176222
9.94078604302997
15.3209307295347
20.4629208754662
24.37079359762
26.7689856615704
27.7990991581637
27.709789326474
26.9002680677871
25.694741786211
23.9995711977373
21.5546564844173
18.3982364769249
14.7449765762073
10.6738199338507
6.3014766939735
1.94367648260963
-2.23823128327302
-6.38051249386975
-10.4492372299541
-14.1529250314005
-17.5832905516038
-21.2603875910444
-25.1081245643748
-27.9529450894697
-28.4986986259299
-26.4850527498895
-22.7081655191666
-18.305168858317
-14.2230476757414
-11.0356229435861
-8.9075117881799
-7.67753985733605
-7.04826119666054
-6.70247707564886
-6.20066742220628
-4.8904362513499
-2.2710049982969
1.38824463741223
5.12237381912454
8.23600542565632
10.8977511862267
13.5224331758392
15.9662136185621
17.7146736566439
18.5885874507924
18.9808203276841
19.5804086163978
20.8695815126511
22.5713190307907
23.6845540732275
23.4377444800377
22.0119096189049
19.9077240749683
16.9372021963396
12.444343817055
6.25627760716633
-1.2207661540219
-9.56821550487264
-18.2402926906529
-26.0055397859534
-31.2963341830957
-33.3077664661777
-32.4170460279513
-29.5889916599881
-25.7058200201547
-21.3944301712833
-17.1584619481612
-13.535214584744
-11.0946351064863
-10.1465283790721
-10.3024523163097
-10.3568733945715
-8.85421806396403
-5.08473499625079
0.369793159658028
6.12472696713786
10.9921077825122
14.5418851192793
17.0362328867899
19.0699682091009
21.0230845428898
22.6260495903104
23.2497731617746
22.579471305464
20.5325864023676
16.6967767898807
10.8131378467374
4.0016978587824
-1.43290369566202
-3.85315312961028
-3.44376396891055
-1.533559752007
0.473734976032525
1.49855028540498
1.10804592259749
-0.125407447607102
-1.12422081145528
-1.44032891161527
-1.55427933173159
-2.03969141414747
-2.87476360973125
-3.61108317419022
-3.83384844578728
-3.41961517738088
-2.6722861142763
-2.32482484267952
-3.22112205358888
-5.77136208942475
-9.55983443691033
-13.4255760061755
-16.0075206428287
-16.4047285490966
-14.5628722626965
-11.1949199622866
-7.21638687412104
-3.01835103909913
1.67335982409121
7.04592317606223
12.456528356209
16.6938722827253
18.8238798284336
18.6060685843723
16.4817895415831
13.4965414236017
10.7569824153551
8.46206255772484
5.81964983725713
2.28592700579178
-1.57839731806533
-4.89222218206742
-7.61358005119333
-10.3718649829554
-13.3436471871405
-15.7064748967961
-16.2545539894045
-14.5284463806408
-11.393586315854
-8.33901734221392
-6.02806554566167
-3.80062224297081
-0.833549325074792
2.58705948217554
5.25282330760131
6.05933003122582
4.51326344190915
0.755788781976157
-4.26471491643254
-8.77577496591284
-10.9682969450355
-10.2383455311829
-7.6398642584712
-4.82703928472582
-2.45616331702774
0.108927911671419
3.50795299101947
7.35461176635949
10.7250780924815
13.1062672293165
14.5007596706664
15.0869582965399
15.1570357607427
15.0012989602342
14.5382973179399
13.3548375717747
11.349709910767
9.17348571967607
7.86271700468596
7.92279684495211
8.62731753072473
8.39654868542756
6.25751345824269
2.84866113339011
-0.409019901298421
-2.96605970531381
-5.47223691345448
-8.63225702251476
-12.3647497041834
-16.0735227900462
-19.1640141747855
-21.2108289647498
-22.106679061166
-22.2250215095224
-22.1294048628591
-21.900560224299
-20.8179396776625
-17.8755874407286
-12.7577498561156
-6.32832729864322
-0.0857756584471333
4.87151715340298
8.39475682545819
11.0728953994936
13.6018336908771
16.0964589487647
17.8514303245852
17.9994344884187
16.4932860417103
14.1830365588186
11.9097803452925
9.83523321552941
7.67022707923538
5.31449864710993
3.34315872754471
2.94031872809393
4.9332222666721
8.66310877639405
12.2861971956316
14.3981914944765
14.8404934485068
13.8892916990467
11.5637586072642
8.09528853350266
4.2890159518275
0.854904979586652
-2.26292694013838
-5.60768857962401
-9.52102086847974
-13.8011881640954
-17.8016374208987
-20.9244415364321
-23.1979403199014
-25.1553430039416
-27.0021149781343
-28.240580003391
-28.1967572825406
-26.460013209191
-22.7859216821239
-17.2171887919117
-10.5151383753389
-3.94486350172849
1.65699705873845
6.29316879164762
10.1054149662618
12.6200891782848
13.1340430919143
11.788140869161
9.75240320363058
8.1837925602058
7.54238130085421
8.18517283352263
10.7423700324416
15.081570598911
19.6081139020386
22.7065133868461
24.5235283721396
26.3514354720756
28.5270918276472
29.8305666657193
28.8115164044778
25.0244002893669
19.0254627546406
11.6155689178044
3.13588961665054
-6.52870591765417
-17.0847328547182
-27.1172172600575
-34.7210531423849
-38.8996049894905
-39.9574835259667
-38.5585167865322
-34.9546800809999
-29.3641965596023
-22.7696216446979
-16.9636667801357
-13.5489204309582
-12.6973873905924
-12.9765912480423
-12.641891536919
-11.0661431198632
-8.73252011484859
-6.00940739355436
-2.32858835400494
3.29363856135206
11.0772650921788
20.0196769230922
28.6433737854824
35.9210576438348
41.2067685892658
43.6561522680732
42.4960054435012
37.9891583647973
31.6165486630189
25.1508546412919
19.706508539749
15.334964541113
11.0886546133024
5.85776851691084
-0.281913998317548
-5.79959604690418
-9.19392231115669
-10.456081751276
-10.7968240607724
-11.3933254254251
-12.7574544920263
-14.8546509744504
-17.2990750867243
-19.5416198150013
-21.124145507057
-21.77146098688
-21.4703150474272
-20.8220944660593
-21.0266070307123
-22.7852126415059
-25.1348916631766
-25.971916153952
-24.0380441625767
-20.0850043096153
-15.8017145531613
-11.9007007875343
-7.90951435611122
-3.90679887385837
-1.4875324580284
-2.06671645081538
-4.54832078634089
-5.632442702603
-2.61585299973172
4.47767959023118
13.3585592146102
21.5534347827249
28.136328015131
33.8913255439765
40.00775956474
46.659481761516
52.7590569768988
56.7159687254029
57.3210648007956
54.466250721747
49.3605628942777
43.5279721903753
37.2005533422138
29.1107050044773
18.1165728667398
4.61984533168761
-9.68361812036183
-22.8574931291583
-33.4505911876052
-40.9994467455024
-46.3741305513158
-51.3078387363071
-57.077161970967
-63.3822940081025
-68.2810759436313
-69.219629233664
-64.6853745361943
-55.4010954067514
-43.9006124537208
-32.7833980533207
-23.3635485002664
-15.7387269206675
-9.62008327974489
-4.84633268652661
-1.30566621491591
1.35740561976216
3.88299206435009
7.32838452856705
12.7898247447877
20.7455186294496
30.2935616110563
39.3677241036711
46.3203294132675
51.2129222642225
55.1126741450779
58.4219116720037
60.4772844377808
60.3925822910985
57.5456008286524
51.5746304343366
42.7012249824674
31.9257678983442
20.4161458045581
8.93936707020281
-1.8873859177798
-11.4048428468654
-19.4280239649652
-26.4567954753311
-32.9418059555764
-38.6894758681484
-43.1491936532064
-45.7622314752487
-45.9727197878404
-43.7167378914748
-40.1730571960935
-37.1543807888003
-35.1826156918699
-32.7508155411387
-28.0592486568003
-21.097541693156
-13.5519296318753
-7.0946794814567
-2.38367244358836
0.661835381011783
2.56675510387075
4.27461815277792
6.4981506694983
8.89865796710236
10.6709638741179
12.0795115999272
14.6182145035729
19.4823038454794
26.5938265074176
35.1104193380942
43.9567358738863
51.6985469420611
56.7505340481309
58.0765511328391
55.4003111381965
48.8572928699391
38.7673382746377
25.5365960176793
9.67616809289635
-7.61530476993613
-23.9517427445115
-36.7936369364321
-45.3232204194128
-50.5304561652819
-53.2322682043327
-53.0370981631014
-49.772389753682
-44.8674281375749
-40.3113952086808
-36.7040283282302
-33.1817788829202
-29.1307904428259
-25.3218763450317
-23.1177823349181
-22.726413654498
-22.5229230925773
-20.338260090008
-15.3745359986262
-8.6606124094778
-1.74896537010534
4.68040100795212
10.860658271922
16.9172105563273
22.2785337229509
26.4093189905997
29.8364324292396
33.740405654893
38.482186967371
43.3248924897748
47.8011699159392
52.409911564236
57.4704761642286
62.0939110196356
64.9474356342919
65.5519626588723
64.16224887444
60.3960096430353
52.4848635583555
38.5759508569886
19.2175971915555
-1.92427383508915
-20.6458579127031
-35.3589531773801
-47.0728413418231
-56.7886758145315
-64.1473052646986
-68.6441245782658
-70.9830685461113
-72.6442790984209
-74.4094772363007
-75.3415018172993
-73.0814608679276
-65.6812317072417
-53.6992313695177
-40.1556169564858
-27.9883716909521
-17.8858110926785
-8.86284983157322
-0.297660790802126
7.30449448089839
13.255503211662
17.5562043808733
20.6537082473173
23.0150430620479
25.4349473157567
29.1655883451002
34.800052594244
41.2471776662703
46.8378937709166
51.3910283325211
56.0460833536084
60.9326443042469
64.2060902445929
63.8374867002678
59.5915795670593
52.98498300765
45.8104654934273
38.6328256677828
30.2398959465042
18.7296180848075
3.41006919977275
-14.704064510884
-34.1283866962974
-53.5161889365756
-70.7722798217898
-83.0678051012722
-88.9194818824336
-89.5996042117987
-87.6338770450637
-84.3539887552791
-79.3897759550111
-71.8549304211141
-61.3485302258486
-48.1705656878058
-33.0904938661182
-16.8787533612297
-0.0572264745507616
16.6493471930306
31.7690928032689
43.6384072220717
51.7762237184011
57.088147225224
60.1224459630158
59.8200948507081
55.1634916654319
47.5733834918884
40.0199996067068
34.0218322955617
29.6993019638266
28.8252909414588
34.7158137833568
47.4484581723665
61.387962745201
69.6656358566348
70.3230483296358
66.6927232426243
62.3812480376912
57.1423613484157
47.7526038842852
32.2157688468149
12.3093349944268
-8.42278215276313
-28.4002350120885
-48.3042389132362
-67.8683139343642
-84.4291255615307
-95.5549175031856
-101.485958824504
-103.682295315811
-102.153485832188
-95.7642880344071
-84.6831466617193
-71.2009958827428
-57.9304254649522
-45.7058031507574
-33.4258745885915
-19.9544090042284
-6.20602478589193
4.9581651135625
11.3934952041275
14.1627883413161
16.8556019064769
22.3567704064981
30.6247186191073
39.4399756772903
46.9245981286864
53.9650808516202
64.3038317637665
79.2178559120809
89.435190495482
76.79224617469
31.8368241805294
-30.5824189211037
-80.9650988426549
-101.868101820725
-99.3375714185238
-88.3400601065497
-75.2519670801173
-57.5086308055454
-33.5196560703749
-6.87291755724523
17.7865791758999
38.9449198684094
57.2207564007395
71.9980802125838
80.9857992788801
83.2068668554566
80.9250926723655
77.6997815398765
75.154916804688
72.2209902859036
67.0481364187341
59.1942922086801
50.095769023816
41.4822748620814
33.4231435226611
24.5111143309789
14.1538093584627
3.75539600539452
-4.98827784754286
-12.0976705386541
-18.8019591105254
-25.7570624514054
-32.6219707453581
-38.9025263237033
-44.6801465708148
-51.115862267178
-60.3972991169905
-73.7920527891492
-88.7722280390327
-99.238544509299
-100.37115189064
-93.3523777939387
-84.1725809036671
-77.5799495283631
-73.1338274774209
-67.1693735631764
-56.9747063788892
-42.196330876239
-23.7653685687946
-3.2121784732194
17.5951716159868
37.4749650586642
56.3379694573473
73.6613045570556
87.4473603642516
96.0493316041547
100.381230415823
102.803231992481
103.890918603378
101.424841581334
92.8551110697655
78.2731470133046
60.6538901385941
43.1860933736808
26.6928966518726
10.2553351972614
-5.76801597230059
-18.6397219209777
-25.9842833227416
-28.7273773072229
-30.2068120979651
-32.8813568169978
-36.8759199524892
-41.2467010212101
-45.5566977788531
-50.2556737327437
-56.0608033585559
-62.6949160152491
-67.9226019321978
-68.5711239914713
-63.4042300311323
-54.7753105014316
-46.6670514241704
-41.0912080685806
-36.9869458923613
-32.3535629495486
-26.1878827064339
-18.0123156532428
-6.99605492326412
7.24441306073858
23.689832698834
40.6507099565787
56.7325827906221
70.3843102982992
79.5872915734663
83.1712442754394
81.8804791880705
77.416688664511
71.0959690396915
63.9124040910782
56.8439178065059
50.0848154634153
42.4248871930531
32.1961461722695
18.9701192854615
4.34934887237185
-8.72090224545983
-17.6961635809475
-22.1393267362606
-23.9085281431511
-25.5276475554813
-28.457093046523
-32.7930481361268
-37.8210198040007
-42.4532839520089
-45.8766791343725
-48.4012180832171
-51.1683428711206
-54.4778958993569
-56.8560060908711
-56.4471643521226
-53.1991374247824
-49.048746479205
-45.7320237315798
-42.8145121180996
-38.2243825703931
-30.4055413804555
-19.4698035194746
-6.52975770465852
7.33232364529669
21.3217684229805
34.6984982569342
46.5566888272077
55.8347288054755
61.7259644470857
64.055499440597
62.9369634712401
58.3989874507809
51.1179318932658
43.1084962651441
36.4707903209976
31.5583355922097
27.4505713403399
23.9055505372423
21.5142384106053
20.08956221704
18.2702942274113
14.8686976042987
9.72937313414614
3.47304721444932
-2.66382173799986
-7.16507983035061
-9.75659203142083
-12.6380707603957
-19.0688796462714
-30.2418830866266
-43.8277734584219
-55.5776900895328
-62.1793617817242
-62.9335629675378
-59.367256617717
-53.6313785848996
-47.1978548500039
-40.6502654560323
-34.1287889734086
-27.5728847194327
-20.5632112380815
-12.375507936439
-2.70530748779663
7.6562498556525
17.3577946847967
25.770513071504
33.1393946803727
39.4249859333453
43.9969198364531
46.838899317843
48.9438074298147
50.8415321837395
51.6538770107432
50.2598642300794
46.6136268168243
41.3684551744595
34.8675504993951
26.9650753424175
17.4796941421845
6.79741587637875
-3.56040778974311
-11.2789051120184
-14.9769704114831
-15.6267807568095
-15.7328808070894
-17.1990445335582
-20.3230569362253
-24.3499637983562
-28.2728985324326
-31.3463223070151
-33.4623654698473
-35.0087251709372
-36.133745064953
-36.3945365139755
-35.3545975582189
-33.264891397496
-30.8336003878652
-28.3958615863585
-25.5981836743989
-21.9527823360376
-17.387323566849
-12.06358262322
-6.07066423563303
0.261801955192668
6.13377369922311
10.9872892233144
15.2010041279139
19.5151889368161
24.0527668547276
28.3522525597376
31.9015190616991
34.232037001213
35.069283266438
34.715839665107
33.6864953508388
31.9697844332471
29.5559624639324
27.5412246971368
27.328089224079
28.4585678755832
28.4907099852771
25.5102121813717
19.8616978635147
13.126041119728
6.38697498937507
-0.0764026452626022
-6.26638381851246
-12.3204717533664
-18.6652253079074
-26.0006343509728
-34.8814200195906
-44.7877517040232
-53.4144064530701
-57.5285286848106
-55.2701660452591
-47.7331816464257
-38.1486704872002
-29.5245986768777
-22.9947139003775
-18.0053467338874
-13.4898435929372
-8.69115040239165
-3.40575377353462
1.96494220732813
6.7695841040196
10.9559275709292
15.3210325397017
20.4994168851439
26.0888218881694
31.2418664225685
35.6541783807422
39.5002061075262
42.8860346071415
45.7385991464628
47.7167983272904
47.9873907231625
45.5997079288766
40.2021344510305
32.0524314872426
21.66785075907
10.0864893648662
-0.966684642532208
-10.0430195885707
-16.9068228600017
-21.9827380036666
-25.4736630332624
-27.7642311402046
-29.9156293265309
-32.6085383489831
-34.9854295938269
-35.531075071494
-33.9140300754985
-31.3017256055709
-29.1120747953303
-27.9927729404204
-27.7522079817256
-27.6721393356992
-26.8604189210556
-24.7426463409969
-21.4436177178747
-17.5447039836991
-13.381469718703
-8.80230655575054
-3.68929128194446
1.73332994465834
7.37351519759511
13.4637041315352
19.7810804906676
25.3041288042926
29.3084462888556
32.2141882718211
34.7181679407651
36.7603119723597
37.9246914663062
38.0600352997078
36.9130764088423
33.9751016061392
29.314365384495
23.921742067504
18.8222320450639
14.4021917363202
10.6752614440254
7.33512012908052
3.39060646669288
-2.21950092894122
-9.17310435691837
-15.6427054414428
-20.0390766047943
-22.3884748594259
-23.7615376887154
-24.8436214835361
-25.4097075403501
-24.9941110458962
-23.7718614143335
-22.6548224999175
-22.4959113099655
-23.1987274468735
-23.6187726139991
-22.4595397773063
-19.481283766326
-15.7933280820125
-12.6633145369865
-10.0977253204121
-7.00791900774608
-2.65782267657914
2.64464490245669
8.16071979681774
13.2501931103961
17.3113855113407
19.9535713966752
21.3181254918055
21.7782917713355
21.4843068541816
20.5454407604359
19.276061021238
17.9371895327728
16.6659089236949
15.7964218190567
15.5864712004949
15.4295559559584
14.078862469619
11.0106901967598
7.03580263287618
3.31879292915518
0.264281464405594
-2.48526537970036
-5.41302730995723
-8.63072931050245
-11.7265336248296
-14.1061839265731
-15.6199124834939
-16.6543121714483
-17.5147308389078
-18.0292185148268
-17.8755731985718
-17.0100901828341
-15.6261809508804
-13.8375076920012
-11.5628652857125
-8.80568977711448
-5.93000975174516
-3.28841095463921
-0.486804198244613
3.42193377991927
8.52297420709552
13.1015276686208
14.6818664444822
12.2198743970103
7.32630616911372
3.28659593170289
2.47019917675662
4.40449547913606
6.67877029281227
7.76457578755247
8.23702489862005
9.13807015045299
10.2678367718384
10.6679650749725
9.91689560867313
8.29503694846263
6.23530297479337
4.07886303235824
1.99080487708686
-0.0924016145992726
-2.15326409586692
-3.90452121518396
-5.33462475599429
-7.01398483354352
-9.15673285761559
-10.7874786603758
-10.6906790850888
-8.97004773305059
-6.93402660686442
-5.56864686022153
-4.75808981597342
-4.01945991607956
-3.4442871722422
-3.5561805206676
-4.39503853530658
-5.17397634924631
-5.0812034313406
-4.26564975301743
-3.84732286567879
-4.95507983361385
-7.55170837807835
-9.88880500228552
-9.44863032555314
-5.15134019287236
1.41601279262455
7.51916899359207
11.7848736569184
14.6370083168489
16.7723300555911
18.1477218703807
18.2760331160558
16.7933115796068
13.8192982892122
10.1105465225433
6.61319756055334
3.70482987498261
1.23651414268642
-0.733771721392519
-1.91580504367451
-2.54876764714767
-3.4357635344289
-4.95431570814809
-6.5160189114897
-7.13551788201505
-6.24487789763735
-4.16785465310784
-2.22368284683269
-2.06648050992905
-4.33308824639764
-7.93954358974678
-10.969542834808
-12.2410397551169
-12.0229754606511
-11.5143906574146
-11.7957840523788
-13.0426958316499
-14.3224487874363
-14.0072174635492
-10.8154061299605
-5.03544058196181
1.33757473662213
6.25139505039774
9.4572730456168
12.302188802733
15.8239134358932
19.6578925280457
22.5982987799886
23.4463547352101
21.4998932705068
17.1218911341249
11.8899523329917
7.59333971889244
5.05339114484503
4.08003822639935
4.06281225754265
4.17757289965855
3.5410112220727
1.79827714435609
-0.566948953675437
-2.72228421326358
-4.02749251852195
-4.08832174155946
-2.86680494351525
-1.03041329993796
0.1850973639586
-0.218528634938019
-2.3322705621881
-5.41183049260208
-8.52163402099784
-11.15295660999
-13.2572849986028
-14.8020099134803
-15.5901920218992
-15.5578276776083
-14.919273829967
-13.9212090483874
-12.6718979152488
-11.1521624072972
-9.16714812069065
-6.49855759558032
-3.39621352049489
-0.636884104944048
1.23229510626087
2.45799354817684
3.70285770859784
5.41996679071291
7.63765254753563
9.93827875244317
11.6702193661278
12.5548023481396
12.9039790119053
12.9694277903965
12.5711949339325
11.7197546020734
10.9138791578584
10.3191764772249
9.35471535505846
7.67187333173162
5.89258242879206
4.78391884485838
4.25187692416632
3.6527615793902
2.58534187845699
0.951414678524843
-1.31678296073331
-4.21865617219119
-7.6049164299872
-11.227764171583
-14.6528029615066
-17.1655126734929
-18.0512657310845
-17.0964166369789
-14.7967491222071
-12.0151698038446
-9.34280462613351
-6.80804684937852
-4.2569319698829
-1.81864545960417
0.205567541457282
1.69767624391823
2.7254553437944
3.40478339424034
3.92485391879982
4.42471603172715
4.75723697792434
4.72579612448608
4.53324773177885
4.5882749601362
5.015794280495
5.80357113742668
7.1238336411295
8.94434072683282
10.6003209364621
11.2891192288858
10.8145011402173
9.56416508978452
8.04986882057435
6.63700747308449
5.34207272339631
3.78702376742785
1.73853968398221
-0.379982682703758
-2.0383704014815
-3.49192797041894
-5.41959996397441
-7.74583069523564
-9.50754842671772
-9.92814004344669
-9.16653958683279
-8.03717948672878
-7.30524770004988
-7.18186213722354
-7.2574425627456
-6.87459649846439
-5.61571472028091
-3.55248214166766
-1.21462423123619
0.710976963990247
1.88806982092053
2.58204602587217
3.28874168612892
4.18028646588154
4.98106678582944
5.22324879383844
4.62554185738981
3.48793440953271
2.65715720579333
2.77763168658217
3.6540510574699
4.545984479085
4.78658276252709
3.99428008578461
2.33018161034105
0.85416064940573
0.870139984593548
2.40257738348201
3.88365783055933
3.77575795774341
2.02517869778046
-0.33814721336812
-2.40954986203897
-3.86800718238523
-4.81636580665072
-5.63577569336674
-6.7271836197154
-8.12863667727833
-9.47096429159092
-10.2894218388169
-10.326874687629
-9.73147804333204
-8.9891168348592
-8.3676775632613
-7.43410614302953
-5.48530389742548
-2.50687210239863
0.561418736306678
2.55556732561144
2.98183186717949
2.2719953470319
1.28735233292901
0.660717550912952
0.719424029267874
1.8153340513808
4.14760050131543
7.20297810257007
9.99339666601685
11.96559136662
13.0992050449766
13.2036312182586
11.9831299563937
9.85670081855222
7.84298649964111
6.38372992375929
4.87634627528553
2.58915301962009
-0.316624344824034
-2.80441494461222
-3.88457928007907
-3.61321427260989
-3.20142201363953
-3.83865554322575
-5.35241513957678
-6.38042394959005
-5.85097016965407
-3.88097933398392
-1.3439476316266
0.896227423254004
2.40003637469413
3.32919822001081
4.22626789732158
5.3159707076056
6.0354705468435
5.38387629169621
2.7955165589376
-1.11454898640057
-4.59083032394057
-5.95794248884938
-5.1839651509668
-4.02344449525375
-4.34108092372291
-6.3646513242133
-8.56889996529732
-9.0954435533387
-7.39245368022585
-4.66462950253036
-2.64215153897005
-1.95220960758316
-1.93336692407726
-1.74195295998077
-1.03766073648875
0.160578371209545
1.52221916010463
2.39805602027852
2.40463782694373
1.95214828708196
1.76082096519574
2.03772858681452
2.47310314848374
2.76413944937257
2.79139567733891
2.52763442818301
2.05004771917056
1.47109121702827
0.818551299496466
0.244270825510541
0.198365876362225
0.934780673452104
1.94523552983695
2.35523772952019
1.89640021296193
1.22950781878814
1.31529010758902
2.50390060629213
4.08726114163975
4.71106288739712
3.38635616166423
0.256370169796203
-3.43291664514893
-6.01908119095801
-6.4228896756252
-4.91104309318401
-2.81105673322144
-1.29132786924886
-0.639928543568503
-0.697891302147434
-1.2713545662137
-1.8475963250932
-1.67420896523412
-0.590841948383782
0.699904125331013
1.42110709373284
1.37504881843386
0.843481841603638
0.308651690619095
0.171428658729583
0.350445940826756
0.36443542090964
0.0921710225188317
0.0348999533948729
0.491249294929356
0.984242257924709
0.927617237329993
0.403338538091881
-0.0920057322070391
-0.264302656496209
-0.133388717286865
0.106813612918707
0.225486642654361
0.236327643373587
0.457833321609913
1.01039473032955
1.45621116111046
1.28765949571163
0.675200614617147
0.456557945844349
1.30321127329864
2.93763209102338
4.31722239980038
4.7055754692814
4.29206570560276
3.43793773540303
1.73149701558669
-1.47632370453827
-5.71979746891438
-9.31893871366447
-10.7815948517467
-10.0003331517836
-8.07405063518783
-6.09456002472756
-4.07509093531122
-1.20050342793726
2.76348538093063
6.76669244529128
9.53709672188928
10.8148729785444
10.9977055762121
10.1083553683536
7.91148411616668
4.82029856217807
1.9181798685411
-0.0216520450403811
-1.14572271623113
-2.12752842896647
-3.37979328570999
-4.60810091410676
-5.08868124751403
-4.50684835545992
-3.40390060523375
-2.55360615161251
-2.10917824256287
-1.72547314158426
-1.33005346245611
-1.34109313363187
-2.12523971904977
-3.50859333905848
-4.9005284676198
-5.77972142554443
-5.91552063544542
-5.15732256264999
-3.36941635631263
-0.802532177675841
1.8488095990739
4.11365261756379
6.05648719284029
7.53976385673441
7.77583249409991
6.27363182997709
3.80207538077964
1.70696352687082
0.3795826771728
-1.20167609775486
-4.36756823574036
-9.15678755210653
-13.7429357254625
-15.7467409216942
-14.3445761781459
-10.7861876305072
-6.75513764397071
-2.84878684818379
1.06052085009713
4.80737225298425
7.9971853218387
10.5641510831243
12.5508489636574
13.66077527761
13.6370582549263
12.8614666761052
12.0117627412558
11.0743104125752
9.05550649544575
5.05787455984803
-0.189745548980197
-4.18535116875613
-4.55618934094879
-1.19588279016666
3.68057154863452
7.43055824586177
8.68295399042581
7.55276526508183
4.90483765557751
1.64391843823722
-1.62953551219882
-4.76823668253615
-8.08436441555328
-11.8443481763411
-15.3289540286356
-16.8201803897356
-15.3470344461186
-12.1593468255239
-9.42662988971062
-7.62809450384922
-5.36546112091241
-1.7030399193488
2.49708974625001
5.72367479209324
7.30622446560126
7.52722794516905
7.00803986736735
6.25949197352018
5.40495140968975
4.20490553580467
2.53845528155955
0.719923256790837
-0.821183159240572
-1.88928273924411
-2.4211731731111
-2.40227323911138
-2.00463189083931
-1.48358660184315
-0.89685492658925
-0.181994601268366
0.556457861293703
1.07097206198434
1.20809345580093
0.974100530621146
0.425322483116016
-0.420634232096648
-1.51253267336141
-2.55780018575267
-3.06466528094092
-2.84867678756241
-2.31683133089361
-1.91002436990273
-1.5152029200125
-0.862015060621468
-0.216191589900155
-0.188807049826354
-1.05730143583185
-2.55307052811437
-3.97989801567601
-4.38803317451408
-3.15741429289257
-0.659064388864318
2.02374554430386
4.08367102769402
5.36232859869018
5.91310552062524
5.75222878384851
5.05047665039953
4.14583494579832
3.32056720155554
2.74421109041353
2.45066448830269
2.19107687685543
1.59287614727098
0.634848663561989
-0.311141260417379
-0.931521040322669
-1.1027059151922
-0.637219002947361
0.621719584366368
2.36539100692118
3.79366402795714
4.19496449026287
3.56897167632474
2.66239009018033
2.26268908768629
2.40815566115638
2.45109305006974
1.84662032526534
0.587396882367569
-1.00950553523912
-2.48694877207935
-3.33263044613376
-3.41132235000096
-3.28497851710415
-3.71511772758889
-4.90583337143137
-6.36905288131338
-7.24114673574424
-6.7215981428407
-4.73306963583811
-2.22640593706637
-0.344917978548828
0.694271215374716
1.46338913291852
2.31608892026149
3.09811899111821
3.64322496521945
3.92109556938297
3.79324468923597
3.12773462098334
2.05977928177728
0.813979095016629
-0.510520500082629
-1.76560289041521
-2.72066199519625
-3.37658993922654
-3.93842636708285
-4.38276059811009
-4.4198159652703
-3.93421777171541
-3.1847726450332
-2.56731127883315
-2.32862058705614
-2.43742625620916
-2.64338477788024
-2.69659380499476
-2.48712928843885
-1.99878428852288
-1.30402867973575
-0.581003840885182
0.0694729525712018
0.70142027101008
1.21749168289731
1.33698350609228
1.2072571152827
1.58364019054465
2.94273133144316
4.82216124458637
6.38216651911151
7.16663059145194
7.09849114787244
6.31535237846397
5.29600280996326
4.67239658613204
4.64423378488642
4.79914729155093
4.50565451258375
3.30455677565346
1.18590070068571
-1.17199184095956
-2.70731482665957
-2.88063558623339
-2.07610582667375
-0.96495534623162
0.115490678010756
0.999188363325773
1.41033132897818
1.13424589474531
0.231782123957664
-1.03327764299722
-2.36491367194484
-3.57496628446945
-4.64473897068466
-5.60970839150041
-6.41694827363559
-6.9428781046511
-6.99558335693812
-6.26322505025252
-4.56958764198281
-2.29306231290451
-0.207263408492401
1.22429487945864
2.17716915472806
3.14532252682649
4.51003363581229
6.1965453799054
7.49464313701509
7.52196112284245
6.08881341605618
3.80293968429276
1.32991598435424
-0.963682822212183
-2.75920340814867
-3.86870640861832
-4.54111115689995
-5.06516407011907
-5.14526031213498
-4.27015211547071
-2.59501450727664
-0.897136251790474
0.231132888860649
0.705194704517238
0.688453832428462
0.433161900322583
0.201006441291447
0.0766701187143322
0.0156446947648233
0.105175955723125
0.509544212932678
1.1736145126999
1.82600796621101
2.24405264032647
2.38145624843281
2.30905697109349
2.09020167753032
1.69600412712224
1.1302187178676
0.592174413344692
0.239718779304269
-0.135254852032222
-0.752781039198967
-1.26303558958279
-1.11150700031549
-0.438757330792247
-0.0191689263085237
-0.345494546297783
-1.24334221382148
-2.19642732730515
-2.61440779379381
-2.06556420028145
-0.686413466380245
0.814556342976919
1.7634675725408
1.94587277188169
1.50246835051087
0.79946246914988
0.326127952185407
0.276202238569475
0.277983093138292
-0.123278454732309
-0.888395711269082
-1.67452537401527
-2.26660312251694
-2.51118188872911
-2.24191010852647
-1.61092781771012
-1.11699749969755
-1.03368784653886
-1.11249352309794
-0.999328967536823
-0.681536959607656
-0.408985724525475
-0.308631255224073
-0.192614903208311
0.152616059227496
0.539500208674004
0.580148628457569
0.402621091159027
0.709785104235005
1.91174972507626
3.59530863438294
4.9568137843974
5.35577333421928
4.55295091459555
2.98140962897622
1.6470036475386
1.16438714220185
1.01808785296347
0.194526760966997
-1.70464256653905
-4.19352512556285
-6.25869124232783
-6.82438496655421
-5.51565059528733
-3.22633674483131
-1.40852985172206
-0.668546998598025
-0.54818301522552
-0.568428684839822
-0.700773435036521
-0.765173536965597
-0.206900349238762
1.21991222767566
3.08199114645894
4.83114403682403
6.37869760382836
7.85218496523845
8.95403774775957
8.93905039471968
7.46031017891647
5.1874174738023
3.1539528601721
1.66195517485621
0.352650822480669
-0.847149281244835
-1.57506836966676
-1.82913072505597
-2.28695407470432
-3.64732028559667
-5.8518484667528
-7.90874003092364
-8.50396115465372
-7.136232681232
-4.68913123731955
-2.58716490834716
-1.53385510797988
-1.35244904896936
-1.5888356367706
-1.7356410459224
-1.31958700037966
-0.399659009847776
0.281175585245167
0.0682907510077144
-0.898816818928576
-1.96137577928768
-2.61673520556301
-2.75397139691445
-2.49650928530546
-1.94365322184011
-0.950378695085493
0.697722729346839
2.70341754599913
4.15116310234287
4.28556153629365
3.15784480835417
1.38847872430581
-0.269369222308383
-1.03699559919862
-0.395763604099049
1.3851632561576
3.26931952125821
4.18754082880404
3.73914603236755
2.32678779265765
0.757606018019959
-0.365646033800758
-0.935990362713259
-1.10910551118388
-1.0470098770355
-0.964175942178046
-1.05840780033192
-1.23027442286874
-1.17946954812433
-0.813690022040762
-0.235239364832462
0.509616731172129
1.22534776031162
1.41096668258928
0.868065877531052
0.168317263294654
-0.0280686249309594
0.15441678323983
0.0606718192615683
-0.617378189307061
-1.51626800583343
-1.90444725348262
-1.1828355177217
0.571371495280272
2.47211376754461
3.57213852248055
3.73099978576399
3.4212774193645
2.91939487913389
2.25180999295458
1.77199501164816
2.10470254967949
3.35251560475765
4.70030240508733
5.01736359437462
3.86922372922012
1.9200850865853
0.301101780156986
-0.36275889154197
-0.275462627941115
-0.14637248183325
-0.803470952119729
-2.70222441767231
-5.30586537162589
-7.25241000399424
-7.63029405825938
-6.85105279460074
-5.96723598321433
-5.5521640776108
-5.52662972400173
-5.56987488672541
-5.3673641037084
-4.80253002839592
-4.05817239476715
-3.33051903097445
-2.59754755923636
-1.86118466075307
-1.23922787485478
-0.579841180249758
0.527831572642324
2.06262001200547
3.34798086921841
3.79769043014392
3.50843147400895
2.96370489120585
2.56324194589709
2.53044166911412
2.82838745110289
3.04682471367328
2.70838705785687
1.75314701191448
0.569754117573874
-0.333057325537226
-0.586640633811921
-0.116899091557531
0.821500565149241
1.83769060470156
2.62534941934564
3.05168194805425
3.28046177643298
3.79725021258945
4.97093749476828
6.51487622397946
7.60576283995816
7.55025458780881
6.27298127048455
4.33142290667876
2.46499910432417
0.841391335985327
-1.13091229498012
-3.8120919443728
-6.43591985555739
-7.85464298387636
-7.8927146028781
-7.25204893329387
-6.40569637399903
-5.34623051580875
-4.13620516918807
-2.98402505248147
-1.96619086611712
-1.18333874532542
-0.906226218622852
-1.10373616083224
-1.13727169344691
-0.408111841340414
0.891673427967924
2.05516370002419
2.7458677683423
3.31832865433855
4.27610291822191
5.5346668434945
6.33117465811985
5.98311184324879
4.60478077769073
2.82276607689331
0.994980014201806
-0.860413639205064
-2.5282106703582
-3.51601723789758
-3.57462262834111
-3.03014477651887
-2.5379108056433
-2.54206991933189
-2.94497605131728
-3.37292979855388
-3.73630033549011
-4.21518231975012
-4.68272089408292
-4.66820241931683
-4.02713859210651
-3.12036380411038
-2.2425621704694
-1.40569643989611
-0.657779838151188
-0.0657928851337171
0.49671833214293
1.06021876342848
1.32758965047333
1.18477784849654
1.06677382266372
1.36519185861534
1.86082266532299
2.14036081650655
2.17417086128334
2.13679144885841
2.0658969632403
2.01433974736586
2.17787572283689
2.6178917589345
3.0991882209884
3.28086343254608
2.90933605560354
1.98206472880223
0.952230243350347
0.565882574898466
1.22268214356549
2.54465313490721
3.64613292389698
3.80715871877032
2.98219381830728
1.73535258009516
0.643894560109507
-0.145245574980646
-0.734344444219696
-1.228982342841
-1.90267018676026
-3.11033856964256
-4.62187253881435
-5.48387166460442
-4.97512486253157
-3.36224526570796
-1.48903456072394
-0.0508042434226747
0.61286238972666
0.543719276970369
0.198335318362793
0.150459976454433
0.629822297843835
1.34897443679065
1.61423295273505
0.739099280770175
-1.17546865626917
-2.91432108724296
-3.16924248071131
-1.92466424292546
-0.336782046607318
0.643556359943064
0.907054035696122
0.645510426079776
0.0243871703999497
-0.568514888429202
-0.671596918985248
-0.317440232856704
-0.0413233976358885
-0.239070323070481
-0.730798141732398
-0.999945910020396
-0.810864267424583
-0.52637935942314
-0.675227607592238
-1.26934224412491
-1.82266426856001
-1.96546888442026
-1.68161750380236
-1.04341438473713
-0.115206974305441
0.968024417594578
2.12564503958061
3.36676870052533
4.5466203884167
5.41611529759447
5.97344925247908
6.31861495522451
6.20662638776496
5.27555327706774
3.55748524852106
1.22332234035419
-1.78796372909236
-5.1494120908545
-7.5670398069654
-7.74589961616777
-5.83008433731625
-3.22976473112956
-1.17194452268829
0.0546340042647184
0.689939677173935
0.980281040222109
1.0552112153577
0.978892722715465
0.880027541251572
1.02002011559482
1.56777395995265
2.34058921427643
2.91613669972533
2.95318610820187
2.39110524206126
1.47815116512024
0.576259581033314
-0.166164676878895
-0.826707845571103
-1.38254600214254
-1.66599757691622
-1.68271876724619
-1.65122435839325
-1.72157263785107
-1.93017510347438
-2.30552355527182
-2.7416361650816
-2.97497371275105
-2.89702140567235
-2.60713473213731
-2.10382592295494
-1.36970507903364
