-0.129165951336757
-0.0220336678781008
-0.0158319469676012
-0.0152721094154844
0.0193040033552104
0.0268323281248992
0.0650647919307161
0.246300785444539
0.506931077184933
0.703932729974023
0.824704365113437
0.896972525354425
0.873369965287646
0.761287012655327
0.64433723803266
0.505303234155188
0.283736011791615
0.0654831454198759
-0.0585875452029179
-0.162433025223952
-0.261076125196255
-0.193305294173903
0.0519644054323334
0.231505501492251
0.22501802534182
0.168472413626696
0.15795661140426
0.151266142540598
0.119210926830599
0.0261835609863552
-0.192023244696703
-0.449280173859716
-0.553163764298301
-0.521884007267699
-0.554144706851619
-0.681372769404336
-0.762957945789684
-0.7386599201783
-0.622094343502713
-0.424209764403867
-0.256286378415403
-0.245912615954735
-0.277236671023987
-0.12568859331742
0.166752662152571
0.370225218016057
0.429657830291241
0.446221548858044
0.433545419406284
0.363699981248088
0.296067034369668
0.24613655328418
0.120391216568859
-0.0745734357246223
-0.197481068157347
-0.208464424032424
-0.172400338515008
-0.0763801943960318
0.0720227846212024
0.122401989038663
0.0229677106243146
-0.0559881838711482
-0.027854669919778
-0.0059587852255497
-0.0241779743709149
0.0052916863032537
0.0619591472660042
0.0809835474068428
0.126598217880061
0.213379963158568
0.188655850496771
0.0244394261702836
-0.0862199533881794
-0.068133562151664
-0.0377836656032287
-0.0096701600709401
0.0808561591656411
0.135358545505709
0.0431655925285203
-0.0804437654434862
-0.0963248081763601
-0.0613798580722192
-0.0651678656265214
-0.0996861739148413
-0.164533035425608
-0.259590443317204
-0.30403585049068
-0.268943107775601
-0.263883526862728
-0.323183127373748
-0.319833111822369
-0.231317281988347
-0.20102252135969
-0.227943423973923
-0.149051532839846
0.0095907809644094
0.0551521253702006
-0.0097100877255833
-0.0295352475097106
0.0068672131362842
0.0476459086210927
0.147119045586917
0.292413119701856
0.342242633600597
0.296084787826903
0.304257327214064
0.37039808543272
0.370109583568021
0.299492798553091
0.225188764953025
0.154119402226544
0.142913031047384
0.269241952285242
0.407870985114296
0.377180476804621
0.283231275012854
0.340019306920099
0.477205045995515
0.489948288253347
0.370269912714597
0.2080124402146
0.0367877071093248
-0.0544941136109641
0.025745330906513
0.149176393159194
0.111888031859087
-0.0464650227520392
-0.16021972324294
-0.233570043343852
-0.337880633395517
-0.406571433968396
-0.386508970763811
-0.370149725504172
-0.388596474053263
-0.343157689217361
-0.250764459459224
-0.248618618637103
-0.334946973897615
-0.409184318397016
-0.479991602140794
-0.568807769006363
-0.601752017212645
-0.587435649904367
-0.625718342138005
-0.656183036113112
-0.53494065339091
-0.339032903875395
-0.238285307739792
-0.186992787591374
-0.076935636865859
0.0153877514163658
0.0180128910203126
0.0314932508819007
0.117449346006984
0.213724423483725
0.316322348677208
0.436426395355758
0.458302084664672
0.342489005615836
0.280212456410602
0.39312698594656
0.542223357103717
0.605107520660974
0.643506132261487
0.706811146810169
0.756848467650819
0.802300301520768
0.868332516814008
0.890015540148058
0.821603135506049
0.72644089944122
0.621215368599725
0.423491518105983
0.148318080503556
-0.0859906502702587
-0.27446383450236
-0.470122497655795
-0.586648592729281
-0.55844539436584
-0.52592535167355
-0.579569858672102
-0.586167980420437
-0.493857279985599
-0.463492754904925
-0.544044684810532
-0.592340804843895
-0.567893619159402
-0.542873262486527
-0.485099733704897
-0.365833988644325
-0.314636717961174
-0.394225407896651
-0.468083624075318
-0.461187987628856
-0.436780036093643
-0.359580652167333
-0.143509234747319
0.103370500029253
0.218506004362481
0.244568241233482
0.298574979304882
0.387517021873934
0.499500442798222
0.622948265532939
0.635559943603343
0.442488348997747
0.177499042865357
0.0247646273874917
-0.0286565883851574
-0.054166499824266
-0.0110040230569329
0.0857199001955153
0.0879716597540599
-0.0291869774167951
-0.126911807971092
-0.189705618701542
-0.299181607896281
-0.341917706586817
-0.144101133160921
0.18511928712017
0.403614110359457
0.464357080139017
0.427598985389645
0.302774330622305
0.156025434637283
0.0863540648693488
0.0372302135697032
-0.084884758158312
-0.190977512097603
-0.182408579197429
-0.145084559210256
-0.137818952756682
-0.0631325953770566
0.0907200571270568
0.196963771725281
0.237359998229211
0.284220183337302
0.307227473634676
0.288647937935366
0.334232038100639
0.429191744879601
0.371824637649329
0.123573389149904
-0.0944053804090554
-0.136517057993773
-0.0553072736511856
0.087953268023445
0.234014697150078
0.242150551463663
0.0778524648508541
-0.055863461421501
-0.0098938898221081
0.0845266439390458
0.0609091354414764
-0.0657330196543734
-0.238538684746379
-0.420197792752368
-0.494728672827221
-0.409420041613617
-0.327559159051351
-0.375931926873993
-0.443910860750579
-0.436904755064432
-0.43635476871889
-0.478636294492858
-0.496507810963709
-0.503058008126955
-0.526857362343289
-0.469935831501706
-0.306453494151311
-0.203517675475364
-0.222870001877483
-0.211041840507444
-0.129273070510854
-0.119147299481295
-0.181277266856239
-0.176662582818453
-0.110390174688538
-0.0664082250971296
-0.006606539719295
0.088357099079262
0.11592205775993
0.0768796551625733
0.115672474431452
0.247360054042335
0.347676363916084
0.414872945720653
0.541979275131236
0.684376943686072
0.725802916253436
0.685949704425032
0.653484705541305
0.651771688352116
0.703825293003699
0.823929898255036
0.890946395249096
0.79005882665805
0.637640607650422
0.581605031305579
0.533702179656096
0.377966686482673
0.195373378228555
0.0600028820457439
-0.0676237087330566
-0.127924773056463
-0.0245756301417903
0.0881613712515817
-0.0229239706844833
-0.29371073071122
-0.508768078593442
-0.630971688406957
-0.696809528410727
-0.659440275647286
-0.54634483326425
-0.472100592227977
-0.422374054023988
-0.340771301241306
-0.346259902410175
-0.531081794699608
-0.724186133592026
-0.743780272770841
-0.644108644412054
-0.528378807350558
-0.411013905271535
-0.349541550332035
-0.402439483639916
-0.456921131582186
-0.385105475240959
-0.277664270994905
-0.254896841335979
-0.220440725947427
-0.0617852613054194
0.133426912677218
0.287569810335251
0.480711313340908
0.716866837001012
0.850417703114358
0.83772099298083
0.766975668719378
0.661469308813646
0.51535053059693
0.395172160328978
0.315198757438557
0.223584748897824
0.186874240831115
0.297898072288807
0.430630999102276
0.409229518060654
0.294765008736789
0.207257101579175
0.0968452376192447
-0.0542111260505316
-0.12163474704972
-0.126049161742662
-0.271724770693863
-0.589962227750191
-0.887204800680416
-1.03528220197827
-1.0146088142384
-0.816936978867751
-0.553939305460678
-0.426954592423571
-0.42689840429487
-0.34912881058492
-0.1560366593318
-0.0007216658789606
0.0766646228660004
0.14853948061298
0.192221774331951
0.182947499000605
0.236652716661933
0.397332831991259
0.50407652805436
0.485016973682975
0.497392016287677
0.619032785977927
0.724549617580805
0.735649669761786
0.669916253810098
0.497331458713372
0.255949887077181
0.14123412073399
0.220941429829855
0.30304454642487
0.246067139357715
0.10367002192091
-0.0795984346103775
-0.286576772688355
-0.405332216297707
-0.397170289410869
-0.421104942381669
-0.54833366632328
-0.627112735960809
-0.602323173655891
-0.614699544746258
-0.681025964554969
-0.643526499238417
-0.453218085518422
-0.194819326439821
0.0673747290304168
0.24442664669933
0.241567149958209
0.164458905978152
0.227449191483057
0.404857218059534
0.480478749329511
0.419037729603318
0.375051453954812
0.396110040437714
0.399421985093177
0.351259018943793
0.256026286062679
0.114510653618589
0.0221909452761856
0.0753445895441192
0.133283079354328
-0.0090008506893964
-0.248553142389082
-0.334537123910478
-0.268783693649536
-0.190977626280098
-0.0917023361297195
0.04136145094555
0.0805236332540475
-0.0016490302027029
-0.0619187234704878
-0.063619948532976
-0.0956518398826168
-0.133162768349199
-0.104350430042504
-0.0863258220453868
-0.163698256785299
-0.268117581318633
-0.319328438362977
-0.290029019600866
-0.11295897374171
0.17872070547007
0.323234084325715
0.159098278319133
-0.111764573480363
-0.249722463298068
-0.280950847723082
-0.288580874744414
-0.241242599760117
-0.15285319754072
-0.0973495275683562
-0.0434003708018215
0.0518094758636764
0.0849860405386653
0.0051203440298493
-0.0193291632607631
0.116841204341847
0.251091070211914
0.24115587451874
0.16041001518336
0.0705301022368181
-0.0540916387267877
-0.129546011357281
-0.0528898630060714
0.0674264229794202
0.0982538691048256
0.120227502389845
0.204011860655865
0.219526353321024
0.0820686003203265
-0.106243890468275
-0.262676091571934
-0.376356731688283
-0.377953387624282
-0.2395492021445
-0.0910026673130548
-0.0221668778493299
0.0270957102522266
0.058155416334874
-0.0165275876255709
-0.150003156587792
-0.209959760648653
-0.193728008311703
-0.12654218536696
0.0704031099627707
0.376089236230494
0.592328745745829
0.635357348884408
0.622838176770962
0.612971383694788
0.557677240794561
0.492442422663297
0.487043638486208
0.491705004024275
0.468541493280082
0.507954985934937
0.608322234461694
0.587655663279614
0.400001311319184
0.235822390631582
0.170143751313591
0.0589467258172384
-0.145055003672472
-0.33233476030952
-0.477086857141126
-0.620476190103027
-0.728150585663089
-0.804032099125538
-0.936489880493138
-1.08702783179413
-1.10770934254036
-1.00544316901677
-0.889070605011789
-0.732632563043562
-0.484563124756379
-0.233913736692098
-0.0313204877386824
0.183042187664497
0.334034866392843
0.267554869979904
0.10557736869124
0.124487114245435
0.311288619347172
0.439683926151765
0.453462641892896
0.433775806440272
0.396575191574335
0.364473045457981
0.385871812997119
0.372873058623399
0.2104523328299
0.0228782945480667
0.0157029841864659
0.125128653672243
0.135340470661091
0.0238282161976829
-0.0956699974920519
-0.210520906640607
-0.343808094387236
-0.439255480180619
-0.470324059570838
-0.461197755425739
-0.381649742550979
-0.254204683213415
-0.239331433837418
-0.363861258548658
-0.400004487162317
-0.228004661145197
-0.0020218978350003
0.173505583051481
0.347730134642475
0.46472024685641
0.413887269964235
0.302277760299015
0.302926577295434
0.35953988794439
0.345975021104268
0.304718904807312
0.307350557544886
0.338731113569943
0.410342888148497
0.500829400946283
0.444128718448864
0.181029770719338
-0.0592518346044463
-0.102844668718137
-0.0838220274888534
-0.144711676456111
-0.215711845300838
-0.236320893714758
-0.266264168083379
-0.304688445439826
-0.291527724791303
-0.275559596241912
-0.325747381905009
-0.364322594641939
-0.30513280208137
-0.197020536782199
-0.0592273125740838
0.188665624870748
0.507038584915771
0.719957171126522
0.762769828612619
0.680534920917239
0.471274357747913
0.190624281801618
0.0048485554455257
-0.0790738147849228
-0.244131934117646
-0.493990401958101
-0.617758252527263
-0.571450364385467
-0.511066093861361
-0.483626332690358
-0.436891571170733
-0.406697715165311
-0.406522956585229
-0.335637991794353
-0.180488657542929
-0.0376268600646589
0.112949132546656
0.325469850224689
0.451503220259755
0.344937325561396
0.153363732503888
0.0994088441479314
0.190980782201013
0.346970489710729
0.518858472235653
0.582114068673255
0.427436140889262
0.188546063730317
0.0855028388939846
0.109011249727783
0.130255983311989
0.159827260631889
0.224307406816627
0.210889316131666
0.0892323585349137
0.0159481055187395
0.026584129751249
-0.0465335818652293
-0.231729895638745
-0.353878234738831
-0.351241134651086
-0.324165974908611
-0.320356318447447
-0.330447699430682
-0.361600006947946
-0.36840792662769
-0.312470404761343
-0.300697722683741
-0.407209267522113
-0.471833727205972
-0.356449833852904
-0.188160696346174
-0.092071138694938
0.0116124429338488
0.131972565682223
0.0936554946135071
-0.140903018867385
-0.374479677059559
-0.445867612722327
-0.319185574676671
-0.0185878543899092
0.282346591806868
0.329347961769022
0.134854312740609
-0.008320675161985
0.0512991565610299
0.186218779271525
0.276055801261548
0.316792728592957
0.286687003198483
0.189263351738494
0.145505984950293
0.216761497792993
0.287341865907633
0.280133023221086
0.252683246651163
0.198451104248066
0.0694517822471361
-0.0028470063999346
0.132147354817505
0.347508557329213
0.435895119064064
0.414171660840388
0.36076501835835
0.238484022662853
0.0820852281065753
0.0349357243553185
0.0983297118862159
0.154085745797461
0.18761277001876
0.200990514513022
0.0961630534880338
-0.0970683479463427
-0.164616237394436
-0.0642408465441649
0.0137637929566045
0.0141421289234328
0.04610435810506
0.0811257612185698
0.0177267413472936
-0.0818073568736589
-0.145123857150141
-0.250421884098157
-0.401428620602893
-0.445884226516487
-0.356443955725814
-0.261981846444414
-0.16702110068082
0.0064484913636949
0.140833080061032
0.0536655075859349
-0.16682018323067
-0.285240170506931
-0.259343596685372
-0.191677323259024
-0.129398348875568
-0.112535682618025
-0.188387420100146
-0.279049130694322
-0.28809303885362
-0.297751636012784
-0.393940801840388
-0.461976753403419
-0.404214278045611
-0.311521065914655
-0.243151444679527
-0.140186466739058
-0.0318896335851238
-0.0035499667496253
0.0052789482382852
0.0689189421733655
0.0976215494523412
0.0472773082284193
0.0499281800336522
0.146268191567461
0.209427171214017
0.2255290081354
0.297354510733225
0.393303703152478
0.436812077900341
0.503195555486668
0.625599868261126
0.646078633392753
0.503274074730617
0.379509848227029
0.39337111171717
0.435756045232298
0.397938902869408
0.297213531357363
0.161806616086017
0.0142687035249114
-0.0902984479760985
-0.184389342192109
-0.389477966665018
-0.646159570964814
-0.68672006066761
-0.415645596739981
-0.0477943469489293
0.193807005169995
0.23748679849251
0.0754924215756042
-0.19390880120785
-0.367474299060016
-0.391994783894491
-0.397469014948898
-0.387124233178039
-0.236954620682937
-0.0188463957018346
0.0700498724807452
0.0457982523689725
0.0376720800600477
0.0103853409920085
-0.0813389070536512
-0.101881116236454
0.0319372288317786
0.202390665040475
0.320003355386551
0.392118848495925
0.352155698864605
0.145615494891162
-0.095148494243287
-0.222800584482254
-0.248851057373509
-0.19879119084076
-0.0679137188305436
0.0172058886563298
-0.0809466737978281
-0.230907383469286
-0.187283000310498
0.0465003265820951
0.293018078820076
0.486429479923753
0.616375309148795
0.593719383098024
0.410007734861345
0.197738343106017
-0.0037192644910046
-0.241504313204994
-0.387186196938802
-0.261855756524869
0.0202325212866981
0.198205807745955
0.225071391868258
0.192179995306979
0.127329701839537
0.0770895570284491
0.103095977327209
0.10457363652737
-0.0455519947901242
-0.229653376365155
-0.265567137220198
-0.209778255835111
-0.20970987874534
-0.285130295773477
-0.428125716811353
-0.605396882094493
-0.612045292540583
-0.31219163258135
0.0326030872648382
0.0831686797978498
-0.0845814079598931
-0.179626809992386
-0.151292991163206
-0.125677059528525
-0.140721756661704
-0.17239274707904
-0.206356353795276
-0.191410156757561
-0.117956640522457
-0.108948684909754
-0.232997037403656
-0.343462511980791
-0.301296491827399
-0.181899747856937
-0.0874079429601408
0.0093586782227316
0.105255597175984
0.137755875672846
0.170401923439809
0.303601518905277
0.45727492757743
0.540142647322299
0.651223310199522
0.83168428171564
0.89372228699262
0.736527111046334
0.52733530215298
0.42826204057691
0.444658901198238
0.547348621485329
0.652183236790298
0.59475974076239
0.37296015180378
0.192714737801441
0.109173451746666
-0.0495017151542009
-0.3116147198694
-0.496210082011231
-0.531451543955368
-0.484283076968458
-0.3620574054333
-0.175887900087908
-0.0230384052335491
0.0802679462139999
0.196107428553622
0.232172627001087
0.036207021452997
-0.28603510701283
-0.484033951193684
-0.525311700563667
-0.532596946988627
-0.501711677383699
-0.391996665300804
-0.317734669643766
-0.376935421729372
-0.495264386531797
-0.607183917306431
-0.717040542474649
-0.723636211696862
-0.524951720384004
-0.263643924677472
-0.131152289477489
-0.0694833005380069
0.0378156536174652
0.124027553812692
0.127704868518833
0.126697250984032
0.13821585227408
0.0923980852137262
0.0346299708126746
0.0611718294043512
0.135863435429834
0.211887846396354
0.339915543548576
0.479256332702006
0.482257947162802
0.364070521891975
0.278243711140008
0.243860477081642
0.208831492405381
0.2415157621255
0.361003856432978
0.39691425231375
0.262167514722876
0.115771032530409
0.101978972640809
0.17969351997962
0.265161624338648
0.303858701041958
0.228938862523544
0.0630068242756561
-0.0415770280096404
-0.0405181532553744
-0.0769849230305545
-0.170171931017513
-0.126354369073869
0.0831827129986124
0.205430693023382
0.0933815627188614
-0.125431175375266
-0.298727799129129
-0.365049940280483
-0.300246386254603
-0.189775879940006
-0.180396153072091
-0.228619822355558
-0.16625100276952
-0.0322868388797907
0.0039428574348003
-0.0253452788452956
0.0086117328026699
0.05001686407717
0.0003017516207254
-0.0841948749505936
-0.158216832396109
-0.258765240218812
-0.311923751065198
-0.213960643763273
-0.0841192568758897
-0.0882417741181815
-0.149491098417893
-0.136945207554581
-0.0951053014633349
-0.0546108664435387
0.0671197113746408
0.229287410816783
0.275985829145013
0.238170636303347
0.284157767338474
0.390013386215361
0.39358422885559
0.302661575312303
0.241575280881144
0.209113206469562
0.148711455864914
0.0979164457605691
0.0852953809273973
0.0734743188407762
0.0668211580413883
0.0502258602897924
-0.0990902348738348
-0.386317158692715
-0.574499386473791
-0.512776565237056
-0.326502929328884
-0.142607701208382
0.0361968426573262
0.136527231030127
0.0686653830420867
-0.0580477053179963
-0.110243660873363
-0.168126189638708
-0.299169779690249
-0.359267515019179
-0.268759084790352
-0.175958243500518
-0.179912027295881
-0.202778234704279
-0.182044535318332
-0.105354489882456
0.0561909404682017
0.218705587615116
0.201439691147003
0.0389335841371442
-0.0132038350252257
0.119634387843318
0.249245778319365
0.274499373327404
0.280188427555562
0.297956162189247
0.273336363832134
0.225225200154975
0.195459602102776
0.152685120456751
0.122339266899181
0.201504927127853
0.32178402341915
0.290119648210718
0.125365365540232
0.0251047010780035
0.033885894087322
0.0723866234076647
0.149866374615229
0.250403675558556
0.239312390501984
0.102576253935028
-0.0090905522804328
-0.0746306038881727
-0.203325454563054
-0.353846792024822
-0.402823691867851
-0.3897940892095
-0.390514139336296
-0.346444952045325
-0.250401589077453
-0.226035877720977
-0.286296471818407
-0.317816970935375
-0.310974482319011
-0.298511167185547
-0.197845064939049
-0.0028823375989459
0.0993680886322113
0.032616518283089
-0.0394868497343994
-0.0246590723827112
-0.0156736918601402
-0.0375621389632298
-0.0095939800689176
0.0503614918253485
0.0794101825982814
0.141154389292729
0.280881052767339
0.376298520640192
0.362322268179871
0.35989415799565
0.402827523467313
0.358414785890804
0.237817681763569
0.221984573703326
0.334760621190026
0.432498249308369
0.457054421134138
0.413854201039495
0.270151886211623
0.0882826373229252
0.0177174446201233
0.0451429908473594
0.0331005988569686
-0.0071580036820889
0.0170291644840712
0.0586210732373822
0.0533885784639223
0.0550463858854479
0.0440794789689207
-0.103280499147991
-0.340299633741959
-0.492512774562854
-0.581540056692404
-0.740236111422247
-0.905238628727085
-0.940266716364072
-0.891004971397703
-0.844365522125529
-0.75875613547193
-0.60841901012055
-0.451776097127654
-0.290127193940544
-0.107178288465999
-0.0107064267937986
-0.071389698828351
-0.128576667279284
-0.0192072211057941
0.160679636042271
0.247831558501504
0.234389124439888
0.138454818883106
-0.037662194839367
-0.135784410465547
0.0118160297395077
0.272901829877617
0.405289117897201
0.426578951571142
0.473367736988842
0.525950219014421
0.539537685894634
0.569216043369307
0.606706318116511
0.586605833145199
0.567371914085933
0.609214650633486
0.599608985807275
0.481004880613017
0.411140768958613
0.463631498033816
0.491304972835723
0.438702191064473
0.416964177317287
0.413392794345487
0.305316415815548
0.118231619649374
-0.0562816371379896
-0.249680924194019
-0.471234470524964
-0.600062157626374
-0.595468607461821
-0.564885793836136
-0.538770372603925
-0.433392053953877
-0.255417302416462
-0.11065764851001
-0.0492395236829524
-0.0879126640052621
-0.257191942654324
-0.459911239362409
-0.480102400572055
-0.267790353280905
0.0058385617301663
0.204009414696203
0.274621914009268
0.143984332498866
-0.141672930809337
-0.344986088662776
-0.357800652405719
-0.334387411100112
-0.356144411133019
-0.321044122225584
-0.23669371423338
-0.223042930287334
-0.237557402164403
-0.18233481403486
-0.161586548520998
-0.27508104414113
-0.36300302327193
-0.258305182970311
-0.0411017850404726
0.14970306927421
0.269954372658233
0.269887934119771
0.144294027169715
0.0473372240709426
0.0999780490428133
0.20976907200062
0.252216048345824
0.229445446537088
0.169067078679528
0.100710971836792
0.12594727326215
0.274471659742951
0.373009522775817
0.281933269145388
0.117148533940652
0.0316325474155936
-0.0105722644794603
-0.050341834663228
0.0035166769887047
0.156108699234708
0.261954058715696
0.264254598935581
0.204631700777121
0.0537485462118396
-0.15229330130732
-0.194231300982554
-0.0013054534582465
0.168145414054439
0.123211599720688
-0.0187955175479438
-0.138086843676592
-0.27105609044884
-0.389619959319328
-0.392977486811141
-0.306958053891273
-0.19760958543681
-0.0200819114196479
0.227336827831899
0.42757836293885
0.550923627945453
0.657186685910659
0.689171051337809
0.576145118813913
0.439990371119601
0.406631931110273
0.401733095240616
0.350367117203638
0.309618210909027
0.263475904665476
0.096225093781971
-0.162009935885011
-0.363302291896222
-0.494272222066847
-0.6118235826232
-0.634160376716567
-0.495593125676707
-0.357065544615438
-0.383885547655595
-0.504733601568823
-0.597209421231181
-0.65496831117887
-0.647835016669256
-0.524605381744369
-0.389275040292865
-0.372637481081002
-0.409582878831632
-0.401253308885764
-0.397947397741525
-0.422977546347894
-0.39184334209609
-0.313958388248152
-0.266727591863427
-0.183819328400018
0.0161309467904501
0.224405345974758
0.352560498443753
0.50613757364938
0.721478346359395
0.857303070753697
0.894694680522434
0.968333025670167
1.05319330326724
1.00322633634173
0.844635672765543
0.693991502967126
0.545450487003642
0.401170099713146
0.367965038377862
0.431580278388337
0.403116176833028
0.201742380351697
-0.0579099724202081
-0.271547478402
-0.401754485436793
-0.402242217706013
-0.311010590265842
-0.28406301866264
-0.360985382717264
-0.419398390563815
-0.464887228488832
-0.625724772596007
-0.810835828404317
-0.788487009898712
-0.59717208231199
-0.46863655260116
-0.446246153623046
-0.441352802117587
-0.460810431898837
-0.483940603833065
-0.383537527090684
-0.156297034035792
0.0625201034403173
0.252497344229339
0.462239563160169
0.607883125593931
0.625368292962959
0.62508448055189
0.647076409041601
0.557952019332901
0.364811585828938
0.274141912260782
0.341154191223341
0.406162771767307
0.372956385434876
0.266496718920821
0.13086325401449
0.0590999092828614
0.113527928101728
0.139156548034346
-0.0558952741376788
-0.350052791847266
-0.471738246870229
-0.431016830475238
-0.435103994914776
-0.49757972502913
-0.486103555246098
-0.412729658811995
-0.361500916277042
-0.307134074585787
-0.239778438191456
-0.231068925351346
-0.241072865403081
-0.150908652447952
-0.0131692683310647
0.0374905900363728
0.0336709992511223
0.0549137832873898
0.0542405120351326
0.0214395141208303
0.045490884395052
0.0908718531606064
0.0331934587723229
-0.0602184661002266
-0.0160301091501803
0.146353273637833
0.283658145656394
0.343587076848561
0.324813551047712
0.25520983723491
0.271020125734337
0.422462921497083
0.481397912757606
0.282466029717706
0.0519912993996429
0.0500816811191106
0.168877900635806
0.188625066609042
0.109786566758996
0.01007031705473
-0.100011409189688
-0.152879948102297
-0.0654689207071619
0.0613032481471092
0.0671586623012339
0.0042736042880156
0.023526290272099
0.112345696938994
0.171059232692765
0.158998125746531
0.0125592406184152
-0.297065948386383
-0.548249775271719
-0.469339698847975
-0.157093307962102
0.063723585751987
0.0903142891457355
0.0263700109377791
-0.0621560984598706
-0.0964859056604685
0.0357203769250083
0.266916169275522
0.396589371016047
0.385175362724439
0.314016571097307
0.16836065406078
-0.0473161698920076
-0.192322798784716
-0.235841365414738
-0.3403851301251
-0.546783056504009
-0.700713392072869
-0.734173102312864
-0.692608494054149
-0.564614542480167
-0.379946161938521
-0.289042062228226
-0.319621077959886
-0.314194835152442
-0.230999273294133
-0.188455238012381
-0.179930900576216
-0.0946430450065994
0.0123482452847839
0.0185497701948395
0.0044718626749771
0.0949656750208606
0.196051009550774
0.202078518784664
0.236318412122894
0.405845240541525
0.585095850849011
0.64653716289454
0.622992857387593
0.558835531671383
0.483470380689667
0.485713889212823
0.564780706834506
0.571007632693398
0.46916951318414
0.392862607633854
0.354144526675602
0.241360087131559
0.0996080827626996
0.0464141012453944
0.0028053050212587
-0.146436537846783
-0.301298566826073
-0.340351684410102
-0.328239064085543
-0.344061330260077
-0.372506455326733
-0.414048132598244
-0.421771132646317
-0.233697993700614
0.1443622885006
0.406246281277498
0.355621270798246
0.174507509202968
0.0963661145277576
0.118970369358696
0.158053227018666
0.181557979302859
0.134586907837745
-0.0094671685627295
-0.14910490127316
-0.218284766509598
-0.31453821272926
-0.470718573874628
-0.531043442675768
-0.430694557868728
-0.308745589019089
-0.232175096000291
-0.138839407540861
-0.0672402298168679
-0.093776966923396
-0.127851594578621
-0.0825241776449609
-0.0587966221012315
-0.118676693562303
-0.153240025124629
-0.127078865400223
-0.128148708172713
-0.134208585364907
-0.0642327438418905
0.0106922225121834
0.0053587988276267
-0.0143302460204569
-0.0190000069579701
-0.0737394642902612
-0.0906008432543182
0.094208552013667
0.365529489110831
0.45242676656438
0.337303435397589
0.183442084491461
0.0346686050288937
-0.105135267013345
-0.133893045914786
-0.0245743042849058
0.104470029685283
0.200260783797568
0.305851719498352
0.376941072892616
0.331166569860645
0.223314601184567
0.133702473937171
0.0188932196503752
-0.112984564861923
-0.105833793741838
0.0629359697802884
0.177217297364009
0.102816876422194
-0.0705198677030858
-0.23464486896898
-0.320185538999636
-0.240819622738699
-0.0459728488501836
0.0591349021944419
0.0293763861269719
0.0339643161609886
0.113706803828629
0.141566338693728
0.118991738183158
0.136866825963914
0.139398877375149
0.0651554857448693
0.0196070125825096
0.0337344529417347
-0.0448052079054226
-0.223692782096381
-0.298866308727085
-0.217087495480646
-0.122410615397127
-0.0552757485285101
0.029783592760878
0.0672271561170275
0.0199901461485595
0.0227303026519493
0.139873960570664
0.213203834227111
0.121143551879011
-0.0488138666611211
-0.181004527327365
-0.254117135570132
-0.26314090219415
-0.240166909273659
-0.299040162540392
-0.452179069338592
-0.515630144445746
-0.381053278344574
-0.186099835610904
-0.0869747616396069
-0.101397404893006
-0.210756587677257
-0.354150745030517
-0.38445072469463
-0.265748331629098
-0.146116112270243
-0.0724132693582606
0.0823417873212269
0.315809880739013
0.480399769565353
0.587661382462993
0.753605808445207
0.91439313145511
0.946162470823908
0.902171008200408
0.849651056258477
0.731317378369205
0.583023265923504
0.556075702068322
0.618324356138579
0.577450944595137
0.400493102769119
0.209165956278647
0.0702707308745313
0.0148110138680758
0.0602764940698115
0.0802989086628555
-0.0872462705024089
-0.358627388415596
-0.511445279154789
-0.531400643586052
-0.558095691464796
-0.586814744124196
-0.525165655317409
-0.418611748066152
-0.366577436621065
-0.392877063160604
-0.555233584873035
-0.892310815755568
-1.18373247628048
-1.14800721931876
-0.885309157227313
-0.71234396758601
-0.657267670661951
-0.530232995607831
-0.314719391320072
-0.125882157399018
0.0053126417857632
0.0736304190058769
0.074037244651155
0.105724932594615
0.226191894870044
0.291329441470314
0.228112229072703
0.231097907024849
0.397992310298447
0.500489349755927
0.37675363708357
0.189145554132494
0.121086797874548
0.172276662379238
0.299413049325907
0.437356781946111
0.452452865958568
0.32808023620665
0.229301087915451
0.228448019422115
0.218100877043676
0.169346332588305
0.165897650627525
0.154907792567739
-0.0076809487163256
-0.264962394661038
-0.414473471084014
-0.403046564335804
-0.303955508777258
-0.123452209111335
0.144302448644122
0.429103023828946
0.678055898291955
0.85135282288924
0.857668186771128
0.724872664522495
0.662409692936737
0.716229856705334
0.655676815698807
0.405294375341182
0.195491705053941
0.13510468321436
0.0753519104999229
-0.0282334398821904
-0.058326198627321
-0.0236254120873004
-0.0161003336166285
0.0038562201671737
0.0772877659264976
0.110764022595243
0.0617791086077574
-0.0148841916966916
-0.152066563253104
-0.375029882441421
-0.517877503238176
-0.483727012172695
-0.483110117763875
-0.690734801018759
-0.942916725807668
-1.04018499854444
-1.04198649470981
-1.07025012776013
-1.11617594871097
-1.14291896991859
-1.11415780493116
-0.92819912341871
-0.581796864769494
-0.296588682328911
-0.228611278651219
-0.229213982599284
-0.112900719090246
0.0830947622584295
0.256761738045056
0.364628820066952
0.33723643789792
0.181178265891859
0.0968585034943735
0.203550397447865
0.331712769194018
0.325835054880274
0.267148248225853
0.230217035403342
0.171594109129134
0.146289047579216
0.27238950082785
0.490206911369056
0.670901191359391
0.829338711647726
0.984839527136695
1.07097457798781
1.14543551046032
1.33291766980956
1.49474399527231
1.37084463579049
1.0308272693768
0.779639382343186
0.710909197313344
0.685139262930298
0.583738661774647
0.344242167708195
-0.0503818210990346
-0.470811544431523
-0.736242293080837
-0.85232802882986
-0.953776471691808
-1.07192434760635
-1.17334535436647
-1.28746975355564
-1.38295942738959
-1.33452012129985
-1.19028804909112
-1.16509877280289
-1.24016110318307
-1.14663587550112
-0.814202389498752
-0.450788760541182
-0.20252524158281
-0.0763980527035771
-0.0621361069676123
-0.0585589319771101
0.0949891126570731
0.352686489286065
0.522588258833143
0.618387956906023
0.795779121293243
1.02069464507876
1.16949459138555
1.28620601422557
1.40370093388247
1.3557071092729
1.04629905255704
0.644501738071328
0.353454066787473
0.243295057246419
0.311417775517614
0.444901011228819
0.432515115837979
0.22559315670004
-0.006527075773157
-0.194344494536614
-0.452960154009603
-0.793360986547774
-1.07988031360633
-1.29502877205422
-1.52213953025148
-1.69057052733577
-1.64739590070875
-1.4191014104703
-1.14485327166016
-0.877962085770133
-0.638108391766452
-0.453398734741887
-0.257557227859999
-0.0092648403586064
0.132336008179922
0.0724891827512309
0.0406291538107253
0.231064522787019
0.454519497428875
0.475546606789682
0.372706178101464
0.318564169075675
0.352924468678179
0.500070833580152
0.756325656248233
0.963314027618518
1.01372256239852
1.04413318269374
1.16549665195648
1.27315137122389
1.30820501754608
1.33980532990761
1.29147591938953
0.995568824717241
0.525258665171341
0.103043442699275
-0.205466422224382
-0.411833430073614
-0.459945598961934
-0.40523789999861
-0.458297019375477
-0.683162010450987
-0.920758622465374
-1.06161898187833
-1.11302744647262
-1.03897494842502
-0.837700568425097
-0.682428119300638
-0.700316106379879
-0.765448205175601
-0.729659109663979
-0.611335282000854
-0.407329773735618
-0.0455776882715599
0.392260299700273
0.727988764043524
0.935178927428582
1.05340957463418
1.03930061318775
0.941291241536124
0.938955183989408
1.04640076347616
1.10933243486753
1.12870118602935
1.20471132280047
1.23397896257321
1.04388387600214
0.669014151771353
0.197876099672298
-0.373967505302759
-0.929307166051824
-1.24900070093714
-1.37435510104898
-1.55233430419285
-1.81802868350085
-2.02155414023733
-2.15720388356477
-2.30841783258789
-2.42417198105118
-2.38958926580936
-2.1183046169988
-1.49297879472234
-0.508535658142796
0.507075398694074
1.13223861545173
1.28158818531961
1.13192780079784
0.795082314975568
0.368638531068875
0.0534943699080771
-0.0960335726385063
-0.24976293496931
-0.411270283798428
-0.329922267077634
0.0537202188890104
0.487551219481775
0.789049626046499
0.97141496211779
1.05405716184597
1.07651728675849
1.1691290926636
1.39354648298869
1.68927401244337
2.02162147169037
2.33333171355463
2.4479110445943
2.31934324143576
2.18620365995192
2.19999959495757
2.17194183905892
1.90244489996328
1.43928670057722
0.896942992610667
0.35899645756058
-0.0532293032129209
-0.336406217624856
-0.6958083951195
-1.21392402936929
-1.66078802773777
-1.82840460028059
-1.76402513955798
-1.56564994302181
-1.28606864277613
-1.10283552730801
-1.2453987424271
-1.71014164902302
-2.29589507840088
-2.84805206170893
-3.26382526689681
-3.46634480366526
-3.5706642524386
-3.78372515035772
-4.01057117806413
-3.93103937349525
-3.50105235477397
-2.94122056947565
-2.26805072270779
-1.26957906741646
0.136226221750385
1.81150270303528
3.4529871783159
4.57887725669936
4.82987307578633
4.40830461026643
3.86450622387795
3.46006732122734
3.08486795412802
2.64334883363854
2.16208384544399
1.70159316323521
1.39640231024913
1.33540698888548
1.32775207955561
1.10880619500337
0.731694048633206
0.425861283369
0.234111833655539
0.0935378110559344
0.0237069249513006
-0.0215036749972235
-0.20563349145812
-0.534596100549764
-0.805597473440002
-0.90232721312576
-0.863850369191243
-0.692577792857338
-0.399908154056678
-0.146887268726528
-0.0329068325198934
0.100181186359472
0.378902035411382
0.626777987791311
0.593270907035618
0.220169053821552
-0.397773016064686
-1.05805050498395
-1.52044501230167
-1.79045267783711
-2.1410630299962
-2.64458913106359
-3.00952614854321
-3.04824007155506
-2.90068836170377
-2.68163239572346
-2.32275087161341
-1.79075756817136
-1.07715572304479
-0.0540336830930588
1.3226817999953
2.82226443544209
4.15894924149362
5.1385078330633
5.5160243628919
5.10866529970865
4.1052790742742
2.92207584237006
1.80928417806979
0.853422463492044
0.139487679325688
-0.356102640527886
-0.803189727098754
-1.28150050034716
-1.73422004273863
-2.17395555989499
-2.63396111406889
-2.95869125163798
-2.97996180222074
-2.82907538231701
-2.76338756907497
-2.81032616450005
-2.82927584600449
-2.70709809280146
-2.31329919371559
-1.56372217126609
-0.652884619902086
0.0783072623168719
0.523274457253494
0.805852147145177
1.03901479398479
1.3239310539075
1.75148161902392
2.21366244847519
2.47596326452918
2.50659404283381
2.44679462457676
2.32430408676957
2.11051961140527
1.89090288743412
1.68400363042246
1.33597784098767
0.820377187136967
0.35959310986864
0.150879324934519
0.269647171066619
0.758374610274178
1.45314579538963
1.90056835129544
1.78902028820221
1.24988759803783
0.526723939962316
-0.321446352052173
-1.22466994382115
-1.97674532836903
-2.45195541763238
-2.66879118249859
-2.63117611722415
-2.39027198518187
-2.17283212552539
-2.14740118057796
-2.19577026168206
-2.1437271970631
-1.9895738748966
-1.7525469895361
-1.40933800310359
-1.05370716172368
-0.782638940304549
-0.474341516327824
-0.0130448715361475
0.438924808499914
0.705577729690578
0.88776702792354
1.15319985041207
1.51936274277631
1.96345608194619
2.44373930038455
2.81214262725041
2.98473018980601
3.06557810912531
3.08759878276755
2.92320607101096
2.61404977865828
2.37517731042762
2.16148334910761
1.69018992941968
0.927101785176366
0.114493565512615
-0.612184099561928
-1.25848050720135
-1.79267414431951
-2.24009417420739
-2.74271311251909
-3.32016407845584
-3.80464675420686
-4.1090615772155
-4.30082076516777
-4.39099831469847
-4.31901896942044
-4.1132672934142
-3.84025441091327
-3.51093016267889
-3.19116210991848
-2.96580295201502
-2.70841286225264
-2.22839316028142
-1.6406423251993
-1.17511027093045
-0.721457120725145
-0.0050506158751098
0.95406878727659
1.93689996185083
2.8274354175938
3.54260050008133
3.99237358073548
4.29517806847171
4.68854068028459
5.1619571612769
5.5010262924885
5.61798423685573
5.54012263453436
5.25728492256458
4.83612417387079
4.4546921162187
4.17117398384878
3.89455688272563
3.58077476235759
3.20992425202762
2.70145174212057
2.08234576079915
1.52657900601533
1.06711346077535
0.550828059366343
-0.0233857811610838
-0.438654869021815
-0.586961704787451
-0.576614124933786
-0.553199059004449
-0.698925387457128
-1.26407279415236
-2.2515588839365
-3.23515284183724
-3.81192463930325
-4.02858604679022
-4.12560195613241
-4.16860742251003
-4.13816537448111
-4.07028966968698
-3.97464823011253
-3.85057118679483
-3.75054039236507
-3.6241868481587
-3.26182299000345
-2.56251234148341
-1.65328292473148
-0.697669945268274
0.139926980484611
0.605850032175191
0.567575586192554
0.208675476738235
-0.249140763424314
-0.807179441398733
-1.47131443023038
-2.06943418433552
-2.44280186993908
-2.5490705769819
-2.37018970070943
-1.9872669813167
-1.62197180424188
-1.36091603477898
-1.05967741823496
-0.704618600898445
-0.567100077337203
-0.829147330285052
-1.32622532135344
-1.74145036387735
-1.80905932885999
-1.36184212474734
-0.461292424190797
0.585463737986741
1.55956458380343
2.49511988216157
3.33183652017976
3.75615655882001
3.62584107009832
3.20104440687544
2.79936875895823
2.57705653485475
2.66611308983697
3.12624663430302
3.78381184068066
4.40877516551856
4.91144057403158
5.19841584130453
5.1290375078577
4.7416989853666
4.21095245146522
3.57517798525375
2.83025649919135
2.16629270894701
1.76933981105484
1.56948191623729
1.44870293968176
1.44923458533709
1.59683826158196
1.76501230393386
1.75310647953073
1.29566374903102
0.169108437217471
-1.4609441798237
-3.04365996622806
-4.19878854964148
-4.99382330778538
-5.58237098247247
-5.95038862287948
-6.12230018565456
-6.25510720608091
-6.43239430498991
-6.62380023070492
-6.81740416617764
-6.9568336132196
-6.87235241428022
-6.45578371201922
-5.68692792189324
-4.43384292982496
-2.63273082473451
-0.700263737092481
0.709513666060808
1.38060207978235
1.59555225756413
1.69998467284378
2.00504632479524
2.85719930777614
4.38020347210547
6.30027985738394
8.20651266246143
9.78071421707988
10.7958632222212
11.201681365513
11.1488380046416
10.7101236657592
9.7905683214787
8.44837204026092
6.93539385892299
5.33474733185002
3.61588567513809
2.08907072015463
1.32489870499468
1.55460863955717
2.43172708908265
3.33022271253362
3.76627838519763
3.71560386916749
3.48433380952976
2.98581160030038
1.38316705417731
-1.99420801412672
-6.52703144456301
-10.7061909908321
-13.5837143814155
-15.3165542637198
-16.4596964970713
-17.3194561751925
-17.9161869893189
-18.1005086671339
-17.6979243540657
-16.7063024790176
-15.2521836826532
-13.405850063348
-11.264090834159
-9.07335406213162
-7.04389878138674
-5.24470672894888
-3.79533241003921
-2.81281963969654
-2.08091596299448
-1.15696778438832
0.148247046997615
1.70640761810216
3.36706193827331
5.01595895582331
6.55007871123745
8.03699784668992
9.64127237913387
11.286878737843
12.6986670790075
13.7131529996746
14.1870724602453
13.8280031467652
12.5829985939469
10.9850466253579
9.71855064335786
9.04623842597687
8.90153518091116
9.21221000280711
9.8377207316531
10.4149339098442
10.5088516155547
9.89499429849552
8.78397774203778
7.86521787939989
7.78071210107639
8.20247730961337
7.72851584154746
5.10972519792933
0.460392887084503
-4.88397469733545
-9.46816657559205
-12.6458676030397
-14.730879610222
-16.3456816059471
-17.6506032282316
-18.442421832079
-18.8763968168954
-19.4733645127779
-20.3207753766946
-20.8532131483882
-20.5546037823507
-19.4153642889874
-17.6659398433648
-15.4593297585486
-12.8289660260133
-9.7583270001077
-6.36773916546516
-2.9917035154965
0.199498061664963
3.51605357844978
7.3163997696628
11.4225897363521
15.3018901091658
18.6330840819636
21.4552957347403
24.0079872051341
26.5926419618473
29.3464343949954
32.0660957019759
34.4274471710644
36.232838401887
37.1459157665396
36.4524395944352
33.6142591286611
29.0008498770718
23.7240646180992
18.822314407583
14.6615607954407
10.7539533197568
6.10579436521014
0.22444177319697
-6.18469946474502
-11.9345529121193
-16.6007038669875
-20.5905787972299
-24.242365703387
-27.4069299283131
-29.8307547411935
-31.6093935593633
-33.2274797810755
-35.0838495233913
-36.8520422638873
-37.5532338332026
-36.4832034435456
-33.7952089840789
-30.0666180674804
-25.7357487556614
-21.0717378749016
-16.2429452595224
-11.3528187368617
-6.71587222635459
-2.89718986887955
-0.171496678851608
1.66013995609268
2.55779898267675
1.83372859091402
-1.0724019370955
-5.69229120079751
-10.6521545406198
-14.3818748462432
-15.6308925975657
-13.8668751915255
-9.59915804137995
-4.16686567597996
0.97732623509775
4.8947938313015
7.48724356085667
9.49278896078848
11.8619329758108
14.8182716378498
17.6293954661166
19.3209110614932
19.4763566665415
18.5259693334884
17.48134935573
17.1619950762746
17.5025886048708
17.8217847736084
17.6994838434286
17.2170432227239
16.5300148645238
15.743317557624
15.0617041533247
14.576753022906
14.0451650684098
13.1922483241514
12.009636138482
10.6021422355923
9.06592647714036
7.56649200856094
6.20170921045623
4.83715046763294
3.33228354431302
1.74265583706542
0.136895079198242
-1.43637104865764
-2.65226600479881
-3.01448327195354
-2.44453560810694
-1.40398427201018
-0.317916467407804
0.786205951070684
2.03601110999115
3.46299583143521
5.03286258921055
6.70811210177188
8.51814784655773
10.6015446954397
12.9693968367166
15.319296476634
17.4295696485619
19.5004608075294
21.5562101208793
22.6992491174693
21.581296851723
17.6924328696087
11.9743221230555
6.23642880662173
1.94384149856999
-0.745410587108728
-2.88547776821555
-5.72610805126527
-10.0285024794537
-16.1931922010268
-24.1692454059018
-32.914616097438
-40.7353532776389
-46.6213151669878
-50.7858118914682
-53.8302949406657
-56.0280848034427
-57.4602782372607
-58.1785959222977
-58.0761691723622
-56.9545232685513
-54.7183165358354
-51.3391617909902
-46.804675727986
-41.2143404633461
-34.7131046111573
-27.3488711058105
-19.2867152322181
-11.0299136522661
-3.01892400461902
4.81628561871257
12.6431412260595
20.0792428069431
26.4547512597132
31.56650327969
35.7832938910639
39.5097848147013
42.7579197509496
45.2002269163861
46.6691272427397
47.6062533032496
48.7267581744486
50.1673539247343
51.3280609831865
51.5620154317311
50.6100361102883
48.5067266762669
45.6529951593618
42.9061506773702
41.0355058373678
40.0071914588138
38.9210071198576
36.414125934087
31.2006345908692
22.883879917784
12.5101503151289
1.96741821566462
-7.26227300120651
-14.6758842324913
-20.5125496253289
-25.3592297899896
-29.6971374002826
-33.4935320368652
-36.4138604133596
-38.4791966566043
-40.1224790206086
-41.5248850176292
-42.3233006964833
-42.0847673842396
-40.7445143692646
-38.5443528676347
-35.7759643489135
-32.5155647551787
-28.5113972966903
-23.5739391882116
-18.0819255564782
-12.705188627698
-7.64825012306687
-2.59278291606297
2.67737567533572
7.94620641612586
12.6916182234992
16.2706108535573
18.2290317213701
18.6471806060916
18.0049452117661
16.7280282237289
15.0695804050893
13.171334991808
10.9099510555674
8.04633247369893
4.92775292600467
2.67779303684621
2.28483739763473
3.70970169068019
6.01936056821835
8.12195817455073
9.39918581290697
9.99820177261151
10.5765588387762
11.6222500637928
13.0742280983466
14.5615913329007
15.720344561737
16.232656731723
15.8441743064617
14.4416579039635
12.0093268700479
8.62933598332385
4.66546299951681
0.681388360937625
-3.03446388425931
-6.55086242019014
-9.73592582205762
-12.048209666448
-13.1007873043209
-13.1088337427378
-12.7473161887431
-12.870609872191
-14.1761244273592
-16.7222022150692
-19.907856192184
-23.07672054021
-25.7610981750342
-27.3126218861563
-27.0230817770062
-24.9048223053903
-21.8321388756852
-18.7136414455556
-15.8644637777527
-13.1267955338143
-10.2150412066854
-6.99623618396719
-3.63873486737331
-0.360565838513819
2.95406794270962
6.60765638704549
10.6443318064665
14.8403151879032
18.9728699981495
22.8547767965934
26.3570428947597
29.6178501813662
32.9211661306543
36.1125317653774
38.3239796570386
38.3941465855411
35.445347037715
29.2610607549806
20.5656629343188
10.913787682705
1.88309400189773
-5.75971476098818
-12.0839168603948
-17.4187047778873
-21.8210168971593
-24.8947435408729
-26.170944104664
-25.8065258470353
-24.6249577938095
-23.2999392410687
-21.9347397440649
-20.5763314298313
-19.5075237127215
-18.7769452650373
-17.9847367448117
-16.692137342224
-14.5756369634626
-11.2329984813691
-6.44553164946602
-0.704265238227769
4.91977904532846
9.49198988389875
12.749322780565
15.1305291871752
17.2904759668223
19.3775379731236
20.9347955940677
21.7178648398737
22.267733864294
23.3345416734199
25.0010400994642
26.640643675053
27.5141765406221
27.2379722110046
25.8500340745399
23.5245741665121
20.2211515320549
15.82680621469
10.7050578594034
5.65084874693383
1.07769321889021
-3.27186385672833
-7.65040647059757
-11.9928758499898
-16.4667469796896
-21.5754210765404
-27.3480288647261
-32.9069419144398
-37.0528958323748
-39.0131709083548
-38.6803807921791
-36.4084658884008
-32.5712203868309
-27.3569328495341
-21.1830267764327
-15.0173141466534
-9.73355396777124
-5.24390265607683
-0.692041972505521
4.60550437940192
10.5697638384311
16.2975441981121
20.4113723075653
21.9803362651339
21.3304027573404
19.6593052296311
17.9339108549295
16.46170282233
15.1896124511336
13.8997325268768
12.2876958153877
10.1903617459846
7.59533899697217
4.37139243789825
0.39783494356792
-3.85659637051474
-7.24290447267991
-8.69158856660395
-8.02255037546285
-6.07334826617455
-4.13689097557398
-3.06236744358958
-2.72697323340909
-2.50566694382205
-2.13037024287459
-1.72787613021161
-1.26377647563982
-0.563820993934057
0.242034951822971
0.849325261282188
1.22540978616749
1.4984903953749
1.56864133790195
1.14831588613521
0.0807751851358291
-1.44640450846409
-2.89019878848207
-3.79034461336085
-4.4435184551177
-5.71212641237109
-7.8652935244806
-10.1821309535587
-12.0530832868313
-13.7971271711469
-15.9119552111392
-18.0638411490167
-19.300664650995
-18.9826149292801
-17.2423430529274
-14.7034048653536
-11.8891548984314
-8.88821267649185
-5.5821305614248
-2.02570342103402
1.65878836727032
5.60860705167396
9.99203959052724
14.4840830835332
18.4503250035086
21.7260814081615
24.8398851753993
28.3677217008688
32.1998212173483
35.3847254599793
36.7652812944616
36.0891102490938
34.4283184416798
33.1685343721744
32.7585984098566
32.7217124001291
32.3788592914465
30.9984133653911
27.7164264228103
22.1113627293937
14.8404325506195
7.28652340230248
0.483961217600764
-5.62959497476619
-12.0289216252386
-19.5613883694853
-27.9002901716084
-35.6221339475831
-41.3093065565444
-44.3339458378598
-44.7876816071181
-43.2642128939321
-40.6969237368804
-37.8331940201378
-34.7427578700967
-31.0924033488265
-26.8007609014463
-22.2010848296905
-17.7015510740981
-13.4240277193886
-9.02467568687372
-3.87386546372141
2.31322070446185
9.00597186902538
15.2101401447632
20.1337320393328
23.2767600690929
24.2189167820747
22.8014970838974
19.4152196879851
14.8774189655456
10.1094076353986
5.80044560850292
2.01312589188681
-1.77906321069136
-5.94883203637701
-10.2177347735364
-14.0849637175608
-17.2945036198013
-19.6491507088406
-20.9313121945438
-21.3147558950833
-21.377249944029
-21.4713229618511
-21.4238889888687
-20.8796005038062
-19.6083133084709
-17.554346347872
-14.8641643540601
-11.7726674604616
-8.35896263793074
-4.57643988660299
-0.484254401366546
3.76409412466568
8.06727778641544
12.3821865375073
16.795670769154
21.6522464832887
27.2399188811223
33.1558295220396
38.2381092544927
41.3061236199007
41.9232776121958
40.5708550365314
38.2954426517758
36.035512737428
34.0557142942641
32.1847163232724
30.646356451167
30.1567112485867
30.881635789672
31.651019448249
30.5824711039604
26.5277736599012
19.9992714060188
12.7593090369763
6.33989005177083
0.951980495583602
-3.99022494955246
-8.62919658908721
-12.5483785258015
-15.6325503183564
-18.2701057948372
-20.7354492580792
-22.9447608729057
-24.7329669559637
-25.9428750104669
-26.4043233077194
-26.0853863302805
-25.0055738894978
-22.9080455991488
-19.3941837536189
-14.4581209969109
-8.70518545949838
-3.32249022085749
-0.0981349283357996
-0.912976892607829
-6.50015006753005
-15.7026061331764
-26.183837035265
-35.794013319025
-43.3211076357287
-48.3892711428533
-50.9549793245644
-50.9088527119958
-48.2219411585915
-43.4314220199104
-37.5851315443267
-31.544992432566
-25.6606386521871
-20.0663597481566
-14.7412461705203
-9.33092978411826
-3.5598881971776
2.18195208929711
7.2043567895227
11.381000143979
15.2064959172023
19.1862071123397
23.5822235987134
28.5691246908051
34.2386625752644
40.3685893641723
46.1254652933605
49.9660624951982
50.2945950744782
46.7984998383748
41.1134734261151
35.8122565341854
32.5412473183434
30.8943668142561
28.8167488993233
24.2961167709114
17.1299932928552
9.15808406531153
2.70704694233878
-1.09722402885569
-2.65459520507706
-3.08366103515157
-3.26027696161942
-3.27852298842828
-2.66737288351799
-1.28158778853917
0.159919520336876
0.766368275169492
0.555842198948003
0.425459730098854
1.11933436191689
2.49358996344793
3.61730173001174
3.43707332397012
1.69151895470281
-0.604004813464683
-1.82888563474924
-1.07349797042265
1.20946142892084
3.66058043456022
5.09120997082065
5.48413617363118
5.91833792777831
7.00780962819894
7.56274584733102
5.60608040840394
0.800837803005009
-4.81802636826896
-8.63096904086519
-9.51479658362276
-8.31724108001743
-6.81601112775429
-6.2215304584162
-6.47045999987002
-6.971102189144
-7.83488758992401
-10.0329084915289
-14.4791731893924
-21.200572776242
-29.0395913656285
-35.7993960089477
-39.1393681668285
-38.0487389704944
-33.5807750504126
-28.0171660032787
-23.3643960166085
-20.4390245111433
-18.7597153924
-17.0645816717076
-14.3544026966505
-10.7700971925962
-7.41970032681378
-5.35192059069368
-4.6629115309662
-4.38658077907319
-3.30169022175058
-1.10822928081752
1.34472832249099
3.26298657833227
4.96483746918726
7.2394246482412
9.88371529221378
11.4020380475149
10.2804160036776
6.52715836492764
1.9715479354534
-1.13658308018018
-1.94201368694608
-1.22332430957128
0.0181685121538536
1.54218281332287
3.38810905756801
5.24519384838564
6.71387034278607
7.75817461819385
8.69665349126656
10.0282267894281
12.2322394462884
15.4279712064947
19.2273489414275
23.0064407198922
26.219757244918
28.6034711941865
30.4861256472573
32.8300558248145
36.4493310855205
41.1084214257118
45.6791441651439
48.9777244068804
50.128042796811
48.6850632798777
45.1811066082082
41.1921063068343
38.015827342446
35.2543308715177
31.0769514571398
23.8731283443338
13.6554823623946
2.08781036361979
-8.86902223245032
-18.458883673238
-27.1583808987563
-35.3388766938007
-42.4770551691093
-47.8051185191855
-51.1770349141782
-53.0683750489406
-54.0856952945079
-54.6512862629363
-55.0682975100283
-55.857107633718
-57.7288252078644
-60.7002966573978
-63.3248427911801
-63.4123875297797
-59.659911058856
-52.4006362816608
-43.0294141040652
-33.0116839077077
-23.1983381629088
-13.7981155737095
-4.98867121770221
2.72038763734986
9.07972385985188
14.6880322698389
20.3489868313457
26.0113564940437
30.8598152282665
34.1542832498326
35.4619109451368
34.5432379409585
31.7222797083189
28.0473559247966
24.5503299330429
21.6500608316223
19.497095076403
18.3043221383446
18.0453475282003
18.3536360510146
18.9484124186493
19.7941633845378
20.8177833121609
21.8480337908148
22.8921739185027
24.2436108396295
26.1594659689093
28.299180052418
29.5476362017351
28.8286522356018
26.286813053625
23.3071988395291
21.2534707831
20.5060796133868
20.5376715139962
20.2687180396951
18.4300803772606
14.3002730972845
8.28647062199765
1.54099769551893
-4.92248857171734
-10.7274107393532
-16.2842005249941
-22.7260304045076
-31.1315876644774
-41.234989089839
-51.1221691922651
-58.6645712360559
-63.2291759081814
-65.7821929206355
-67.4212355337205
-68.0026797166402
-66.2670685824801
-61.2770620966047
-53.4983091405461
-44.2192045103203
-34.2198886700324
-23.6046103772547
-12.8058268290232
-2.96155573049543
5.06766716840207
11.756114413758
18.6130259326376
26.5763457129874
34.6163965337507
40.2528643491487
41.8777656235773
40.475821569355
38.748503250522
38.7157242838164
40.4478881860235
42.7914895035202
44.7177548517891
45.8133266963965
45.7609852517989
43.8716450348903
39.6605869431463
33.8362355069383
28.0483522169923
23.3898584530426
19.6420514811666
16.2077344703183
13.2202397295651
11.2952408174777
10.4488068541463
9.65903312753945
7.6052721473203
3.86142170265204
-0.66508461786354
-4.65301238333328
-7.75250609672569
-10.8077587353969
-14.7188374381955
-19.4641101826073
-24.2587814161159
-28.2870147857816
-31.2982678801507
-33.7824382478926
-36.4011000836081
-39.0788375909999
-41.0785051334273
-42.1260082357141
-42.7944864798389
-43.4774567499985
-43.63138779378
-42.3898130522935
-39.4651267858098
-35.2554614314571
-30.4419045162286
-25.5433451553275
-20.6169932067889
-15.47382640439
-10.2682048798032
-5.58977139451144
-1.96112716037787
0.387307428888675
1.38634272104902
1.35044938732625
1.31392683411563
2.61619751620795
5.99038738566348
11.1766566788828
17.2817199936783
23.3729489379231
28.9414468844083
33.9403399874973
38.1885885406716
40.7642673616192
40.4423925801936
36.9824833311107
31.7828746469866
27.1037140962983
24.5845972947588
24.2644743468997
24.8690101785282
25.1581993331012
24.9481918958588
24.6937483268412
24.4767166073829
23.910785184418
22.7588172214034
21.1002410733438
19.0493310675674
16.7036171831316
14.2486910932319
11.906809174983
9.88654007800745
8.36453124722625
7.34903519183637
6.64906103720266
6.00533470895298
4.97733218524343
2.88452160982455
-0.393541657120212
-3.49222735870834
-4.28935738272685
-2.01729597503175
1.64911456196048
3.74386221713492
2.09169166131108
-3.56521191426647
-12.0627524417924
-22.1310422030295
-33.0447249873106
-44.0632146716103
-53.8413483798717
-60.9421998650483
-64.69427372466
-65.1572874564967
-62.6944808783858
-58.1597970749429
-53.0062600091489
-48.3661838228745
-44.182725972017
-39.7669637791589
-34.9267039634674
-30.10937300814
-25.7340240834618
-21.7734195149699
-17.8705491477562
-13.7209362707989
-9.35621821185152
-4.92058769643702
-0.19908274111351
5.23480546857598
11.3624990977624
17.694042541327
23.9564841755438
30.3428149388868
37.0695405214112
44.0840863237757
51.0581843244717
57.187165969606
61.0766355492542
61.3069659822613
57.4353583149968
50.6583634029438
43.4607210720933
38.0876766846857
34.9246412978779
32.5323237847776
29.3961080141263
25.3484766909454
21.3014268034788
18.142537588827
16.0243995520027
14.1790932805691
11.2218832005934
6.12311614980974
-0.868921521077658
-8.48557573087045
-15.5245713366731
-21.3982888999065
-25.8884849433525
-28.8537779814918
-30.1722280763361
-29.8430977493173
-28.2431657886749
-26.1306230106018
-24.0734664585167
-21.9950802985371
-19.4897191248142
-16.3098602520341
-12.4116579769042
-7.98675766162836
-3.65414707501455
-0.182946884505245
2.14813513579933
3.58425896108133
4.29477018081398
4.12607403894693
2.97537244065021
1.13912964431739
-0.75894341527932
-2.15106449061731
-2.89639366503129
-3.22894302459728
-3.36438908726585
-3.42556615735957
-3.71517922185209
-4.55609502132272
-5.73904888206834
-6.58913317018603
-6.68945607749221
-6.12282474426501
-5.00039725683589
-3.28354828855761
-1.13172839311858
1.0871520168657
3.19772867731837
5.17694921947578
6.72544412076817
7.33199001244084
6.78100589750266
5.28677764454942
3.16928789737119
0.6295585311577
-2.13168275340509
-4.62052431969798
-5.99077140582955
-5.59459237100278
-3.73154292092864
-1.61523300606176
-0.483678771559416
-0.812258977769844
-2.14938577318523
-3.45448983843753
-3.9474865325373
-3.96407724142265
-4.57302740581287
-6.12078457543629
-7.76047781900763
-8.60095760742077
-8.49630385529611
-7.46160152916485
-5.26222130908606
-2.04311796599788
1.3161959639609
3.90566616023295
5.57226508943167
7.00437291705795
9.32181382867738
13.3593210440902
18.8398120365747
24.2070268905975
27.5847189382161
28.1187751379621
26.5587932474539
24.6670230567151
23.8906570378555
24.3552163788761
25.1392357681332
25.3348055635475
24.382884140347
21.6678315477235
16.845143510905
10.7342504133862
4.87214178093962
-0.19707172030003
-5.4835445834294
-12.191996345006
-20.3543703104796
-28.8546114974996
-36.3166230233568
-41.9422776220462
-45.7765260997238
-48.2038570779489
-49.3083716719008
-48.9621783428116
-47.2569614295933
-44.3746664531594
-40.246320522352
-34.7586678222244
-28.1218165413041
-20.8701127173376
-13.8058705197295
-7.84150893769174
-3.27125546345441
0.78834237449247
5.59839181917142
11.3863099251975
17.1589033072445
21.7853534593204
24.8413967821679
26.6310495883726
27.9320550579184
29.6237326326465
32.0873338699261
34.8751222072741
37.0294376659364
37.5892605779678
35.8895447037914
31.8247378381214
26.0259976074002
19.6624440499586
14.0094850722836
10.0621494767543
8.22267948581198
8.19216382495354
9.10413888143469
9.58284621430872
7.94678733087024
3.25688769906189
-3.4958066016712
-9.87813371646362
-14.0082108607532
-15.7192793050538
-15.9536065139971
-15.7382162369493
-15.6504826145479
-15.5654333905544
-14.9178126700182
-13.5660385887452
-12.1095153243145
-11.085368164307
-10.2991910057996
-9.17611183227678
-7.33447806976728
-4.7522041716095
-1.88015561846368
0.39577132765913
1.47136488865001
1.86503125166292
2.99709937071266
5.94498360371874
10.4211036227817
14.8439100003896
17.3773993316301
17.2352875133285
15.2937994053589
13.4191622820001
13.0223493478596
13.983031279613
14.6061875377056
12.6312714552665
6.77700132578706
-2.33975616956476
-12.6880214133116
-21.937708718651
-28.1061360054149
-29.9828116263274
-27.7978088621747
-23.3328615152634
-18.8417237291544
-15.7747328164096
-14.4310653339658
-14.3404421833175
-14.8172804205247
-15.4990559706372
-16.4818630271658
-17.8472228242988
-19.2234762764317
-19.8364191651727
-18.7035582198205
-15.044070124188
-9.2084715226112
-3.02103153484439
1.65285898707811
4.62825785485555
7.00569271269689
9.30566187919496
10.8752294060054
11.1264790823138
10.5395608836439
10.1127302055277
10.19532075287
10.1769033118548
9.32653610953172
7.79921368683875
6.56060347206737
6.24079383034856
6.49468743703616
6.83136026591134
7.61369418642096
9.64796336947903
12.9350907115038
16.2377957977818
17.9493697374732
17.4484334093918
15.75141232188
14.7384125027236
15.6511597425691
18.4520028940351
22.2916354638651
25.856016748548
27.386715270798
25.4290820122649
20.0678631123196
13.0861376895657
6.83496491493664
3.06452776567491
2.24156021037063
3.22400521005786
3.81900474623591
2.41903201602855
-0.64310546870328
-3.4689066770232
-4.40596519892156
-3.63088927263582
-3.01416631252727
-4.35537480614097
-7.88953977599188
-12.6994857621375
-18.1227292004718
-24.0195586569236
-29.8349181062804
-34.3186761369075
-36.4822325035711
-36.3705186568254
-34.7788385611377
-32.5728983859595
-30.2466118839021
-27.8209536920524
-25.2279907569749
-22.7806803984734
-20.8213529198515
-18.9588299317017
-16.4097174276853
-13.2486510695658
-10.6382427283089
-9.60885508772854
-10.0225003882745
-10.6990359535051
-10.163720702092
-7.41302681490978
-2.39185403849866
4.15916522024567
11.2629952278067
18.0339499785584
23.876146857189
28.8973516460632
33.8682516860574
39.2120074439227
44.2048528476772
47.6011095825457
48.8590393564932
48.4552177459836
47.2703968146963
46.0829330488109
45.6734635594628
47.0090617761869
50.515084571202
54.4458491019277
54.4023372146918
45.9897515307966
28.8651633208941
7.56958364671535
-12.3093832331933
-28.3992212286604
-41.7487436050879
-53.8110581902301
-64.2296343352816
-71.2812080439487
-73.602594990629
-71.2336615002339
-65.3700376340517
-57.5707871203481
-49.2509531206365
-41.370082928581
-34.0436749145577
-26.5824274907152
-18.2565384409194
-8.95314186494726
0.886289654340411
10.5265146349013
19.1341079146438
26.3588763227188
32.8290754983503
39.3271052521717
45.0856758472282
47.4017107407977
43.5932541037982
33.6710918124281
21.0640230521075
10.247672580436
3.17936146335878
-1.80483481323144
-7.42218732579846
-14.360748347945
-21.1315704506258
-26.1944695039559
-29.3209184015688
-31.1073679291457
-31.9195645954904
-31.5152193581278
-29.5392809264786
-26.3087992590557
-22.8379651015605
-19.7602932958057
-16.517093605642
-12.1301875056191
-6.52891727208797
-0.605358870208818
4.72213215740997
9.00921571660375
12.2579765408278
14.9218716937967
17.673237605404
20.8312309156527
24.2015836204247
27.4841916286092
30.4529671197976
32.7166954074863
33.7278778999859
33.2294529818253
31.5638443053193
29.393346922442
27.0305682783399
24.1384420966721
20.3618532195351
16.193243726033
12.740969022111
10.5834125926097
9.32137080912763
8.2430143339003
6.89317979336193
5.08592430344925
3.00735110694841
1.28176314679652
0.33446353473815
-0.372056701591998
-2.03776908084693
-5.36741063664414
-9.93240981103517
-14.7255743181381
-19.1925742145376
-23.555802878525
-28.0573523389642
-32.1218479299086
-34.7398642200622
-35.6938634428102
-35.7629945421774
-35.4590857216294
-34.2188674288409
-31.2496597812929
-26.6166207123583
-21.1097326491405
-15.488763260947
-10.1409238761161
-5.11813205942419
-0.294201134930822
4.39253776397879
8.88545293768425
13.1730455954593
17.18804196132
20.5797565581787
23.081235556645
25.0973284209914
27.3751993510536
30.0459648134456
32.3785445195316
33.2851518513698
31.6337300165894
26.4872227433963
17.9278009072657
7.82962860249665
-0.757525254548512
-5.69055696656299
-7.639460040707
-9.74149560676877
-14.6544729700543
-21.6382864934433
-26.9645565037128
-27.4150746905962
-23.0104786776085
-16.3764330017167
-10.2850404564972
-6.13047650394395
-3.89276384439539
-2.66522868103335
-1.28122285298058
1.11662300833397
4.82547792796197
9.53029851535538
14.3076251576876
18.0627628131383
20.3413604087606
21.5615956408314
22.2829018464693
22.3214229022698
20.4551524981486
14.8569274545556
4.25855826241661
-10.6582350754875
-26.8886794278978
-40.4147538101499
-48.3361742049194
-50.3304244914869
-48.464302037482
-45.3784950107421
-42.2218014620274
-38.2674883774365
-32.4264666811764
-24.6857816532499
-16.0306287424771
-7.5990530074889
-0.194395656694754
5.90323925286539
11.0587077835858
15.9974607413394
21.1285947544443
26.167326670317
30.4530351495372
33.5894917844827
35.8148746162211
37.8093679680341
40.088924358138
42.5469227478035
44.6283001618052
45.8699962195173
46.1281096272678
45.3913147596525
43.5677132168782
40.3994832008374
35.6137454620057
29.427248732025
22.7737611284498
16.5181711809774
10.5159458114431
4.03723329526565
-2.88657827527503
-9.08579382177228
-13.3347717297046
-15.6080857270109
-17.3248315635413
-20.3579591921128
-25.5345644595479
-32.0805815104987
-38.628028521827
-44.3894828097026
-49.0851932875825
-52.3349999458911
-53.7048000192783
-53.004501933294
-50.2151347513696
-45.5302865024314
-39.6430265058401
-33.5294863349033
-27.7940727876228
-22.4950722688296
-17.5174437171593
-12.8175612027063
-8.39209043858568
-4.13392202127802
0.457172869294829
6.33431253266346
14.1558214387264
23.3247157580876
32.1716633280359
39.1908166352077
43.7674187574693
45.8476629945478
45.5984956357241
43.6149362737159
40.9516488050483
38.4475140178427
35.9047894045855
32.1306562413371
26.1535358889141
18.4665798811304
10.6696865106696
3.82205490361801
-2.25089881413955
-7.91498673182743
-12.8640109784607
-16.710554537076
-19.6953278961198
-22.266857660019
-24.4016170280301
-25.7373802928533
-26.1498407967744
-26.0169212154228
-25.941194359259
-26.0661479531376
-25.6798307701276
-23.8772406324753
-20.662727089777
-16.9714723769355
-13.5392171673176
-10.1460529236239
-6.07659204421124
-1.06505854564197
4.34276353106736
9.33504250370465
13.6968019758672
17.940337330017
22.3787831657964
26.2653888256963
28.2195103312556
27.4490268661316
24.3041504249934
19.8279165844874
15.0626514172781
10.5274850891115
6.00382377395256
0.999226192658033
-4.36581047012966
-9.10408393270429
-12.0530268248977
-12.6579252991216
-11.1894880332937
-8.43194964610796
-5.07713713907323
-1.33768502833966
2.7473513069785
6.87480259165672
10.7621221352831
14.5767989989843
18.4787050520195
21.9702683267981
24.3112472762276
25.3701090178306
25.5448392560633
25.0152389274051
23.34424597189
19.5420402074983
12.5165679714571
2.08656997670291
-10.1725609607782
-21.4677784655885
-29.4775746207146
-33.655286285925
-35.198257380068
-35.8967122468306
-36.6885835378362
-37.0613812684803
-35.9214276840945
-32.9263508439919
-28.666097669314
-23.8157869475784
-18.7914137671953
-14.1739323765853
-10.6805091841136
-8.38218598664287
-6.22571823285206
-2.48628137428159
4.13235327712995
13.3372983622004
23.012177246062
30.5945326725371
34.8982811858864
36.3720418989423
35.8418635021366
33.648506893766
29.9085366969064
24.8177574013508
18.381860981312
10.2929059555881
0.529765547269132
-9.86191640275828
-18.8100717573503
-24.3284472363302
-25.7392852644967
-23.8476117268929
-20.1395396682586
-15.9714308686836
-12.1624395459854
-8.88371756394184
-6.03232973649519
-3.9224973300928
-3.21576488062892
-3.720176750363
-3.63833231104987
-0.889544594354911
4.42100888751239
9.25029152771316
10.0190592004708
6.08383926592238
0.575421628926749
-2.51754946590829
-1.90328960121394
0.625892918095032
2.76114115269514
3.64683083809053
3.49856898366369
2.6306654454565
1.46719798139951
0.712643091760563
0.797605491180416
1.32989745998896
1.36276893888852
0.265763918063603
-1.4127609595267
-1.85697944841704
0.730894796173587
6.36283771411775
13.0441074354443
18.4798864189699
21.669545960615
22.7850900113419
22.056979204536
19.2133310005058
13.9994395310744
7.12966969281411
0.511899815957219
-3.76931974299702
-4.73263892399858
-2.76009341351749
1.01946905666191
5.31591107884752
9.0627658979487
11.7175730133241
13.1668000923685
13.3531280952448
12.3429679822553
10.7299263091772
9.40603516280517
8.69451528576097
7.95988906913568
6.02926837838627
1.75361804776635
-5.39713929112514
-14.5640312774037
-23.5319453981832
-30.2903780152805
-34.6276462285094
-37.8436176554304
-41.0703351309415
-44.1683652848749
-46.0241632646155
-45.6088004805781
-42.8196357427844
-38.4601264953558
-33.515802946358
-28.5662504519402
-23.7446737928062
-18.8985432224459
-13.7747232847571
-8.25604594424788
-2.2352673153565
4.8737381839053
13.8702533425134
24.4093310312929
34.2836631026349
40.6926840535055
42.2753906600123
39.9105817957227
35.8809849786415
32.2790134784195
29.7837944612128
27.7025069483047
25.0602236229336
21.4215803984716
16.8521236564271
11.8256302234199
7.4105797834986
4.8239367867881
4.21729936577182
4.22599639911778
3.19450687494638
0.790388187435312
-1.80266151035438
-3.31068430190106
-3.92847830177804
-5.22313605960431
-8.21854884005541
-11.888284868956
-14.1198722366094
-13.9429831203285
-12.152692008043
-9.94865365040102
-7.67385455236771
-4.85438467672298
-1.04820105380154
3.2621216824441
6.56379719287224
7.58014871618777
6.75977317895923
5.93421305134026
6.32373987944398
7.33018003602323
7.35998051698836
5.47426028238653
2.27477037716911
-0.529635558966008
-1.47153157600278
-0.446230836588762
1.32707696460553
2.12301447586283
0.446668853142258
-4.29835914011
-11.1297434645117
-17.6611930585017
-21.5818364876025
-22.1911974351153
-20.5302099248183
-18.2426219465531
-16.2785966452371
-14.2493356679667
-10.8667839573333
-5.32226981460351
1.63703722341667
8.12653926388097
12.5462241810782
14.594091077605
15.2601386420243
15.9959829035765
17.622614982187
19.9678862115506
22.5563634807631
25.0862144233197
26.8191596651698
26.2119691389301
22.0733016961429
14.9746613676175
6.9892994226374
0.0468190480268819
-5.36898597800139
-10.1933187016567
-15.5900777191063
-21.6175772571571
-27.1289357985066
-31.0136158206752
-33.090157347125
-33.6206082845981
-32.6488736671169
-30.3378431896941
-27.4616079654433
-24.8832640501525
-22.5554813176119
-19.4061454167676
-14.432515624577
-7.96308310022515
-1.71437044322402
2.66029398967388
5.10357589571771
6.98330166214032
9.43236634350989
12.2984192410237
14.7462147467013
16.2496067886211
16.761137696894
16.5543799812854
16.3574227746448
17.2214706173555
19.6451905143484
22.7050897980964
24.3631373808314
23.0930510734045
19.4067433001637
15.5238195320804
13.3582318733897
13.1015543808917
13.8075947134868
14.7117478282595
15.6012479645045
16.4373170356341
17.1421895904886
17.5446049130088
17.2811616699843
15.9530333842569
13.5090498369295
10.3322973514675
6.87661821465255
3.12072303960399
-1.75906886808706
-8.83544858465756
-17.9589689467413
-26.9872288057685
-33.2081403349768
-35.7140222980538
-36.0086029246066
-36.2691401897636
-37.3422295464641
-38.402552036601
-38.1541115897748
-36.085096773161
-32.6005919400344
-28.2691054349035
-23.3663775438971
-18.0631773486016
-12.3138719495762
-5.30848242385358
4.04680574791871
15.3589058007492
25.9746454463993
32.6183365788343
33.6119141987065
29.5168175105479
22.4664676474037
15.2680736600597
10.341265680611
8.57376083651732
8.93735508970487
9.35916449890056
8.30648071212041
5.93483274486833
3.74609909327495
2.9454354438437
3.29490839833621
3.74026960814034
3.67385678842451
3.12312291741042
2.14838951986289
0.700256561028602
-1.03047774439169
-2.52641583193626
-3.32995559913738
-3.57046014453504
-4.07810046367724
-5.66024585167357
-8.12008146155859
-10.2781791083701
-11.0530173366181
-10.2141075690373
-8.11649419718831
-5.20179055581182
-1.86939470405872
1.5531176856551
4.80037901596044
7.46538374847958
9.0633637972724
9.54244151682047
9.32514709555361
8.65362043874537
7.5382121086475
6.54920873419727
6.73890446044728
8.29580738968875
10.0235633197735
10.6667616404129
10.2337956811772
9.59736105371393
9.146636893626
8.26090473425869
6.15914821180092
3.09039688142034
0.360137864008711
-0.987782374493498
-1.18986160249294
-1.24346054533509
-1.83468362213788
-3.09784598881924
-4.84527101414226
-6.52068464610567
-7.37265289249749
-7.16631374729482
-6.45117994135523
-5.80541239426755
-5.03572626642919
-3.42482096169479
-0.815994777428446
1.6293755549454
1.97368523067663
-0.933111765802917
-6.46422138906622
-12.9612174494755
-19.2176459186118
-24.8089627869625
-29.2518429586787
-31.6766821296674
-31.5936110897608
-29.5493109939301
-26.7823353850972
-24.3013518858732
-22.1737086386222
-19.4579995631102
-14.7585150837614
-7.03588555223546
3.4980976797165
14.6098557442565
22.6383308060872
25.3052249930289
24.2929706380817
23.8284510241265
26.1443439604606
29.2762082943164
29.7935824616305
26.7458595532966
22.306430985791
19.2408651214157
18.4478065053289
18.7573959732886
18.5656109206234
17.3011155725517
15.3164046175941
12.9314590783741
10.1625760824004
7.08068422415908
3.77708008476378
0.122983682989164
-3.87943337990335
-7.628529489302
-10.2786151464281
-11.4987319658158
-11.5936888525166
-11.0457047971542
-10.1998949754553
-9.21889328852378
-8.09558666599718
-6.76534572231051
-5.25689304456822
-3.7032465700975
-2.31784214734757
-1.31876662474593
-0.609537461061548
0.232699526597194
1.07968679992561
0.690369766435335
-2.02855838994581
-6.32408281154219
-10.175114586005
-12.6305145222757
-14.6205715406462
-17.15311648748
-19.4285746002747
-19.3401684912995
-15.7818775651505
-10.0835861332101
-4.82850185634915
-1.31136671863317
1.42758373436291
5.0756965832051
10.157628189314
15.7596024300027
20.4816017426854
23.4168930767979
24.6146821394161
24.7386236498891
24.1478440201852
22.539659155779
19.6385201342592
15.80968115157
11.7834213732266
8.18526174875396
5.38339387876089
3.17888039756015
0.5401247942388
-3.66035870599682
-9.41764436248405
-15.5986452156242
-21.1604255775073
-25.7800789385319
-29.3881389773852
-31.8233688476906
-33.0660792384241
-33.3219439836479
-32.731959132894
-31.1896920252419
-28.4793750768663
-24.5375523069097
-19.4749343467832
-13.1984876321091
-5.3362466346427
3.78475165925776
12.2747098432656
17.9163629286134
20.5609535088258
22.2921005205638
24.748777928629
27.1201383981931
27.2756615381023
24.2067748512997
18.867870956513
13.101099169039
8.30448593202361
5.0462474949993
3.39633966476179
3.09265318728195
3.40917557523468
3.49536840160837
3.27399095617841
3.66822974921287
5.47777893060827
8.16920075409131
10.178257618416
10.4267777032093
9.30217318607151
8.09269282730325
7.59488122457636
7.40323682604041
6.61663922370017
5.04159143301907
3.33408240654007
2.06461392279895
1.23236942600436
0.71586371103131
0.489383688662374
0.234879527293191
-0.608039112395815
-2.21290741846553
-4.25787083612662
-6.46469869275154
-8.79764135359843
-11.1634358519863
-13.3139316037753
-15.0818413669203
-16.5646353306389
-18.0765820004193
-19.7784189487697
-21.2001043250422
-21.4511593069615
-20.2020852417059
-18.0883447493719
-15.8521022271735
-13.5341482292307
-10.7705042992736
-7.34727603862709
-3.17245700362782
1.7642861459148
7.00363980332778
11.4796766481262
14.1159608551732
14.5933814267024
13.541027428221
12.013665305716
10.7177280324086
9.71913428446528
8.89947520338665
8.42247447417568
8.47728697782236
8.83756801193068
9.07630077358894
9.03027303589677
8.7889859766017
8.5300852449664
8.55247350890735
9.05176584018477
9.69838219972913
9.83716622930217
9.1503057052469
7.75646967673726
5.783240032519
3.28050135468306
0.451686249916513
-2.36250150476634
-4.84385554314095
-6.76058025634275
-8.12057958964568
-9.24974854339036
-10.4115535902602
-11.4291284635488
-11.9297054896048
-11.7229293936432
-10.7294404014491
-8.96201277312992
-6.90026604977582
-5.53026985416627
-5.67077705672601
-7.30962743941908
-9.58604596707996
-11.3759768726382
-12.1618005350559
-12.5042633100083
-13.3900668390239
-14.964254787496
-16.1845439396112
-15.8022657022523
-13.3671427909779
-9.27486921739676
-4.2306591326636
1.30566341990451
7.4002983808287
14.1811731172028
20.8509570060779
25.6150841532357
27.0994777024737
25.6635425600344
23.0772338814813
21.0602848339514
20.0607751774348
19.1022339868296
16.856969606416
13.0787866732788
8.82150358064289
5.23631315825983
2.62782407604438
0.743081192670471
-0.667087133290955
-1.79293176630828
-2.73842424623585
-3.33812560403007
-3.30440500667829
-2.55927470426059
-1.21957714064985
0.549419288862118
2.44061909958792
3.97305261451917
4.74533213257667
4.63861171611511
3.79455196967454
2.53341122210595
1.22338077411205
0.10122856326157
-0.739461418853832
-1.23146432818253
-1.43981681036435
-1.79767750635902
-2.95670602465563
-5.30433343062876
-8.74663611643109
-12.854944756927
-17.0485382724335
-20.8536301023142
-24.2082360158963
-27.3024085189221
-30.0486620688545
-32.0382487330683
-32.9544702946317
-32.5552525127669
-30.3806132853572
-26.0673679470082
-19.8943709211946
-12.5614838507356
-4.58416422475201
3.71197812938054
11.8264415339514
19.0725724125875
24.8081952992967
28.597615123261
30.3998603491156
30.6196266988649
29.7462015648398
27.9974134794604
25.4231129632516
22.1246322632478
18.2830238799242
14.2529581931652
10.6421898539013
7.98080422022294
6.31958921387902
5.38026835391298
4.97015996225337
5.0263707858474
5.4196102638345
5.9206648489207
6.25341631260214
6.17272849837314
5.73417215213185
5.41029338031029
5.53092284559101
5.61878327558212
4.67061806219487
2.11374606128917
-1.71699270924986
-5.87624460537429
-9.43541936669146
-12.125949219204
-14.4964479686959
-17.1601494955433
-19.9226093179107
-21.9522091768022
-22.6289216942839
-21.9141574727731
-20.1998776486335
-18.1381296070526
-16.2745646631626
-14.529932058144
-12.3009038515287
-9.15955304429974
-5.15829110184928
-0.626458141751931
3.80164982032904
7.10583645853028
8.42990714964647
7.80987998258903
6.17234796614811
4.70634834444948
4.21002899692131
4.68017977142481
5.40397861233071
5.65778696435372
5.35635486521343
4.95501952755518
4.90786631066541
5.35260723579254
6.05810996544966
6.49247389805409
6.20214920100354
5.31292522271329
4.46614687551285
4.1825312597581
4.42905990760718
4.71924894271212
4.51966863694493
3.81996952854933
3.39715126409445
4.08182304914895
5.62684896555864
6.77327250046017
6.56432456534168
5.19095812945074
3.54648155577972
2.3779190101443
1.85427442085942
1.6005558852889
1.11934412912187
0.283183123532024
-0.663695180377605
-1.48095475210325
-2.05947261627357
-2.3532297520122
-2.49115982057442
-2.74326315612962
-3.12357039989211
-3.30967266010599
-3.15087241060217
-2.96382906357847
-3.22466382890211
-4.2097274572395
-5.86275025220761
-7.72996893668163
-9.13528098789476
-9.64631055044127
-9.26877504569772
-8.19755873440268
-6.7407238378664
-5.49126981003925
-5.04766697310301
-5.42938905861478
-6.17546664672258
-6.97889644234021
-7.72243093092356
-8.00690108133119
-7.28998539817682
-5.58154810365413
-3.60133693770667
-2.12453490516946
-1.20549669741138
0.0287836500469871
2.66888354765737
6.84268914332836
11.3589231189317
14.684321415509
16.0354850801131
15.5112230906928
13.7592808556504
11.7503861927726
10.3018690521562
9.44135953178686
8.48102564522529
6.80583898050319
4.41041158471676
1.80748258914087
-0.387065960764126
-1.982483576037
-3.42250888749058
-5.18598429641388
-7.00091971974035
-8.01059937228063
-7.6505193492718
-6.0302371725674
-3.62323571759262
-0.989010949102005
1.293462141042
2.78498633619831
3.35012531352793
3.13063706603642
2.47796175008474
1.83969580590346
1.4357857183688
1.13135204302784
0.902466495670973
1.16413426910593
2.21124979993701
3.58932238144019
4.46458051660793
4.43351904152397
3.66640766156186
2.46077611506355
0.882322465976221
-1.23742175735524
-3.93243774808826
-6.66329835163894
-8.49036296257257
-8.85543184795677
-7.95972674748703
-6.32489584510271
-4.34177639738151
-2.28761584211163
-0.414311131291534
1.03408689013426
1.73842008780152
1.47624747806571
0.572742975397328
-0.164611373467059
-0.195091950611861
0.328306398489755
0.920869456465031
1.21964551827252
1.07361763764961
0.500530976243328
-0.41283185244283
-1.67978127361721
-3.31593927361355
-4.93693517361467
-5.71338733702899
-5.01159303551058
-3.04959242200577
-0.847863616874467
0.455887441711007
0.420979907630106
-0.35360667090632
-0.838909280977956
-0.661379417409817
-0.346011848332206
-0.457545745382423
-0.935042942850974
-1.32595469971093
-1.20311301424477
-0.362811000731919
0.885336329620952
1.71231012898554
1.59131784550427
1.05530970296191
1.19155216134125
2.44960395188769
4.19236849149384
5.24581730982952
4.79235469381925
3.04937479748417
1.19997014161054
0.433812519144235
1.0151786583482
2.30985511492394
3.43865972230744
3.79962598776524
3.33754877230955
2.542922785836
2.02346301779487
2.01547890122334
2.37662990426224
2.88775406914823
3.41879080777566
3.97619521495825
4.67915293411647
5.48522890088805
5.95888078335423
5.65482615635515
4.7258278255856
3.77894252816903
3.18034138684687
2.85793988428356
2.59726081124849
2.12188284395246
1.13930307182463
-0.308418574251858
-1.84241554920077
-3.35877110963227
-5.20565908666079
-7.46493119415777
-9.46748226810687
-10.3577493540425
-10.0213638688197
-9.35840158430181
-9.58669835418734
-11.0656348425558
-12.8372640845732
-13.6266477196619
-13.1776940622315
-12.2322662237415
-11.4558006504385
-10.9206989049701
-10.4171699754327
-9.67290022399507
-8.27694037741709
-5.72182970232475
-1.64682379941104
3.75633467488958
9.39029210679574
13.6617558640868
15.6719042369273
15.7818063558021
14.7687094656284
12.8935650350006
10.1674867074767
7.05396390462601
4.42542918088129
3.06519164178434
3.35193809039027
4.96550247754026
6.73940150013493
7.29811228653325
6.09200221231772
3.66833561815918
1.09547473597088
-0.679856046659457
-1.2739474689076
-1.00562482309813
-0.422003022639351
0.319990869440087
1.32473161641474
2.46126599003659
3.49187742833983
4.45148932011915
5.36430039836516
5.78561782247297
5.11386056453117
3.30397596430012
1.06631198997336
-0.603583995155975
-1.21138442777984
-1.24895755688877
-1.63947259112492
-2.56385820019107
-3.31533670747682
-3.50046370165215
-3.75090490580735
-4.8842326263816
-6.82688315679184
-8.68826584359305
-9.61426481464045
-9.38606813315861
-8.35765449122301
-6.92622134434439
-5.13717078471849
-2.99102782279731
-1.02410995094656
-0.0695183185225848
-0.294155559896321
-0.92510910617812
-1.10191547897679
-0.637755282387079
0.114626022739681
0.794959816214488
1.41100941219376
2.36070975512456
3.92718748203882
5.68436517236487
6.69761285530012
6.33013362235256
4.59552252891806
1.95283155557392
-0.822834475829432
-2.84044213226114
-3.67523977771974
-3.67205234241396
-3.50519789938152
-3.70208392909611
-4.59291247310512
-6.17168708893127
-7.79438121357143
-8.4050668789982
-7.33152068663633
-4.88304494535922
-2.23498459807262
-0.584398100791092
-0.103286390849802
0.168715085916119
1.11849343315596
2.5400123745527
3.68439500442831
4.41388379023206
5.22555927457727
6.35501999025689
7.42544672229736
7.97219597887223
7.98532275024505
7.94071434644028
8.39744590583764
9.42039082437587
10.3888807795297
10.5875257873874
9.92436016973105
8.88457748866841
7.98962390773994
7.47720583402766
7.190315390474
6.62503856240372
5.42233802519372
3.84244507960546
2.40378269893343
1.18356203032992
-0.135564182232269
-1.76455407689779
-3.74965979300814
-6.12443569549784
-8.76212687906803
-11.3169843737821
-13.4801077480197
-15.0592394956672
-15.8996887645456
-16.0701491004475
-15.9105686685511
-15.5510390624997
-14.7160638647894
-13.3137651987342
-11.7818143222949
-10.5089791315545
-9.25795443796767
-7.41497071430601
-4.62575532395251
-1.16291936979804
2.16528765326788
4.59290839878922
6.06896704537751
7.18893159073997
8.34426678656722
9.2099309831362
9.17189146717929
7.97045359467592
5.92583320460457
3.8576040450405
2.63648101645418
2.39910048894101
2.37954443915536
1.87725118900706
1.1384324334428
0.981727054259455
1.83876265067431
3.37175833442012
4.7686333051735
5.33177776448165
5.01107688827732
4.36319086961248
3.93230512483821
3.89107210895169
4.23326920566389
4.82275076714135
5.22435145098679
5.02279323874743
4.37084903167169
3.824656145875
3.71949223756177
4.01155598592195
4.50191765231053
4.95318609232647
5.21154915809725
5.28986856187009
5.10078042271986
4.29971913122063
2.7722850107513
1.01043658670694
-0.439882543227116
-1.64718879158066
-3.02272727497212
-4.70485962868335
-6.59925400713209
-8.67346159033024
-10.8122704647573
-12.6783367670559
-13.9972586294412
-14.7035049771878
-14.7044749885785
-13.8392400975776
-12.1211720019892
-9.80781717038558
-7.3391289337097
-5.28335248937819
-3.98666787382989
-3.12656360549199
-1.9458657044089
-0.0536174874891243
2.16466767395766
3.81521949995824
4.05756898597291
2.74080480897147
0.702904375525756
-0.827258669934421
-1.21084848410647
-0.605879676752947
0.521173298740975
1.67642134306544
2.47062369550127
2.97773731490099
3.72129123790454
4.98516034579288
6.4375528085778
7.6067918706445
8.3617675599099
8.81039021278289
9.04300104472518
9.02727727571098
8.57277733848488
7.51512275368404
6.08326170670278
4.82809999063325
4.0002005563832
3.29555605684036
2.38858745169363
1.38739992415732
0.627317930393655
0.313794569214423
0.379488680947895
0.431693326519623
0.0060810412954497
-0.865939392898895
-1.59968171644205
-1.74203287418775
-1.38980137567831
-0.910150351330145
-0.701846936664765
-1.19127591096655
-2.54364964234167
-4.36381119377764
-6.02482653136478
-7.18441555930764
-7.75244711276444
-7.59901459305501
-6.55103911922769
-4.57844667544981
-1.97751903824801
0.561241819618155
2.32153725837596
3.13391083539598
3.27612403712388
2.84646968436724
1.77952887511598
0.415496896523542
-0.652447941213059
-1.34432847697048
-2.09996848166156
-3.08220543043311
-3.86310670957493
-3.93498364204295
-3.21568718054189
-2.07907211430794
-1.03848300516654
-0.275609925112136
0.493730365451825
1.41956024304676
1.98939165361494
1.60427172524904
0.478520006580349
-0.601896355695096
-1.2039591816323
-1.42682850393431
-1.4543900492199
-1.40947789829801
-1.41961101929647
-1.51591839422052
-1.62722872474771
-1.70451078735621
-1.65594128070325
-1.32461180404617
-0.738085072234574
-0.100755980770938
0.567013567940252
1.33538216851997
1.8979775499293
1.83136023654968
1.35574873377498
1.16652659325735
1.44653185348055
1.61832960863734
1.13768866589617
0.16283724523059
-0.567565753068112
-0.37369472568946
0.753349272091196
2.14672459529727
3.13032879404119
3.53831056527815
3.52680429485676
3.25109939052766
2.94561415994337
2.93714053396731
3.27669097107611
3.66792523790948
3.99018727675353
4.54436266229358
5.56600343033448
6.78701921223338
7.58652182648755
7.38500044447071
6.02687869638729
3.99343185757675
2.00219663034121
0.265893117165941
-1.51197217713434
-3.41332290178937
-5.07991403011781
-6.21284991261094
-6.80943404401966
-6.90578691192745
-6.45225854159693
-5.41398192398046
-3.85284901255833
-2.07693619745621
-0.665879771425905
-0.0177428654109948
0.0281501107242476
-0.168331268753319
-0.471139302658942
-0.742361018474868
-0.702784727449187
-0.382753573600646
-0.223671862055586
-0.468022247987244
-0.920106226716323
-1.43768137809297
-2.20994050644964
-3.51708578629229
-5.54953788905694
-8.29088649894003
-11.2209326884414
-13.4094055374692
-14.3047313739448
-14.184144710551
-13.5564049721412
-12.4858881185005
-10.7282572447439
-8.09570571753578
-4.49096549607614
-0.0038358149159125
4.83899133768702
9.18434917420416
12.3416051439152
14.1989498039514
15.2725177598886
16.1841841579965
16.8727561080777
16.6320675164165
15.1746115312959
13.1358474636822
11.1908428238308
9.29149250544237
7.16758419375259
4.98883473582358
3.17578187489813
1.99992270004536
1.48731252294912
1.32949926365659
1.00826878032327
0.365513426490817
-0.232193007073616
-0.563591945985486
-0.949830279571417
-1.75395058336101
-2.93462659115268
-4.2165737384207
-5.2529614568236
-5.61496762444425
-5.13202981207201
-4.29823994476761
-3.93126217471927
-4.36205839227201
-5.16907934614885
-5.62167003721287
-5.28442668268614
-4.44044989666828
-3.96294120685326
-4.42304584734452
-5.38273680121015
-5.95409247691467
-5.82590770718886
-5.26762147932516
-4.45136546100909
-3.33924944622838
-2.02875542450206
-0.771130546662484
0.268937395195041
1.13253299205774
2.0383403193779
3.14184907388432
4.22726858696443
4.90606647846836
5.17513673751214
5.36720938530556
5.55770696456
5.52786559501704
5.22527435685822
4.71199961387711
3.82285487303904
2.40473176872416
0.714078337284836
-0.775033477981532
-1.71341855744554
-1.93305676708747
-1.59651468357478
-1.29760554592437
-1.50356917992093
-1.92769556823133
-1.93229096210151
-1.43202469895344
-0.91325430699732
-0.724016090718888
-0.826204320814265
-1.0595543635066
-1.16740452305903
-0.704993374406174
0.660145871850327
2.7578095918385
4.93808696479654
6.43959634077321
6.863172869923
6.43034913563535
5.62041129669336
4.56018421215949
3.1001390987875
1.37268826317158
-0.251031759146595
-1.67941367302986
-3.06818150540825
-4.378641637055
-5.38148627043194
-5.94253845347857
-6.05361727295942
-5.84125553602132
-5.64939135813791
-5.76187783505169
-6.04887237857207
-6.22098091236763
-6.23029510686926
-6.06482657456826
-5.49174457190212
-4.39682039784136
-3.06827132250775
-1.88752631078101
-1.0229444862174
-0.492111576818291
-0.205163737715472
0.0403864522603478
0.364668815689602
0.732535163071205
1.2216712242613
2.05358492016004
3.17690339583912
4.18356599604582
4.79373353194349
5.04766392376335
5.00493724042812
4.74484035470684
4.60755253575524
4.89392340294492
5.41974498087132
5.81737154354929
6.0506657729554
6.23504535476053
6.24982054925624
5.87210104415581
5.07336342223201
4.06998336916365
3.27477103247869
3.02992554494358
3.09349884341027
2.66900401161426
1.25345310584245
-0.837163946308952
-2.94430417105094
-4.65267944915182
-5.79975676682557
-6.33931502303206
-6.30300845451617
-5.69757574186558
-4.57525516698159
-3.27141110679327
-2.18532989346997
-1.27124781262413
-0.211368988494145
0.920795089426478
1.69625972693805
2.02672210186619
2.34173429158391
3.01743427581839
3.91924382365986
4.48102586217089
4.08471073483003
2.5405736478605
0.329602956430697
-1.83105447028792
-3.67830796877002
-5.40860288925196
-7.14056044354395
-8.71874143075389
-9.8576267327616
-10.2264703971585
-9.74747972201512
-8.96250387395607
-8.53638314102509
-8.24644662497631
-7.12901365998043
-4.81620271197774
-2.14105060892925
-0.243059780087483
0.56510369389478
1.04298256382266
2.32475595448883
4.76751637170947
7.39594554945605
8.7817689296369
8.40989808295684
6.84542560572585
4.89724626152908
3.17327742123442
2.08731705320895
1.63755193200151
1.36277041233525
0.949955963170658
0.719735027672317
1.29242136992472
2.91663032191381
5.12309370060982
6.88054522375235
7.28712417669787
6.3770895430854
5.05931793531691
4.0768999810613
3.35246352454226
2.53544525002717
1.71213103444392
1.24474696317879
1.23543216829017
1.35662532188821
1.01876717816518
-0.219916429307836
-2.16812166212038
-4.06772239163332
-5.24259313320775
-5.43522505921882
-4.66171561795012
-3.29798239627419
-2.19507281487188
-2.08082237627106
-2.87370342188707
-3.96484898009458
-4.89874591990274
-5.4218636939409
-5.29547053729771
-4.49275654047943
-3.29051794256476
-1.96209979443711
-0.651074288308143
0.48886851073622
1.36075206933683
2.01724181928179
2.45869120885211
2.54798767740322
2.21861212234156
1.49473316627109
0.37877450550902
-0.925435950317759
-1.84773015130912
-1.93340939143889
-1.36564496970574
-0.701208063584822
-0.279714455739382
-0.112764914053227
-0.0442395375730716
0.196685722856832
0.764367837288697
1.39046519358423
1.66392549173486
1.57444761871824
1.36185158813544
1.03684173944508
0.559322149642185
0.224516513487236
0.349580109071319
0.782075640771682
1.07597879804715
0.984865229718086
0.65980067807024
0.532776075570215
0.900978907821522
1.44261051609131
1.43838211622547
0.676461622425399
-0.254890908869509
-0.727442285480154
-0.658553609229073
-0.264759946192445
0.243283308311532
0.658147802121101
0.894590349502455
1.10268133074357
1.43649012746147
1.90242548266352
2.53670821831818
3.38815814229195
4.26384616992735
4.8448829365747
5.0450847252436
4.95503051117877
4.55906063717907
3.79847759622218
2.71471824158472
1.27779048400321
-0.628036820712847
-2.8167039454391
-4.79635728623681
-6.38356339532442
-7.88797427796022
-9.4813446656955
-10.784096041199
-11.2364519691141
-10.6480513188578
-9.40813565875839
-8.24041113464314
-7.50388644177145
-6.71017471251673
-5.06676184732177
-2.38136407479557
1.00027949363826
4.8842168727318
9.2122621088631
13.4347972486188
16.4051117760604
17.0299002994135
15.0797544264436
11.5618552656712
8.08842679804852
5.48895730576436
3.25690081466616
0.605512185796489
-2.47482186850411
-5.56431650480641
-8.53656516258232
-11.4155396530493
-13.985967557214
-15.9134704994068
-16.908043763268
-16.6520883375681
-14.9555278085188
-12.008887370771
-8.10427632971716
-3.179255202963
2.87786239213899
9.38815727534902
14.6879458975302
17.0318703229877
15.9266558806688
12.7847305244799
10.0093047426801
8.99879224754904
9.13869429876161
8.92471419067785
7.65638334509773
5.75466758635654
3.93031487261135
2.45852292720052
1.03890344125956
-0.777393838424371
-2.9122692103415
-4.72042689881864
-5.78554529696618
-6.32334085240781
-6.58134259307813
-6.42457906884997
-5.80475690393943
-5.0579388196836
-4.45621791858599
-3.93574524640172
-3.41252091097763
-2.99280185213237
-2.85933004716024
-3.15069601672052
-3.74288325302068
-4.02517344733993
-3.26270576232152
-1.35632359712968
1.00822207213228
2.98101682015973
4.10810926190203
4.43333490002777
4.35145751096591
4.27411610790721
4.27314919760971
4.19817420609494
4.12733137877766
4.30214396523931
4.58737024502705
4.46491053850691
3.6185468105963
2.18416769878109
0.579966090620229
-0.590455956590655
-0.831416131102734
-0.334708022448747
0.0959950224586431
-0.0442794918246454
-0.514821727876061
-0.881657623938417
-1.05869052439598
-1.24647534497945
-1.6805031904711
-2.38217766277775
-2.98236804606011
-3.05715486565479
-2.73787131406459
-2.59287083315742
-2.86657057749983
-3.24954971826618
-3.31866405779192
-2.80139097961795
-1.60470384803948
0.0357495420384832
1.62600231266344
2.8130340245095
3.47253709463855
3.47569193515363
2.81604028071187
1.89493854352269
1.22264007388833
0.885713252704302
0.620557759813778
0.213151236935459
-0.463848530378679
-1.49426483668309
-2.67573045362049
-3.54496713755151
-3.88090223453955
-3.88157882535454
-3.8034997368588
-3.8102824065191
-4.08331726855394
-4.64577397458527
-5.19965863279586
-5.43770822766671
-5.29155766264181
-4.7490759925091
-3.81896700409571
-2.7258096991057
-1.69829732945202
-0.601582047066332
0.789629964727636
2.28591281384406
3.46720173913912
4.23684337939082
4.89553460190917
5.76294946466998
6.7739550172446
7.30584561333702
6.6082994846652
4.68927421963786
2.54501392008185
1.30590744982209
1.42553256773854
2.68493279526903
4.46106269095672
5.9481431902035
6.63917734075158
6.68905109482054
6.53465083726212
6.31752862723341
5.94790090215822
5.40823283581665
4.63371786091016
3.44152224873012
1.95916223943992
0.798742446093617
0.485703179334259
0.986798903546563
1.92212559687215
2.8791634749485
3.45763157317974
3.33576781386023
2.34507363530842
0.448610206365637
-2.08556678364759
-4.51907058837977
-6.15008949719632
-7.05168556406182
-7.89645961915831
-9.10846223220694
-10.5519258497352
-11.8555247209814
-12.6869647814245
-12.9318884688809
-12.8063122015894
-12.4868492722004
-11.587579839087
-9.43940478116457
-5.94162246003634
-1.8437905952285
1.70528723949538
3.71905485650678
3.8319805260593
2.46757922428559
0.369912814486214
-2.02989711420893
-4.56486490781062
-6.8703224852928
-8.36966787836214
-8.64441639983735
-7.62189598407675
-5.57657174473386
-3.01351322917182
-0.217775973162791
3.0565621597671
6.94437319009861
10.6351512162738
12.9227329070312
13.5406155182199
13.2280774847083
12.6620779250411
12.1252720435242
11.9542152940362
12.3767476716795
12.9292309818767
12.6747324845277
11.0568969997994
8.34299530951308
5.37004602090246
2.90834338987494
1.1144627019808
-0.33900043828891
-1.62512291098405
-2.63365197853366
-3.44278887615705
-4.32061578220546
-5.21533952736445
-5.82342968673004
-6.12453222251525
-6.3173658539667
-6.39695569808342
-6.274985910766
-6.03781776575379
-5.65181291614076
-4.69972446255644
-2.75158464133031
0.162346746375204
3.47751577299229
6.24452469203617
7.51982549920126
7.06643351808746
5.64655716714099
4.32515694713186
3.58683667801478
3.27142806422016
3.01421971649825
2.52681669341484
1.7998499103253
1.1626523724349
0.820953365315331
0.407420342548922
-0.63900691146455
-2.41218283295013
-4.53930905382717
-6.54862249957848
-8.06512808964608
-9.04793559589344
-9.92180149292316
-11.0678963874874
-12.2783846362135
-13.1388002593613
-13.6398974374006
-13.8496553273942
-13.311384623508
-11.4087109855571
-8.2161045107391
-4.61782339112009
-1.63892750668787
0.29906879506127
1.63366711420742
3.15931294717598
5.22424229779945
7.56584754316877
9.76622622021289
11.4571103313319
12.2707699522197
12.1401473351608
11.5312727964107
10.9206405209491
10.2288699791308
9.17277272607304
7.87125323067163
6.63105068516676
5.42152368952189
4.02562355507231
2.47332788257859
0.990681351317738
-0.22795367357048
-1.0266808046848
-1.37289374696683
-1.48876618470793
-1.64510185521845
-1.94118418537276
-2.45820763339924
-3.29511068977974
-4.26359279964278
-4.92864003046928
-5.0847965784472
-4.86994709041128
-4.4615769394548
-3.9952214807783
-3.61163870418837
-3.28995104365181
-2.86749764141197
-2.35750569669234
-1.89089814956833
-1.37178919389513
-0.674345506363521
-0.0427581188739976
0.238735426653839
0.353113031584631
0.634756203272951
1.03687764408934
1.31680187401509
1.44094295109542
1.54291977886202
1.78486213361806
2.35198188240631
3.24505221262346
4.06809864869664
4.33498861592882
3.94892539431263
3.19289390267643
2.4515246176885
2.08323930884315
2.2081994328691
2.46752733203806
2.35980325273392
1.85367672586514
1.30358037173244
0.917052995876427
0.709841757997111
0.706811681968597
0.816150642870887
0.861746974798304
0.97723513064437
1.49906600849685
2.33120247165186
2.93590812303757
3.01752504285433
2.74401170313293
2.34470119465842
1.89894369687627
1.38656568019278
0.654530503452015
-0.458154935037687
-1.82031023570679
-3.08667393726275
-4.04600682443679
-4.64257429781032
-4.90455715094124
-5.15282751009843
-5.91219551943247
-7.2913728251699
-8.79044612232332
-9.90924606776396
-10.5765030317656
-10.9081659147818
-10.9710529192004
-10.8574942510258
-10.6424593861742
-10.274950328447
-9.77492058938112
-9.31489411641333
-8.72968071040011
-7.23057073816887
-4.11377090490467
0.320117652602181
4.79831928756057
7.96128431605749
9.29956321648862
9.4949334057456
9.75886499378277
10.6421221331508
11.6473483430068
11.9767997090063
11.2311895465117
9.45648160810433
7.14787298631839
5.24516040488849
4.53730705703837
4.97122429938655
5.82437693358574
6.37999766289887
6.24612519476616
5.43635930550976
4.41230748479867
3.68699194202424
3.23437723071301
2.57606252717309
1.40473450552323
-0.135353548604608
-1.61552797072638
-2.58814336651822
-2.92639218900889
-2.97787342528917
-3.14653995491139
-3.40964977124448
-3.48321861914634
-3.19075353781692
-2.36265728761893
-0.781171895193957
1.31310616773455
3.01365486529498
3.51890480405513
2.87385750061413
1.71566381873119
0.66219478114205
0.0755821090069993
-0.0642942305977513
-0.190925152380299
-0.703086674266121
-1.52403501246236
-2.34304237765513
-3.01460133403849
-3.44897925076176
-3.4337694656065
-2.82847331369683
-1.77000807877517
-0.685034703803882
-0.224372547342213
-0.872457153286669
-2.32979871393302
-3.60670968108452
-3.98109829194372
-3.56172490344382
-2.87306018977688
-2.34001580096179
-2.16194142790881
-2.21846476415513
-2.12279976572822
-1.66072733281854
-1.02704679467022
-0.546220965113926
-0.521027284719205
-1.32655828503624
-3.07675683686242
-5.12085022581773
-6.39834756578128
-6.43131703040666
-5.6533544784601
-4.79166258456375
-4.2170312280336
-3.79662372386775
-3.11390552484504
-1.91102858000217
-0.379533137714323
1.18318606934607
2.88370481694402
5.0246096092381
7.56365907590744
10.1538585974186
12.4039379582377
13.7453580333506
13.5382321757331
11.7668107634751
9.23728524492131
6.79243997986446
4.6887039616628
2.81608542253931
1.09275761828334
-0.398116107116779
-1.37903420844199
-1.61125932925049
-1.3107973439106
-1.04921009879486
-1.19386643829959
-1.77770651971017
-2.74382009870809
-3.85469758924927
-4.64839970971119
-4.98062376808154
-5.25968400627906
-5.72692708225167
-5.96031644007088
-5.50786929796922
-4.59493286566161
-3.82075514879244
-3.41465301618113
-3.01166897166705
-2.0236248230478
-0.254933530355584
1.69989346543261
2.87695694214016
2.94734424706173
2.48081145893253
2.06435838635474
1.670205198527
1.10765297891986
0.535800281772105
0.235196657045087
0.248481845119769
0.420775601943717
0.602142866331785
0.800658991998299
1.14522659317399
1.54459560957539
1.56852420231308
1.02605634496738
0.418675170836455
0.38515341695232
0.950980279816106
1.66405903667217
2.09213755322124
1.91948504723586
1.06132413239872
-0.0300964282696967
-0.59645120077655
-0.261008884924749
0.788714467172686
2.13625178098467
3.32352205546252
3.99467022545534
4.19631355430945
4.32376260789637
4.66799080974092
5.26915965394314
6.06211514578565
6.70682760948053
6.43716495113843
4.63141667916427
1.51007851712586
-2.0859674270768
-5.45289136144249
-8.27144318150374
-10.4094137170956
-11.8383056381183
-12.5612450083592
-12.5256902845468
-11.8570743289197
-10.9945424125374
-10.1219482527173
-8.68342324552753
-5.99049339675283
-2.14220346118113
2.03186390805872
5.73062070530415
8.63515172504539
10.8027195196131
12.239849271959
12.5709843326824
11.3646999656577
8.83823171436519
5.80380628451505
2.85367458057009
0.0979990304646383
-2.38766064965166
-4.54521767815313
-6.66339473123414
-9.02566822304281
-11.3082098093176
-12.7842947844729
-12.8525679118246
-11.116975814897
-7.58056794388387
-3.18586092485292
0.390231104075335
1.93194164137495
1.4753927290994
-0.0327767229443707
-1.38666671733987
-1.51764335535131
0.0890572595832743
3.0944192161464
6.56177450984695
9.44628166724582
10.8762231754668
10.5012315310737
8.85800948272666
7.0233290135519
5.69951501969746
4.82261038558383
3.9394220961181
2.69347989701922
1.12830204702787
-0.294853024682311
-1.19669745247737
-1.77345540329384
-2.4321571119854
-3.06823482264932
-3.1513869940371
-2.38054940352047
-0.907073042846527
0.828811605736305
2.23572512808511
2.91759932005837
3.03529095907634
2.95143753298676
2.61895174846757
1.82902213662804
0.834360038186474
0.124503625102138
-0.239767069713191
-0.627668055032261
-1.37098110703607
-2.49888261726134
-3.65505178033937
-4.2437721174677
-3.99756864010939
-3.31044197690407
-2.66304082946141
-1.96852190638045
-0.924979823347284
0.296054962853166
1.22351714669655
1.68594347106853
1.81931954928224
1.7421533166891
1.48854023746245
0.981264398218501
-0.0047199318060309
-1.53682507632992
-3.25160471866018
-4.65390089865215
-5.49043488980999
-5.70369247421671
-5.42307678045462
-5.06409259781318
-4.89160665873493
-4.42187350840682
-2.78770183089001
0.254731806888784
4.02227031396826
7.4449557319992
9.65831645204833
10.4044917594727
10.1285623297273
9.44672247711154
8.53124520615192
7.32615049418691
6.1094936933891
5.33805493605997
5.10442573090156
5.09522811485185
4.88354213651672
4.11832854280455
2.76502908586732
1.26300804182613
0.101143400886646
-0.832789698786231
-2.21537240735192
-4.6112998366133
-7.97832822676574
-11.6257683710796
-14.4995398354329
-15.8882584185505
-16.1119096860637
-16.1901695143447
-16.7114253727182
-17.3780527991808
-17.5722817888278
-16.8760767890903
-15.1575207015342
-12.6032981386797
-9.50711337574506
-5.73483778970466
-0.719002509365365
5.71229215022577
12.6783966457492
18.4658865887058
21.3266948826969
20.488501178236
16.8610263909664
12.5276567623142
9.19454748392142
7.24418618528445
6.18923358752945
5.51696187698717
5.06560582142911
5.01904365259826
5.51086404700956
6.06189988610823
5.80682405373213
4.51606460887868
2.9203054090698
1.84461488670371
1.51752655935267
1.77860992880906
2.34706702499106
2.77283967907367
2.6623631406766
2.06987463172083
1.30899584918157
0.464336309070692
-0.534402097724689
-1.52727866799242
-2.19227440529149
-2.36164248451928
-2.09321046711819
-1.65247109156461
-1.44973140591976
-1.7191753361416
-2.33608461769655
-3.12442542867183
-4.04400715085178
-4.92665088058355
-5.47416660015185
-5.6579234359636
-5.69225708200537
-5.61883853028573
-5.35039666932675
-4.97597092679419
-4.60361121789666
-4.15944657033253
-3.68604154419503
-3.46433174688103
-3.56186916442483
-3.65208511649721
-3.39862160303092
-2.63806889947459
-1.31157088105851
0.316045170035313
1.59051418833295
2.07872017125393
2.03426491966461
1.98612522806057
2.17711359569331
2.58188929296007
3.10805624903362
3.61371260539976
4.0023237890465
4.34213827366489
4.66795351521204
4.78293729537703
4.50759622413505
3.93010888042497
3.20745520927567
2.40686612070891
1.66424694141348
1.11114006844077
0.578786270242553
-0.237295404645056
-1.33845978754543
-2.44680967717031
-3.31207342821067
-3.80736423109383
-4.00197004058327
-4.21860652694627
-4.6633651881156
-5.03122921310676
-4.83381155232452
-3.94744470300984
-2.52317128636039
-0.68010621988117
1.42785840522878
3.62894320351756
5.95501758084776
8.36796859899962
10.2943617314104
11.0449179793095
10.6530874779334
9.74869747131737
8.71432442469079
7.40579882362864
5.52852259081089
2.96014180904736
-0.131429506147047
-3.31802291897013
-6.19703020117094
-8.6263185987446
-10.5227232698156
-11.6476178921008
-11.8954427848094
-11.5754149263804
-11.0846669132277
-10.5053715380662
-9.71880743950961
-8.56460092343051
-6.69760330646713
-3.68425075232879
0.5561623083392
5.59517070940058
10.6418633809257
14.5789083763812
16.1748350080379
14.7383294561093
10.5817191164577
4.8540767958848
-0.899364748089449
-5.31966477639496
-7.96663781790991
-9.44095921980722
-10.4725884215226
-11.111905231141
-10.9844635522906
-9.81939311598202
-7.44830610691016
-3.83346817725755
0.545702174696786
4.63196234960866
7.28213530905647
7.84132013236299
6.61041424704754
4.8823387969114
3.97721116140722
4.00357160413129
3.99497671180135
3.27666001775546
2.13698137899038
1.1812997268433
0.674256789320101
0.595817660910521
0.806957151005202
1.06804092978829
1.24892372389529
1.5047333201991
2.04227617429323
2.86560943005711
3.80277321425057
4.48913687564601
4.40730050622573
3.36633616190652
1.8461017612747
0.544706845083227
-0.189981100358356
-0.301197352399107
0.136132911455752
0.782257331717269
1.17546996658341
1.16210004287919
0.877157983358287
0.415950380832486
-0.116067327748889
-0.466276059139424
-0.500667248695938
-0.36123079260623
-0.205985418535953
-0.151608181237606
-0.440242924332192
-1.14877589483896
-1.82424298510979
-1.93654483753346
-1.56261611011013
-1.1948157375197
-1.07604355998986
-1.05955631662699
-0.916753690007994
-0.575208124603413
-0.228553222832743
-0.239917088995089
-0.732204521982387
-1.37225750786373
-1.79785958872726
-2.07748747717324
-2.53284698072045
-3.40654251266015
-4.8805731120285
-6.96671621569644
-9.18110543183983
-10.8052963762359
-11.5998777060494
-11.8570560655555
-11.8443648195285
-11.6138444417626
-11.098020074491
-9.97760261077462
-7.80181062620735
-4.6076023612971
-1.07523138805744
2.16367913224193
5.05572343248487
7.91227839201
10.9680091685064
14.0657694734061
16.5389945113898
17.5985035855086
16.9864625761007
15.0547879956236
12.3511497527071
9.53332790631026
7.38727703448704
6.2838112565091
5.7489091984561
5.03304805305151
3.93895453181164
2.81508145842081
2.01428350683363
1.58858664981058
1.29206545662612
0.798013346797972
0.109442708372953
-0.32977585973685
-0.173375450227585
0.371536371992483
0.898599603036354
1.3215204931008
1.73257354213062
2.05114383622217
2.07315556663065
1.61999489785296
0.604648724585679
-0.754643837623197
-1.94239741376363
-2.69413239969914
-3.27027437232921
-3.94894881862611
-4.67830521064174
-5.41402725315928
-6.26930862369715
-7.18515445823845
-7.97564754626588
-8.76923036984164
-9.96357103459329
-11.7956576744532
-14.259184893379
-17.1445471303634
-19.7931326899252
-21.1374023555221
-20.3878274684531
-17.6304186000715
-13.7194843508435
-9.6504668748543
-5.85803847153183
-2.07774971985964
1.88073410908482
5.48998501920692
8.24013368436541
10.761596787125
14.2859329637585
18.8752725852676
22.9239446170433
24.6302501623821
23.5157453428264
20.4910935812533
16.9049487326724
13.5867661377273
10.5439498142034
7.54883861813906
4.87197769889566
3.04819522153507
2.06409732988234
1.34888019922062
0.507351431032452
-0.417971928060485
-1.27355427437339
-1.96981436853156
-2.4535130088496
-2.70412304117669
-2.61371497669298
-1.96051468427278
-0.786272861062397
0.438306131517866
1.3693886001791
2.18572209730454
3.12615497294501
4.04668825940863
4.66065026349493
4.73897789437335
3.94782406886104
1.99845305759817
-0.966443171282065
-4.48561045176102
-8.10988506553835
-11.3004557934345
-13.3504567568815
-13.8721125720727
-13.2390042551114
-12.3111476033575
-11.7536127186962
-11.5588143111891
-11.0963802800922
-9.78827591044248
-7.86894203776663
-6.17565932138357
-5.02247528613585
-3.74434471087926
-1.65088636045831
1.00502820102374
3.28587584323783
4.44063114559728
4.42727113079729
3.93919703890541
3.90643863859782
4.70015109755238
5.92865621098974
7.00401452073309
7.47908518389748
6.93112605839145
5.23658553398948
3.01098335087118
1.16925180395856
0.0829317734335426
-0.391606446288079
-0.370249280755582
0.0547832914109083
0.601625614149651
1.01622476682114
1.21469609245779
1.07290756930322
0.534479801901749
0.0032620966467461
0.156199815420017
1.26229001985571
2.88571065912686
4.15036540213073
4.24635667809226
3.01282602839226
1.12518376612235
-0.559307116313144
-1.77750290163208
-2.68026783423055
-3.12494518516081
-2.70419997931672
-1.41886250453984
0.144594288883105
1.30053812244041
1.68925970355398
1.40995233916289
0.933810400901836
0.680783147102547
0.642565836180138
0.630468546852882
0.676106791450135
0.862858036872504
1.0874438384879
1.33339742184398
1.81794080407422
2.60824247091733
3.47669152890807
4.25891489541524
4.95234916871154
5.46584360374082
5.65888217397505
5.53325913474706
5.10798080301817
4.31761974344183
3.16800287114562
1.66103039218466
-0.394970000001217
-3.02761961129918
-5.69433556538754
-7.75539369334125
-9.14721178596197
-10.1267658205649
-10.678056903006
-10.6482758376575
-10.1488431075979
-9.34120923728104
-8.00882997812745
-5.74211490148588
-2.57216256040322
0.740480602579911
3.16238224879365
4.25112523373825
4.51133847914444
4.64199602106933
4.57060416077472
3.76577146539448
2.39051036607442
1.34001998569736
1.0249034701019
0.824951538403904
-0.123747475810085
-2.09238693691698
-4.60111865280177
-6.61419709254806
-7.07344781590144
-5.69480693555846
-3.22926048006836
-0.885282783326468
0.367261375074577
0.17760057163932
-1.0326049190995
-2.38188046085478
-3.25449393739845
-3.51948849793129
-3.01646660444451
-1.39418222217836
1.33986172298564
4.55752691731082
7.39804849321609
9.1409784675382
9.41022993409918
8.41938269935746
6.88266154892898
5.46393946723398
4.43381519732533
3.74987389375003
3.07386505205784
1.82935499277662
-0.2473372488866
-2.62933630909413
-4.4340573723069
-5.18969807747886
-4.86173482297599
-3.49886811687296
-1.38155632375733
0.72359344071155
1.93467661811319
1.85589271351061
0.810820550179725
-0.243190784765419
-0.181479707448491
1.42222439421319
3.87810968822836
6.01207112837226
7.03444712226492
6.79795459741041
5.71069661204522
4.52814505818097
3.79378318212906
3.39683479676757
2.92154894544842
2.21489129071516
1.3287376123278
0.252285495042787
-1.01307872930452
-2.45542340478433
-4.24182677039065
-6.49447581445987
-8.85586629632293
-10.6296783040185
-11.2599921846934
-10.4920636901691
-8.43383245625847
-5.70841079350138
-3.18105519715153
-1.33282047093261
-0.116947968783597
0.697119900468709
1.43071716847779
2.52315425487145
4.08018246684013
5.48182696289151
5.91984692387775
5.25865449206635
4.08680860594208
3.1668528151992
3.04377829940483
3.80938186009717
5.01606920662342
6.06512115097
6.64815674922853
6.58447461014557
5.56619302637271
3.4638851177684
0.561783276617629
-2.82100187479792
-6.58340641300572
-10.5232940291753
-14.1560098776314
-16.9753051523202
-18.6243690293299
-18.921476029601
-18.0265064695351
-16.4066321180126
-14.3779846383742
-11.8008903110905
-8.22470330929303
-3.18314930827591
3.30757647751534
10.1534816402394
15.4833266485789
18.0398333432105
18.0615799361608
16.6421539257938
14.6657605521935
12.4877389492652
10.1061446034369
7.3909122247954
4.43930703530674
1.75172065937351
-0.193530534724023
-1.4233735851123
-2.27644933623153
-2.95337311117655
-3.47924584922747
-3.76160524680723
-3.48413928328418
-2.36295855285741
-0.660622985975532
0.960794710381902
2.12061780960906
2.88299990539296
3.38168799255047
3.64984698924996
3.64837020500738
3.25555191520963
2.49360296223718
1.79101216207395
1.61692623306697
1.900569076654
2.21551678773477
2.36646617894903
2.39346933258618
2.25568003287078
1.88566968513128
1.3145550528282
0.538430632908839
-0.468276127161164
-1.5572374875118
-2.48415936339563
-3.1158486191491
-3.41952031924541
-3.48243967045673
-3.60166335659199
-4.00496914423014
-4.47539314483353
-4.6197801548571
-4.42808871722709
-4.18281445596086
-3.97581521324828
-3.7388647682564
-3.56721023706904
-3.58478055221664
-3.66896354138368
-3.64232918662625
-3.49779818362267
-3.22810886191687
-2.77488851735672
-2.25858479091223
-1.88271176676118
-1.61596338954972
-1.30987102497575
-0.959066979027037
-0.530122297298574
0.171153213503656
1.17687666573319
2.21077266461341
3.01630318934322
3.52420518652712
3.72217916517883
3.69091638618496
3.62518432889407
3.54341950646718
3.24032934031238
2.69364983672189
2.12471609454184
1.60377565236941
1.08849755255755
0.811110246188907
1.09180607749443
1.83808388972244
2.64155160534649
3.20032183733184
3.37424675893712
3.12886984274369
2.65765927782462
2.25822871492998
1.95212140788936
1.50373354205386
0.814793183131473
-0.0010419086868484
-0.823736686142776
-1.45435447318809
-1.50015577205614
-0.706765737477639
0.699594036103661
2.17637373389768
3.18194166728684
3.36686833858296
2.82483908455709
2.10472234287285
1.65634751096472
1.42388945479865
1.17213961808704
0.827137518557002
0.309436232364244
-0.500804473080708
-1.48257619065043
-2.39147405348348
-3.26589267826416
-4.30151669529517
-5.43396081971689
-6.3972429250559
-6.98722095523025
-7.07100566763021
-6.71279284467633
-6.39244309258302
-6.6274299243947
-7.34293483748587
-8.0185112192592
-8.27104512329634
-7.86417276770095
-6.49347374273966
-4.12837007789739
-1.36456386203073
0.994393393555898
2.60245746948939
3.6307720795297
4.35899407540666
4.8766383609502
5.09205291046856
4.99291406911788
4.87050773052376
5.03138652518582
5.2375527371437
4.8708993673977
3.80631250842242
2.67066057842265
2.12236036635263
2.29518625924824
2.91829446161659
3.54703046126006
3.79096257730293
3.66634778858565
3.53482229962341
3.5474371866285
3.5261046201196
3.43192295065942
3.44127024436751
3.54447047227533
3.53468013521118
3.31831533756064
2.89342415376232
2.25876888729952
1.58179374857798
1.08320692493394
0.631383378529501
-0.0883563219648213
-0.993779483232455
-1.67882052607202
-1.97747308098438
-2.03674975838081
-2.02153286196492
-2.08291558424384
-2.35959975208692
-2.76045257964709
-3.01754410298352
-3.09362329540709
-3.24975423258207
-3.66549643261651
-4.29277525209374
-5.04137706297317
-5.78892399932336
-6.31442394425677
-6.52472080630765
-6.59917188197114
-6.71242209926767
-6.8312459676284
-6.84452456834492
-6.61009941183692
-5.95000858777137
-4.89820661902964
-3.73895124529128
-2.53962087122722
-1.00326053490315
0.984941704495773
3.07211727671639
4.82764482896796
6.02718194052159
6.63142481532513
6.93222200679744
7.47720014918948
8.33881803615188
8.75700262285519
7.9933269938056
6.26179681816059
4.48490497543334
3.41569137501976
3.16606155529673
3.3230644864742
3.44020301484334
3.47455470983715
3.58632056507254
3.60481170275353
3.1570761234936
2.31441875597468
1.60793433552692
1.39032220184992
1.61387619520809
2.15111770432094
2.86537750490227
3.44477899922692
3.5802510416207
3.22746204936578
2.47558202233396
1.42878751883218
0.331154993696495
-0.659858810873504
-1.90623935506271
-3.94157251003554
-6.6437821914113
-9.25546784964902
-11.1511359281763
-12.164283314637
-12.3935680787398
-12.0986742832963
-11.5630690534603
-10.8139169237498
-9.7038774592628
-8.28127659481529
-6.7668828863361
-5.24666861653701
-3.62905610759404
-1.67786942702529
1.02172857936576
4.639394583914
8.46003143898478
11.1495657395705
11.8050605204905
10.4379342074108
7.61098161422315
4.09018871549549
0.749235621141493
-1.59691042816324
-2.39668485095893
-1.58361142522392
0.115401340305586
1.33781684975552
1.1449424718633
-0.0548549069491287
-1.04447574059652
-1.15563734090996
-0.695972005844927
-0.261100463944045
-0.130013106687745
-0.176266217784078
0.0295257215305495
0.872420761583374
2.22688884502361
3.53168471754832
4.34273557169695
4.56697220066773
4.33124393051284
3.95030736341469
3.79037124056308
3.87310204517132
3.84521519122044
3.44716539934627
2.70612864310192
1.72021359258466
0.646943523998442
-0.210049530640786
-0.658171999109746
-0.788807775159874
-0.73091943278525
-0.606800427020372
-0.782083294220808
-1.57732718560516
-2.64558911182196
-3.19397065963696
-2.86644455255076
-2.00004531334867
-1.16182655784446
-0.823152884145027
-1.24898371670539
-2.28956954505004
-3.38524959727641
-3.99147052538324
-3.93405921004147
-3.41259185370562
-2.90083969653853
-2.91036106267093
-3.49125926901396
-4.0557465830877
-3.95395088577632
-3.04035218309027
-1.55574202267519
0.141347648834262
1.58944425835144
2.42310505741214
2.67516696388898
2.58438291715648
2.25393280593874
1.80885609414532
1.55968551642133
1.64910836054726
1.85070800002884
1.93960378874534
1.92001832286794
1.82385741074407
1.66545132902977
1.55020361663839
1.49195325818186
1.2955195284691
0.890622498690111
0.520652829408958
0.434689067255866
0.683622533385694
1.20980532920585
1.80610598904487
2.14694046638242
2.20604554251045
2.39877415128856
3.00831807318198
3.74293432130041
4.06060615539619
3.65121616185323
2.54517738469566
1.10420026779955
-0.0930441642841827
-0.728390660689014
-1.05430640008842
-1.4094935582637
-1.66662553501531
-1.56695939051536
-1.28970793887083
-1.23452853629068
-1.49471972873764
-1.84640812331332
-1.99072470439794
-1.70396178394628
-1.0858840666754
-0.668064613210672
-0.989407845444311
-2.13313991740517
-3.76656203371297
-5.33122560412984
-6.18743139922299
-6.06257689002065
-5.41508366120854
-4.94997175680874
-4.85670645778038
-4.86557483107646
-4.78199118905655
-4.58144284482987
-4.2284176750776
-3.64433567413437
-2.67250792015717
-1.19304250323148
0.402535517277946
1.20145810360286
0.744992508273566
-0.304404496778796
-0.892777193294594
-0.597954701231117
0.364895437177803
1.6021859479621
2.61190228818385
2.92784290374633
2.70244591007969
2.85094529269669
4.21687855257197
6.67871063155671
9.18267190511109
10.5688415206812
10.4604999761511
9.46883598753238
8.42545346871646
7.51466667066156
6.44473131789591
5.21412610913564
4.18522895034635
3.5722400758648
3.314018032122
3.26165141221871
3.16862612417552
2.76256829158776
2.03958260380853
1.21490474354667
0.362942354658538
-0.556167428598772
-1.42000848584251
-2.06131215510042
-2.51891130934704
-2.93302653715347
-3.43876672075231
-4.260880429665
-5.53180372841403
-6.9660588521443
-8.08127145543043
-8.70068216641009
-8.97570226492729
-9.129958713274
-9.41710035465026
-10.0224797227342
-10.7593000456304
-11.085816310821
-10.5348349748676
-8.97522404011107
-6.60434990488478
-3.98627328595943
-1.84086266557838
-0.335619959242156
1.184336479409
3.29325901974923
5.55434463705391
6.91509401053083
6.80168145174382
5.56772962554429
4.17419482141
3.5720867201904
4.04364331647508
5.02011322208582
5.70159520467965
5.74584386350276
5.29205169283936
4.67904554647331
4.28436466736916
4.29973476459864
4.58675015279001
4.95735644302055
5.39100060413212
5.74475287604602
5.6594896489848
5.05111314813221
4.26070822661643
3.52356170273832
2.76980459131249
2.01410042990559
1.42405301625877
1.01163829542278
0.687777148362146
0.496659104071693
0.471937891643282
0.496147875764236
0.541777731161093
0.765045576037919
1.20241040161193
1.65347777452968
1.88822104659462
1.65025091444213
0.551593917702919
-1.6147174007852
-4.52514405919424
-7.58585655710334
-10.3267108617792
-12.3402447790618
-13.293745518814
-13.3154036829024
-12.9791165012842
-12.704252667939
-12.465564458851
-12.0545437001873
-11.2898329675269
-10.0710772175088
-8.43813016816299
-6.40860882516454
-3.78797503442903
-0.52641171610341
2.83268308852795
5.51872699216104
7.22134046646372
8.07435995384292
8.2879118305477
8.1448223501967
7.96902476513171
7.8187165578733
7.57602239476513
7.40040579315182
7.65255831742487
8.38899469942355
9.27605874380762
9.8370361032299
9.5590603615835
8.12566200381
5.81796856257071
3.36166889025597
1.21142871174874
-0.701305859513024
-2.49263469044667
-4.01881500836051
-5.09674006920376
-5.68265684448365
-5.82034539268266
-5.61315619026614
-5.08504477962828
-3.97390427049526
-2.04292967770916
0.316726836596764
2.25440328824659
3.27615284138361
3.51299424300391
3.36180994485965
3.28385101710084
3.64331410036579
4.29107669383649
4.60089662034565
4.21397896503786
3.41401003336164
2.64111052013588
2.03765482689972
1.51175089833744
0.879500814449366
-0.0192249927637056
-1.11669517639324
-2.18046467753534
-3.12031572061382
-3.92266242751492
-4.39461842387125
-4.43376834331212
-4.39436625496073
-4.71933704158606
-5.39240796098779
-6.10483180130442
-6.68439783626041
-7.06905293284296
-7.16157889420453
-6.9473049882036
-6.51166852353279
-5.84632253562969
-4.87196033032872
-3.6094117335602
-2.10016201303075
-0.385584737434274
1.1437106361109
1.74918361411534
1.10688910491367
-0.206593145680585
-1.2395563971485
-1.40463270116211
-0.696000605744486
0.414274564788109
1.32738927804591
1.89181229608406
2.49261742465428
3.41369511221957
4.44976076022209
5.24962033106957
5.63931388731858
5.62751550828993
5.52093487516675
5.84577715347648
6.66744639042458
7.25835330135906
6.91412864109235
5.81340227570978
4.73005334278433
4.21946067209866
4.27357782638208
4.43937704996038
4.22745315882034
3.66210372887726
3.2788144188442
3.38049731736547
3.63552585990218
3.61456466337693
3.29386327452742
2.80854019848238
2.15645813869625
1.37713785722793
0.618160684437448
-0.178222408474425
-1.31825520404909
-2.96379119669454
-4.94425128691379
-6.9516098614973
-8.74564729162476
-10.2766831238884
-11.6707738160698
-12.9226824027291
-13.7385995155556
-13.9725855166696
-13.9492567574854
-13.9814378105835
-13.8676909849252
-13.1782073497055
-11.7040393566604
-9.46309381310892
-6.68555606537729
-3.84589015279707
-1.24142137448464
1.44438497793668
4.76709989775444
8.84060751373709
13.2383947554391
17.1505237211534
19.4399392753232
19.1895421141416
