0.509363262638504
0.653588181344023
0.748547387387955
0.869182736508255
1.06204897306095
1.26416728137697
1.35217081138648
1.26400858517607
1.03863851920123
0.750420615005273
0.444381384425927
0.131630066763095
-0.172982623211065
-0.404481471444631
-0.456569529944033
-0.286626519480352
-0.0104975882639538
0.161220891234113
0.0906459762474524
-0.212775286256933
-0.659347233148677
-1.15804986627419
-1.62211388555804
-1.94338672128429
-2.00112350378136
-1.72418632007369
-1.16801391484679
-0.517889882743466
0.0287088934681212
0.408441294772268
0.715862162542312
1.07523231156102
1.4869395847845
1.80139385146827
1.85997527725337
1.67120272667421
1.42042791371987
1.28342350598291
1.26857180068504
1.28457692714131
1.31425579580505
1.42646235975653
1.61548902302583
1.73263333465818
1.64126402821863
1.38934146354229
1.1621494126516
1.08364530573982
1.12214894199181
1.1866407855047
1.25221206564161
1.36298333526777
1.55569208183859
1.82115910624985
2.1167868985904
2.37629259489648
2.51406307411748
2.45349522631012
2.17193237106337
1.73181813343478
1.2684366522646
0.911321837640403
0.678569035262188
0.448974659210673
0.0425092593264973
-0.687934663255072
-1.80390258762876
-3.20768913365258
-4.58969551726852
-5.56771587262535
-5.97711904408458
-5.98307570833425
-5.86112799642377
-5.72636967727564
-5.52309658249348
-5.20924063919767
-4.86447751361735
-4.61938998175186
-4.51966035982675
-4.4689830629277
-4.29925724640407
-3.90752266096727
-3.33999227872285
-2.74568478720002
-2.24082393909165
-1.80638862700424
-1.31179837481916
-0.650930316822068
0.129534752520515
0.845202455493668
1.33869785884205
1.62976461099285
1.88235050945516
2.21426267203088
2.55597974361449
2.73327424304592
2.71125471345384
2.71522579657218
3.02825432848149
3.65923134684513
4.29647241266748
4.62542558070969
4.6088724570624
4.40813872906518
4.13395286968223
3.78201356419983
3.36219420117291
2.97183775190668
2.71175481291433
2.57448809252118
2.44952536753113
2.25013768972478
2.02559312014704
1.91110329485825
1.9553907187249
2.05101501746887
2.07156335631182
2.02158750633469
1.9837038581545
1.94418561869957
1.74386933811188
1.22264477379505
0.393342651864963
-0.531382221199221
-1.28432033226002
-1.73689073642587
-1.97156644145087
-2.17192659680933
-2.44243126090827
-2.72796952383912
-2.89485039186756
-2.88202261325015
-2.76340100400722
-2.65062929438002
-2.55685031645877
-2.40114718471304
-2.14093538865429
-1.84470145874963
-1.62240895596263
-1.52710347003156
-1.53808476752366
-1.6054370093569
-1.68182221644458
-1.70573023933455
-1.57459637348409
-1.1922552554355
-0.579939008338807
0.108997171251355
0.736422072129716
1.289694571886
1.78870839171847
2.15642007155318
2.28116818346603
2.17254181881042
1.95855187453821
1.72307691802263
1.40605945073479
0.879656849367358
0.0919971978910475
-0.873842692143497
-1.85226312368854
-2.67722863361188
-3.2308791389401
-3.46785306987577
-3.42804522540789
-3.20716765871088
-2.87971603287364
-2.45030438154612
-1.90069172349794
-1.2766617527938
-0.699393658304807
-0.287090363590174
-0.0793717425386237
-0.026241465987586
-0.0226560490448826
0.0418336411094302
0.230026614443217
0.525484258888909
0.855467994207034
1.16087596506409
1.44814663381094
1.75720853080639
2.07535932581263
2.3273508043964
2.4956112746382
2.70712802132621
3.10216312189209
3.59817829843615
3.86818551777073
3.6169224311251
2.86076417843964
1.90372025291435
1.05370594180421
0.4046825745986
-0.103726050763405
-0.502427814123081
-0.770507224709211
-0.967332254067855
-1.24776882090813
-1.68345141596595
-2.14819706561118
-2.44964144945933
-2.52826698809887
-2.46604005715996
-2.33784485732894
-2.13172165009372
-1.81155735472214
-1.39463530426722
-0.952553704237198
-0.575298759122923
-0.338513642410672
-0.25537763086112
-0.233931381290169
-0.122055113889589
0.157295457068655
0.523938159083889
0.823610843267995
0.976647469432612
1.01041133818732
0.979878562226035
0.936379463424974
0.978339271109632
1.239422005909
1.75582970148066
2.36994903078752
2.82256148625241
2.96082061008397
2.84962053775832
2.67384285065228
2.53404827829224
2.35504758914285
2.00863288741216
1.4969170684252
0.966921115560661
0.549495463929139
0.231304827101798
-0.0995957189098491
-0.503482867673159
-0.893306600388354
-1.09129288589696
-0.997936600872315
-0.705310338097416
-0.421284774338293
-0.291723474040926
-0.332315352327418
-0.514960585345123
-0.850306854248457
-1.36269824778432
-2.02030022412284
-2.70158488457969
-3.21865850942573
-3.40869702265615
-3.25443982112377
-2.90387495655515
-2.53797906219714
-2.23949555061709
-2.00872124805621
-1.84479088477935
-1.748678783785
-1.68934557574596
-1.64445826692581
-1.66302774375808
-1.82328526841268
-2.1177263647108
-2.41428652192002
-2.54066546149943
-2.39427847642749
-1.98102341129628
-1.38359793530492
-0.711816834625837
-0.0605560122322712
0.518961390123598
1.01295418317252
1.41197270070257
1.71268894663424
1.96205388740793
2.25549761881798
2.6562156845903
3.12787012424506
3.55493800374463
3.82551011376816
3.92294932694189
3.96346435144348
4.11012533810873
4.4093594944352
4.730727686042
4.88722423793639
4.7813162611889
4.42497131749312
3.88874596938838
3.28129914218234
2.72442191582004
2.27731118542644
1.88638500924242
1.4302298616426
0.809710729052992
0.0136812023250776
-0.861098488923261
-1.65732324500419
-2.26000410217804
-2.66272729120793
-2.94223894102129
-3.20438853965908
-3.55040745226048
-4.02736548117312
-4.57818797537582
-5.07965517038148
-5.4459203852793
-5.65871861679947
-5.70329263843883
-5.54748212001762
-5.21779528682255
-4.84278166061026
-4.55468225525431
-4.33682252636266
-3.99951188629092
-3.33566624691963
-2.30924186258786
-1.09638905242873
0.0450980603066863
0.94896606865048
1.61914627959837
2.17174578596386
2.70364346830611
3.21340559311967
3.65376681620308
4.03741471277741
4.43588751292728
4.86238517675466
5.21723295303314
5.38773898207408
5.35029223905482
5.12890392504237
4.7118150244429
4.08351945545039
3.30780675524062
2.50297905114546
1.73509888182646
0.982870159528885
0.209012320918803
-0.564775638243348
-1.25422670431514
-1.76330977265283
-2.04235697939154
-2.12249676532668
-2.10782994326844
-2.11879978246749
-2.21608013795062
-2.36619909976069
-2.46882327494144
-2.39217315391811
-1.99948541261099
-1.23725463560834
-0.265248352941524
0.561634593873878
0.936990330979798
0.844927344198895
0.553912446985857
0.403157145892403
0.585550652632968
1.05369329391549
1.58395054128276
1.96438968750215
2.15379649330826
2.25337678409486
2.34901072832519
2.43574969910665
2.48549287416566
2.51156354552012
2.52653470054629
2.45417397476566
2.10653140333415
1.28664670065172
-0.0295582053628242
-1.61322473649484
-3.13441564549897
-4.38837362649556
-5.33096666694664
-5.94725462496083
-6.199428790755
-6.10792461297953
-5.78961761540968
-5.38106112520891
-4.96485432581977
-4.57946502983833
-4.25266928062777
-3.98416130140443
-3.70168829441563
-3.28470782243695
-2.67916850680453
-1.96928126249126
-1.27777824320409
-0.60777759067389
0.145681690591255
1.03035556295257
1.9587432807368
2.80465298664721
3.5132295902835
4.10040572201606
4.5952730023713
5.01031422667845
5.35193224806345
5.64261194333454
5.91191271957305
6.13966376159194
6.22140150754213
6.03820850712864
5.57202364837551
4.92248346816289
4.21245151887898
3.50662962588985
2.804740963177
2.06568931733877
1.24407574291663
0.348865403433999
-0.53134257082639
-1.29584223479507
-1.92606236273217
-2.48355430724692
-3.01644734365142
-3.50571889610392
-3.91424241641036
-4.24347235167144
-4.49939290035305
-4.62827741985611
-4.5506894135951
-4.27440016432156
-3.92496126146861
-3.63009151666633
-3.39487382593097
-3.11672644743648
-2.7146807813836
-2.2247011726745
-1.75650428239714
-1.35842801310675
-0.95995638345851
-0.482537630708067
0.0348513634180914
0.494684784061003
0.899124709943154
1.35656132282158
1.93234908662003
2.57432293881332
3.18479081260435
3.6904464507062
4.04324697505439
4.22265679913407
4.23918445793279
4.08741984444506
3.71523505726342
3.09231895667676
2.29082409208697
1.45743663661426
0.726025038409252
0.173049674522733
-0.192418006243162
-0.430174748953905
-0.6305788397775
-0.852709426359481
-1.10279099509758
-1.34130802402844
-1.48342224864837
-1.44645739584952
-1.26208422746835
-1.10829822721442
-1.1561743424262
-1.3831675134802
-1.58345249081061
-1.57196777571165
-1.35766848992988
-1.11417081811873
-1.00034978982996
-1.02659122634284
-1.08669139681615
-1.08031781706068
-0.978524884465131
-0.798521060377596
-0.555144158832255
-0.237127706905955
0.171607062124969
0.619999190160833
0.947805535093023
0.986815974568967
0.739823179731758
0.413332872902541
0.242319851582515
0.313126350522121
0.560972719022974
0.879612236271936
1.1974047240752
1.4792360207817
1.69685765482436
1.81425578197574
1.81087702862141
1.71794584352592
1.60777527867362
1.52044585405516
1.40150915202211
1.13737084262077
0.661936933157491
-0.0004278866485715
-0.806783985433487
-1.74213962198308
-2.73127020124812
-3.56312221906952
-4.01427624721131
-4.04996512498216
-3.82302084292249
-3.47202465679906
-2.99685474246043
-2.34384184598813
-1.54287567237181
-0.72714394142137
-0.0387095289493647
0.48831497795444
0.963779797545133
1.5245710845162
2.14484417203492
2.59365616474639
2.62804442850209
2.21927994813674
1.56129246876166
0.874786499768356
0.238666398401771
-0.401075093241687
-1.1102022953512
-1.87335529577114
-2.58978007390061
-3.13298936564552
-3.42094028333474
-3.44521023610724
-3.2385564245197
-2.82123272877315
-2.20032229707177
-1.43016874530245
-0.629027737329957
0.120880755890737
0.866426344427718
1.70036405794324
2.59162939520528
3.39133492497851
4.03077517349383
4.62628018249069
5.33163092201149
6.12622959277881
6.78797982633896
7.05980352571215
6.82864397950559
6.15643641290832
5.16093429862855
3.90331062848312
2.42753978434058
0.889762078980981
-0.421130745248861
-1.23495529515676
-1.47199575298964
-1.27367486416026
-0.893331247391571
-0.559134472193039
-0.393385384676746
-0.398789900388181
-0.502262858772145
-0.649307143067787
-0.88225636293263
-1.28980113565129
-1.84649759927388
-2.35264121447356
-2.60166321215684
-2.58145005481245
-2.44238671299182
-2.29401631816399
-2.12197539642034
-1.90214588927027
-1.71071746510182
-1.6960597998256
-1.97677941333933
-2.54903159320917
-3.24455118835988
-3.80113399168004
-4.03128592660482
-3.9294101153262
-3.62007931544859
-3.25712435283256
-2.97870698925393
-2.85469324784264
-2.79925730655604
-2.59798513247225
-2.11301286646082
-1.44935177760829
-0.864790316885677
-0.531582902575665
-0.434855423066539
-0.478206665327434
-0.595416767311198
-0.724916145375016
-0.761676646266263
-0.626331487740977
-0.351677842863906
-0.0219720204849482
0.348462574513612
0.788762898997087
1.23998620889904
1.56061299661947
1.6995983564947
1.78666739939364
1.99481223697228
2.34562222311785
2.68811650486144
2.85390688836468
2.81077766121516
2.67720562337779
2.61545864647868
2.72027493474853
2.98286559985286
3.31224933796475
3.57765579654831
3.67514442573208
3.59278987288923
3.40270942104901
3.18133466945758
2.96310955227857
2.78568789268702
2.7483423854075
2.97888722093259
3.51357152100087
4.20652659231
4.79259902257543
5.09512102127122
5.18172366130751
5.26320875028023
5.41494485314027
5.45152824120042
5.1063849473184
4.26818483915198
2.98941151303573
1.34168540193901
-0.624232614714656
-2.79050182903031
-4.95631120150996
-6.95044295730194
-8.69001556559047
-10.0872418717623
-10.9798829010286
-11.2510006411648
-10.9928380481034
-10.4621248097153
-9.86584549946157
-9.25600224111564
-8.63815420933969
-8.10104833317288
-7.77789237474795
-7.68309762485735
-7.60535147347328
-7.18575768314532
-6.15733687417345
-4.55838681402864
-2.71272842554246
-0.984043630739977
0.471322017985185
1.76875796627378
3.16498629579813
4.8144212986466
6.57449329866524
8.07438490567857
9.04046142287761
9.52480280284608
9.76481159055966
9.88593819779858
9.8318576779452
9.54924270598447
9.15770488022267
8.92832460375789
9.08082871914785
9.52044650064741
9.75191041019676
9.16030302094205
7.49131905800618
5.08842551765588
2.6605344782705
0.802787758130964
-0.34349607882774
-1.09241523770388
-1.93509376836976
-3.19978092095666
-4.89050778258239
-6.78669177979881
-8.64374080119061
-10.2715206086898
-11.4734181528591
-12.0314403094449
-11.8461617725401
-11.0887083104521
-10.1402287331997
-9.32046834866281
-8.67008887409397
-8.00060743457173
-7.12896589681178
-6.05773595251298
-4.96773739822209
-4.04775300078445
-3.29832687788346
-2.51121893638163
-1.48847718374868
-0.258596700619041
0.988588559470568
2.14915485757071
3.29359072746967
4.51383969980614
5.76952995211836
6.91190510684994
7.81758623871604
8.47343076497923
8.9330940886352
9.21877197991608
9.32440056942602
9.31944731387403
9.34851997000666
9.46402654350507
9.53414528641328
9.3883383416428
9.00215809889432
8.48177049352067
7.91084966877746
7.26011506264385
6.41483167956282
5.25962728260072
3.76794999878345
2.04470311741538
0.281899554522715
-1.33730787184562
-2.7158578529952
-3.87824360663653
-4.95482681564707
-6.08698262216099
-7.29706911753396
-8.45896556018717
-9.42145401081814
-10.1440823401111
-10.6814329072092
-11.0535679142142
-11.1975185990645
-11.0733133492725
-10.7442075736364
-10.2587714443819
-9.49417604868929
-8.26492233694605
-6.6236811148386
-4.91994674113749
-3.48200999230308
-2.33809141424479
-1.32254438333869
-0.357718921541652
0.46487780442739
1.02541778207073
1.32461960749941
1.52800576501684
1.89450132069085
2.60153787420881
3.58487899993479
4.56874614308606
5.28314961220014
5.65644698692376
5.81502909817804
5.93234602904996
6.08682044911361
6.23762796450472
6.30353111598796
6.24678332333257
6.0877479892422
5.86625263367604
5.61018528490601
5.3407969433039
5.10027292172202
4.95631147676735
4.94392152148086
4.99820510503842
4.99908770392265
4.89580214421437
4.69739991386019
4.30235976543669
3.47612512510983
2.13039365837324
0.549550987397714
-0.805304487231771
-1.71349534894896
-2.34349841094971
-3.01587360510869
-3.89401149531663
-4.90900057196559
-5.9403288044226
-7.02122415428905
-8.30380198123604
-9.79529149235436
-11.1991850842065
-12.0994354248171
-12.2875455344577
-11.8579071863648
-11.0048363794402
-9.80350309714754
-8.23002448876562
-6.34897157569565
-4.37354168690938
-2.48185870392667
-0.635795047615352
1.33326511269918
3.47590359710466
5.61224003390732
7.42906750622024
8.63787990799865
9.10909591248168
8.97363262612216
8.59788506828361
8.3596024933788
8.3866185866605
8.52627841427087
8.57907131316576
8.53498855708855
8.55723928605094
8.75216909264427
9.00236336917947
9.03853949739161
8.61453710629631
7.54726402244946
5.62885463331225
2.64889207278979
-1.36367578981472
-5.89902179161401
-10.0542222540982
-12.999073259199
-14.4587907890982
-14.7702761332702
-14.4846518689876
-13.9551406737531
-13.2749979358459
-12.4503801708599
-11.5020512441144
-10.4476578026732
-9.29537949791839
-8.06230357863841
-6.76474142371817
-5.42830849613104
-4.14882895615627
-3.08941034030973
-2.3403356434404
-1.79032053198942
-1.18368357348448
-0.293062839906531
0.991973250019669
2.68657627645142
4.71764898997489
6.90764544333856
9.04913599001969
11.0451819784085
12.9197735432538
14.6407474865231
15.9894347169272
16.6979833826123
16.7123106536265
16.2298945979785
15.4381568099069
14.2774938512013
12.5315097208948
10.1602032477553
7.5360159552509
5.34190385202532
4.16543593761476
4.0661710479371
4.46986821417567
4.52973079357367
3.69827753755238
2.06089679945122
0.198030070085322
-1.27571207643576
-2.12682708703259
-2.56270099938386
-2.95079143395297
-3.56718787255667
-4.66177809380924
-6.5892273735368
-9.55596108678049
-13.1477094684144
-16.3548787013912
-18.2922381695125
-18.8500718477541
-18.5602551249964
-17.9579619698058
-17.216062358591
-16.2742557838755
-15.0685309366655
-13.5753505095115
-11.7886309780817
-9.78418327732141
-7.77988587333897
-6.03557571653713
-4.6486523416805
-3.46797406352942
-2.23077107842238
-0.776166202835247
0.878651249796418
2.63399772954557
4.42669462308152
6.24285730488346
8.04266830308952
9.69667606334753
10.9887093307746
11.6744771162837
11.5828504784717
10.749698133435
9.50156040698162
8.35505254161131
7.73198693170088
7.71346472462374
8.05460940552722
8.40426704457349
8.48553840977227
8.14209806715104
7.36678255140277
6.34929860145294
5.39240552259659
4.665447456118
4.06037708238344
3.35962021370633
2.51426433139626
1.67881427529003
0.999209091352863
0.469602603597366
0.0098514738128841
-0.415536341644824
-0.812483153443788
-1.23656903787002
-1.79276523751304
-2.54869922838761
-3.451145498617
-4.32494151899278
-4.97995519910518
-5.34993189161341
-5.51989845302144
-5.61012069085536
-5.65437853029052
-5.59110151367807
-5.3384745084153
-4.87392472870952
-4.26822685721554
-3.63326045918722
-3.00585464996535
-2.29993226689647
-1.40343641806342
-0.301418831471079
0.906003212462929
2.03959674352315
2.85388490167118
3.10368422392617
2.71551160329977
1.90263985697183
1.05639563960633
0.50296771823513
0.355117333323238
0.545656101886683
0.939834365199008
1.40086973825233
1.79291880886039
1.99371986286433
1.95058744649872
1.71590091432276
1.40298426565196
1.10172688053964
0.821878153013051
0.483749799510994
-0.0281871836022265
-0.748230621755884
-1.55648665674706
-2.26739756793638
-2.78804214210673
-3.14195479788896
-3.36151717637094
-3.43962421913845
-3.39614127924558
-3.3220436061303
-3.31368530177462
-3.36178963828593
-3.31165083766514
-2.96806252879497
-2.29110314844982
-1.47898357778395
-0.799274864394196
-0.337147801713274
0.0294399831007948
0.395657410891785
0.636625857238704
0.492275909059224
-0.166422269583096
-1.16056575454565
-2.07117779081395
-2.49134579931387
-2.26730453994394
-1.55205988774071
-0.649875992226705
0.205067006551194
0.959759124026273
1.68228883846574
2.4197916677648
3.11822165537508
3.66552854723599
3.99065771751937
4.11562047079837
4.13966903311138
4.20130886882964
4.43481799133223
4.91308047144416
5.61345713482409
6.44298654312835
7.27647579920483
7.95400327705037
8.2823636275139
8.10678045399619
7.41999765139949
6.40804237728214
5.36935942167557
4.54090805630075
3.95949696468952
3.48278295026995
2.95394646192658
2.36139172675351
1.85389939223449
1.57452199843227
1.41773409566312
0.958481652961733
-0.261265445414873
-2.28358439368054
-4.60170102169932
-6.54311515815557
-7.81196896019716
-8.6832209678658
-9.7123953865901
-11.2512035522296
-13.182934361828
-15.0726573268093
-16.5304549604971
-17.3927826264063
-17.6031111033517
-17.0663094941956
-15.7033397414643
-13.5782563100419
-10.9012115540351
-7.95494045470037
-5.05799108556405
-2.50895404794644
-0.449157895759303
1.2288819481512
2.77716930674108
4.3633350233404
5.94577383253114
7.37122210030015
8.56249388462095
9.56594044665788
10.4235182336967
11.0775189869823
11.4528761832638
11.5884841310063
11.6304343090201
11.7117215525242
11.8598601083565
11.9734794066666
11.8418110996852
11.2284854531083
10.0184090410829
8.3182522747029
6.395965656567
4.48646394927542
2.63147443257797
0.71226013128832
-1.35461338310704
-3.46957029279434
-5.38793461071802
-6.8539520406784
-7.70528335311833
-7.95685328874531
-7.85505495671977
-7.77419319722357
-7.94539555965747
-8.26775188860678
-8.41784882576327
-8.14390845516808
-7.4468549778485
-6.50726650491374
-5.47879151419352
-4.37751858302986
-3.17949443556771
-1.98854121121954
-1.02855171094943
-0.437046366037073
-0.115659351600764
0.185077279230483
0.682350770915171
1.49006233191133
2.65148758872195
4.13029690520761
5.73604854008803
7.12239223547563
7.95709531161936
8.1443394438266
7.85514876936447
7.31876541163895
6.63784018005069
5.84826551670442
5.0784942959518
4.54627535180378
4.42084680713151
4.74698014895302
5.45161462372649
6.35832708979053
7.25394900412579
8.01006292209096
8.58193621651131
8.82781445542919
8.41726634863296
7.06918550167163
4.93211459241114
2.64246586720706
0.847897428174511
-0.425235224086385
-1.86109796880778
-4.17542456132598
-7.35632673181228
-10.6964069699225
-13.5312637348781
-15.7425545290159
-17.5192839067748
-18.8873726047562
-19.645893863874
-19.6322933505227
-18.8790638929427
-17.5595577961752
-15.9162771796048
-14.234727429052
-12.7570716957711
-11.5334862338854
-10.3738985741844
-8.99861557996284
-7.26560708201417
-5.26272225362796
-3.19271892329197
-1.17660747868641
0.832752569685549
2.94980525696081
5.1939611760317
7.46352052260618
9.65977305824242
11.7690383747673
13.7934013548464
15.6501406890436
17.1608318909221
18.093882047647
18.2442978077664
17.6088804014956
16.5253526661147
15.4853934847767
14.6772505791958
13.7733254934242
12.2767255032955
10.0484314404833
7.39733442404021
4.66469919210459
1.86200666865347
-1.1755464663688
-4.35337605614499
-7.20316940708906
-9.23884560415205
-10.3182332755942
-10.6262491626301
-10.4361349764481
-9.97089784117584
-9.39407153904658
-8.80506321889213
-8.24313558357207
-7.73073610973255
-7.27667388610267
-6.81830548007497
-6.22413443751164
-5.39152187996646
-4.30163742329384
-2.96585404464393
-1.37873026944022
0.435267499022473
2.3486280044972
4.12752140469396
5.51554792478997
6.35794537308137
6.67509798036203
6.60887223898036
6.30098407799228
5.85340154322312
5.38448445504343
5.03602694139393
4.88528841282715
4.89774644305484
5.00331232547178
5.19187302614836
5.50001902281857
5.91132099675497
6.30752367106918
6.55355597048109
6.62764556544714
6.62560790583416
6.62250191804128
6.58124471144372
6.42546738110987
6.12072880073109
5.59316132816072
4.62012560714397
2.92723507459473
0.420023725944873
-2.70999229543465
-6.04652526804854
-9.05017931965576
-11.2198297588076
-12.3607697167032
-12.742017346208
-12.9055323910396
-13.3053339702978
-14.1482121542125
-15.4433914145479
-16.9978242766071
-18.3790989530091
-19.1138098093692
-19.0450179250116
-18.3981334615014
-17.4210639208801
-16.0599043094026
-14.0891339762066
-11.4890245998722
-8.57001318598866
-5.73364862796555
-3.19092536503251
-0.899165237965844
1.3114102158869
3.56594140394314
5.84089714286561
7.99559467076353
9.91243341836837
11.6049871501043
13.1791964852916
14.7005084817895
16.1143612286427
17.2735624068245
18.0029865266643
18.1501125318163
17.6469335834228
16.5875068136596
15.2456998816438
13.9678938921873
12.998863967827
12.391212035277
12.0673200356371
11.9336603382457
11.922098292867
11.9542825277678
11.8937912806962
11.5549491301557
10.8311134284065
9.83853028339198
8.77035777888657
7.45725775497535
5.25438054940408
1.69448580291475
-2.76239899222348
-6.95205965570014
-10.0826520729773
-12.3822286200116
-14.5991657069225
-17.0721064407708
-19.4327838911741
-21.078622585178
-21.7522285361637
-21.6856833598119
-21.3317437246851
-21.0204805127927
-20.8038102044317
-20.5169701474484
-19.9305850076477
-18.8673290304069
-17.2491693584071
-15.1073008445972
-12.5684488670527
-9.79339463919625
-6.88252298588193
-3.83131365931905
-0.580159235838609
2.90539673119208
6.5868318202127
10.3142141458942
13.8051494085143
16.7327406703094
18.8951522006862
20.2642694884425
20.8625926500411
20.700064539876
19.8815951424476
18.6523711427184
17.2318490862962
15.6819624910675
14.0385598453276
12.5007771764808
11.3529092901352
10.6869519998556
10.2847851776201
9.80883213747426
9.07256297494098
8.08718729926797
6.85821109365043
5.21472557887637
2.92772316328278
0.004368425688142
-3.2034450289588
-6.22096066507459
-8.76102024685048
-10.8183615490302
-12.5202413918741
-13.9626339850456
-15.2267236457548
-16.4858568447584
-17.9350474161908
-19.5161689801236
-20.7899583623297
-21.2062365289166
-20.5066166456481
-18.8289539582347
-16.5096539801081
-13.9039990534236
-11.3306883563172
-8.98716577509031
-6.83034895366514
-4.63187385068297
-2.25177930422051
0.155091309204835
2.265261273624
3.9066229981992
5.1810210921221
6.27519351261998
7.27011251938262
8.19874502422627
9.17799772838359
10.3448221900504
11.6741803455824
12.945280878081
13.8925882611026
14.3561246691969
14.3231417674013
13.897842461973
13.2382149500488
12.4718274746868
11.6369584697345
10.6986041246516
9.61831063465542
8.40474433360504
7.10396178244814
5.76112938519314
4.40985707855447
3.09107174881733
1.85064510053159
0.698912582326844
-0.416591089747576
-1.58317495827788
-2.86786650609198
-4.28333117819991
-5.77913953657474
-7.24290944648382
-8.52343603173501
-9.49178017650079
-10.1121411656115
-10.462184371126
-10.6619885790894
-10.7402606547933
-10.5657269642132
-9.98055923738281
-9.05955911720563
-8.17574195096714
-7.69259816485156
-7.57541578604449
-7.38854370096655
-6.71041269090343
-5.49692367122273
-4.00839252185487
-2.45235671180071
-0.798303646335391
1.05020057737828
3.00833682264065
4.83684888632889
6.39472794073129
7.77311726545078
9.16346054235047
10.6579361146076
12.1836395488034
13.5545556294857
14.5538156780712
15.0075751483936
14.8197692741125
13.9734770008607
12.5628466092469
10.8272928584102
9.03776332066222
7.24872290005213
5.22331360011402
2.74050938678383
-0.0117868613595226
-2.49090831870663
-4.35196750681947
-5.85857427685466
-7.56764258278126
-9.60781663113418
-11.4735944616694
-12.6211121491599
-13.0732619860513
-13.2669899002744
-13.4475423617297
-13.443890121136
-13.0085827672609
-12.1829465768202
-11.2747111443747
-10.5667677318019
-10.0900239753226
-9.64356936330136
-8.99433570036819
-8.03529613247644
-6.77888919686324
-5.29485319548384
-3.71128118452821
-2.19745190212798
-0.848139404464528
0.396242428173363
1.66494576601409
3.02069101609625
4.4324535743934
5.83193642242422
7.15890808457843
8.37858463677206
9.46064498299324
10.2959407019621
10.6359510013366
10.2049290758132
8.95578023685158
7.20828151339952
5.47253571654647
4.10668321253936
3.17291258341699
2.63589574232586
2.61612281237657
3.31360984783247
4.64354749518665
6.06140350649647
6.88743544918033
6.82925367611401
6.13165344218465
5.21471393257481
4.2530487122708
3.16713337913294
1.93846360310348
0.76837349486572
-0.108309926382325
-0.636620673389305
-0.902860347249228
-0.998901885888668
-1.016136456468
-1.07350396740345
-1.2230592934967
-1.36163892286092
-1.33088582639059
-1.10089900758417
-0.813159140030792
-0.661461058122344
-0.743136180150156
-0.970995815718534
-1.09777810837114
-0.879995167364908
-0.271832998679679
0.547830283228022
1.34447502274613
1.99865194698309
2.52127237675295
2.96771073583878
3.3772761554723
3.76430387561902
4.12730606589524
4.47234860038641
4.83280851101186
5.22659186796717
5.56438032001348
5.6382010863391
5.25367125926348
4.34766033142166
2.89059980116987
0.675572675935754
-2.64518770737583
-7.18621853300041
-12.5284511029131
-17.8537832968904
-22.3327557327445
-25.3989724179495
-26.8516372411262
-26.8571269305663
-25.8035222203581
-24.0726881658651
-21.9501713967995
-19.6664066966131
-17.3450374206606
-14.884370260191
-12.0336445260199
-8.6554920291682
-4.86342188554172
-0.907929554766779
2.98939107832941
6.67188494223092
9.99047711664787
12.7735964805063
14.8759192722179
16.2648151532658
17.061889060739
17.4983748199944
17.8244196723192
18.2429007259626
18.8980887853986
19.8789243253643
21.1569147262295
22.4616237859293
23.2659095493985
23.0361201120862
21.5849553793534
19.1494155245624
16.1027137792559
12.6677988539596
8.97672093434451
5.34155809116808
2.32065338892066
0.402163330479357
-0.42434333726568
-0.7435640139913
-1.27048643802318
-2.29904959599503
-3.65544411097908
-5.1953090792027
-7.16469397024667
-9.88132552604084
-13.1088475277094
-15.9776439341538
-17.6582758212987
-18.0568144391265
-17.7915530924674
-17.5756126295098
-17.7228190958571
-18.1629006478352
-18.6971161264344
-19.1203468953604
-19.210307454346
-18.7442441798519
-17.5348452366331
-15.4429460123581
-12.4485463413582
-8.77260051766788
-4.85559969528625
-1.1222418418572
2.24403655874256
5.28683661234804
8.07697870500712
10.5670242498711
12.6361963806379
14.2260109687317
15.3698698940548
16.0828886750079
16.3019756637545
16.0088963779124
15.368868351903
14.6469769832423
13.9834488572499
13.3218861050643
12.5573715970662
11.6894131229007
10.8236587927217
10.0714112051536
9.45946040268069
8.92307062449108
8.38467795514263
7.8287414405209
7.28599776246285
6.75861257061877
6.16474281956314
5.33228363591073
4.07610047748065
2.36959017487924
0.452271527961693
-1.32557079932647
-2.81478132914385
-4.17487107487272
-5.64514837953987
-7.26939660476751
-8.90500346792619
-10.4838966457734
-12.188985016408
-14.3079199715959
-16.9114082954114
-19.7140530244971
-22.2324075328167
-24.0029924196749
-24.6659929282253
-24.0206044823499
-22.1832382221758
-19.6948133548556
-17.3182834670316
-15.573627982586
-14.4071182964413
-13.3173580518175
-11.8065383473917
-9.70916654115854
-7.12762177652671
-4.14146485942785
-0.658280023656191
3.42682639375132
7.93893450620562
12.3377176158816
16.0121271038328
18.7222060628462
20.7113635115775
22.3310210739748
23.6158466187897
24.3141457605926
24.2723563376194
23.6493944795912
22.7499018642776
21.7625657876009
20.7058321872961
19.5727414736548
18.4587845573493
17.4620860602084
16.399318006391
14.7431606921113
12.066791876617
8.56899369746673
4.98944492801235
1.9863523495386
-0.298910513216094
-2.19350487906779
-4.27980809277993
-7.16266080482582
-11.0844674743095
-15.6042866340666
-19.7927677784704
-22.8507855391626
-24.526255860606
-25.0076733256997
-24.5887194370548
-23.4814159225881
-21.8186161690951
-19.6927450045061
-17.1515509536957
-14.2052157584337
-10.9167798922329
-7.51280238426843
-4.35569689442721
-1.76235555589028
0.161489549389161
1.56316593170386
2.78639834028899
4.19686892633398
5.8768897439993
7.41826874246911
8.13646989457776
7.65774453651006
6.36763194024992
5.23055987651664
5.05849309504992
5.89971022470036
7.16171504146656
8.28848163983663
9.17710733901019
9.92420097618959
10.4133946006785
10.3833999346382
9.84866422904548
9.26797090426785
9.2428808145714
10.0910884569998
11.689478019124
13.607662295886
15.2355156333399
15.7364665036065
14.1211341993295
9.79684398347323
3.24575503973981
-4.02246060205884
-10.4038980993162
-15.1068233873504
-18.2261037646844
-20.2254487575994
-21.5010182092749
-22.2422938232115
-22.4597127476967
-22.1069103941537
-21.2098196866122
-19.8606817666771
-18.1279437818111
-16.0725387180858
-13.8489002539606
-11.6741751398802
-9.63454297963336
-7.58032419213126
-5.29863381855156
-2.7974236663185
-0.358951384618244
1.70167062409246
3.26177747387401
4.36318705984432
5.08349892855409
5.52928414238896
5.8882793557417
6.3988072413988
7.27037527808422
8.60207140456452
10.2993133418436
12.1386623797436
14.0555529981518
16.2785930501411
18.9648188280903
21.7554985105683
23.933576040541
25.0311660487934
25.114922820875
24.5263822860049
23.5651079753238
22.4135709147647
21.120205830207
19.5465371209263
17.4559442310153
14.7395912905903
11.4840757820605
7.77163997975734
3.51730042161734
-1.37271780705225
-6.69605292978618
-11.9045655660491
-16.3898827475486
-19.8203940134654
-22.2904861559402
-24.2229864784482
-26.0212170457152
-27.6580840271966
-28.6473241609212
-28.5478106719771
-27.4488593068634
-25.8524186952497
-24.1755243646934
-22.510455925579
-20.7488337253877
-18.7184438731478
-16.2448552895939
-13.2835941726996
-10.0083170461404
-6.66052346164936
-3.34420995821297
-0.066271341631392
3.06810480141929
5.82607587404061
8.06295325482196
9.97034070883093
12.0831456434858
14.9032726612595
18.3380367424373
21.4880643216675
23.1139469740298
22.4150146072195
19.4511815605845
15.0086843968093
10.2052755211093
6.07892125411714
3.22163944720684
1.60556399787107
0.782273052575504
0.322565232723844
0.0501656631512622
-0.164778742567816
-0.670076789497327
-1.81561245887589
-3.44863579250966
-4.90495336067225
-5.65392815628514
-5.77941287291364
-5.73365689023158
-5.82703187812519
-6.05588071491797
-6.19327134796029
-5.89909566250628
-4.93649347831447
-3.46375588396608
-2.02631802540607
-1.13056457928648
-0.825325793903077
-0.70598083694095
-0.275829113251083
0.700890836571394
2.1115270460708
3.63166130498527
4.89366518537413
5.63668960072738
5.90694479153195
6.18005949038839
7.14322600585681
9.22323393831713
12.3147519529557
15.9281635805231
19.4892027766848
22.4842099188497
24.4488537921815
24.9452810739932
23.6356828126239
20.4706270292134
15.8149350115014
10.2665520954268
4.29877318558876
-1.80754888576656
-7.66673856234166
-12.6704915344757
-16.3901727409421
-19.0454359570819
-21.4090000457134
-24.1963243629374
-27.5399116738864
-30.9518259797292
-33.6699115900619
-35.0621323635368
-34.8650715569478
-33.1930086543877
-30.3553961680557
-26.6143722025811
-22.0945793112502
-16.9529289586924
-11.5858210136527
-6.5171943140782
-2.0293338176777
1.95173674791705
5.50885592254435
8.4243211246465
10.3961913290974
11.4746680328225
12.0627343706316
12.5037803284512
12.9220802169822
13.5203224457871
14.6965916919742
16.574004381323
18.588877580311
19.9327466749688
20.4515956194053
20.7986847210406
21.539587121189
22.3364259996152
22.2653530356345
20.8579507716967
18.6211233815828
16.531125286272
15.1403527033208
14.1847970687704
12.9735740532008
11.0923190133975
8.69531101061907
6.19034041103566
3.8549962621276
1.82504918910878
0.133706618763744
-1.59516439903259
-4.36300104458543
-9.21736222601213
-16.161489889382
-23.7037909639225
-29.6435431970829
-32.4305063530812
-32.0098715871177
-29.7009723211703
-27.3676922545171
-26.355158287593
-26.729198608468
-27.3803234851009
-27.0429729458907
-25.3519085246969
-22.8882574387024
-20.2674079435187
-17.3951714329855
-13.6747912039009
-8.72447307722628
-2.69678030683227
4.00935299517942
11.1083248215298
18.418919034053
25.6215812204321
32.1794470890146
37.5469906680991
41.3982862202022
43.630487262551
44.289043763629
43.639757908628
42.2031815955838
40.4933338406674
38.7469599644927
37.0393603275825
35.4661923145109
33.8503254493821
31.3324420691683
26.7162369626289
19.5032948975109
10.5125605315294
1.38705630918534
-6.48050301390061
-12.6325964271782
-17.5156008053129
-22.0928952814392
-27.428863212183
-34.1994393985068
-42.1789737066064
-50.200201493516
-56.9067929357324
-61.6866308957897
-64.8010342403965
-66.6508941822525
-67.1232656817717
-65.7009947036582
-62.051140461057
-56.4531013836088
-49.7724248320734
-43.0275554261577
-36.7954326776063
-30.8872475455998
-24.6008144482003
-17.3440407359039
-9.10627051577015
-0.442250173721632
8.01086403557018
16.1236866113235
24.3548501036623
33.0560590841094
41.7164526297726
49.1489160527513
54.4793982958915
57.753770254558
59.5993403896547
60.6486207597668
61.422626163789
62.3835623659246
63.678290301036
64.8884809066984
65.3565682863908
64.8297577925205
63.5631339209947
61.6491681168134
58.3834162032945
52.561075467471
43.5966579312835
32.3968030743735
21.0622063308113
11.6290000376297
4.94229298612795
0.468175430745624
-3.04182621615567
-6.59339031782965
-10.3376002525969
-13.9166439264666
-17.662329335456
-23.2404924159073
-32.4130329611971
-44.8852387502266
-57.8883391725513
-68.3869546187743
-75.578034146406
-80.992811857195
-86.384891913085
-91.8419299570751
-95.800547747641
-96.4702521153883
-93.1035611916983
-86.1553049231514
-76.6136669146275
-65.4002081977109
-53.2724171948845
-40.9135300487845
-28.8665817657164
-17.4235353827
-6.64797685692368
3.52662912718545
13.1588307270564
22.1088306814507
30.0189181743965
36.638292232463
42.1132123147671
46.7748638911515
50.7146355485281
53.8234810062045
56.2490905924959
58.5274282926914
61.0789254308
63.6576198563994
65.4673095702981
65.9149824270048
65.2302505041345
64.2286489322664
63.3744598797812
62.1602463390092
59.6183119268619
55.5112192876003
50.8106861874279
46.7850662455916
43.7152699347979
40.7685389817677
37.1056090527133
32.8019388497534
28.5549721351439
24.6765478453056
20.4934769267572
14.5832872997685
5.49906268963843
-7.4421976843446
-23.5903888714133
-40.9858197982585
-57.2206979019122
-70.6482140320648
-80.9187282980383
-88.4645736751581
-93.6789824207635
-96.6276775823851
-97.259901837546
-95.6334684238488
-91.9856446499033
-86.7197745690345
-80.2838795120329
-72.9731761439666
-64.8659016267587
-55.9751067777616
-46.4040355598442
-36.3126297101045
-25.8151422702163
-15.0438385845926
-4.3315333057299
5.78655293628469
14.8328196921005
22.6146885208449
29.2226289386488
34.9874186884101
40.5143416828551
46.4878857765421
53.054080473475
59.2952085675632
63.5261483895419
64.34494455906
61.5363288081848
56.1093430221775
49.6157297521814
43.4010107197594
38.2552098773684
34.4698845639004
31.9940423674944
30.444168838225
29.1076662821953
27.2533433950389
24.6405898438774
21.6649131854597
18.8885989706337
16.4452774079919
13.9359312025727
10.8303341972567
6.91488015914178
2.42638683085635
-2.17352659722312
-6.5830535658599
-10.8451589050839
-15.1161556896396
-19.2981014121472
-23.0401830969826
-26.1115299619437
-28.6091889544848
-30.7397628731916
-32.5440485629094
-33.9256143811419
-34.8396960993594
-35.3557360150824
-35.5786301321766
-35.5431195467024
-35.1307027216273
-34.0743804880573
-32.119191575775
-29.2351337921722
-25.6620083075718
-21.7230051696649
-17.5808447007859
-13.1514965873363
-8.2556402025727
-2.90792043802162
2.52104139848454
7.50683361596107
11.8034342134531
15.6388062831543
19.4525254316801
23.487198845951
27.6000531814763
31.3000197110354
33.9144437260581
34.9178573975538
34.300939424525
32.6290729781664
30.6868566774752
29.0561055312828
27.9698895339854
27.4041598463792
27.1796662159785
27.0026277731053
26.5710356818009
25.8191297362647
25.0832685309963
24.8757915340224
25.3687893657437
26.1290503798249
26.4040011814862
25.6169345388371
23.5487583779613
20.0992614350506
14.9942212322264
7.88887079706425
-1.16455343392863
-11.5491715831428
-22.6242792106167
-34.2418853873966
-46.2850172927496
-57.7589105009825
-66.9214488139809
-72.553126977656
-74.7830119135336
-74.5646567595385
-72.7262422202193
-69.6991036720383
-65.7714579498879
-61.1910331183977
-56.0190210415538
-50.0642740143456
-43.0545741487651
-34.9332891509378
-26.0607198472503
-17.117621687045
-8.72213744744254
-1.08147106438153
5.98561297694663
12.7191469218862
19.1719730279878
25.231932381535
30.6827726259041
35.1436201166167
38.1704335479484
39.7341323149256
40.5636546263346
41.6327447369816
43.0811201121772
43.8307998058332
42.5240286089481
38.8386884910296
33.8076288703642
28.9465017153376
25.1648226666641
22.3674993867405
19.8482316456325
17.0076479368599
13.837508010506
10.844344341517
8.54603825651738
7.05433823618008
6.12253142761227
5.50003406848387
5.13518509881777
5.03636577778148
5.06391811122902
5.0042912132167
4.87376726528939
5.01724521456358
5.73297062530128
6.73204196695933
7.06817936617523
5.81700971690109
2.98990456116757
-0.269867765387951
-2.55871971302768
-3.3169407740211
-3.0373395187184
-2.54763101650349
-2.34330425136457
-2.55174863504727
-3.15163165857324
-4.00606790842076
-4.85374836032138
-5.489351853973
-5.9429677963298
-6.40232582996353
-7.01298024598195
-7.83791468051645
-8.93689239513134
-10.3056904812658
-11.6830415476918
-12.5666701204413
-12.58089579393
-11.8090258137515
-10.6538039706993
-9.3889196521473
-7.97559028179274
-6.33844246627806
-4.68474489533293
-3.45711881694196
-3.02483256137177
-3.47686823462832
-4.64074780479509
-6.18942710075719
-7.7384570575789
-8.96088943669708
-9.71314678672542
-10.0682868047299
-10.1981423027219
-10.2259446360403
-10.2398496190727
-10.4366358585952
-11.1120063981836
-12.369668308606
-13.8560176315572
-14.8989542828046
-14.9856431751973
-14.1436357058555
-12.8968364141304
-11.8292202297325
-11.0909490725532
-10.2704257245184
-8.78272888744811
-6.4219594623408
-3.54421905144072
-0.74142770052134
1.64156309311579
3.71175435925005
5.80875987993809
8.09217683954761
10.3649933223056
12.3287014857157
13.9374966649228
15.3717673252725
16.6816691911522
17.6336097467516
18.0017033330744
17.93257118553
17.9676733096021
18.7427354994187
20.5728567287103
23.0647998356505
25.0437813536832
25.1442892498336
22.8014473046732
18.6990494215924
14.1597649087601
10.1580355654993
6.97096160139154
4.54278736809432
2.83245495688306
1.73449773879902
0.873756603580576
-0.333165769528486
-2.33794260283873
-5.09076675058257
-7.94982060326029
-10.0786454023514
-11.1152129766304
-11.4532024237872
-11.7567500166571
-12.2220097791989
-12.433212574624
-11.9211535318219
-10.7118585955903
-9.26818769624118
-7.9660463888578
-6.69408244882645
-4.98396915869337
-2.53948481230094
0.387954294302596
3.19405526961351
5.46700312558689
7.25324510774146
8.78775854689178
10.1157292241097
11.0884426953822
11.6142461708213
11.7278023261005
11.447470340241
10.7693071147539
9.8504224808554
9.01496565521966
8.43948305559091
7.91669874604695
7.08031863762992
5.85911711350739
4.58957974661526
3.65384498887577
3.11104292847227
2.72936063921384
2.2547534105329
1.49188583376852
0.115623207047429
-2.4444658781136
-6.75729595646787
-12.9418854907812
-20.4358438784952
-28.1535103694802
-34.865590212064
-39.6195239846449
-42.0771859953096
-42.5251462944629
-41.4501798041537
-39.1113518791905
-35.6262813236065
-31.3433060567551
-26.81437749618
-22.3376696783641
-17.7581721602741
-12.814089101813
-7.50546144309984
-2.04199797283787
3.38932077609601
8.65887988476556
13.5934468192742
17.9880659824242
21.7309584205194
24.8489141682748
27.3745908709941
29.1717682237586
29.9939156158518
29.8283300088402
29.1107273468972
28.3926152197131
27.7404289938122
26.5934341698208
24.2752401430603
20.5937162422278
15.9914212978656
11.2787950368287
7.2739761314678
4.54838927530493
3.29161441683096
3.25049998591594
3.76990268755907
4.04613970665426
3.56610351603484
2.40718890835874
1.0834953234015
0.0703562346210974
-0.536656116159476
-0.972664510113225
-1.49773219318368
-2.11103607851492
-2.49179449997658
-2.23533124964234
-1.22983629312902
0.167001707076717
1.35266335513853
1.87181086473424
1.54049886778973
0.264873592873232
-1.99844110102652
-4.93149487995016
-7.68604702410555
-9.3524882744131
-9.68609503420462
-9.23848141454026
-8.74277821359
-8.48855346730922
-8.30934819423658
-8.01045201745269
-7.68023227825191
-7.62081837579638
-8.04368562315887
-8.81712516028874
-9.46689899306296
-9.44505369693578
-8.50229641530581
-6.9091878516031
-5.30738022029386
-4.21501719489483
-3.59338974326399
-2.92951792963218
-1.73867947986428
0.0901411912430872
2.38218117117579
4.88993844915406
7.34601034528888
9.46463278643937
11.0088917642628
11.8082309233492
11.6836602506535
10.4283144500214
7.91024162056268
4.21732296526482
-0.232452307826676
-4.71808320036412
-8.49289886030866
-11.1738008040684
-12.8702070146174
-13.916999089397
-14.5193769806232
-14.6615694650941
-14.2700566237123
-13.3558734164356
-11.9719705570812
-10.1144983794529
-7.77645086504381
-5.10942183618126
-2.42922566838793
0.0188244215704628
2.26704249086105
4.53441957740675
6.92438187382203
9.22353448530562
10.9787596157846
11.7938659219463
11.6688919716857
11.155461913901
11.1376282490511
12.3059268218704
14.7172601431907
17.80330568867
20.7690766335688
23.0107276058059
24.2872608010752
24.6536940185914
24.3058438110094
23.4752038720283
22.3810722666222
21.1109592678078
19.4082398313179
16.6329025406282
12.1444486920732
5.88510941881942
-1.41494431239964
-8.67850451633879
-15.1447478014937
-20.6056222507074
-25.1059282590497
-28.5988784887728
-30.9609483249151
-32.221909938707
-32.628094473736
-32.4473783002049
-31.7775852699019
-30.5995479691473
-28.9842106214015
-27.1424786544643
-25.2036141338119
-23.0135390613927
-20.2950227311136
-17.0359623400201
-13.592084332225
-10.3300004716694
-7.275635206379
-4.21807749201507
-1.07593941448139
1.95903042522444
4.59777543275103
6.68288652004918
8.28901001969355
9.68324680023675
11.1553065265006
12.7962253102942
14.4172160197639
15.7140085649066
16.5387006177694
17.0191998403358
17.3948092966215
17.7306691488077
17.8559322943798
17.6305365099351
17.1848153392448
16.7739115780846
16.4381088085582
15.9496991362357
15.1160477736866
14.0383490732114
13.0367706332205
12.372692341143
12.0628603765781
11.9232485283431
11.7625061656577
11.5344867931598
11.3186614842427
11.1897205272821
11.1439898425677
11.1210157886574
11.0191319384699
10.7018670883315
10.1077942456059
9.40657477538872
8.93535062216107
8.84354243105871
8.81263060238716
8.26343527303746
6.89733781173964
4.89039494720718
2.40183967187363
-0.963110553189821
-5.84757769792027
-12.2034462260791
-18.9262497221922
-24.6059201893713
-28.5068161778032
-30.779363394609
-32.0477161568949
-33.0484695037679
-34.4311925774457
-36.4597375529179
-38.7390938087637
-40.3766721742141
-40.59003238737
-39.2375241038993
-36.7969613645894
-33.891295153496
-30.8663199722218
-27.7425542606406
-24.4326024922179
-20.9494977231086
-17.4417021893097
-14.0484405718477
-10.7215463912798
-7.22576074927313
-3.34943277367649
0.902361295791482
5.32942256150069
9.70613104110605
13.9333247702055
18.0985731344555
22.3891535126543
26.8423022611737
31.1573314597266
34.8455994242456
37.5618249522256
39.1746687471075
39.5683578763954
38.652714858883
36.722255918991
34.6163566544775
33.2140210895041
32.659976553774
32.2109079260908
30.9727330042253
28.7572348725016
26.1333791424082
23.7281421840781
21.6836219378464
19.8118677870145
18.0179787796186
16.3415131643485
14.639684026539
12.4593114906202
9.3787702735763
5.45932615313944
1.21300165961748
-2.98758810326645
-7.38532573053841
-12.5374949527267
-18.5107246234295
-24.5539982667264
-29.6852647293092
-33.480306142055
-36.1447181742809
-37.9343489376833
-38.7763873243389
-38.5191737858119
-37.3415968891373
-35.7370261647766
-34.1377980469139
-32.6564324332171
-31.1507687994907
-29.4230912931774
-27.3456337789428
-24.8741165236802
-21.9695698992045
-18.5099029393831
-14.3667878350255
-9.65435582518372
-4.82561023114828
-0.390093643991806
3.45789017789614
6.86475085889451
10.0270829851235
12.9686794209891
15.569390577604
17.7172623946497
19.4145247977597
20.7511616515354
21.7643462313312
22.3618480577104
22.4685420863915
22.2397786419123
22.0269064717407
22.0865439937812
22.3509576627855
22.4855877224479
22.1695075433259
21.3654563111678
20.3350012134633
19.3601512737701
18.4771927700499
17.5352426823032
16.4317831361808
15.1456685298027
13.5904958962807
11.6547533236958
9.4649986451715
7.4609038922916
6.0626210076704
5.25791006575473
4.5569584371737
3.34124152522947
1.23212047672122
-1.83804576123771
-5.79961860742209
-10.5826812067641
-16.0513831819942
-21.8382790009005
-27.3270193830689
-31.9049464608357
-35.2762591154511
-37.4820822852563
-38.6249112311926
-38.7167367899064
-37.8644272697368
-36.420991770656
-34.7345456674765
-32.7777089682656
-30.1860496202535
-26.6717542817477
-22.3157538958055
-17.5056529556343
-12.7013809369268
-8.20621752942211
-3.99482896161291
0.280809754913291
4.98546509048722
10.0564732292322
14.8575426228982
18.6028534139777
21.02962517942
22.6001188061938
23.9500765059075
25.2038583614784
25.9653921019729
25.9170261884991
25.1917769429821
24.0919041596524
22.6665568838148
20.7805974715648
18.5476980550319
16.5059167465094
15.2732800925655
15.0534968113144
15.5034426460313
16.0521080552158
16.3106974117174
16.2186198409128
15.9176307195984
15.5566643812793
15.1628994449975
14.6283228596381
13.8335304030686
12.8126126079539
11.750607741462
10.7396067299016
9.49344891039526
7.31654358295258
3.46710149589495
-2.24602074241721
-9.09354066209593
-15.7031018916643
-20.8446982572477
-24.0616404789955
-25.6743552829954
-26.3189247654682
-26.4772600227899
-26.2787018676559
-25.6035028259049
-24.3554183284423
-22.679900766598
-20.9737337188051
-19.6999891100861
-19.1016644327075
-18.9531430327082
-18.582258917192
-17.2802929787307
-14.8046172791246
-11.5072599683683
-8.02926545730537
-4.91161522333151
-2.37208434035702
-0.276840630890629
1.66009635760412
3.54545534629235
5.20383555222955
6.45136770064205
7.34599540010692
8.04542358934946
8.52098084377624
8.58207832464066
8.1725981897582
7.50943318235435
6.87849790514515
6.37943827202235
5.9709148277255
5.73659836828282
5.9543005458756
6.82298289206935
8.21454822821162
9.78139249048257
11.2389028293924
12.4657323171036
13.4017288459673
13.9656289064838
14.09251468808
13.8133275327025
13.2696601057925
12.6299103864004
11.9780896573431
11.2755973492173
10.410073869292
9.28722389499312
7.92320867467089
6.43007123997995
4.79282836899795
2.63940728332046
-0.576195917252433
-4.99650473750435
-10.0564513699708
-14.8979123217607
-19.0110670218528
-22.3501427292209
-24.9524088030393
-26.668074602091
-27.2623558558241
-26.638331708528
-24.9261670915532
-22.4106665263663
-19.3936773271357
-16.1295383349791
-12.8692863657762
-9.85155239669203
-7.14773378799178
-4.58457261487567
-1.95110885739488
0.738950587941193
3.30806453890004
5.72437189626813
8.19352790753607
10.8555511625353
13.4990708761118
15.7314574051379
17.4029038333853
18.6978680594885
19.8050242538547
20.6955094265233
21.2788959871811
21.5528355304552
21.4611836989286
20.7893978471363
19.4056644799799
17.5365067285281
15.6472332231536
14.0755463842993
12.8857229105917
12.0392817008024
11.5640131513395
11.483333866916
11.6024204539053
11.426449895392
10.3932158957385
8.30262177739294
5.54982979933168
2.84832326008447
0.59466093289288
-1.54707971402639
-4.36296986226441
-8.29087980410298
-12.8916528103432
-17.1639172158481
-20.3689077766037
-22.513029509988
-24.1326076698832
-25.7939620120084
-27.7983445564346
-30.135882041614
-32.5234983659205
-34.4975421495046
-35.5958962636492
-35.5567247052761
-34.402251260407
-32.3546477141724
-29.6777487450704
-26.6071843036225
-23.3758372780663
-20.1494584450901
-16.8427626072304
-13.0952398097023
-8.54743825191854
-3.11681278879746
3.01541729401934
9.54619147560192
16.0545292650656
21.9483417539137
26.5638965490696
29.3758956757464
30.1643181050994
29.1256612663108
26.91854688326
24.5043677455701
22.7413910967321
21.959023048302
21.8333322624898
21.7137068046466
21.198290111816
20.444349472515
19.8804801310636
19.6654562232707
19.5481911700342
19.2088427371266
18.5321758470764
17.4922974852902
15.9570002057986
13.7808594366181
11.075788272276
8.27502323284254
5.85374942049792
3.98323156621433
2.47783742303487
1.02630601210512
-0.639983274609049
-2.78971702370599
-5.682450900951
-9.33933385748278
-13.3705575472864
-17.146584176687
-20.1545407735648
-22.1978656810082
-23.3612156777621
-23.8763141866518
-23.9770288616398
-23.7838702789313
-23.2914414676006
-22.4685523996657
-21.34886149086
-20.0021183999073
-18.4276364029017
-16.5093465452025
-14.1186670194237
-11.2894284822994
-8.27108530877574
-5.37147695873481
-2.73819397926326
-0.281098708581335
2.22827417845888
4.96887357869488
7.90014299605253
10.7328506889808
13.1030294011322
14.8214042079986
15.9685070855251
16.7458026973356
17.2353844622893
17.3372289090458
16.9904827580216
16.4253001806127
16.0804898454566
16.2290882735957
16.7551643498663
17.3047717061948
17.5523412643719
17.3141432398693
16.5569934185602
15.386038365507
13.9241594363646
12.0755993648889
9.42080080642857
5.47584529075402
0.170783153599656
-5.94364201329963
-12.0654377163276
-17.7338241874635
-22.9622616236211
-27.7803406322842
-31.8194019190686
-34.499029413895
-35.5641675111564
-35.3075137764288
-34.2668089265299
-32.7920233562742
-30.9106925946365
-28.5255930705415
-25.6589729898051
-22.4626414466872
-19.0218484244832
-15.2603003020784
-11.0884995794397
-6.54545197079412
-1.72680495048657
3.31084166243707
8.47300925783884
13.5514280436367
18.3294287913461
22.6964608339972
26.5790217034055
29.7948983453268
31.999802416325
32.7751547327546
31.8967393896678
29.6720176656116
26.9345460151562
24.5118043428973
22.6913508649788
21.2950900114269
20.1708342665014
19.4058441153476
19.0526898460415
18.8390358328978
18.2976052044769
17.1616582762479
15.5096919850045
13.4539961522429
10.7923496263352
7.15678067009965
2.55254902549395
-2.37721428797367
-6.71085455664159
-9.87133865998115
-11.9819169223311
-13.7507780172074
-15.9589014405604
-18.8560753578848
-21.9743020767084
-24.5757038268944
-26.2585171298915
-27.0949651019921
-27.3122027611167
-27.0137599905142
-26.2017199996057
-24.9222097618325
-23.2948177208048
-21.4187997272505
-19.3192390399328
-17.0158594321174
-14.5891976160292
-12.1095541903774
-9.5336917283192
-6.76383762626766
-3.81128552498182
-0.818227404503173
2.11121253336831
5.03306261461619
8.02824668444599
10.9121787770723
13.1619637928714
14.3055427512743
14.4530771216514
14.2938958997882
14.4111011686033
14.6691524811141
14.430180803666
13.3338742576582
11.7070218444176
10.211032144353
9.24143481221665
8.711755687476
8.29292727246778
7.75890126709996
7.1210213108263
6.50416275082636
5.96372797914707
5.44749991651421
4.88306036050416
4.24403407750393
3.5512145111818
2.85157082914091
2.189167392672
1.58521286550729
1.0516945637435
0.591649809699785
0.150605333858781
-0.386706926889644
-1.08890244858593
-1.89046216900877
-2.65477811156133
-3.29370720233102
-3.7871068821043
-4.12383206109824
-4.28699520572574
-4.31511989131614
-4.35840743201046
-4.62870764002489
-5.23279999967862
-6.03310592645616
-6.70400189892516
-6.95756492085607
-6.73506288062308
-6.20693933895599
-5.60033377931085
-5.0185567115902
-4.43305122462362
-3.8429524990301
-3.36924576865752
-3.12585717595402
-3.04800791335011
-2.94712874350928
-2.72810129348781
-2.46038632427612
-2.20720381453327
-1.83865247664502
-1.06746429774718
0.279285538484617
1.9841460730931
3.48333861711538
4.28292935482937
4.34305049576516
4.02528169913466
3.72725148710602
3.62564136426065
3.67090423839283
3.68698995481667
3.48761443409718
3.00082198802851
2.32041063064444
1.62770048658705
1.07434532399
0.734478736710647
0.62645340234331
0.746159724239558
1.05542348794238
1.4281996070838
1.67039794091856
1.67690097774923
1.54157466290464
1.43615155632494
1.42234650866656
1.45798977077923
1.51497937923861
1.58047610732508
1.59429748718646
1.50202440069651
1.35521399519232
1.27532584626893
1.31898319197386
1.42000913860404
1.44206066502096
1.2503301599932
0.758762686574527
-0.0355534470713944
-1.03213249794395
-2.0382531312818
-2.84001191846983
-3.32569035606142
-3.54497251097073
-3.60626161393423
-3.53735118800706
-3.30402577753446
-2.93462507439615
-2.55847957488459
-2.34065632772674
-2.40359330739669
-2.73549913516844
-3.12095123544425
-3.23803965888507
-2.89266106177273
-2.12711411654327
-1.10688399555018
0.0054723143153271
1.04836514292797
1.83918398057161
2.23549565896778
2.22850856446713
1.97955958056384
1.74571533707615
1.7034848331571
1.80952903253469
1.86614763291429
1.74525462163997
1.52475034923807
1.39910107716381
1.49452505238878
1.80021853853217
2.24411455475606
2.74229826255327
3.1180931575984
3.07006113540099
2.41657162828846
1.42377752516641
0.708780745340631
0.658549591534922
1.01316200900859
1.13143400880904
0.607791997915017
-0.442184943121376
-1.59860864853941
-2.51260617597235
-3.12145250189579
-3.62400607963137
-4.28053899873145
-5.18744232351997
-6.18519387471045
-6.9347504417691
-7.08696624911886
-6.46851495568469
-5.20268553243268
-3.6619859721907
-2.25576562547864
-1.2164044324306
-0.528746328164494
0.0028712406078027
0.619367748722552
1.46070606006466
2.47387279669718
3.42075357896313
3.98265011479522
3.93598507626258
3.31448653366863
2.40571110561884
1.55792158093363
1.00480787420085
0.867493831817555
1.21160801477462
2.00199002923011
3.05002796934
4.10359153316915
4.98856493354568
5.62424787311686
5.93626754129931
5.81711172398707
5.19453999809323
4.15138908650082
2.96864776233893
1.978280026337
1.32224969074954
0.894526497045084
0.534686096726246
0.200856371064646
-0.078146277357042
-0.325404759269751
-0.607556453397885
-0.932647697015694
-1.21823622062793
-1.3830428570873
-1.45949524691518
-1.58118843978899
-1.83117330668545
-2.13303272364236
-2.33788194257908
-2.39185501319662
-2.36890723288644
-2.37331384443694
-2.46571439277518
-2.6499080206159
-2.86932765572601
-3.02848329899505
-3.05843217172614
-2.96649118746028
-2.82565182565957
-2.72890286528911
-2.7350777002078
-2.82225467699215
-2.88157539082872
-2.75911716690765
-2.31957685970662
-1.52701447404207
-0.518386541503633
0.432350475982207
1.09068984728188
1.40339032748932
1.44616142747889
1.2872305979141
0.959293129860601
0.520285243353702
0.07360830259643
-0.271345719322231
-0.456799363314454
-0.530132541103003
-0.633175923422023
-0.889048528522817
-1.28955875040895
-1.70030543668056
-1.94797566238853
-1.90883386238417
-1.58267244777387
-1.10414466629814
-0.630746710577413
-0.207580825700291
0.228540479254493
0.741737762625695
1.33365273748647
1.93650886022023
2.42373880167979
2.68335101929636
2.7192736288219
2.63085721855919
2.49362288872651
2.3412663509763
2.25467179480541
2.35006780379953
2.63615146229588
2.94967268426752
3.07070113139596
2.8899499126615
2.48734767804882
2.08469934991415
1.90084374515147
2.01556448607442
2.36598863161693
2.83727024525139
3.29957939938277
3.59772996457977
3.62014213143624
3.40406236443142
3.08645000226588
2.68786846462451
1.99204974355586
0.761759358143899
-0.859358806680933
-2.25815664054851
-2.81660426916795
-2.46552131909376
-1.69692498244353
-1.09727779965143
-0.991233629674621
-1.43363344670214
-2.2972417962372
-3.31946290041344
-4.21754795755127
-4.83640298830972
-5.16878072546304
-5.29006393774974
-5.33931315039951
-5.48945881040138
-5.81917837216278
-6.19312707896235
-6.29269857690385
-5.79442494567312
-4.59453728059321
-2.91248168441266
-1.12533278880137
0.533283266120177
2.03881261193805
3.33575322492878
4.20358799196891
4.48698363746394
4.34166002934879
4.0838334505388
3.83614242337309
3.47397076073474
2.939841544203
2.48559310407224
2.49543928558261
3.06944055651513
3.86367197104628
4.39853270035521
4.47262780761916
4.20581313054887
3.75412328141635
3.1395863374979
2.36678440580498
1.54461856543145
0.782725390744859
0.0265579195859672
-0.893692774476155
-2.02987060157458
-3.19778989472287
-4.13964451375734
-4.76895226592679
-5.20114011749692
-5.57635787647468
-5.92693284257592
-6.1864901469683
-6.23046888222312
-5.93050131096277
-5.28199010437469
-4.48008448844004
-3.78292194869858
-3.2943697036538
-2.91668729414586
-2.4665470557176
-1.79007394584938
-0.84210729317702
0.252616203836965
1.24064074305648
1.90225611588399
2.16939217713879
2.09957843684954
1.8221266024312
1.52919347721986
1.41291738148867
1.54626576229967
1.87685865530835
2.35997461065153
3.03759775990791
3.97139926512992
5.15163554982418
6.47660655288916
7.76360608192527
8.76289889680216
9.21150747234049
8.93182678686271
7.91914462664744
6.36924373960373
4.63513645142515
3.10825346043238
2.02710344539868
1.30297100670898
0.552290641778245
-0.588586687186764
-2.12258992265124
-3.69610837848589
-4.94346297726715
-5.7633487368422
-6.25332656053762
-6.47285994421491
-6.34735317399522
-5.79284619796392
-4.89598345018839
-3.93618142585491
-3.1960222847468
-2.75416243071173
-2.49838825154661
-2.31637380082949
-2.19672641090411
-2.14866663144886
-2.1258323857857
-2.06715951801578
-1.9380254474046
-1.70460883429329
-1.34393790270311
-0.904563016668681
-0.486503994777771
-0.135350787156428
0.19307216548071
0.551893755223543
0.932890442876438
1.29356993793189
1.62658984460003
1.97234995115607
2.35719282043488
2.75168780951505
3.12071962402062
3.46738534959724
3.75098939670025
3.79983546214581
3.42788292405401
2.66648231720957
1.80933751818156
1.20300510331375
1.0115594276629
1.15197247110672
1.41376675186106
1.65359276058899
1.88358151276368
2.16349590044928
2.46391486111317
2.70219796011542
2.84965242838835
2.88337141258662
2.65475996325116
1.9434596351379
0.690384736344072
-0.892014033355597
-2.46717160031841
-3.77775104840711
-4.70720402348237
-5.23830847978722
-5.41625170705405
-5.32581831551298
-5.05582827051616
-4.66888257976272
-4.21270118315966
-3.7548983000109
-3.35931848247359
-2.99803753846675
-2.55804642104796
-2.02435567054404
-1.60864925734059
-1.58154291068815
-1.9787117063428
-2.54056722655975
-2.91817047748071
-2.89322105296269
-2.4687922639584
-1.84389800549692
-1.28345710376004
-0.940287588346753
-0.766819209404594
-0.576579474516984
-0.181289018906068
0.491499771757265
1.37287514018864
2.34413973795838
3.33758116238662
4.30163664042055
5.08169431992919
5.41509684779756
5.09978539223036
4.18515463326514
3.00539677683353
2.00167535881753
1.45460514124914
1.35821732142572
1.54794334511924
1.90955806865377
2.41202532125938
2.97353021895261
3.40113727011674
3.50527198848927
3.24016506183123
2.72464751210987
2.13948743399629
1.56863795019215
0.919171422067396
0.0594616650120519
-0.929944749551051
-1.71648437151198
-1.97842163077789
-1.67397830026324
-1.05782246306739
-0.506824999738376
-0.317255015876291
-0.547708693699244
-0.980995145611345
-1.26973855468871
-1.18059272478007
-0.747501490265396
-0.228510256304107
0.084965522717963
0.0570758693854813
-0.245135712683797
-0.645036846706495
-0.966820018232224
-1.0978606140434
-1.0318409149154
-0.869034269307971
-0.717867728202776
-0.580665913627402
-0.378067621834671
-0.0893446980688315
0.182591568893589
0.313507453202381
0.306463273280998
0.312939494902247
0.488349698196214
0.823892237940187
1.15157675811776
1.33291532250218
1.38859027786686
1.40093015096445
1.36947564873254
1.24836530458289
1.05430162884575
0.82938268086032
0.539136313610805
0.096416458297484
-0.542992828750465
-1.36709179110257
-2.35114359663716
-3.45448353384969
-4.57717431864616
-5.54260672545495
-6.14629114707871
-6.27243524539544
-5.99071270535773
-5.50049908321072
-4.95290349823738
-4.35963196319023
-3.67993811635737
-2.92910414694145
-2.1610601302063
-1.38820378961382
-0.575233558003566
0.277305358071125
1.06574870248681
1.63192723576336
1.89834485708967
1.9390998717977
1.89557186943751
1.84128292932729
1.7610840380692
1.64912232129617
1.58468890930877
1.6918215203339
2.02386202780229
2.49463704635483
2.95755716485784
3.3740502929451
3.83717539554588
4.35555573156809
4.69222034494243
4.56511593465711
4.00268402504465
3.38086478238459
3.08032825307813
3.15901116536021
3.34611036905403
3.30329110957454
2.90664966632272
2.32505922633324
1.8466745845684
1.6389385259785
1.66648466866933
1.78089023827538
1.83796610295068
1.75563156385729
1.52346230581211
1.19217061697035
0.853790009218489
0.59310852506977
0.397415210785086
0.106520238968529
-0.4890605974087
-1.46354723397537
-2.67693646689421
-3.87061995272566
-4.82328396131431
-5.43622920700121
-5.71091565303086
-5.67334747362906
-5.34160293534868
-4.76841205596097
-4.07752585772972
-3.42321940922691
-2.92481554333169
-2.64733620984572
-2.59198894076759
-2.65870167113387
-2.66559685278812
-2.47511660642703
-2.08729669398922
-1.58532292135024
-1.05210151650668
-0.585832323940071
-0.318167925879119
-0.318116474609594
-0.469039046566355
-0.465272353006806
0.0373324579692447
1.16943990576251
2.65098069662273
3.88465525968149
4.35675416292397
3.98838207440125
3.10846453416981
2.14776358647556
1.37287996448977
0.806574346710894
0.30235738988641
-0.291858539808616
-0.992331593231035
-1.6804870612713
-2.22616199617056
-2.5895881061717
-2.80437610476983
-2.86575942453089
-2.64640759312895
-1.97157220277877
-0.816801621562222
0.602688335300083
1.97588318417533
3.09087534210945
3.86621515398053
4.2826595225966
4.38330622497752
4.30193824691045
4.18404420423409
4.06018979537875
3.8519449108416
3.51587335231772
3.13195820541403
2.80791446138727
2.52195237701034
2.13949435591109
1.61688903672633
1.11095477196653
0.811794210986406
0.713553928193132
0.624330229796189
0.369914512464353
-0.0749934281528219
-0.629062838873821
-1.21958337399385
-1.85432745649388
-2.58264595270913
-3.37452151853261
-4.08074185978768
-4.56528171477142
-4.83272292442287
-4.96292802661306
-4.9778218842198
-4.85441304020795
-4.61830722127812
-4.32625959705061
-3.96555169020177
-3.44304198177085
-2.69580439838475
-1.78379412596329
-0.842698697586937
0.0595444322381436
0.985482779529286
2.00834387057225
3.04524763908853
3.8660195325818
4.28352605547831
4.30937495165384
4.13550089814768
3.99839929343346
4.01762520394182
4.09256149442158
3.99104896984216
3.61435674927889
3.13362803573275
2.79271645234278
2.62803387046191
2.45459652223045
2.07626221329737
1.44332809762012
0.650068441884581
-0.152072937033944
-0.848015295584584
-1.41967003063634
-1.95885185950867
-2.63202537287759
-3.57628067639556
-4.74891333851027
-5.87826778504135
-6.62805872882256
-6.84075710751378
-6.62213975411482
-6.2178995727317
-5.81864772093912
-5.43760868572806
-4.93776396789119
-4.16919228987724
-3.06941375730065
-1.66397838776186
-0.0626283718251409
1.53196473037397
2.92315952442707
4.07586172688306
5.07962660993234
5.92026251356352
6.41019544700748
6.41900112858252
6.05953442773426
5.54787884301782
4.97364411218932
4.31894202350132
3.63096599575829
3.04441292217586
2.63135809898467
2.30382383766498
1.89543102349915
1.32647710545676
0.669981199012603
0.0523624013035656
-0.477556713472323
-0.956131652794653
-1.42966615711618
-1.92639532727183
-2.464654988887
-3.01928116904504
-3.49481799849211
-3.79253781004707
-3.91436741453714
-3.97128980869184
-4.0663147305235
-4.16254283172981
-4.09398595525622
-3.74884209165834
-3.2194191957393
-2.70469686503491
-2.28124561490904
-1.84367696641769
-1.24660292502211
-0.418907563561005
0.636983490640659
1.85549762084669
3.10542918656428
4.23792190670148
5.1430757019467
5.73576273229712
5.92337285460019
5.64882456875685
4.97464315287715
4.10169098637684
3.28588342615634
2.71077558286718
2.41633729040771
2.33664399569957
2.37425268642827
2.41302780350243
2.31418539167385
1.9877635731113
1.46573671871362
0.847042286974644
0.179028572925866
-0.562523022886444
-1.39032115679959
-2.23581571131752
-2.95614908283877
-3.41994665929495
-3.62672707096608
-3.73093944523744
-3.89525810899242
-4.12660986416543
-4.29893503563413
-4.30701581820754
-4.13854160816221
-3.82560145969278
-3.39662649449837
-2.87216419918244
-2.2733827600205
-1.65331020339304
-1.134692373687
-0.866331286925497
-0.886443029133804
-1.03274604256834
-1.0328875642592
-0.727830555813328
-0.215823078717089
0.246829984210498
0.489328705352524
0.539231698382047
0.506025407928742
0.437621835526158
0.33303924254374
0.219593752863955
0.142274739240423
0.115955126294155
0.143157193527649
0.240783031443731
0.407288718260838
0.603905657030814
0.796606295931866
0.976200361041376
1.13196329662821
1.25825035087492
1.38039187751894
1.5140772882858
1.6118427330274
1.60990833081937
1.51765759912725
1.42000480782471
1.41164820681911
1.54914287125417
1.82485254199111
2.16307551792427
2.47409034764733
2.71696635597198
2.88006848387925
2.9245320357567
2.80346188206434
2.52843255271687
2.16823433918226
1.77995972541886
1.36880969246206
0.908595830060485
0.375727874504941
-0.231359713255416
-0.876139878265145
-1.47246000597584
-1.90286501620872
-2.0794092553627
-2.01255196351841
-1.81992737403512
-1.65489412247382
-1.62635092901307
-1.76755893699805
-2.02068386615399
-2.2310359305168
-2.22158966899204
-1.91716692239671
-1.3722184563686
-0.698884455541603
-0.0382468935086432
0.434044735175808
0.598521727060119
0.50834803951882
0.341651461154218
0.248585722081178
0.305719845345107
0.563389644880559
1.02828205761061
1.61401033093553
2.18079055591001
2.60574471227071
2.79206255244792
2.69358899974076
2.39217036268556
2.07711364810008
1.87360110364649
1.72387702734557
1.47037149066065
1.01473926094898
0.37062932002152
-0.398988462512156
-1.25910860615566
-2.2166987645043
-3.25775545612001
-4.27121239253781
-5.06200467452341
-5.47246269834893
-5.49940350736892
-5.28699765064441
-5.00817576181955
-4.75756305189189
-4.54242514675474
-4.33220302289894
-4.08647385090854
-3.77123667646097
-3.40571538292689
-3.07514111286907
-2.83925231873804
-2.64628010889849
-2.3923970068193
-2.03588963040989
-1.5945095914492
-1.07225096600879
-0.454122783587409
0.2703089107443
1.13840303884822
2.21441991119497
3.48890998998134
4.81729889656791
6.00509213020233
6.90987705373254
7.43823134418699
7.52903890753533
7.20907216190471
6.6225474258625
5.95001374185903
5.30581529300777
4.7159898225762
4.14578763320477
3.51861292943438
2.74682922163403
1.79400728032663
0.711819594384829
-0.392327321027548
-1.40164157670973
-2.18832186859074
-2.60940336734023
-2.57226841493111
-2.12295562740884
-1.43938080731137
-0.718720730388931
-0.0809470336657942
0.427472531392234
0.788335354045531
1.00967301359025
1.14106081599178
1.23669064586153
1.29223745373049
1.24757256053013
1.0762199571234
0.872960276320252
0.826189561310328
1.06013195495808
1.49717338801937
1.92332230904553
2.20749174076993
2.39727261334839
2.56770526591183
2.65149338054396
2.48800908857595
1.9960376124997
1.23826670327783
0.349464819163202
-0.547708177930267
-1.37903474643968
-2.11295155316163
-2.72968418704603
-3.22725843424282
-3.6956797878662
-4.33860171129885
-5.3272397518087
-6.62523123934579
-8.01819675937108
-9.29903309721335
-10.3384384109662
-10.9824633214155
-11.0117147813507
-10.2949927565878
-8.95570838869802
-7.32709866510805
-5.73635218918264
-4.34978668806071
-3.2024281320767
-2.30323923740067
-1.66202024581402
-1.23673607065356
-0.891589819679576
-0.413954955277481
0.391101425690555
1.55124735701343
2.86646653853249
4.05995166790949
5.00060817481599
5.74999452732853
6.43779599234275
7.15822462777293
7.94234029831943
8.74015586450591
9.43242091345714
9.90363505755616
10.0909083248663
9.95876926324194
9.48495181271818
8.69533963151461
7.6719841102937
6.51397281857103
5.3067672001504
4.10031303299492
2.8830495338406
1.60912101025867
0.285760681092039
-0.994679903851772
-2.13731771791148
-3.1280239846919
-3.99576309747977
-4.70543105743382
-5.13628731411883
-5.19528323638962
-4.93335215148552
-4.51699098623695
-4.095337967986
-3.72919712010226
-3.42298304525869
-3.15315631882965
-2.87115624348076
-2.55713206967614
-2.26994132221474
-2.06473933386021
-1.86906199607159
-1.5313690141406
-0.998462655376907
-0.373570369647718
0.199463725090061
0.65465962828889
1.02910177972505
1.43097689026618
1.96803917394946
2.66319292021353
3.449768504064
4.24740998971058
4.9805169838907
5.5191425524819
5.71166833008128
5.53929839440289
5.1605381855614
4.72626211633039
4.19099454283213
3.36752658076357
2.14431509764755
0.600496802559739
-1.07722216571112
-2.73618233319672
-4.3023294535944
-5.72535826998437
-6.92777783712632
-7.82186314622721
-8.36172742726676
-8.56855448590932
-8.50996096510639
-8.25074018708636
-7.80816563037217
-7.16088688916989
-6.3196260932114
-5.37512106972993
-4.45231354371667
-3.63274548819194
-2.93670981099888
-2.34820259140362
-1.83546308221394
-1.37684099625394
-0.980460134279417
-0.655755009316183
-0.37216911029279
-0.0723425004118931
0.289824199067845
0.745814936089959
1.32024984166971
2.02338921796548
2.8625278038264
3.85637099855026
4.98309834404325
6.10675482184236
7.01059295835399
7.52407952851466
7.60136770321478
7.30287178875824
6.73669836115409
5.98720456639036
5.06522983794991
3.95955717000765
2.74952012318296
1.59250782943907
0.554799753350475
-0.46056923765855
-1.51761591417878
-2.42200688705444
-2.82320818113176
-2.58235360646076
-1.95828091017881
-1.37144987161944
-1.03036152073346
-0.842265152964172
-0.635053536696551
-0.357841724261263
-0.0515092367376775
0.275431407638844
0.665208623991742
1.12987500937957
1.59722133007313
1.95147047062663
2.14661875335906
2.28463341008941
2.53283901795048
2.94178930261994
3.41272313314526
3.87585230557609
4.39643906511619
5.01712008300478
5.57024081259617
5.76144579218984
5.43732848039837
4.71617782640126
3.86430663913189
3.08848411374091
2.44931400781258
1.91281596116831
1.39598847311585
0.739272808078402
-0.26438908265211
-1.70029117178688
-3.40236702090775
-5.05431289117958
-6.40552132558169
-7.37043859137488
-8.00645827334448
-8.48039864032072
-8.98933662549785
-9.59733306438638
-10.1582983807486
-10.4713026245773
-10.4930717112903
-10.3312773460406
-10.0477474089354
-9.5520459752716
-8.72429205175911
-7.60246370779342
-6.3934967750672
-5.29153779267634
-4.31885528510274
-3.34956170608396
-2.24378801877722
-0.946552189074521
0.491187622098221
1.95309156751088
3.32457084824227
4.50155637355193
5.32772756212874
5.61179618452851
5.28940641619099
4.52304521213312
3.59569242976501
2.77744214607392
2.30137107017083
2.28126956268349
2.53559781887372
2.64662612165021
2.36395402251663
1.89924966643013
1.72607617423602
2.13176730546123
3.02513996498081
4.13517524289778
5.32020639903237
6.64432771337911
8.13442669064736
9.50358520182148
10.2360463052199
10.0253673119167
9.07862726682757
7.92939195684959
6.98607138160808
6.28499722596794
5.60988954384039
4.78178277543381
3.83772325157434
2.95564495060168
2.23906641425946
1.61736390717735
0.947042641568345
0.154865906461404
-0.721006797353194
-1.58298559410561
-2.3618918749407
-3.07885145080046
-3.81487627232554
-4.62008606942742
-5.47903306047294
-6.34061708160812
-7.11690162971411
-7.66729703750995
-7.86966321281468
-7.72672365313985
-7.35207703869757
-6.8463971822849
-6.22535747168755
-5.4624127361148
-4.56134060148042
-3.5692675546345
-2.52429090870001
-1.41916283908887
-0.26263138218702
0.834643678985579
1.71565428544565
2.33343015628828
2.75875027555681
2.99864853725208
2.91326186370008
2.38560677639093
1.50801820681467
0.546192045493168
-0.235411495824033
-0.709285693660332
-0.939249454311814
-1.1277421361202
-1.43744893897672
-1.8433062768174
-2.19657885851353
-2.40688069363611
-2.51038860045942
-2.59841991675823
-2.73990217567742
-2.94995821889494
-3.1877968356199
-3.39316095482385
-3.53941931990692
-3.63623672673768
-3.67674078068308
-3.60037673076821
-3.32314253505838
-2.81524834897063
-2.14386521592552
-1.4116110792044
-0.653923179485308
0.162713589864298
1.04678372095021
1.93934869125563
2.75662191673211
3.42402700825948
3.89859282926109
4.22311023579657
4.52772056455641
4.91478556241378
5.36696306167971
5.80494119760519
6.18474702547563
6.4980273737193
6.73484085288986
6.89167950080258
6.96797394383693
6.92962116761634
6.73975880845251
6.44734079472282
6.1674553304686
5.93641698818699
5.64721898221769
5.16426352627817
4.46485540313113
3.65090054191809
2.85301431024963
2.13804415809456
1.49291273811162
0.880598477276374
0.298657571994502
-0.226811974434199
-0.705889275794145
-1.24378165633115
-2.0228143789603
-3.17563182350808
-4.63291225582773
-6.12280077337503
-7.3613012447306
-8.22380900627918
-8.7331710555532
-8.97833013844658
-9.09298865605946
-9.20452078886192
-9.30955737855957
-9.25915840760326
-8.93006761717704
-8.36327537343253
-7.70779801525672
-7.09601251567446
-6.59825616904726
-6.22034176856389
-5.89277812561365
-5.49754973745161
-4.935341974328
-4.16045040691877
-3.18432929727591
-2.10615122461143
-1.12074539695691
-0.401635702786204
0.0757024726963274
0.556296790002845
1.28875014512413
2.27498895179008
3.28479873452078
4.14131140744138
4.92624158202031
5.84718045036758
6.96379913759528
8.12009473047478
9.09799135174191
9.76165415374157
10.0936176080244
10.1741133966161
10.1228564806012
10.0247734172687
9.91617932317293
9.82532074824558
9.76740039621575
9.69687822159792
9.51758616720061
9.14600545423638
8.54672919033785
7.74913439834432
6.86486199279428
6.02823791031414
5.25980519411454
4.42752774292906
3.38380777810854
2.09030229803544
0.559507635096675
-1.25897714355414
-3.41517116620691
-5.76554632902517
-7.95549539314974
-9.69406050849537
-11.0055771301562
-12.1051148711896
-13.0484018946619
-13.6508741151651
-13.7862761439844
-13.6077048327418
-13.3707731816068
-13.1482732100547
-12.8326065807239
-12.3415919747337
-11.7031497523126
-10.9641583964513
-10.1038177906515
-9.05230606501453
-7.77052260975924
-6.29707371669756
-4.6957747519996
-2.95880215071661
-1.01688985736515
1.1235310494805
3.29645621079621
5.25838742798229
6.82546038629401
7.9332797953952
8.62683766683773
9.02727283370593
9.27742840480519
9.46715274973893
9.56905297042456
9.44965043233846
9.00381659052858
8.30735279812596
7.57966955724307
6.96022032459629
6.37492387572199
5.64939303217845
4.69572269638229
3.57478248986736
2.45906704250623
1.56976672777441
1.06858004342922
0.946512248963033
1.03871850686797
1.15113744522329
1.14561404342569
0.954546115382259
0.605009166972584
0.216275147589091
-0.0961711390104624
-0.309616202368944
-0.467247073404714
-0.615058974442944
-0.797292590294267
-1.05751555982378
-1.40301960692272
-1.79407718960775
-2.17426786204633
-2.48473244159627
-2.66713653086435
-2.69737781404713
-2.61575393657682
-2.50431922898006
-2.43814782122233
-2.45178781149174
-2.52898116456659
-2.62244977112859
-2.68249659262978
-2.64464684397465
-2.4094340586197
-1.90560184713406
-1.19396769200583
-0.463174991324272
0.0920820519586594
0.375830228041853
0.41734794898913
0.347857562858681
0.324917265204316
0.42679439788719
0.620810482999841
0.831566887982153
0.994152747009779
1.04952506291627
0.976291379509164
0.851417174611817
0.795538619068743
0.819494676070992
0.793532919630789
0.61246189827416
0.345904915247023
0.180654772376459
0.222879889969375
0.381282358856376
0.461119813529839
0.366165645111046
0.168948842145443
-0.0247518571029314
-0.210022362480725
-0.439311136624546
-0.714016241073493
-0.98368459394405
-1.20962996601495
-1.38087425759611
-1.50492277007157
-1.61715426421532
-1.76543048824945
-1.96214687821294
-2.17339472239239
-2.35603902510256
-2.47937305794838
-2.51523418435041
-2.43599513931923
-2.23151543972511
-1.91798156513009
-1.51737632732912
-1.01959190839247
-0.376209682468151
0.4379930876676
1.34837306268805
2.19466408198877
2.84296986265023
3.26308922308289
3.48236251809845
3.50429787266206
3.31527825315828
2.9578529649148
2.55756567944087
2.25015004219315
2.070516104863
1.93066849275544
1.73035261098038
1.45655383120903
1.1311151630475
0.717516742752165
0.170203569747407
-0.454489191039318
-1.02786638948404
-1.47824239496155
-1.82981877224835
-2.13829716106512
-2.44284623906591
-2.75551947023845
-3.04708518417537
-3.25083505317639
-3.30688631946643
-3.20831814815939
-3.00874749040323
-2.77845945434329
-2.53171322038958
-2.21219688721173
-1.78286709421199
-1.29547327767789
-0.814280609357737
-0.309547494881752
0.297478802536495
1.0135865399685
1.7789313883879
2.570085089044
3.40792723439674
4.26317331992633
5.0324328745877
5.62584584930503
6.02818069691328
6.25952315925916
6.31832362791948
6.2034834354218
5.99164979439629
5.83624617754093
5.82250408275621
5.84074813518224
5.68448603446194
5.27987923490536
4.74573647348953
4.21622123769528
3.66908256509977
2.95446393099578
1.96198011584247
0.735650105041225
-0.578268020531229
-1.87363953586549
-3.12289868906173
-4.27758255105611
-5.24120212457333
-6.0108691744751
-6.7485712112208
-7.60271080030977
-8.51160091806907
-9.27111299568968
-9.75447693958226
-9.99885524240329
-10.1096993010856
-10.1253035091991
-9.95913213870451
-9.46943073976599
-8.60066005519517
-7.4363299337068
-6.11127319279327
-4.73747662249818
-3.42954263685164
-2.29770936300975
-1.35274414915948
-0.495622540473911
0.343943912775186
1.12739267143337
1.79592584313107
2.35916383907187
2.87244900645596
3.39780743595967
3.98272399664576
4.59161487002466
5.06148310864607
5.20737862700114
4.98978722972338
4.55398552904233
4.13257467032923
3.93403275893818
4.06450534425227
4.46776496980195
4.91975921186869
5.13118092797024
4.91699456288256
4.29855256983087
3.45367773144754
2.59417719890428
1.90402571317353
1.51994764158195
1.45261320384267
1.5202409600705
1.46721928512939
1.19564078562773
0.831079170746032
0.557404087927504
0.449868779134325
0.472443871953079
0.572223882434404
0.751474376872435
1.07231044056685
1.59059322563161
2.26521079565697
2.9407072804176
3.43195655333801
3.62073376809571
3.50099677002436
3.1932995713218
2.89740277761456
2.73379446351121
2.60850336450477
2.3029888861482
1.71642850925379
0.972190292455201
0.279423450911784
-0.274871074609801
-0.787953607902109
-1.41107529947604
-2.18347363432356
-3.03489219501231
-3.93314670900242
-4.92924417374619
-6.01881238559145
-7.05006930403951
-7.83379444403796
-8.30017336570548
-8.52359792317217
-8.63746354018548
-8.72024759555292
-8.71172068764601
-8.45367038782404
-7.85993494523922
-7.02664209743712
-6.14416365999367
-5.33112849393826
-4.57270249880228
-3.78207993049418
-2.90250576026911
-1.96914607715203
-1.07288511911801
-0.256589570931332
0.535074394990032
1.40087691648304
2.40439754336589
3.53652643039774
4.70324725855967
5.7484742248433
6.53837619611174
7.03442282419381
7.26886268123757
7.28113177557233
7.10397783748801
6.76470336797041
6.27579746358146
5.67758718162202
5.09117121267359
4.6448585294722
4.33494800848622
4.03388135330617
3.64030489101796
3.15812322295446
2.64033901976691
2.12061792684661
1.59879440271825
1.05677487296678
0.497333859517933
-0.0195425747593563
-0.403014782979475
-0.607457453994805
-0.672689468637133
-0.693572310179558
-0.749072969342401
-0.834161840900519
-0.856856364819915
-0.722571002347183
-0.407999304481766
0.0623291932642637
0.663326485080145
1.35508252179678
2.06426715793806
2.69990971229595
3.12899953789792
3.14625562022156
2.59840214050694
1.59056521824311
0.465671552326926
-0.47438859005474
-1.1594739170856
-1.68238736781302
-2.17102485217708
-2.73689249837168
-3.42075985046921
-4.15174073243145
-4.82651045789478
-5.42375812538733
-5.98387537328146
-6.49502817969514
-6.85476880929347
-6.9543667200491
-6.79640928744258
-6.52386301469414
-6.30049740609013
-6.15094196206812
-5.96009157948015
-5.63691367265001
-5.21397257272495
-4.75863107330908
-4.24880910789434
-3.59465128996628
-2.77349071148487
-1.89358673554123
-1.07104359308964
-0.24959182612747
0.757285905020926
1.98606563182609
3.19277432902431
4.11076519595502
4.74953476295868
5.30566272064902
5.83891405698056
6.18005927954751
6.15282042798476
5.78309340692252
5.27169421122296
4.81918333867955
4.49085399032029
4.21582784313819
3.89091110342648
3.47962597456504
3.02515340293928
2.60341770945954
2.27515838351651
2.0528355662163
1.90396211256451
1.8047401528243
1.76889362508431
1.79031181101234
1.79414742450266
1.69917550966105
1.51207182399019
1.3284516922541
1.2571042977513
1.34361292187531
1.53250393612244
1.71648116675135
1.86282945762628
2.05131235562175
2.32775075286326
2.57818642982629
2.6371732557043
2.4833944594556
2.25778973369191
2.1340598514797
2.23069112721382
2.58575056869899
3.11738001908767
3.59611587291155
3.71453005851951
3.27065268724071
2.35435357065157
1.32115926571279
0.46720755831057
-0.298365759709665
-1.37020646597864
-3.01178342700989
-5.07410343798733
-7.12789179285654
-8.75938543715335
-9.75726368912059
-10.1816145240727
-10.3111016677978
-10.4158320593747
-10.5205786217185
-10.4280809857349
-9.97359677778572
-9.21675637431804
-8.40090169133557
-7.76457509169856
-7.38544061093896
-7.17638238902384
-6.99760151332886
-6.73533310153848
-6.29214255884468
-5.58155199423711
-4.56535656231736
-3.26960123043542
-1.78363947107481
-0.276812682210158
1.05666242298577
2.15753169443928
3.15279989805966
4.16525773526901
5.13087601428893
5.88653198543739
6.38373166506479
6.74300399256032
7.13769522606174
7.66562633609355
8.28418932243603
8.83469570478958
9.17098349710618
9.28665331515508
9.28496042194149
9.22523725206891
9.04429763294738
8.63649536677918
7.98171536934608
7.19196381516792
6.44433616892979
5.8608605327023
5.444207649504
5.11005460347369
4.73716170927089
4.19152807234153
3.3922724805101
2.41170510435096
1.46519442816263
0.749879337169134
0.294816617505955
-0.0340306132326348
-0.405821107254965
-0.895755998316379
-1.45661198162142
-2.00894666420961
-2.54220883266098
-3.09877555962784
-3.67534763219132
-4.18731591830862
-4.53521687916438
-4.69203590459015
-4.74599916426495
-4.8594372065245
-5.13595308384332
-5.5146663267744
-5.83130200824801
-5.96873160920343
-5.90744743757496
-5.67878785203025
-5.34892757017127
-5.01600821365049
-4.73737118290647
-4.46749480656061
-4.12348585957879
-3.69326145368371
-3.23649663988999
-2.81712794349034
-2.49130083612378
-2.32889814337601
-2.3722083173537
-2.55308930530574
-2.68161113388538
-2.55935206371192
-2.1350185061198
-1.53930698712581
-0.948597085679438
-0.451502082350173
-0.0792234850054375
0.11287641781775
0.0900460108233875
-0.072416509258892
-0.228918275181265
-0.279618909973219
-0.21157284532664
-0.0713309011883652
0.0686208028675607
0.166080551705051
0.256857780104646
0.407531693466701
0.633693413541826
0.922203372394043
1.30061180755907
1.79927695947612
2.36300729531872
2.88168220251122
3.30882656644144
3.69868971858214
4.12865586624466
4.61985636986206
5.13956519183661
5.66486893012935
6.21963391717308
6.82724017619429
7.44871214228472
8.01977933304654
8.53829235236588
9.0374980535444
9.4597492557438
9.63793284673026
9.44006919470869
8.89166259146982
8.15291488089995
7.40963189521066
6.75207022108279
6.105406570618
5.30246582575631
4.25750033676034
3.04307858864537
1.79940491416462
0.619379340606257
-0.492901962543526
-1.62286184932118
-2.89588447967544
-4.34672666151854
-5.82247690493049
-7.07080273899335
-7.95543890131556
-8.57714192936625
-9.17123825794011
-9.86898835258076
-10.5577383322948
-11.0148266933787
-11.1914371183239
-11.3056760640436
-11.6260267136972
-12.211524529178
-12.8741435254384
-13.330276265089
-13.3833584028884
-13.0444890471272
-12.5134230468159
-11.9923399360239
-11.4892260626964
-10.8225235997276
-9.80994011702175
-8.42434160993153
-6.78282206874745
-5.02087556505484
-3.18149331746424
-1.22725381478827
0.834565362390674
2.87548212418077
4.73224462979541
6.33989631493768
7.73951612992481
8.98134085913831
10.0588406136429
10.9286925854869
11.578602920694
12.0749113722968
12.5287429403706
12.995527105093
13.4070002982353
13.59839030627
13.4028760544915
12.7693550447969
11.8425096224344
10.8979258796242
10.1391505175056
9.57684349283783
9.13658559270283
8.82076515120235
8.69908781379314
8.77010899378624
8.84847686911655
8.540704658518
7.3820329035457
5.17013093965492
2.23777792188792
-0.695076204450671
-3.01304207774142
-4.55565202288473
-5.54450293214052
-6.27532004812164
-6.89935609725084
-7.42501529051919
-7.85055952702526
-8.2352520029329
-8.61465471354736
-8.90997153526557
-9.01271052213441
-8.93517940615885
-8.79305483036813
-8.6680719636183
-8.57523035720322
-8.53234774733381
-8.5586288787907
-8.59700175761848
-8.5034868482244
-8.14434244603418
-7.50475618384265
-6.69851537078351
-5.84982809994243
-4.96481506719527
-3.95924703736704
-2.80685925404644
-1.58562329362345
-0.36459497714234
0.865573606004809
2.0990619632556
3.20682592675337
3.99352439099511
4.39991799092122
4.65530427797983
5.17492630022261
6.22883923339995
7.71227997052942
9.27571491387265
10.6252377999171
11.6298648822784
12.2120826197351
12.2653676927081
11.6928091755624
10.4823186386568
8.77047088811174
6.85805905559013
5.08956807726816
3.62863030925063
2.33483073508813
0.875050976781413
-1.01163583401596
-3.2855782863525
-5.60618535352454
-7.6054669585738
-9.17074900647792
-10.4085537131525
-11.3882112411287
-12.0610420474585
-12.4134280657859
-12.5357381507037
-12.5005954105477
-12.2829224298646
-11.8348296768876
-11.1689552692885
-10.3504233982161
-9.44460743666772
-8.45737396355594
-7.28481661933916
-5.74099084013029
-3.69790810483003
-1.24448201804486
1.29593079338507
3.57253000776115
5.49805140590202
7.3066994077609
9.26452041674899
11.3461987118863
13.2185263194262
14.458011598349
14.7525292132988
14.0433439763211
12.6142506186344
10.9818792058669
9.57205420962122
8.48302842593226
7.56449161032489
6.65852778350072
5.74097959263702
4.90254620552479
4.22407255533569
3.6302661163106
2.88918056849296
1.82744414085909
0.527136018813154
-0.748788075006781
-1.79145112403813
-2.55644283616093
-3.09737742975575
-3.47113848822351
-3.70866888630235
-3.84631833068082
-3.96337851716949
-4.14520854213547
-4.38169711471529
-4.54684599158757
-4.52532122031874
-4.33746717475206
-4.11825573260913
-3.99733850854103
-3.99790886253626
-4.02158389659437
-3.95310952368073
-3.82018492163
-3.82208861086645
-4.15609346527762
-4.8243298669638
-5.6093139485056
-6.19434775369719
-6.31081698627011
-5.84605573944114
-4.87987495675342
-3.63845419442861
-2.38875667368481
-1.30403668423181
-0.359764035290518
0.620476920590925
1.74048745310943
2.85341887610746
3.68243391670093
4.1205938677773
4.32811854428507
4.52094667697738
4.75046221930732
4.93241203305722
5.03266214638612
5.14728485548991
5.36359149265787
5.56831757853664
5.4825412617897
4.94551774569592
4.113140153233
3.31931616005503
2.78611702459697
2.50653505725859
2.34069017939764
2.17186341513269
2.00937578293728
1.9476187997279
1.96780674431547
1.81463106409087
1.19328559640446
0.107347831669406
-1.10258680218469
-2.09459295101139
-2.82951984602537
-3.50831131694409
-4.27977979667561
-5.09367080636099
-5.82270975397608
-6.41707660819685
-6.87393981045314
-7.13046624017226
-7.09841759989084
-6.80210997407308
-6.40118533099183
-6.05296966108898
-5.78843328443762
-5.52017143110033
-5.1279211761392
-4.53561503477901
-3.74489801707887
-2.8146402617085
-1.8275700591805
-0.898884239392898
-0.159595621416127
0.3736844999443
0.899720712481749
1.68820876077723
2.80240506674185
4.02217500066948
5.0392523749115
5.68388980505953
5.99367265977302
6.13255588018934
6.2473885617532
6.36807650974368
6.42649995316731
6.34528917663283
6.09846445988785
5.7412837334667
5.41368504140378
5.2361899193844
5.13899107204647
4.86773818323671
4.24174272949641
3.37223331338579
2.57881604497551
2.12311256276205
2.0391111431367
2.15969528233176
2.25716713794531
2.18407594586383
1.93035929992762
1.57058169827354
1.15933675893313
0.668972735873773
0.0165844943352242
-0.84341566756787
-1.83833963571146
-2.79272281502064
-3.52814979538529
-3.92829990746523
-3.93319681511187
-3.57157052338091
-3.03543389735684
-2.62222684032446
-2.51934572117795
-2.67120077377008
-2.87960452631724
-3.00425391003657
-3.06889194497756
-3.19470107430205
-3.4129127444299
-3.57045289129079
-3.51945981386237
-3.39127916194787
-3.52355720283634
-4.0438396156759
-4.63609892170425
-4.81121712240119
-4.37684828773897
-3.60423085749094
-2.94398977748053
-2.58692556824345
-2.31686978069272
-1.80630540416712
-1.00814415899808
-0.197042207209429
0.337942580882776
0.559401322340138
0.653219021172855
0.821822995914032
1.13861427712638
1.54889022093994
1.94004203231236
2.19412818479724
2.22224562089702
2.02243926409773
1.7314439096062
1.5598081922192
1.59995601386536
1.71018400305486
1.65128646157502
1.33763522242875
0.912544384621957
0.588988010319779
0.452191236673447
0.410076700486981
0.320607159861175
0.167467569869468
0.081373472365597
0.159730886920991
0.307377894752471
0.305051251025133
0.0065343785833994
-0.559848592050869
-1.23268631876016
-1.82272596089584
-2.22412707441508
-2.45687917700008
-2.58227282132279
-2.59171184118497
-2.41947443658158
-2.04377325692055
-1.5234326702593
-0.93262808640341
-0.285152238356496
0.459288757375962
1.30006569079152
2.12913123566096
2.81892793498702
3.37669304356678
3.93215261232389
4.54883833724541
5.12853169512669
5.54511934876525
5.80360827973073
6.00930461279188
6.21842691821669
6.36914088682642
6.35951885922918
6.18478915960204
5.98488252352333
5.91940383927649
5.99430124648983
6.06469714118053
6.01410714453073
5.86991722047368
5.73116833505535
5.64151797786977
5.55812358290394
5.41138489234208
5.16698630223284
4.83403486409636
4.4363887461006
3.98224419224534
3.3965436088208
2.3992277285521
0.513583897190529
-2.59306641639605
-6.65920836042891
-10.8081189757189
-14.0940690153472
-16.1027268176325
-17.070115100737
-17.5193731493809
-17.7896520247204
-17.8125583018563
-17.2794321048361
-16.0343366737297
-14.3039184817445
-12.5474423218356
-11.1317805602844
-10.1559965133676
-9.48267002910551
-8.85070207633067
-8.01289284058316
-6.86144748420403
-5.43999945356714
-3.84397151421727
-2.16210613211598
-0.508684986765512
0.979924277181936
2.2316507863497
3.29018253097716
4.25476701567225
5.1733022331087
6.00154532094184
6.69517391855339
7.36620656370099
8.29288064093334
9.68448339855001
11.4298701297228
13.1224645165095
14.3273058391096
14.8192122547392
14.6319712171867
13.9414859526883
12.8928422526116
11.5320584785603
9.91562281320273
8.23494542171285
6.75726908857416
5.6485035085622
4.88847615873305
4.33161385233947
3.81901715743909
3.26341884606688
2.66092975617819
2.02613489167531
1.33862159515304
0.576337839812217
-0.228741495969345
-1.00726935433194
-1.70953717985059
-2.32501641195667
-2.87218486389871
-3.38670824189573
-3.88893057568013
-4.35704413487878
-4.7704003933778
-5.16543390175712
-5.58936603830967
-6.01486879266083
-6.36447215107817
-6.60032136750584
-6.73759653921744
-6.80615512163292
-6.85371990809808
-6.95453658199558
-7.16927997444397
-7.5040939417518
-7.90446735634579
-8.26649375238035
-8.48342422894384
-8.51978920818983
-8.40960448665248
-8.15232611328409
-7.66183906592213
-6.87120415499376
-5.85792175376389
-4.80400657617732
-3.81272948779634
-2.79629958073213
-1.5995801825133
-0.245386888907238
1.01566447889259
1.95028889168398
2.56838715750253
3.03719669415753
3.44946339152091
3.78367292408157
4.04560804831402
4.32677925242243
4.71570813976918
5.22846668001762
5.83469723201229
6.494232663971
7.15141371254542
7.73377832025535
8.20106754860887
8.61002227134535
9.09599066130846
9.73770124544707
10.4480258942556
11.052057553431
11.4675711888795
11.7541730323789
11.9967013653534
12.2051689169187
12.3292307401551
12.315213998779
12.1374916600443
11.7997064932691
11.3086021986255
10.6506536823801
9.82169605248009
8.88788602932997
8.00505462412477
7.36568124417625
7.05357272931928
6.81865069393689
5.99557460178942
3.8602250124353
0.243899689291971
-4.27466621101345
-8.90930938881994
-13.3272403034916
-17.6479454879842
-21.8760129369834
-25.5709112412486
-28.1602149141306
-29.4469323871613
-29.6991847755865
-29.308591953635
-28.4811770754144
-27.2535159734987
-25.6768849893309
-23.8887314628379
-22.0410274462665
-20.232242741488
-18.4887824666117
-16.7476515115132
-14.8707638318416
-12.7371864672165
-10.3319108951239
-7.73545559797412
-5.05350512293716
-2.36338657310424
0.308347025900103
2.96338802208438
5.57342932687933
8.09061139998797
10.5576554768728
13.1341191634164
15.9231956096182
18.8054198332002
21.5008189640767
23.7483908297896
25.3831520821333
26.3109964329627
26.4833869423551
25.886018772403
24.551248326736
22.6198485373611
20.3655615061518
18.0828825616599
15.9349846484844
13.9313638081414
12.0157775423646
10.1268184550315
8.2056428884788
6.21544705425849
4.17777827293479
2.18451265135902
0.371255380939107
-1.14736226919492
-2.35614673125544
-3.35478746951722
-4.26501103093604
-5.10501338012647
-5.76020148573167
-6.10149469453825
-6.1560433360981
-6.13724759531665
-6.25929484941435
-6.53924448209188
-6.83091385351118
-7.02259441645616
-7.13468860164371
-7.2474043099132
-7.39960155702746
-7.54668787237715
-7.57794155946894
-7.40163075970808
-7.03712499174723
-6.58170531324149
-6.07982315520343
-5.4972610254499
-4.84234950098912
-4.22663583977588
-3.75148903346204
-3.37405668240755
-2.92431485832864
-2.25255373578975
-1.36621121668763
-0.437762327481527
0.321509689408263
0.795894207974517
0.981554896463966
0.916619491692894
0.652218071728229
0.290569031794509
-0.003360774210945
-0.069977775856705
0.150138887440913
0.569634588691095
0.994049912538439
1.24341057835519
1.27061640275328
1.14511685575859
0.899457498513258
0.4229291774774
-0.444399640282968
-1.69984501733389
-3.08324281967253
-4.22687787930296
-4.91763923306714
-5.20807633896251
-5.28937772003913
-5.30726081443669
-5.29879813007849
-5.22108597174021
-4.99072009696549
-4.54763741776991
-3.92509975043569
-3.22895964864744
-2.54255957686097
-1.90017105934003
-1.34221467792974
-0.903438548895265
-0.503206296029787
0.0935631432011809
1.12954091930745
2.62901588797488
4.31302612654292
5.77754652080999
6.80622589330963
7.50490028138116
8.10234500129831
8.65538301930837
9.01629860775426
9.07345357872024
8.92999670944164
8.79275251013709
8.71786409477578
8.5231890236104
7.9830698124048
7.09971365675329
6.13078084873294
5.32460088545743
4.69901610293817
4.14597992507958
3.67094270035372
3.40039476455662
3.3772980310897
3.46648644423973
3.48351296163168
3.36232933850395
3.18918589357863
3.086190110123
3.03855151121103
2.83865875471262
2.25717245323389
1.28928690156791
0.188858408292679
-0.757672930445199
-1.46069883976746
-2.03299752286074
-2.62018735984508
-3.27273988889024
-3.98488841912239
-4.81274404683604
-5.89842521998679
-7.35406246050614
-9.11789110368091
-10.9237188823076
-12.4478966367378
-13.537489122862
-14.276950072018
-14.7903903091929
-15.0388187533894
-14.9004007591443
-14.3912675101252
-13.6707097705466
-12.8353338463747
-11.8288586483469
-10.5619675479154
-9.00836447400822
-7.17090934372027
-5.07428024825031
-2.84188465258878
-0.70180799798377
1.14953691321302
2.70083494542865
4.15395871708479
5.76707465395224
7.58117865172315
9.28732854170533
10.4438600225769
10.8370458626559
10.5698486020659
9.8497425356949
8.82960458419355
7.66346332127138
6.58522442171468
5.84943636778544
5.59747041341254
5.77616530302751
6.17581840006436
6.56748187746765
6.82145603976045
6.9059816430142
6.81966635192052
6.57315842343246
6.22491001736672
5.89384033649184
5.70966596724433
5.72484252152892
5.86071177196222
5.96526892029997
5.94791767267482
5.83358143266674
5.66403580082289
5.38594663824136
4.87986730037951
4.0850280074482
3.07262061719104
2.00697584646814
1.02594157620461
0.132773186482107
-0.762623987848522
-1.66395558783721
-2.43797949084036
-3.04002490043704
-3.70553493069603
-4.75639297249829
-6.21239437939531
-7.70445355763653
-8.80495472389008
-9.39723162147673
-9.70650481471673
-10.0056112247683
-10.3391606670966
-10.5567950923693
-10.5596530852715
-10.4154746968334
-10.2257231107606
-9.97519900954031
-9.55694747992951
-8.89812894349463
-8.03395236654192
-7.07071648993875
-6.07171116371214
-4.9872286939731
-3.72949400273448
-2.29158353619242
-0.733073366495099
0.913935080397942
2.62553020598325
4.28091479237961
5.67847529653313
6.6918762990329
7.36348541055184
7.83355046270309
8.21389742145811
8.51905288449523
8.66247077324419
8.50569674195025
7.9579121430398
7.07861003480457
6.09291071911417
5.25834153078631
4.66441018270211
4.19312540722252
3.72096236638935
3.2692828076875
2.83653467293184
2.17910751138433
0.977839946335019
-0.752239480904703
-2.57026075039448
-3.98134649660685
-4.83397118290775
-5.34827515444415
-5.82912602357788
-6.38437149078722
-6.89701821844041
-7.21922176249582
-7.31766163061765
-7.20699660993835
-6.84098460517211
-6.16402454204428
-5.21850266431647
-4.11486291401941
-2.92267423701847
-1.64205758280823
-0.245772911575802
1.28886674951847
2.9545746947629
4.6881254170701
6.3772883479371
7.88712591890669
9.0836142559784
9.89980657062737
10.4221941801328
10.8449210931494
11.2826687898825
11.6794123056002
11.9082714058328
11.8480382991471
11.3482074337611
10.2924848092486
8.77890191143273
7.08597948340271
5.34401985230825
3.34832689827924
0.83414297721022
-2.1091596762165
-5.02108641142745
-7.46552829164681
-9.33574988399738
-10.7409173847066
-11.7253537362761
-12.2297092580159
-12.2710815121617
-12.0011297955966
-11.5451450047151
-10.8659936612131
-9.82549122597371
-8.34685308570345
-6.50088355106168
-4.43530810905118
-2.22604000448354
0.141339476487467
2.57463295394065
4.70214740205455
5.99513341217014
6.08732059534082
4.98871414905027
3.08729949177361
0.991571877081252
-0.765435378993426
-2.02493392894705
-2.99965301116225
-3.92363931920138
-4.76986244796604
-5.36112985466298
-5.64040309862738
-5.70544107175343
-5.62896251608353
-5.36694448485934
-4.8655897216016
-4.2037924462481
-3.57840925595638
-3.11304295715509
-2.6860914966472
-2.00193909575251
-0.86534384401657
0.631967102156394
2.19517485194752
3.55592385622908
4.61384577753435
5.40680976131859
6.00832895506532
6.48725885817877
6.93723633073062
7.45257957377019
8.01497122287807
8.45886168455178
8.62250615042236
8.49139449957393
8.11552377313384
7.43502310033339
6.31056138362562
4.7475370658969
3.01277219718857
1.49198835470371
0.450716375123793
-0.0943038480787018
-0.352894234823037
-0.630553327584658
-1.13518449015425
-1.8442647240545
-2.57550293614219
-3.19758438599411
-3.72672892260783
-4.20797011618581
-4.58230873250725
-4.73011217053777
-4.58957157273758
-4.16654458197386
-3.48950629367301
-2.64998978845067
-1.83345429465641
-1.18071753472125
-0.622328197366366
0.0597225553538722
1.01934891115516
2.25914698127184
3.70024577199539
5.23792407435327
6.7408852810634
8.05829104941758
9.02407883652747
9.45774532084897
9.22732904671047
8.32639351000343
6.83119850787051
4.80298373685157
2.33240792912601
-0.316702848981399
-2.7109864432743
-4.45938849374989
-5.44672169548931
-5.90899063148702
-6.28989863813
-6.94314842024064
-7.89603729650132
-8.88552435690482
-9.61677063325098
-9.97911373731801
-10.0484403050058
-9.93829185694177
-9.66926194208766
-9.17890353744663
-8.45525967423877
-7.622758375758
-6.83802246979199
-6.11727950277238
-5.34174600609802
-4.4255495644097
-3.39631361644728
-2.311857203625
-1.17912902465352
0.0226643599313585
1.27092306798469
2.45538363371333
3.42035388981495
4.10724571038743
4.65917981985169
5.31936876177017
6.20179667175168
7.19370547656745
8.07703127652108
8.70118493478325
9.04317518649032
9.16232838281683
9.13873355338775
9.02888618886893
8.81743892453165
8.39777036402952
7.66122087909467
6.63267370680656
5.44782140285627
4.17620088707048
2.78599058852443
1.33853784607202
0.0703481139514263
-0.833792756252549
-1.44474566067698
-1.95431708627817
-2.42289890741918
-2.77552129646219
-2.98893993674138
-3.16269606625182
-3.40399804175128
-3.70591830563844
-3.95103428383945
-4.02838832526626
-3.96537335958633
-3.93733094951226
-4.11748658128458
-4.52706411451442
-5.03894167749896
-5.4704657584412
-5.64419527094442
-5.44220092145834
-4.89279698593014
-4.19245949565805
-3.58038174500688
-3.16243980476794
-2.86404384230137
-2.56654689374199
-2.27369141440179
-2.09777390408355
-2.07879217682316
-2.08843068347505
-1.93948132193876
-1.51381920008466
-0.765605462886182
0.273972911983316
1.42962471108263
2.44886337652753
3.25173518225589
4.04694665513751
5.10237043793585
6.429833441592
7.76246382879714
8.82792243889632
9.59066569670146
10.2127445059313
10.8131356955755
11.3253009599703
11.6201234802203
11.7051301866271
11.6948474993149
11.5826949655065
11.1580632244619
10.2026479563363
8.69584547495423
6.7923997398372
4.68140227948656
2.51731217698599
0.406796547785335
-1.64002177549016
-3.74039901706912
-6.02493070734424
-8.41937205402746
-10.5817676412387
-12.1683230465315
-13.1844356101131
-13.9747449077498
-14.8303717048356
-15.7080821541706
-16.3747826337396
-16.6946271376433
-16.6838687396185
-16.3824092609549
-15.7756547763018
-14.8097890792557
-13.4405342963424
-11.6962975865573
-9.70219476096927
-7.60826112586823
-5.48686848974203
-3.30146032285137
-0.956449309514447
1.60056189123756
4.26783191409725
6.78579268406092
8.89360406751102
10.4652342158946
11.4370917423154
11.6730526089259
11.0491603408763
9.69821922941018
8.07353489704859
6.70758384199107
5.89388740831745
5.56788034705294
5.47043407535367
5.43941801828866
5.53963896012775
5.91237256720066
6.56796088983599
7.36648987851893
8.11051401053071
8.56256930863027
8.43864708064451
7.53124951303263
5.89063563790186
3.8393173483883
1.77300156212969
-0.0499405519470076
-1.54312327151947
-2.69618699917224
-3.5203531007101
-4.07548476461185
-4.4646668877293
-4.75964179503917
-4.96163743856649
-5.03305269960119
-4.91399211388711
-4.52178615366511
-3.82084627772791
-2.9120617379429
-1.99266312941379
-1.20765950215189
-0.561626845562339
0.0453400750115782
0.724763203123552
1.50835997325615
2.30498090160821
2.96059806407781
3.37480109955332
3.53616607912575
3.46335186081701
3.18931817135536
2.81359787928589
2.48417787216696
2.28496928317313
2.17347298665705
2.01751203214554
1.64489570936478
0.895952742405695
-0.276231461549667
-1.72943926618045
-3.18283955930194
-4.36076988684386
-5.12671866573735
-5.53951965903543
-5.7786512639053
-5.96268573724512
-6.04022729781269
-5.88897260972859
-5.48976077040746
-4.95916897246413
-4.44908774667099
-4.06502513654947
-3.84171417530239
-3.72406011828855
-3.57097843912004
-3.23542750330799
-2.67924363062551
-2.00371972042709
-1.34789720712884
-0.760482124863104
-0.190039020960757
0.410934987625968
1.01120610903853
1.53800671075206
1.96174413925223
2.33179142785177
2.73611424961929
3.21607485083616
3.70829220833592
4.09156327572118
4.30311262186634
4.36205718702696
4.25880326451329
3.91025103253992
3.29941413245891
2.59649760515992
2.05756165216398
1.82313221215321
1.8432094267884
1.95010405998239
1.97732722899977
1.85691918089884
1.64278400372876
1.44579189266623
1.35699975137288
1.41238032758805
1.55758407297082
1.62479850450327
1.42244758731509
0.91325995595759
0.295309666457493
-0.112866858195791
-0.100593197006074
0.237550401582039
0.499034070256722
0.259622674951335
-0.555252473560455
-1.60070991696366
-2.40918619054261
-2.7079995195768
-2.50242772043967
-1.99637119783163
-1.46315876125216
-1.08864318962876
-0.882420861932204
-0.755175450998375
-0.644951223191135
-0.524097168381196
-0.35928401066294
-0.170223992257602
-0.0944871296101473
-0.288310158924327
-0.743952323305544
-1.25503803610637
-1.58778346452824
-1.6830066544623
-1.68216800071901
-1.7542874971659
-1.92228871916959
-2.08089814025355
-2.1503543080839
-2.16704199868989
-2.24473154049614
-2.48546116807933
-2.89727485821354
-3.3461023672706
-3.60143599018644
-3.48007005541977
-2.9715005700306
-2.24207209526117
-1.53714438926087
-1.04910982257263
-0.81374718682497
-0.711102529912207
-0.577314959892998
-0.307060683031348
0.133359507831743
0.717853675515669
1.3594260313135
1.95987703886644
2.49675463915817
3.03413818714882
3.64576896136776
4.35109036929765
5.10124511362358
5.79079290265725
6.31009568415389
6.6213949714759
6.76088307785908
6.75952841581115
6.62004205868529
6.38907300158111
6.1768913125446
6.05127169698947
5.93958937079811
5.67750436994802
5.17555137708979
4.54176820177596
4.00106437575899
3.65839720738381
3.39532162807698
3.05825171703006
2.67137320043684
2.34790200140675
2.01737690127471
1.35463795809127
0.0367551940030875
-1.91114165201572
-4.01779335928709
-5.67738734230687
-6.64255428411953
-7.18249140413013
-7.71287262724013
-8.37269686836648
-9.0556996134258
-9.71093159826606
-10.397952839446
-11.0689378811296
-11.4838517019743
-11.4174419596659
-10.8892685650427
-10.1461326956781
-9.43496421534386
-8.8117462909541
-8.16144609178297
-7.36165487807529
-6.38471989175992
-5.26496544741214
-4.0463237294829
-2.7865373427209
-1.55736325853956
-0.413128601713673
0.619306284466602
1.53811588845515
2.38764070360168
3.23814641585817
4.09351274415265
4.85898675339503
5.43861091188579
5.82045879768979
6.05394593436146
6.21688426275091
6.42284891967199
6.77694713803172
7.27744156220983
7.79244773449537
8.14509163838967
8.21653213770622
8.01237284417155
7.66104934824117
7.29467141718436
6.8975006319813
6.33186797942603
5.55158216621025
4.73428129504418
4.15322321399385
3.9248588760386
3.88968046660816
3.74775123628437
3.33511809031893
2.75904095224714
2.23266837488349
1.81303127850541
1.36454275287127
0.750060586315803
-0.0178468091001323
-0.797670339362274
-1.42498539303841
-1.82127832056694
-2.06672109824336
-2.35479480182281
-2.81575790516444
-3.37497456141174
-3.81102302748683
-3.96216749882172
-3.87000858047113
-3.71056388047823
-3.58974319553688
-3.45563321679926
-3.24447113306328
-3.04014778070055
-2.99540503051811
-3.13205379950522
-3.31297761620213
-3.38176469970426
-3.24255128635403
-2.85598789295908
-2.29419495379793
-1.79640702576722
-1.62991120988853
-1.81977470969063
-2.06630222526161
-1.99953543711963
-1.53138920006707
-0.930450238241624
-0.530619083593426
-0.402265674836929
-0.363187645347437
-0.278722777015147
-0.244586142583566
-0.441862711365373
-0.891038857272409
-1.40808907949488
-1.77117928632335
-1.89732175442034
-1.89063606863459
-1.95989927995123
-2.26886828483781
-2.81116149664537
-3.39668172538695
-3.77351502160372
-3.82114063401889
-3.66512381427765
-3.55682628317379
-3.57903540195331
-3.51666995929655
-3.10020813425961
-2.33590591621429
-1.49867820746375
-0.818884366244272
-0.265101406699632
0.368166905194826
1.24678926648722
2.41902497252642
3.89747384052558
5.68692841617013
7.62975161742453
9.29191163075412
10.1855130377078
10.1734022801747
9.57582043458259
8.86141972547755
8.31299080205582
7.97275167728269
7.76686975433976
7.60613632045508
7.4023447884753
7.03279695390796
6.3467151222386
5.2916427421599
4.03400431413283
2.8530950533038
1.87924235394668
1.01249286659827
0.121855022750773
-0.768161284132841
-1.53826479759536
-2.14408551180523
-2.65395175620218
-3.15403491140957
-3.68105878905442
-4.24073938837619
-4.82839014614592
-5.39248096605534
-5.81286224367752
-5.99159922868344
-5.99236885330153
-6.03168740013499
-6.26514076410286
-6.57864449276269
-6.63237715904015
-6.15789774989075
-5.24194272215922
-4.29856364101383
-3.70929505639063
-3.47839682470972
-3.26344062350774
-2.71364943804771
-1.73263795749588
-0.481461031956721
0.744186173428983
1.65291058338478
2.11830849627579
2.25936315480529
2.30747873705156
2.38433772714945
2.44316076815228
2.38773429795912
2.18238069622437
1.86005968445378
1.47371453055251
1.05188435751694
0.60211722958696
0.157347106015927
-0.214958980100715
-0.477492446239732
-0.665913238500322
-0.834897193012397
-0.986164086296977
-1.06407308112933
-0.98427516628431
-0.683131445070292
-0.246121614620622
-0.0129261278752665
-0.412620746764948
-1.56830240114838
-3.0983133056877
-4.38920460703554
-5.07454036850479
-5.23952001900142
-5.19965797009186
-5.13494504621475
-4.95423463034615
-4.47457846810184
-3.66179584982711
-2.66465779925236
-1.6548817853049
-0.681579536961498
0.321957322875514
1.41196943022287
2.5252255709573
3.51399196193093
4.2952795639154
4.91994056758433
5.46714607006079
5.93334812733884
6.27700798780498
6.51170400976925
6.68715582802128
6.81878339580905
6.89229839616642
6.90258868974783
6.83965852554685
6.67332474499661
6.41587244273065
6.1958485147698
6.21508809082467
6.58975903050445
7.21646800404197
7.79994982783272
8.04180517512746
7.83723323790203
7.31547239607347
6.71519518850934
6.21907973155919
5.86105213869935
5.55543239622702
5.21681595975097
4.8337591768839
4.39491944426221
3.77828162153051
2.76792440820857
1.15308707594268
-1.21074301693674
-4.32565758225757
-7.91361109064806
-11.4118207573601
-14.2523652743662
-16.19664208543
-17.3878737535704
-18.1210632116453
-18.5837690999885
-18.7445407702263
-18.430056156391
-17.5408717279613
-16.2244841845414
-14.8182385122871
-13.6126766401005
-12.6763293571451
-11.8794901293831
-11.0374625101997
-10.0214877587132
-8.77461368829252
-7.2878276293722
-5.60452067512948
-3.8247425305133
-2.04686448880469
-0.295299164150433
1.45963818726421
3.21695986371199
4.92560186117663
6.54187337170288
8.05080692410967
9.42521103011739
10.6049588395384
11.5216504165169
12.1303050948591
12.4436489944818
12.5481232312391
12.5364998851868
12.3992560548067
12.0332729323657
11.3893764290897
10.5714423071728
9.76108688154369
9.06546508447045
8.44969835930803
7.80566579858749
7.08831168049602
6.38596272617903
5.84064517248256
5.50379065245452
5.29401979674553
5.08404280743811
4.79917070683331
4.44565901161427
4.06884579528676
3.66835633782296
3.14742197749839
2.38520189133259
1.38015149541311
0.289699702008723
-0.694015632820211
-1.4880006409468
-2.13378399811819
-2.71114848970432
-3.27348442631767
-3.85252785255507
-4.47499658179335
-5.13556779041558
-5.76252090041079
-6.25510154211658
-6.5731437868352
-6.7648709509242
-6.91732811185624
-7.13876268477002
-7.57282837844478
-8.31590191801744
-9.27468437330787
-10.1808717687382
-10.7888466534198
-11.0158613163333
-10.8917440233542
-10.4543301648748
-9.7282999718947
-8.75515000275916
-7.60445812717482
-6.35721983226542
-5.07204603441046
-3.76241847150984
-2.42305565956726
-1.07720257699084
0.220145843175265
1.40875140891152
2.43205477709807
3.25969421771476
3.94547284398361
4.63066436730901
5.43108711068056
6.31293292631534
7.10019273310543
7.61127717482967
7.79289717583039
7.73308194055474
7.55896360356096
7.33927711376863
7.08990384320853
6.84503239085431
6.68705673674194
6.70245807532315
6.91692144108475
7.26305791460182
7.60407561774357
7.80223524607344
7.76405382420324
7.41775840549219
6.70886612353639
5.68627268945843
4.54244305165916
3.47675385146928
2.55530981710286
1.78010144119918
1.21165357973611
0.88039259841427
0.60907868249922
0.0719794019131967
-0.923465524599945
-2.27112152092447
-3.69363555478463
-4.98510376376688
-6.11265154209398
-7.13722463852189
-8.11054874399694
-9.0580409451897
-9.98471940200581
-10.8317062164121
-11.4614039218628
-11.7548586543974
-11.728741289353
-11.5356153250967
-11.3572199603457
-11.2748015971485
-11.1765944391025
-10.7901069534305
-9.88580374415447
-8.4841239489767
-6.82447053210913
-5.13875137196716
-3.51949358858858
-1.99674540501111
-0.641573195361982
0.455506726203765
1.27930233651005
1.96397522507703
2.78523119779561
4.00942976479692
5.67359262224263
7.54185651088347
9.32163986498884
10.8721570950269
12.1548833431382
13.0605571899458
13.4185767552633
13.215682750291
12.7297119604323
12.3523554091996
12.2534272554967
12.2581495643377
12.069952856716
11.5593470226609
10.7995230788053
9.89595473058093
8.88193185846457
7.75650050244182
6.52178823146394
5.16639123480718
3.6816561619905
2.11773317737372
0.582605520969498
-0.835243205821371
-2.1329304335229
-3.38851328703559
-4.70982222137197
-6.18194564133344
-7.82584963650017
-9.56523852663534
-11.2270661657324
-12.6138353464131
-13.6154574710612
-14.2428909222851
-14.52738729112
-14.4162807948918
-13.8322724850681
-12.8333126176746
-11.6356305784291
-10.4333087416056
-9.23081087131207
-7.89810353602641
-6.38363124281613
-4.82892508033657
-3.43561960316576
-2.23278913348256
-1.03831785913479
0.329278426690784
1.87044371698015
3.46675768594507
5.01445357137196
6.39514731096079
7.39546246433438
7.81383901337273
7.67004670201816
7.21579531364868
6.69572382687258
6.14348982422504
5.44847314067665
4.57976902995459
3.6648762467733
2.84169229407455
2.12862573625638
1.49993121799311
1.00503319779639
0.711025925651264
0.563937955505184
0.404123537798027
0.124934710186386
-0.228133637895171
-0.497288566422903
-0.510554133497372
-0.174399329390794
0.461835236973502
1.22179503049789
1.91524272930564
2.45763964482433
2.89229530726728
3.30818153961952
3.73118489353693
4.09357541284089
4.32467919283146
4.45601976162837
4.5922001069381
4.78341943556119
4.97636640868147
5.08369344588673
5.03999607528832
4.78062601400544
4.22872417827904
3.36270970316095
2.32397098352229
1.44921779599236
1.10016443318409
1.30285488536432
1.51240930709234
0.89668898860786
-0.964228502972102
-3.65864342569548
-6.31293103760521
-8.36333275569516
-9.86855157831309
-11.1036200001368
-12.061573498246
-12.4989840883849
-12.3632252898789
-11.9649046665147
-11.6781693844288
-11.581771710239
-11.4570656268095
-11.0608363659654
-10.3141359558336
-9.2618627477383
-7.96305168223751
-6.48269532585415
-4.95312761132673
-3.5556811447429
-2.3773995508544
-1.29763069382732
-0.0829875512431453
1.377568852261
2.96459336558715
4.45056982496754
5.66727169158471
6.54427285220909
7.07223044205108
7.30579758630767
7.39305393220596
7.5547077557181
7.99373606473455
8.77749051546795
9.76665706132105
10.6689848647215
11.2186943915582
11.3622352386284
11.3009756650023
11.3362439996095
11.6142383503868
11.9934839926487
12.1941897351283
12.0767129643737
11.6958536812996
11.06545504999
10.0065330341539
8.3666922224106
6.35640405843699
4.52250249756709
3.30883731472315
2.67217767189422
2.16084517314322
1.31834076086145
-0.0551182869825299
-1.96664996364147
-4.34785016871806
-6.99588757710128
-9.52799849695189
-11.5805682627508
-13.0573539251045
-14.1049938030948
-14.8982430282695
-15.5274162905374
-16.0072042373151
-16.2707387472519
-16.1868418900239
-15.6604708990858
-14.6989931695158
-13.3730703859808
-11.7812154559805
-10.0617830245152
-8.360202432647
-6.76661369359436
-5.3397372468145
-4.17095697205802
-3.33736564484006
-2.78212006931014
-2.303967829583
-1.68807167594167
-0.841090680131172
0.171813584063575
1.19007362525364
2.07876927764427
2.8428895662562
3.65830523675157
4.76270638879305
6.23423415379345
7.8439319869069
9.19738068720175
10.0730511661561
10.5527714597719
10.7723841496989
10.6584903784458
10.0340732716839
8.92216651164073
7.61676943896348
6.46545528622421
5.6553825255053
5.16719996385419
4.83981222617391
4.49141122286057
4.05608119671936
3.62151641668513
3.31578927547935
3.17443105664858
3.13325008775997
3.1175895802167
3.10225675644983
3.09227447877507
3.07488020620529
3.00535035290445
2.83403493867819
2.53963153092272
2.15048218979985
1.75496454863909
1.47600875087045
1.39787712917239
1.50640088567547
1.68774192623292
1.74439163060361
1.43812953260668
0.643470925351544
-0.491153240592978
-1.64657103310725
-2.66968877488139
-3.72153855714455
-5.03419401015705
-6.6165541729491
-8.26874392400461
-9.79540118420507
-11.1043134570834
-12.1334434681151
-12.778487900022
-12.9326965966885
-12.5943264681278
-11.9194186486555
-11.1298873872551
-10.3364837778811
-9.46514691981785
-8.37877963508463
-7.05897586944592
-5.65181294767911
-4.34078901199115
-3.18713112008986
-2.10405833873617
-0.975933911181301
0.240293682803527
1.53638101050806
2.89309878525628
4.24069373536002
5.44694948326487
6.43586987713969
7.29764865277954
8.20437224723572
9.19662901476725
10.0787367399983
10.5541375059394
10.5046140823371
10.1543143807132
9.91249803795195
10.0075424715903
10.2875567699382
10.3824375724666
10.0189791096304
9.19178938797846
8.11335823802122
7.02148915354246
5.97362779135799
4.80766094172662
3.33635139022798
1.57308880139636
-0.254341541577169
-1.87351949307071
-3.12487633441004
-4.01440231551222
-4.66391070428628
-5.17624123227713
-5.53187922637686
-5.65831896977778
-5.57563313961399
-5.38820489382564
-5.16397954388525
-4.94486429533477
-4.86155787877435
-5.08430947077641
-5.61048461153819
-6.20994341510368
-6.65335111550039
-6.93595797879492
-7.19774683655341
-7.4405481016821
-7.42442170187968
-6.9102594937078
-5.94895952949529
-4.83755081004967
-3.82273563593114
-2.96010096470161
-2.23971035477464
-1.68696269092762
-1.28525113265108
-0.916967509529283
-0.460597379753762
0.103639632575146
0.725089015635586
1.37994679465361
2.09835835742491
2.89885462137434
3.72012141942192
4.45108378336328
5.04639936696681
5.58358689468582
6.17183269001029
6.82353489220229
7.44521071714734
7.92425869427125
8.18342204358762
8.18025214343595
7.91003862431891
7.41548470663954
6.77847567924122
6.10310518315076
5.48950229543246
4.99306256426837
4.60471118163357
4.26562683166553
3.88191581103289
3.36226698359884
2.71861038196087
2.11475801411499
1.7117041746389
1.4272854772682
0.913027554999473
-0.174361616972896
-1.86670456047729
-3.83648617844266
-5.64363771446267
-7.03755927054442
-8.03111191031318
-8.72884827674972
-9.1746353204909
-9.38835081796797
-9.44355512727952
-9.42031309370926
-9.33074709173333
-9.15788472001716
-8.92521448957912
-8.65987883884762
-8.30954935698708
-7.76583129957921
-6.99176184916022
-6.0888576980026
-5.19401723745445
-4.31108845079444
-3.29892706225459
-2.07145537891725
-0.777133788353948
0.288674339244125
0.958437380497005
1.34867269344194
1.75397116672461
2.40174512577096
3.26413683299042
4.07211532071076
4.54782914498283
4.64947904452382
4.57506683222461
4.55927400703517
4.72192348462468
5.06795598962813
5.52598859853481
5.96760223262011
6.25538435785961
6.3109443686268
6.13939574228421
5.80856895842963
5.42613098948413
5.12555796529353
5.03788582417359
5.2241751044729
5.59766690043405
5.95141541937031
6.14235664659305
6.24640093162186
6.46458058937203
6.87746847240441
7.34762978072494
7.65027034860024
7.64938316754989
7.37083957764886
6.95484219341939
6.51470870462653
6.00351141443309
5.24981786723602
4.15896324284947
2.8463831289665
1.54447472099032
0.397071274476178
-0.683366067842055
-2.03376843804661
-4.08070789044871
-7.00379515353491
-10.4818299292833
-13.8326867266864
-16.4484444783848
-18.0981905579993
-18.8827001267406
-19.016897508712
-18.6920490509721
-18.0749474817355
-17.3270576794498
-16.5405610248245
-15.6664117857859
-14.5909791736608
-13.3102857627599
-11.959696374315
-10.6529969029519
-9.37288295550814
-8.03880964224905
-6.58304036156732
-4.91631934045821
-2.91424901538415
-0.526923063852865
2.11208007820308
4.72794233320789
7.06611229792396
9.01847514288775
10.6109787335733
11.9036782823794
12.9463078341537
13.8212931924588
14.6322159076131
15.3694235108209
15.8359093328235
15.8081852911056
15.279212875202
14.4789811111911
13.6451287030562
12.8245394981546
11.9219810941863
10.9016395130316
9.87797834552592
8.99052479806164
8.2532252412631
7.59218165004498
6.97028619281738
6.35685414312976
5.60901798062146
4.54299352013802
3.15736991965406
1.66205147207842
0.235705199297403
-1.15313982783127
-2.6344530573929
-4.21250242962217
-5.69807727786342
-6.83670051932096
-7.49661683665893
-7.76576173249042
-7.88239553797301
-8.06127400482417
-8.3696107839279
-8.74631398064791
-9.11873795629479
-9.48134992478351
-9.83555319672847
-10.0697551979772
-9.98553586981998
-9.49535674000219
-8.73888923702363
-7.94766731542016
-7.23579662497953
-6.57029009463957
-5.90064992015516
-5.25494015152026
-4.72130145972047
-4.36199537857442
-4.1242440221243
-3.83550176009662
-3.33515160300551
-2.60996563780831
-1.74807571764749
-0.78113248556402
0.351976428316785
1.68957057141506
3.14569307617432
4.50346025059449
