-7.04905368871867
-6.29433271360288
-5.4987611926865
-4.73188037233543
-4.10539518057407
-3.69839608820992
-3.47513988107421
-3.3424635686523
-3.270517790286
-3.29087983739918
-3.38640259463287
-3.44567983916688
-3.32243124997626
-2.91326793506488
-2.22456521514194
-1.39410987894614
-0.576555462137519
0.233022373188809
1.19233112855189
2.38885606179067
3.67606960190382
4.76624775421034
5.47411884193234
5.87380572515811
6.21051720650209
6.61701239416038
6.92827939797651
6.85125491503197
6.31855207642594
5.58336083805521
4.95791213397664
4.56417364305383
4.35078382930734
4.21573601349207
4.05334482708205
3.78806387676673
3.43836596700881
3.09740809608468
2.81241026061744
2.52368733477087
2.15097211544233
1.71024038630935
1.30778226265591
1.01813956651825
0.802694119462283
0.565803670030182
0.24459279564549
-0.193251878899044
-0.773319101675226
-1.46037722234962
-2.13133789932059
-2.67843559331033
-3.10025574617635
-3.44696380268453
-3.74438385773394
-4.01492161115211
-4.29761416979472
-4.60419776673933
-4.89910804191457
-5.11222024658
-5.11936206073572
-4.76454083093805
-3.99607218888315
-2.95551948283251
-1.86660912021934
-0.874361755240698
-0.0405150312505913
0.576530610993702
0.923061630088473
0.99870283827253
0.854346736843112
0.579280352038466
0.316381612509936
0.23409041375448
0.439693829371089
0.919287118356491
1.53509742374214
2.06935028735657
2.34104309153559
2.3348790336809
2.18498275536696
2.02080899834708
1.87026737695125
1.69565190217219
1.45643394020353
1.13667706250215
0.751026548689821
0.317486914485861
-0.177188456931001
-0.74262495505556
-1.31626707091839
-1.78204060309296
-2.06216194653634
-2.16774638852556
-2.18881450834714
-2.25169680274171
-2.43316876867188
-2.69573606205098
-2.94047181079986
-3.09112065899299
-3.07398974050938
-2.79169219976256
-2.22067823323177
-1.48369185168405
-0.736724061734907
-0.0405401745823282
0.580022446689647
1.03212269210627
1.22451834158751
1.20723355161058
1.15202127107347
1.19043907406921
1.30294636505238
1.37019227346089
1.34112299006078
1.34375665381712
1.58013390858029
2.10982255288663
2.80199825632895
3.48884939156607
4.07260697191452
4.48710142689648
4.66476643438616
4.57922363183985
4.26744561294051
3.79170303269045
3.19833694073714
2.5057184327492
1.72707807475029
0.916865600555572
0.166468883447488
-0.481710196331127
-1.07214006184456
-1.63585692589596
-2.10738987751271
-2.41272125378031
-2.59381412117056
-2.77270252024866
-3.01477713695041
-3.26932739004942
-3.42084434724503
-3.37481726345435
-3.11594461837909
-2.70435955290412
-2.22499350597885
-1.75724698424449
-1.37781830789431
-1.13193070317116
-0.983266372227518
-0.84862489965425
-0.70271652744981
-0.586975563021168
-0.493129971528768
-0.311469032857476
0.0564888584786468
0.568257129027226
1.05802941229378
1.38075744165559
1.52928001235596
1.60118646869824
1.66395377925716
1.7013023688533
1.69960067377257
1.71074260056498
1.78148371851976
1.87073730956211
1.87511771272563
1.69889491784219
1.29197851979473
0.682242609908364
-0.0105381453237134
-0.645850099059445
-1.17179706485362
-1.65060766312856
-2.18782471332121
-2.83442773797481
-3.50905683874855
-4.01125638952799
-4.1744148058772
-4.0201575944695
-3.71732790054644
-3.4007478464612
-3.08196353088263
-2.71544432317593
-2.28630774693694
-1.82851448706916
-1.39150727795062
-0.996739557638136
-0.630987446270847
-0.290842507472804
0.0052076360787177
0.2910019462522
0.681793630777239
1.24468813906162
1.8778637729632
2.41019724331795
2.80152236442182
3.16794523724451
3.6196742485666
4.12845189730875
4.5506940215311
4.75546728507903
4.73881402563826
4.62306010778733
4.54280809319683
4.54132981515474
4.56835537856585
4.53618972932653
4.37587392868915
4.09037638967814
3.76119631929358
3.45976743208721
3.16405884166687
2.81733827270491
2.44946655255128
2.16499099024275
1.99885023033014
1.83376500311956
1.49860987055611
0.959895236764614
0.397067557335103
0.0375721461141304
-0.100436145590005
-0.252508334876425
-0.667311666844687
-1.36317125308044
-2.14298300654035
-2.79270357277826
-3.23461508248881
-3.55547788480493
-3.95277608788979
-4.62315244079333
-5.63360946680805
-6.86114831638389
-8.03745561201425
-8.8751594994109
-9.23251681304404
-9.19930887578268
-8.98185661040395
-8.68888810330096
-8.27177282914094
-7.65446625103249
-6.84085574676957
-5.89627860112637
-4.9010972024871
-3.92643989201756
-2.98767677699119
-2.01373495617358
-0.917036866287871
0.289907842885045
1.47594951693231
2.50383333133199
3.35649961415321
4.13719095744993
4.92515002904645
5.64208725049342
6.09467167786514
6.13757308223103
5.7634655798808
5.0740788790304
4.23128221080908
3.42615141269795
2.85695729889455
2.73223894250415
3.22063777334479
4.23510934202481
5.24119021029273
5.48137774157761
4.55844300250268
2.75281831824797
0.712498963433019
-1.06425217495127
-2.395942605267
-3.26678994323261
-3.70999964387689
-3.81588598325527
-3.72852121604908
-3.57633301537277
-3.38893589011018
-3.06883653591498
-2.46881389027555
-1.52830681915285
-0.328884422986061
0.978379142630065
2.26561774784566
3.45769329975374
4.5291904691706
5.50637950291537
6.464918919378
7.50775715375133
8.71635671028022
10.1006928289898
11.6024050097901
13.1253999620296
14.4957178223217
15.4010934150647
15.5089517939452
14.7502764749754
13.443498223886
12.038987764051
10.6883650270884
9.04754006809388
6.50875717927522
2.67179521240084
-2.33265083139447
-7.88500011779794
-13.1740865055464
-17.5222382215667
-20.6129674763211
-22.5452082643481
-23.6442816080242
-24.1482810607331
-24.0869147968062
-23.4664600453637
-22.4611864629285
-21.3294935792607
-20.1941683652622
-18.9723681268619
-17.4812414537684
-15.5817658453498
-13.2788357983479
-10.7110574568488
-8.00279557052541
-5.13101834644359
-1.98871619986096
1.42980108689436
4.94801343825284
8.29157817490655
11.2222784390808
13.6164578545047
15.4420717851723
16.6569309943208
17.1704495370782
16.9956059310716
16.4629586941273
16.1994961763921
16.7798860634575
18.304624098191
20.2490503791594
21.7075866605031
21.8631367804414
20.3601908374501
17.3457977058453
13.2163457046177
8.34977477337463
3.06068555549141
-2.28039877690353
-7.21358633687039
-11.3393681103887
-14.4803650589268
-16.6708412591635
-18.0267116376626
-18.6797816721129
-18.7956134056906
-18.5192490694623
-17.8397735689653
-16.6006845375084
-14.7407783766281
-12.4939542049744
-10.2844441391083
-8.42310189895991
-6.90609939338159
-5.46450139361851
-3.78704718069278
-1.72498457864401
0.676686819574414
3.28713494113997
5.95597546391009
8.48566452313943
10.6541876031757
12.3357553732342
13.5540673748493
14.3834679979582
14.8462707224641
14.9309696273722
14.6576007035363
14.0765165292196
13.1988649130365
11.9431763761767
10.190067088241
7.93284788482448
5.35601399242655
2.7188273873138
0.183726415433215
-2.18848546728577
-4.30605250067843
-5.99167324078235
-7.08244536976335
-7.56294322979102
-7.59627857066886
-7.4099105093115
-7.12110306518334
-6.69835138021713
-6.13995293946894
-5.64977210051005
-5.55295213608587
-6.02722281599328
-6.9407230361631
-7.9382238279545
-8.68495205587621
-9.05698919147572
-9.08772894297429
-8.74213269749575
-7.86729275228248
-6.4443310991907
-4.75805451428263
-3.16361493401354
-1.73873609572849
-0.280692564074431
1.39536547482929
3.24499719781778
5.04717816439982
6.58923958578999
7.78350347450323
8.62690044426406
9.10924321401808
9.24511412690578
9.17820830489635
9.12398550649531
9.15771183668051
9.1504102186806
8.96847038636163
8.66762715566552
8.43423454481398
8.37545347640732
8.42005437182706
8.42238579328661
8.31971364295728
8.12772550854148
7.75388740854193
6.88028545275022
5.14138460701687
2.45698270804874
-0.838313478559379
-4.19874312460102
-7.19255484923205
-9.67019180674331
-11.666402374837
-13.1643730374312
-14.0132184355683
-14.1562780322091
-13.924139169106
-13.9692198958409
-14.786008408361
-16.2603723425751
-17.7068734417428
-18.3666411824069
-17.9001374407285
-16.4699426040865
-14.4541274543
-12.148023271969
-9.68760862008182
-7.11417613674698
-4.43794995296483
-1.71728335752166
0.836739806561279
2.8854887548809
4.1941485094855
4.84786415221945
5.20419102243959
5.64208363991029
6.34804151183043
7.26938777580923
8.23260770351606
9.1484295309565
10.1128815783003
11.25216164992
12.4767150463864
13.4887522705919
14.0693195651789
14.2784847005769
14.3275166750427
14.3345888672825
14.2945862617692
14.2330597242673
14.2221096730363
14.1791825468158
13.8082144929258
12.9174457490201
11.7248075818922
10.6463661931869
9.78330598111011
8.81494493437778
7.48563596545086
6.08910347669552
5.33643458692632
5.64891509326058
6.50611031971148
6.52470871328714
4.34823799820216
-0.38057416971342
-6.83078299630882
-13.6467254494647
-19.7414382582865
-24.5942614699462
-28.0768206245975
-30.2063799626602
-31.0955856138844
-31.0294193888941
-30.4222520167763
-29.5879080937946
-28.5597782294254
-27.1699325800752
-25.2644770131017
-22.7980582925851
-19.77210361189
-16.1776603068502
-12.0202567827632
-7.34652490881099
-2.21575494020051
3.30601844421911
9.05102221182652
14.6597748365287
19.7051013315534
23.997479721594
27.6909450707793
30.9466075325057
33.5283920534681
34.93262299799
35.0211801470118
34.4289111673631
34.1687427573463
34.6493911170554
34.9294627656038
32.9971951129815
27.1287311940532
17.3437827662281
5.67281931497833
-5.03737327446814
-12.7319890839368
-16.9644517305848
-18.642819058418
-19.1992279959527
-19.7663117068535
-20.7546411880499
-21.9635534962565
-23.0036062603594
-23.648996815706
-23.9439632977054
-24.1115521794974
-24.3289882885907
-24.4792554859559
-24.1182849245246
-22.7738081428709
-20.3033048121472
-16.9161020530246
-12.8725081585345
-8.29441159925035
-3.34520081888843
1.5293218375698
5.75595184157222
9.1010345638501
11.8684661290071
14.5417330979908
17.2937058809553
19.9230847966495
22.1820732088605
23.9642610353776
25.0341302401227
24.6467875184128
21.7571797353511
15.9576520229618
8.25460215515447
0.682853505236115
-5.0025628482517
-8.27375117625949
-9.6774444370385
-10.0815273519502
-10.1163349773004
-10.0336864592805
-9.83141211962442
-9.47617395637873
-9.01725025216391
-8.47156379952428
-7.6882634000426
-6.46077242798964
-4.7658779919599
-2.79654575134583
-0.751640344725673
1.3433525373999
3.59853938201642
6.08252274371803
8.68753680029555
11.1325336623663
13.0641072603239
14.1640761462777
14.2335612996491
13.2656612236888
11.4665731476574
9.18731109949892
6.83710613973708
4.82780988469073
3.4434244471708
2.62394329708606
1.93504837736448
0.879453984128374
-0.735819884220715
-2.69637456608948
-4.50187105052769
-5.58559476108318
-5.62729172278172
-4.79645177323405
-3.63067712526595
-2.60800942664567
-1.83870956356444
-1.11525706444646
-0.174749802994234
1.05250291352733
2.3459960252943
3.32417498456176
3.7190080418382
3.54690156998456
3.01598561027533
2.26657378937293
1.16357483625679
-0.681584726058591
-3.60526595366594
-7.48137327389354
-11.5786611200344
-14.9056582331507
-16.8256374186038
-17.4478432074382
-17.4709965147722
-17.6171274379444
-18.1409825045879
-18.8026155936025
-19.2244502397735
-19.2108243447996
-18.7559008475998
-17.8729648184612
-16.5281094564062
-14.7328278918419
-12.5932412118274
-10.1599377734571
-7.24020569967076
-3.52464708805586
0.953514970138443
5.5680346090932
9.50310483350654
12.424274203026
14.6382889813083
16.6389466166035
18.6543865205411
20.5920000622471
22.1894089152036
23.1208665656293
23.0852645172827
21.9521431876814
19.9074711613052
17.4696643233634
15.2740387003661
13.7016387910664
12.6783324027573
11.8957290231534
11.2396593287105
10.9457718696227
11.3058118159422
12.2330350567322
13.1519076280994
13.387332059229
12.7067455020469
11.441391644075
10.0823060234766
8.90049814158324
8.03506141077103
7.7578781182456
8.39197017606331
9.94853831945268
11.9759992935937
13.7947892793508
14.8457503121172
14.8552111791148
13.6938602517491
11.0562026374476
6.43263609708695
-0.29930208279499
-8.23158790084275
-15.7173710793932
-21.5593934657833
-25.8534759223071
-29.6005393683519
-33.6032831298888
-37.7889022757504
-41.4483911784882
-43.9593034478523
-45.2580550964924
-45.7246406484164
-45.7572095289603
-45.527816179049
-45.0485907752988
-44.2608311395509
-42.9325797402558
-40.5548022119519
-36.5541092810444
-30.7479304510322
-23.5552556247945
-15.6863995858259
-7.65521762222234
0.38794086568048
8.47048979016547
16.5662644733491
24.5184349262265
32.1294701953053
39.2661476270693
45.6838399077313
50.6056745839075
52.7624407978151
51.3508985791819
47.001739802065
41.3963798540503
35.7920950115982
30.2201394791194
24.2004256178956
17.8434029317259
11.9747929809036
7.36176008150131
4.07265980675997
1.59897546675343
-0.51487450909142
-2.22783980869801
-3.17794923620211
-3.24068321699513
-2.82171802417066
-2.53346347517014
-2.5935340671446
-2.61045456077867
-2.01964812581577
-0.714495044346841
0.808838944364605
1.91046020963983
2.30902007852556
2.1196751674976
1.55503100211839
0.732249942146724
-0.270216532055
-1.29303498450807
-2.07837814157226
-2.37837000915406
-2.12584931931084
-1.51288417836148
-0.855394119693241
-0.368155436446916
-0.108849794309282
-0.116969365474496
-0.497943491838558
-1.30577977534635
-2.39932515591352
-3.50234320033046
-4.41649256166176
-5.13694613797158
-5.76957217384877
-6.40617125343129
-7.10797820074483
-7.91227282286525
-8.72955494012726
-9.27284722812107
-9.26218785631059
-8.7550896977921
-8.14907706731667
-7.78174893634169
-7.61219483995156
-7.36117816826498
-6.89439061068418
-6.38872878725578
-6.15056450868519
-6.3455232722485
-6.91576421132777
-7.68016212009299
-8.42061998796209
-8.88347129463936
-8.83333929467204
-8.21126658094638
-7.19714436491348
-6.03468688087299
-4.8109339051871
-3.44901206321895
-1.87801627270065
-0.164358911050696
1.49811695719903
2.90617859517308
3.98901833939681
4.86512352979171
5.77842602819327
6.99837767503044
8.72388299042101
10.9260133733977
13.1979369587956
14.872422296093
15.4587265037201
14.9973277924164
13.915543452174
12.5203036760684
10.6923326463968
8.11295619375931
4.76346899962891
1.15984456413661
-1.91446205597788
-3.90499456904775
-4.77361459141526
-4.90622498912991
-4.7728138252685
-4.57350936099435
-4.1201665532107
-3.08912843194916
-1.41478066470204
0.628805558322751
2.73669925886112
4.83642819052813
6.98727313809978
9.13446674954071
11.0936414781304
12.7898902053138
14.404997545625
16.0828989588876
17.3521026417999
17.0429889603632
14.1927409975783
9.15139600306532
3.55104908681295
-0.929166615471232
-3.64480078741916
-4.96185928190531
-5.58811051697162
-6.10324329980889
-6.83058382878851
-7.80283159064341
-8.81550704194831
-9.65018796441245
-10.2815006854365
-10.8133138025628
-11.2008704102747
-11.0851079659166
-10.0064430660103
-7.9675102053031
-5.94058328713595
-5.71224606504906
-8.81896076061694
-15.237351274825
-23.0594112083909
-29.6714127067006
-33.4488936851605
-34.4065027239429
-33.4116079258129
-31.0881781045548
-27.5577847539253
-22.9025172349516
-17.4877480102524
-11.7823708966467
-6.03722967660891
-0.220622424640943
5.77244018514647
11.872321817494
17.778225202578
23.1308988745523
27.7282998752456
31.5817007336717
34.8023804701439
37.4474616242378
39.4325347238849
40.5524674929107
40.5901898571035
39.4303179077258
37.0950748572258
33.7123862073433
29.5154500301536
24.9285567479093
20.5933594231144
17.0778140638457
14.3270095187184
11.4450092799113
7.301366214777
1.52109206350563
-5.18812809099876
-11.691557480065
-17.2376321321201
-21.6095921770688
-24.7966830441087
-26.8119942842642
-27.7813168519077
-27.980486777483
-27.6947945317545
-27.1077505916304
-26.3644989941143
-25.6607456808708
-25.1476842443114
-24.7294601884954
-24.0569707111557
-22.8002676066087
-20.8839744005132
-18.421240644333
-15.5324980248661
-12.3470419207242
-9.07958990341698
-5.8930100998475
-2.6599493631866
0.966881556889952
5.11693765105565
9.35752749440965
12.890617457114
15.1786413180929
16.3682079239494
17.0404670238373
17.6100590340196
18.1216374011982
18.5628578540515
19.0353493729239
19.4543851206386
19.344673993819
18.2353834887368
16.2061692799689
13.8526223062879
11.7494814666489
10.104758983259
8.90073484636055
8.15428207958412
7.90231478530691
7.9801014385002
7.93690849167023
7.25059355645983
5.64535297544391
3.21573611349552
0.303816617185102
-2.6770336913804
-5.3270954396107
-7.31283486996469
-8.48850572680378
-9.03026829878799
-9.39907827342214
-10.0544320765899
-11.1225981224654
-12.340249884852
-13.3091213854635
-13.7487840244406
-13.5452117499379
-12.7491191949924
-11.6343880899801
-10.6183124187329
-9.95493167541477
-9.5170765556779
-8.94583076897347
-7.98697738067773
-6.64984066346635
-5.10203758562465
-3.5008351112984
-1.94008098173388
-0.480069882966051
0.872047239611269
2.22027737480117
3.72285207927156
5.41892471996311
7.16719964972177
8.78558162129742
10.1560343321506
11.1485822214937
11.5978901023064
11.4989996926971
11.1226809331418
10.7507534699798
10.3059019391347
9.37248179570223
7.58997044749944
4.91586405016788
1.46480399323436
-2.78771588121795
-7.94290074691135
-13.7264561114657
-19.2455003714875
-23.4703837739339
-26.0533636933179
-27.5145584959515
-28.4949459023348
-28.9119894631059
-27.9848063645939
-25.1032682341223
-20.6052065361633
-15.6376083446357
-11.2418653948091
-7.62263785946165
-4.31323736561543
-0.89507581814963
2.61382709613531
5.9760042894859
9.03384976185066
11.6794065124681
13.7416635066958
15.1407112560596
16.1199447318381
17.1460194198612
18.5414787363411
20.3070337383416
22.2867243268045
24.3549812708969
26.4066505220973
28.3626655905196
30.3655599576737
32.8609163287436
36.2356536314922
40.3101109986104
44.273466549974
47.1185146215601
48.1387889001251
47.216146812723
44.8643227555586
41.9447628320971
39.1416348216699
36.6362632826869
34.2347701640411
31.6633302025828
28.7113673807004
25.1942608434722
20.6794692982963
14.0359880448857
3.49585463817221
-12.1464773316219
-31.9829484932347
-52.8043991244954
-70.7778577742224
-83.5319345418698
-90.9261598207472
-94.2533940402566
-94.934966171704
-93.7612731516786
-90.915246826911
-86.4004258543347
-80.4416562584987
-73.6241055149061
-66.6792968107317
-60.0016759655052
-53.2803975804072
-45.7093095900787
-36.7339621863851
-26.6319541402399
-16.2939249405722
-6.46206626015291
2.67113267391177
11.0972453607937
18.5102101576152
24.5060536281069
29.2007148066598
33.2854270113423
37.3293585217972
41.2518190461562
44.5877441505575
47.0175088764884
48.4574703411405
48.8481165630941
48.134861241544
46.4666626970412
44.2940749633332
42.1723511073461
40.3152798746141
38.2606592426816
35.1813103395684
30.7791860121717
25.7836372782597
21.3286935370616
17.8789195698618
14.9501132773796
11.8116745182487
8.23951219456327
4.58484090222647
1.31541413462531
-1.39909575761485
-3.72051829599074
-5.87712261785827
-7.92209455467246
-9.7399186439963
-11.2091856813875
-12.2789845699294
-12.9025541567285
-12.9918514711269
-12.5030231483506
-11.54983227846
-10.3668926611767
-9.11511946182393
-7.75335351975385
-6.1611451837937
-4.36562432908394
-2.56569525787277
-0.92006611717453
0.645403243122391
2.4254131186
4.73593943511858
7.6472894852844
10.8507380576645
13.8323149296753
16.2250180307859
17.9771464186516
19.2156567751697
20.065465415667
20.6520404250304
21.2091363243334
22.1003817373872
23.6522537576127
25.8227764208645
27.944363016074
28.8851813085896
27.5788387253235
23.3683267035997
15.8925237413983
5.00987378747982
-8.82534764616381
-24.2350893422362
-39.3073139050855
-52.3961359848277
-62.5028550093192
-69.154812775302
-72.3741956503633
-72.856637458514
-71.8073026933854
-70.2220404668868
-68.2601237812174
-65.4106130398584
-61.2484734409631
-55.9100042553042
-49.8550990269141
-43.3674479921891
-36.4020670055913
-28.8108418564959
-20.5783233414185
-11.8569698250365
-2.88923921031122
6.0209664813395
14.4863494424888
22.1433664206562
28.922866930332
35.127844299723
41.0342479213861
46.4224241773969
50.7176620301661
53.652471775993
55.6124324740372
57.2179241595444
58.6506029839794
59.4648043556112
58.9865240230298
56.8186497098696
53.0527977655568
48.210411961684
43.0713750022959
38.3767507405829
34.40977231754
30.7391892849232
26.4440559718705
20.7466223736609
13.60906066023
5.86881050893136
-1.19257149054407
-6.57494342259669
-10.0916119213182
-12.3560812122064
-14.3020747276138
-16.634013932724
-19.5250378608784
-22.6418010961274
-25.4710178163796
-27.7722570422635
-29.7349728213344
-31.6091627787283
-33.2595713901029
-34.2634218063908
-34.398925254614
-33.808050071292
-32.6639079408732
-30.9152948931665
-28.4567842633527
-25.3691719069012
-21.8377826285396
-17.9253523462706
-13.6088089289291
-9.08320311762407
-4.91546418180055
-1.77452025504052
0.0304413572606256
0.771000371849476
1.15082799397066
1.97168220375498
3.78317530735237
6.61213961058592
9.93230955223343
12.9811467783549
15.2432510704289
16.7167125889582
17.7318978984361
18.4960009759036
18.8280548195704
18.3856852699715
17.1338883226417
15.4786922180147
13.8820403210039
12.4514628694289
11.0172129189954
9.52526044049981
8.18935692387628
7.25262989233617
6.70959246973946
6.29396915873082
5.69931880674781
4.80276627000204
3.69074772988989
2.49686292996515
1.27464637493513
0.0475696567613491
-1.10354867956388
-2.11250000261557
-3.13156312331416
-4.65609593949386
-7.3581893481372
-11.602844596349
-16.9871527445737
-22.4170953790274
-26.764826421742
-29.4820032884763
-30.6344223224868
-30.5464001534166
-29.5364984268901
-27.8460853109744
-25.5827757791123
-22.6533992647714
-18.8237350453225
-13.9576542501578
-8.288200297638
-2.44498714094746
2.89397346263467
7.4519147493636
11.4409792504712
15.2036736877852
18.8230957638768
22.0960621071125
24.8390897307709
27.2002233847747
29.6334490134097
32.4282476579214
35.1867665690845
36.9210346606655
36.8631253341388
35.1712271920837
32.7583294979052
30.4736988912967
28.4816200003441
26.2877451589736
23.2103475003589
18.8697190721507
13.3999626311112
7.35227983115695
1.49482346517286
-3.34868204560838
-6.56580597813895
-8.21294751462862
-9.25037759184106
-11.01530433989
-14.1354885183249
-17.8980426882255
-20.8243884267525
-21.9708597500907
-21.7035602574423
-21.3579586161938
-22.3626220606442
-25.5422863320109
-30.6772791365876
-36.3795437463568
-40.7108330956182
-42.3751642080422
-41.3580238364636
-38.3882546180429
-34.0873415496334
-28.8535483569252
-23.2373048276313
-17.9684304583984
-13.6131472749425
-10.4118192673397
-8.34218669342581
-7.07745775007141
-5.94356535455308
-4.2139406569186
-1.54978513221227
1.95075078378751
6.11929718886313
10.9365833358511
16.2975159717911
21.742204495818
26.6664342283763
30.79669992006
34.2553932418245
37.1093920804782
39.0547403593163
39.6752651617439
38.8994485694864
37.0988079269442
34.825926818167
32.5518733109133
30.5496375537036
28.7710383551308
26.6672805042702
23.2898334139729
17.9846882027887
11.2170580183081
4.52369698169097
-0.603341509689243
-3.8279448505109
-6.0477855885116
-8.56601282670244
-12.1370313139622
-16.4806110042783
-20.5383668939384
-23.316692186237
-24.5869310168625
-24.7945477499912
-24.4407172090205
-23.7093914583043
-22.5611329636633
-20.9312246324141
-18.8409029954652
-16.4755928400335
-14.1198676116283
-11.8955033735633
-9.65136810801245
-7.24598758982876
-4.82650432702647
-2.63936420203628
-0.626326150497658
1.56300882820265
4.08127739194632
6.54064042706092
8.26147268341393
8.76905093307867
7.93043337408374
5.75576837623999
2.39272803440909
-1.61965037861501
-5.37905745774479
-8.10314791770625
-9.51398936700402
-9.74680697536305
-9.09833465946021
-7.93656912206536
-6.62816152247436
-5.35600403389839
-4.03022436382915
-2.44821328727177
-0.552938301367002
1.4734834743367
3.39970204613012
5.23264917740344
7.20998004328079
9.40677633112346
11.4431166780031
12.7461861627206
13.085865478635
12.7363661181226
12.1472543198817
11.5779165475083
11.0226812702777
10.3603885196638
9.53911278077041
8.63565235389114
7.72913866256526
6.77036906451381
5.67261389716933
4.4962202202999
3.41610904984659
2.50626114880766
1.66626067402695
0.785642723798168
-0.094195480199173
-0.828649047889234
-1.35701108233954
-1.77644290091855
-2.17963867021728
-2.47273711225053
-2.46927227969511
-2.15196424372309
-1.70868542874571
-1.28927720108659
-0.833718871461713
-0.165133210076804
0.789211471123831
1.83253131276395
2.55070809852906
2.6653267489523
2.39481745341518
2.3392871449827
2.92407008541983
3.99011817190251
4.8752986419098
4.77214574891724
3.08773291609773
-0.26730782064574
-4.77992691134202
-9.57027643743141
-13.8145392659391
-17.0259011655343
-19.0808626342719
-20.0900996370499
-20.2168535469373
-19.5947648630104
-18.4753117678445
-17.4005913583718
-17.0226504710672
-17.6195237255869
-18.8170901165646
-19.8316332888849
-19.9972655817274
-19.1056147704996
-17.3243796672449
-14.8885171013984
-11.9423554963694
-8.64275324044266
-5.28850899776998
-2.2859495194209
0.0157833495101591
1.55656285477045
2.74631005545861
4.3085560765226
6.75170500108274
10.0140818184145
13.7164442047247
17.6155291429082
21.6204239383939
25.4714142212343
28.6471920434619
30.6630841854054
31.4451717165057
31.4409483026815
31.3150896836565
31.3905338617199
31.3549172924113
30.6124504164097
28.927675239309
26.6411419881473
24.3161593678327
22.3316375249447
20.7827958171579
19.5654727747787
18.4674525080384
17.270053739663
15.8272025317863
14.0152733049897
11.6071937757617
8.30296240415558
4.00582948286981
-0.940303472671747
-5.93135333719654
-10.6304420342713
-15.3013519495061
-20.582615969201
-26.9097816196852
-34.037849734316
-40.9757058151666
-46.4420117003031
-49.6099947346165
-50.5289911037228
-49.8356313864038
-48.1437311679137
-45.7625937691258
-42.8160304250948
-39.3959801997846
-35.5822722859709
-31.3898158642333
-26.6913710576704
-21.2346194729793
-14.8868287048871
-7.9166079971444
-0.940501444869339
5.45717138822711
11.0356081492026
15.9003676612476
20.2922278257805
24.3220305254056
27.7864085643704
30.227196780112
31.2394161283986
30.7548764084245
29.0609177436538
26.6243628645347
23.9263990795919
21.4021244076253
19.4473212721934
18.3528475282388
18.0603388602152
17.9518336286438
17.0872530520593
14.8718741401616
11.5353494077429
7.93653037407403
4.92674717793285
2.8614516214176
1.56153707915683
0.609559551181603
-0.310391371900311
-1.26666136405245
-2.15646478660253
-2.85375111884255
-3.31254701166637
-3.60991381864068
-3.89330586381744
-4.23669081107736
-4.57272061149072
-4.81963515090806
-5.03564099383278
-5.38129898602459
-5.95036731740824
-6.68481324665311
-7.43910112389975
-8.09984838704123
-8.6658239938892
-9.23766735290716
-9.9201540544173
-10.7232333352127
-11.5376667961641
-12.139426453322
-12.1905384467137
-11.3576987284706
-9.58819843156755
-7.28143838965337
-5.10369299135178
-3.57784396489609
-2.78929167416798
-2.38694266776378
-1.83400793266973
-0.732759754766345
0.997649032173209
3.18350065039943
5.57793432835375
7.99685464439423
10.3471131221153
12.5490397874261
14.4348391614324
15.7983615226375
16.6126313687625
17.1082461971603
17.4971292214918
17.654675715635
17.2111126713742
15.9368847226786
13.8948834152807
11.2111256102855
7.86757838458263
3.83324902230486
-0.666551823641283
-5.12939625906105
-9.05527131501206
-12.2226391476723
-14.7077438920687
-16.6941812565947
-18.2715778182457
-19.3514029713976
-19.7253585306662
-19.2203235411757
-17.827703064728
-15.7027735606403
-13.0885985284316
-10.2832462192876
-7.60944383026798
-5.28343739257883
-3.29481321831096
-1.4879376593594
0.240415634395322
1.86063040341959
3.25736972669335
4.28769001250405
4.86257388507512
5.02171762645608
4.8285746042509
4.17706702322736
2.91739595491111
1.28767211491723
-0.0101942594214562
-0.413829610874513
-0.111676809333688
0.130889531014727
-0.252541188098527
-1.13400790200434
-1.93866363927676
-2.22505324619385
-1.92810915236155
-1.14137762142229
0.122138880876774
1.88451290842012
4.04874738505136
6.37530572119408
8.5501784077397
10.2541739382717
11.2677711884528
11.5845909148744
11.4113428452416
11.0555482287952
10.8152393591232
10.8914240020485
11.2928293854592
11.8104820122474
12.1297769954153
11.9801318434001
11.2110515948026
9.81571106945804
7.91163493363527
5.64099619938415
3.09175212777562
0.387100751913147
-2.17753203254131
-4.22817282144054
-5.62219282232213
-6.61562931445355
-7.63470786669813
-8.85256147278318
-10.0458054632341
-10.911135415652
-11.4306014871512
-11.7989085123885
-12.0771961784027
-12.1475048571092
-12.0182818751393
-11.9288807381923
-12.0373335309487
-12.1664344851494
-11.9829601809672
-11.3344927465649
-10.3272011612084
-9.17316212391571
-8.08101299101131
-7.25085133704867
-6.82525226987357
-6.74869401764142
-6.69563833525021
-6.22687924806958
-5.0969979162285
-3.44100984403589
-1.66713273355045
-0.172121155527699
0.865832012555176
1.49943425683287
1.90403071460002
2.27007296817873
2.75793278437688
3.48615088705885
4.47477301602452
5.56819770435105
6.48865172246246
7.02934282181908
7.164374212152
6.98446931296919
6.64703731971319
6.4069528403803
6.53939803906037
7.15761444198864
8.20215442383864
9.61926760231959
11.4014790411112
13.4150538467909
15.3444001133544
16.9064971910849
18.0551066910206
18.916448920254
19.5587050068746
19.8631684970129
19.6364960531474
18.8638996044194
17.8250869138307
16.8966962458306
16.2205751579811
15.579425830002
14.5579100914431
12.7706359310714
9.99606928107399
6.27322682548725
2.0072925480028
-2.07648405930017
-5.30803257891737
-7.6124326004559
-9.71654267846772
-12.7133649424418
-17.2956642961252
-23.2845817357884
-29.7323132614961
-35.4216447103484
-39.4741465497683
-41.7476213174698
-42.7005507603424
-42.8211117026348
-42.225066517475
-40.7875890160191
-38.477420599636
-35.4493371156236
-31.908813074114
-27.9768382209666
-23.6574117687378
-18.933607862625
-13.9185460068452
-8.82294952960828
-3.68279353230846
1.77056564968742
7.79405586770978
14.1996115400317
20.3483276117753
25.5692697292403
29.5162612287618
32.1430275579124
33.4361622261791
33.2756084668966
31.6346297765262
28.9116675843263
25.9340227978285
23.4816847467922
21.7544611923673
20.3200668897421
18.5810668365584
16.2943241529038
13.702271226395
11.2669542139425
9.33950186460677
8.04349926598722
7.33425213558646
7.03237381267867
6.81833550906923
6.36507482459013
5.59391211527174
4.75161623183128
4.15082135388568
3.83265329040755
3.50875961477661
2.82679410288012
1.68706486949484
0.313711348096474
-0.956912179547447
-1.91518795566081
-2.51013325951416
-2.75413546366861
-2.71536873041015
-2.59369164751903
-2.71721503339693
-3.4210606687413
-4.88766739159794
-7.0129394197775
-9.39033807789949
-11.4973021276508
-12.9701465153269
-13.735976361376
-13.956518395889
-13.9160356440877
-13.913971301416
-14.1460125960039
-14.6188069186907
-15.1578031479865
-15.4939349363614
-15.3847391470376
-14.7157347990575
-13.506609464008
-11.8272246771218
-9.7487937114012
-7.3760321373669
-4.83276591876258
-2.16719129735108
0.629333162650421
3.42186498730281
5.82923044758396
7.4450136792995
8.17219770592207
8.29570214596069
8.22421914371726
8.17358236133155
8.08006213476365
7.76796789303461
7.14909603376765
6.28404130262978
5.36968250828206
4.72909724123043
4.70149707356961
5.40038989496291
6.56838878715701
7.70425130882261
8.33619366404126
8.25604625427644
7.64102891297635
6.95224356217425
6.56705056761728
6.45430357166625
6.25568391454137
5.64129769635979
4.51555647742612
2.96422293145872
1.11467399297953
-1.0223327388769
-3.66719988449494
-7.10740328025941
-11.2371912166841
-15.2942311033012
-18.2243954759588
-19.3782356821685
-18.850549817948
-17.2273744135381
-15.1064717982534
-12.8145424879409
-10.4253302969535
-7.9373741999602
-5.43729229106125
-3.15489000818052
-1.37629450326413
-0.233536828811316
0.466581854008476
1.14931799556919
2.15959527312197
3.56805060345351
5.25950778670452
7.0893278635575
8.90315229432533
10.4981072873386
11.6684653756372
12.3358773022959
12.6589041495163
12.9667704783458
13.4632139328532
13.9695220659828
14.0601067157404
13.4710215183157
12.3025877058913
10.8798525441996
9.55705221012137
8.61636792988542
8.18418275744646
8.20323099322884
8.5493606988961
9.17414455079505
10.1068706496413
11.3386299101128
12.6919268157517
13.7478082260209
13.9464768474678
12.9200882548315
10.8128953694426
8.19523526411164
5.54251673976053
2.74951452375339
-0.820854214497933
-5.72461554806709
-11.7667725619509
-17.9233673890942
-23.0044096744364
-26.4516806834212
-28.5310567389624
-29.8565359481506
-30.8156619240956
-31.3934287037154
-31.4030994418019
-30.7855097358283
-29.6680944940681
-28.2027031638043
-26.448726919345
-24.4158462741967
-22.1165048275203
-19.5470040294672
-16.7030143900556
-13.6494108644744
-10.5379100249102
-7.56451073279813
-4.90187872455924
-2.56646583852482
-0.323161502094755
2.15037300218525
4.97680984744533
8.07869681585244
11.416476251503
15.0021757842758
18.6609683086122
21.9948807634139
24.6553360166172
26.5392384403612
27.7070094323134
28.208128837543
27.9860977656161
26.9071406258702
24.9569882046172
22.4840717478147
20.1459035848417
18.4654375733053
17.4177856827871
16.4862237987178
15.1251807165672
13.1927849857174
10.9828460107126
8.8648591887762
6.93037864332621
5.01585377591012
2.98420920609839
0.861956611477084
-1.2696416659245
-3.39712033965698
-5.57690289239689
-7.86682221577004
-10.2282362292724
-12.4645923895109
-14.3029029516148
-15.549113625529
-16.1351305678875
-16.0975667821746
-15.6262142081377
-15.0478609495735
-14.5885350025828
-14.1553616701566
-13.4340743935671
-12.1689833108661
-10.3352133707854
-8.14160846721314
-5.89285040027944
-3.76441766902647
-1.73429996281035
0.181676062328099
1.73887899716652
2.69258772078957
3.1479757713259
3.48344153163159
3.96094825219028
4.57210834598544
5.20350332467324
5.77382980085039
6.2368522824239
6.58723858914669
6.85495803444982
7.02566732372678
7.00612597765662
6.73109180874898
6.28131806925617
5.83832162215111
5.50070070156545
5.17097554363928
4.66143157547079
3.87971278951357
2.8209858604269
1.39057708692248
-0.613603746997428
-3.24772345603869
-6.20348793050218
-8.89982103601574
-10.8044999823244
-11.7328403876646
-11.9131330150956
-11.7448237819094
-11.4659347884864
-11.1016599851915
-10.6991431967768
-10.4354337890174
-10.4190732967848
-10.4985253900501
-10.3496856293663
-9.73108432107938
-8.67763414880727
-7.50027496164194
-6.53694758016725
-5.81220634042402
-4.99685084785511
-3.79559830815557
-2.30541872777068
-0.895368244159951
0.182394420680428
0.964584864963945
1.66597276825693
2.51791641104947
3.64370474148689
4.97660734902318
6.30540442719493
7.44240363913089
8.35296077585625
9.138790963508
9.92096673428945
10.7323889041078
11.4995889481165
12.1070052028657
12.4852728421851
12.7031886582672
13.0081722884057
13.6589958196224
14.5889626352028
15.323934713267
15.4159055170851
14.9368198852958
14.4028805777108
14.2391463151871
14.447925618177
14.7741766603093
15.058869150248
15.392451231963
15.9718406920214
16.856053110194
17.9261431226904
19.0984599389136
20.4062894994115
21.6239563968433
21.7833248305357
19.3371457314304
13.1571794362006
3.58087190602383
-7.51501831879627
-17.7971275233197
-25.8151702126191
-31.4911590189126
-35.5482907212401
-38.6582472885301
-41.0669452293719
-42.7026607766124
-43.3984359501002
-43.0821628326144
-41.9063148301569
-40.1897225582736
-38.1840706472217
-35.9227128236854
-33.2941687162712
-30.2008655668215
-26.6470128566527
-22.7350084547347
-18.6024550214085
-14.3662333268091
-10.1351578587849
-6.0335016098607
-2.16298129219736
1.42078115710839
4.67617585056607
7.62215148422535
10.4616680260528
13.5294878313086
17.0117255375861
20.7413511663025
24.2588688680868
27.0095033203532
28.5524571627958
28.7570496639654
27.8677165103774
26.3426998757418
24.6284978608163
23.0740363085376
21.912058737151
21.1642565398271
20.5883878915626
19.8375920692717
18.7128760049416
17.2763094476107
15.7760793648502
14.4492570678385
13.3094169024062
12.1227674486516
10.6490595084046
8.87571208569569
6.9760842974042
5.11648453176369
3.36991877058101
1.74952452671414
0.247379932454912
-1.16250408705936
-2.56460216197925
-4.13058054927427
-6.00246487532226
-8.08698486271349
-10.0634218021728
-11.6685411359706
-12.8900645250562
-13.8290447014034
-14.4858099297201
-14.7846145911342
-14.7671384594237
-14.6622564730904
-14.6958432373219
-14.8223151351195
-14.7193805553585
-14.1193172638323
-13.092553713096
-11.9354352128601
-10.8585572686073
-9.87202772998632
-8.85553348978376
-7.58418793411766
-5.78568758589178
-3.38263032954114
-0.662933220692799
1.93983035599236
4.21322505550837
6.19783473322116
7.91314553435947
9.21614106152201
9.95445153222968
10.1475468759136
9.94922474253895
9.47267768311557
8.73204979640313
7.7730504598915
6.77634073189458
5.93832766530804
5.25864629730973
4.51007826632826
3.4337996514567
1.9577515786767
0.254368069151047
-1.3907265126435
-2.77377166354565
-3.8429978602779
-4.62206129186694
-5.17505613788471
-5.65783920710317
-6.24197194528704
-6.89877577026227
-7.37761026781947
-7.47935198537877
-7.25661638052392
-6.89360238925433
-6.48916706397848
-6.0168462728629
-5.43224336127466
-4.76394302609024
-4.09994954177036
-3.48173972142544
-2.83096384503685
-2.04143290665891
-1.13209224138747
-0.208408192515864
0.725895505371311
1.78067596171669
2.97738468813243
4.17008234612001
5.19629593564422
5.98581397766199
6.51455662999071
6.78761655549063
6.89630559151732
6.97625950145942
7.04648116713016
6.93880986914161
6.45134094809832
5.59298304242715
4.63929888379613
3.88087933344165
3.32206655610729
2.72008310716253
1.95181518350426
1.24410108861038
0.960934335427877
1.19398578970251
1.60981616083471
1.70250037042131
1.21093232317094
0.315886737867988
-0.57223820548688
-1.20634351000856
-1.65231575488943
-2.08436723432395
-2.52904890018941
-2.84909824813378
-2.93257082712647
-2.84199320503043
-2.73235992777503
-2.58774135602845
-2.08223143754593
-0.827795966347399
1.17441494588961
3.39632968661182
5.15208397799197
6.07042476525343
6.23310695385274
6.00863343979299
5.81712865049444
5.90833873290177
6.20602028729654
6.35215786429745
5.95155575951432
4.83233556060424
3.16789610187825
1.39474482834105
-0.0927662423466716
-1.2949268029029
-2.62175324756446
-4.42979203235513
-6.53150077325351
-8.27726999438625
-9.1778672139769
-9.36625199330141
-9.37451776386318
-9.52676945909557
-9.6727665587523
-9.49988124979805
-8.95551449585718
-8.28324411312973
-7.71321957163025
-7.19186025495384
-6.41766973959034
-5.15189528471255
-3.51189991609561
-1.90215811732189
-0.594100472548343
0.561320355982298
1.90486608707364
3.50539769972219
5.05903420771525
6.24220002712549
7.00929420585722
7.46025389575068
7.51821573018966
6.90265189907073
5.4755191737478
3.50851246920552
1.47337893480962
-0.391062056181943
-2.12934614708313
-3.6908791564967
-4.73891210832977
-4.97065975914266
-4.50345515740879
-3.82559020842854
-3.40934697728037
-3.39524971694096
-3.55897343426223
-3.52179102287421
-3.04219233133896
-2.17946533049162
-1.22282094729482
-0.471897720208298
-0.0245929598424834
0.300306689855271
0.818125644532049
1.69841410976441
2.83328687008773
3.96579479498872
4.84208989832398
5.23384139398657
5.00907572240172
4.31973767170718
3.61911509199774
3.35335777280545
3.62488309774996
4.16795382885183
4.60572872276727
4.71971908671209
4.51794107349074
4.08670530401068
3.44562574980973
2.63588330886632
1.89770930736742
1.55853008467416
1.67179480153853
1.91853631458783
1.96247767759073
1.79519341816956
1.65238981428953
1.69120132787819
1.85746892423832
2.03037859201231
2.1822599278988
2.3390320235962
2.44292148601023
2.37090911220443
2.10745489970571
1.78538490444183
1.50096719685626
1.19130219426743
0.762231921079407
0.240352347694914
-0.283906002299415
-0.793571256426584
-1.35003023674588
-2.00033621095533
-2.73346798034913
-3.51327529751461
-4.31351691190243
-5.09549656937735
-5.76633848586987
-6.22724922977575
-6.50897412312763
-6.80815693205826
-7.31337278244557
-7.99307401351325
-8.5865653429932
-8.80214670169715
-8.5279032532193
-7.88684147980123
-7.09645945161032
-6.24186678575245
-5.19478729159331
-3.80944830183694
-2.1917313355697
-0.705404913028273
0.31236289393931
0.82741931418594
1.12465924819775
1.55319655088268
2.19695918684792
2.7942121973282
3.05696181737361
3.05067305364823
3.14657578172842
3.61284693302238
4.38038503226808
5.2026550207522
5.90299875846508
6.43546476596762
6.80963000838006
7.00941738352455
6.97023753052835
6.65298979338537
6.14084328349888
5.59164571128067
5.06989245680978
4.50048997162408
3.81645293370043
3.06710040915069
2.32050270524279
1.51441139959564
0.485622504803308
-0.842486661363585
-2.33931972031037
-3.74351319656494
-4.83296790830251
-5.5189576770188
-5.83310883920559
-5.8859664397864
-5.82939282609911
-5.78716757925291
-5.75919492153322
-5.57473536019474
-4.96294410996972
-3.74702966714657
-2.06166712347744
-0.375737531535174
0.80092512772416
1.29012107135898
1.30860702928384
1.188887226442
1.10484765605499
1.04422138382727
0.943032372634652
0.810748479400221
0.76515653964026
0.949936712488683
1.38967458240977
1.94220652230608
2.42260389281572
2.74735240183753
2.92732762565598
2.96390510997262
2.82501281065013
2.54065671192004
2.27742778459193
2.24745828883468
2.48585851719771
2.71836580912149
2.50247757830529
1.55101281885129
-0.0534140813106415
-1.93738157975635
-3.71331495517813
-5.18951635370703
-6.33534795323294
-7.08601397669836
-7.25193991692373
-6.67141335005234
-5.42708224065788
-3.84206353639714
-2.24730358848091
-0.793234862653748
0.523330409037715
1.72823467272458
2.79844438028132
3.68154181365048
4.36300445612799
4.90497201385027
5.38057507067103
5.76736735150344
5.96374908241335
5.91602907560035
5.66777018992902
5.29771854685419
4.89096640964504
4.54943948780755
4.32068014222456
4.10566739110524
3.72377999975168
3.0895666890033
2.28222102748289
1.45780090667266
0.749372294234837
0.23742256649026
-0.0667459706962137
-0.274744678324756
-0.652708112549742
-1.51913856664423
-3.00969796847267
-4.91071747584634
-6.7734190807498
-8.23441404222186
-9.22664350138614
-9.90032269433615
-10.3922496280618
-10.6842467299852
-10.6425042109869
-10.1618185734464
-9.2761646755462
-8.1501110551447
-6.98876942996161
-5.94455283016071
-5.02645686015835
-4.0456148931911
-2.73992466473656
-1.06542814583922
0.672363284010849
2.06455319461563
2.95068424405907
3.48209188467178
3.90840421593126
4.38321706761326
4.93990305949831
5.56710291629424
6.26505349855062
7.02199155050447
7.7637406425092
8.39721158046111
8.92450942164518
9.42705320189364
9.87262614072704
10.008126680429
9.53760451528537
8.40482007898357
6.8680968672979
5.30865688548789
3.97222387588708
2.86866468508336
1.89012946333644
0.98650217698737
0.182875818354729
-0.549570326938567
-1.34100706476005
-2.2841470974817
-3.2863256931982
-4.1101254493318
-4.56216314186176
-4.63952284128946
-4.5144873820239
-4.38941590000168
-4.3591012150186
-4.3978794180145
-4.43789615143141
-4.42497702808808
-4.34448454540036
-4.26004573235875
-4.29565812586877
-4.51144371523043
-4.81435022515681
-5.03006068258686
-5.03514823589807
-4.8107713461889
-4.42919622514143
-3.99870779812908
-3.54176445432067
-2.89813818970038
-1.823809695621
-0.247321237756382
1.58239655751512
3.2236508495254
4.32730226553888
4.82357023551497
4.86276402680562
4.61472827354489
4.17619688639471
3.65512194393396
3.22615670398978
3.01866671164039
2.98941586055921
2.95595840108368
2.73303719126666
2.22803322733068
1.46145707661243
0.542293874743503
-0.380742564454755
-1.15951623807885
-1.66313568452664
-1.80690427151743
-1.5936234882637
-1.10047610818551
-0.425730147706514
0.296123426345788
0.842498621249112
0.989057807819416
0.710751689456
0.238449549628011
-0.110894111411731
-0.116449730758857
0.294759390823118
1.04675715673658
1.91823507473305
2.63159931218478
3.02650656230637
3.16582769755647
3.25578608692867
3.44324635413478
3.67798540951277
3.75936979446783
3.49160827368286
2.79704304838094
1.7538765595981
0.583353410142494
-0.45814856189587
-1.254676197282
-1.87351848411707
-2.40101486542982
-2.81903920619697
-3.11693001383698
-3.43626863445152
-3.96233143956307
-4.66005459007677
-5.21240309459397
-5.28011977295695
-4.8074228883145
-4.05133377092966
-3.33680958506052
-2.82558487325536
-2.50970730600909
-2.34027580016156
-2.29064457490528
-2.33930833177897
-2.48314268816624
-2.75197986084404
-3.11478587205419
-3.36237585931083
-3.1735872960265
-2.36670909196583
-1.10729872084236
0.130719360876986
0.86565724241962
0.968062075897442
0.758845790390892
0.717748570635932
1.06975049399405
1.63219470207191
2.01350881281846
1.95257942487288
1.52519001438338
1.04911186010209
0.762203678868543
0.607098979414216
0.370287355396912
-0.0105429648106369
-0.353096058374476
-0.415764053548204
-0.0933674797125002
0.57415226906178
1.52107177355534
2.72668759963683
4.1437152725786
5.60207788312727
6.89724982447278
8.00916444582531
9.10834138280443
10.2380944552286
11.0677389850416
11.0955661783641
10.1134473945957
8.43745117181645
6.70747517766735
5.46223237759876
4.80853158860001
4.41197633401119
3.80707884904107
2.7385057570534
1.24200022790291
-0.493427538981385
-2.2512996801921
-3.82854725465571
-5.06743719809797
-5.9148734489035
-6.48132083831361
-7.02834831399725
-7.81207726141407
-8.87747703847344
-10.0471885143939
-11.1371113592371
-12.1132255027409
-13.0012105834753
-13.7049730071145
-13.9617462627079
-13.4881490962075
-12.2300495832131
-10.5092983676978
-8.8603381553303
-7.66391416859648
-6.93876537705827
-6.40528418317926
-5.63096487230287
-4.20846183950536
-2.03529386283895
0.520625332935309
2.85153252355635
4.54467213345063
5.58840686829734
6.28989689012482
7.10052433758041
8.35569572102893
9.95671722071015
11.3486543814056
11.978230453778
11.7731375069154
11.1117920698503
10.4114449243156
9.84190600422881
9.36105602840414
8.8901250729858
8.41521881511383
7.95183579040425
7.46491053890959
6.88149476245187
6.17966036398573
5.39787425413999
4.53002380788876
3.45737364942755
2.02858294310944
0.225452488510366
-1.74131059341867
-3.52261687825198
-4.85269000529731
-5.68334592554876
-6.11887451542066
-6.29920673050701
-6.36500709933555
-6.42368084077562
-6.46872495206012
-6.3786234712832
-6.03194390396634
-5.40867928821903
-4.62146992325885
-3.88582289854561
-3.35687695104658
-2.89726441559277
-2.11951662091723
-0.827539356250299
0.623153584781708
1.55171445266986
1.54360415595239
0.751512749651802
-0.324015034264098
-1.23563050688321
-1.80750496874657
-2.08588665667549
-2.14589472737933
-1.97989783384429
-1.59052019997784
-1.11731153518844
-0.760963217830624
-0.585803787684484
-0.477785141341452
-0.306996516432499
-0.0747838882285937
0.117882128521261
0.207846176771593
0.229372323646239
0.231599141436332
0.192022089050575
0.0673279227924866
-0.108834578149858
-0.262521999255301
-0.395849266071697
-0.573957203139534
-0.793209916664189
-0.946170535235153
-0.938985259438273
-0.790690336834915
-0.590619345309998
-0.372097901062388
-0.0469150589519385
0.510950860150518
1.31123537437736
2.21140707476006
3.04147858292035
3.70689736914016
4.14802265712078
4.28721786366208
4.09831137203159
3.68744278804475
3.23367157351929
2.8724315491047
2.67280320265743
2.66175502064437
2.79098103729685
2.90630300796306
2.81665897523305
2.4197434899774
1.77801723641079
1.08444839696293
0.52484218049201
0.143292286784271
-0.153249233113601
-0.467774985853932
-0.817889651884682
-1.15258572912472
-1.4312317405277
-1.69209520351394
-2.04778165712764
-2.58019186564547
-3.22670400917835
-3.79317390528733
-4.0837053358119
-4.02532501205031
-3.72086410714226
-3.40006144440524
-3.24847995897645
-3.24562893197539
-3.21865791013319
-3.04601572027376
-2.71750455603341
-2.20595045502654
-1.42197249309813
-0.363799515809878
0.763188926185023
1.64682445150241
2.08556282868728
2.10913189792406
1.91778808631384
1.71795634105072
1.60711323322503
1.59019198893183
1.64148835974876
1.7044645429764
1.69387454479424
1.58243320752284
1.44930961579669
1.37850759194602
1.3601663502935
1.34264863774114
1.30410470277063
1.2176749090669
1.03279570412828
0.750320969570913
0.441525660731641
0.147572635980573
-0.170392032240689
-0.54301720280056
-0.913193415360434
-1.18645504625544
-1.33830902222362
-1.44606484966923
-1.60507032692432
-1.80755616645553
-1.91772429146879
-1.78702103680663
-1.38637655404867
-0.814064010541277
-0.198757740257073
0.374896867555801
0.854890972670346
1.177790570411
1.28086947434701
1.18160656587878
1.01811261126496
0.950764721969022
1.00350045190758
1.04058407584132
0.92133021512345
0.643478993273103
0.318108153913296
0.0521730854990677
-0.111092693444655
-0.179245311785494
-0.187653094070331
-0.179870565246334
-0.181954070746902
-0.185968923855431
-0.161277575512785
-0.097106934294491
-0.0408284406308701
-0.0627868909775368
-0.163940846067117
-0.265883712761577
-0.324761426315286
-0.392205917354104
-0.515356086550547
-0.652442444711373
-0.759044101458724
-0.88355245304233
-1.08206779024329
-1.28625891640436
-1.34651119208742
-1.18796607881587
-0.867340416876347
-0.493294829362346
-0.129250018879858
0.233712367772481
0.624380078218546
1.01444531462344
1.31023099931721
1.43127656872376
1.37051396246756
1.15989217067795
0.815717502018927
0.362657279816431
-0.105122887704828
-0.441840359296349
-0.559037183223952
-0.511411399616524
-0.455701074614128
-0.50757999286645
-0.640719071772398
-0.738456357494021
-0.726950671281157
-0.626802917166326
-0.494103743266606
-0.360500836121937
-0.233371380053719
-0.123218391731953
-0.0576993067434393
-0.0553486279590816
-0.0699215107556468
0.0053566843635587
0.231468674636452
0.54806519241795
0.845684359121999
1.07195582930605
1.2276483233396
1.32629916842532
1.41903239237811
1.59820426486548
1.91429004112919
2.32733769799078
2.75937192449681
3.13509352422592
3.36979734285029
3.39806149275777
3.22151736226616
2.85856823183418
2.2621720332229
1.37816982749399
0.28559110860225
-0.809658920845454
-1.74304921609925
-2.49278995170531
-3.10226026545733
-3.57014387858634
-3.85553943100588
-3.94679146801559
-3.87535746836818
-3.67946482292376
-3.40217688193045
-3.120229235693
-2.91770853845448
-2.81242046101668
-2.74793233812974
-2.65993548805718
-2.49879835316533
-2.20494006761472
-1.75568007569713
-1.24256874519813
-0.807507191942417
-0.485130595234771
-0.184534829061814
0.177811983453195
0.612678123883358
1.1145688721201
1.68630287789797
2.29545743696409
2.87242509380812
3.35360117954604
3.68930221583454
3.8458118200004
3.85050975868981
3.79406381865425
3.73490450388133
3.63447299018049
3.42183191035962
3.07891667212398
2.62620235909415
2.0637382146701
1.36622967427035
0.51985085692311
-0.453515425780225
-1.48360020646631
-2.44021679616919
-3.15858533335814
-3.52297907308797
-3.54739188623887
-3.36733754514127
-3.14687457035525
-2.99166853407516
-2.92179275131053
-2.87757248587542
-2.75277692530707
-2.4846185948459
-2.12951797199467
-1.79730609422337
-1.50983896616474
-1.19767355268556
-0.835894411876814
-0.494695578915135
-0.245169610266516
-0.091468874512592
0.0081914080990042
0.133265367141556
0.402579604063925
0.897017792618726
1.57016331741705
2.2804173931171
2.89105533628517
3.3083086833299
3.48970615144984
3.49150624372546
3.46182304148209
3.50272012014538
3.55091437719191
3.44342949605531
3.07788856820074
2.46713234184861
1.67553414054372
0.77466247583721
-0.14047413373213
-0.957646142620941
-1.60009571479738
-2.04823927970116
-2.30610085676751
-2.38917704424238
-2.35859040159026
-2.31155221062924
-2.29303045822842
-2.25151938426777
-2.12666714087181
-1.94380115325054
-1.76810128467369
-1.60225760818153
-1.39140344926633
-1.09789944823681
-0.714001937560373
-0.234720866878755
0.326275632187801
0.922803277971726
1.521422797733
2.13462656991338
2.78545682909871
3.47412681183696
4.19609128599635
4.95237961213839
5.71736989533692
6.41072348990503
6.89961610768362
7.02242175553593
6.65088769139819
5.77513204980377
4.51548781782459
3.02396052196651
1.38836423409555
-0.35682850387955
-2.16218110418331
-3.93354100418148
-5.54640207535256
-6.87346045077055
-7.83765079632931
-8.47695569896111
-8.93107492568484
-9.31593353742496
-9.61220882509654
-9.70207199107799
-9.49906236371847
-9.01190532920833
-8.31345360325211
-7.51022648318439
-6.71992169094418
-5.98212331777377
-5.18115890377292
-4.1617903151364
-2.9545991587193
-1.78754974454081
-0.832121045013275
-0.028104071830409
0.799977113179066
1.73774297062764
2.73610410113196
3.7066197642977
4.62093452301541
5.54122226402609
6.5516643943126
7.63714250264566
8.65794084855243
9.47302064002664
10.0440259733946
10.380820284321
10.4380990454434
10.1291464616721
9.43204921829486
8.45013257679762
7.35851395665632
6.2793321962204
5.20048352969002
4.02880919053536
2.71567679119771
1.29732440937398
-0.172751962965845
-1.65784806306597
-3.07290365656326
-4.2380967706971
-4.96114343140525
-5.18145814500838
-5.02553088489615
-4.72214409036384
-4.45962723405791
-4.29790527256162
-4.18226130324468
-4.02659468517357
-3.80152817500368
-3.56628760648068
-3.40433866784179
-3.30347054790992
-3.12325648578376
-2.72853039147518
-2.14234407373738
-1.52422200955051
-1.02084383829914
-0.681300996936534
-0.470777843759867
-0.291083020455207
-0.0178356107327448
0.404508485655538
0.912480516099926
1.40546121492925
1.83248701071336
2.15392934879945
2.29096767374337
2.20382811738807
1.98604022782036
1.79779540214399
1.71061842890732
1.66529904870862
1.56113040208426
1.33127684743434
0.949483118132104
0.438010155131687
-0.113452896256411
-0.594392489762656
-0.970500557945951
-1.29842472939065
-1.62027060937927
-1.88395692198895
-2.00960509429971
-2.00574230109679
-1.95875947027179
-1.9132736317967
-1.83624901986351
-1.71853429937221
-1.62993017694332
-1.6182968363269
-1.6147719038639
-1.51172257917395
-1.31085720494749
-1.13277514126028
-1.07582957453794
-1.10602444590484
-1.11008258715191
-1.0361230276016
-0.936185118305992
-0.862631923828624
-0.779036351478206
-0.610496621621504
-0.337860116894602
-0.0021997960556891
0.344526335852651
0.655935499068622
0.892769344141297
1.04146924464199
1.11649026921321
1.13841376416329
1.128755089222
1.12840090889354
1.21380298051934
1.49151427978099
2.04423742511532
2.83729295743343
3.6874921661636
4.37098424201998
4.77173902020925
4.91152494546859
4.86904810972128
4.72372242814716
4.55685596448405
4.42547491436699
4.30642284377407
4.11122653160314
3.78194559122932
3.34804793909696
2.86687337474746
2.30740025946743
1.50421035843191
0.263722937235284
-1.43608096668471
-3.34117247503691
-5.03946230449629
-6.207844574041
-6.77959351968926
-6.9189945184991
-6.85038494073662
-6.69125832458321
-6.42979291758877
-6.03183926127268
-5.51391272962677
-4.90170417176323
-4.1842418340568
-3.35810067274919
-2.49059242070391
-1.70530912921459
-1.10199533699476
-0.685073836836532
-0.374872146865513
-0.117671658733509
0.0246379659042484
-0.0501518158904714
-0.324128918822476
-0.655021359462081
-0.950512205139156
-1.25269209584779
-1.58827517168876
-1.80491080161202
-1.64797550642637
-0.994446195535269
0.0399151252852874
1.22438189120069
2.39867349480416
3.50346103136149
4.44699080542195
5.03085765568053
5.10336850355215
4.77841358331742
4.41139246229905
4.31028687217016
4.48019918250012
4.64931759660781
4.54921389237517
4.21311759999495
4.00794452397706
4.31471921915871
5.15137044516633
6.14621340536269
6.8727576544799
7.13561128032047
6.92039694568874
6.18859009584427
4.87506345788552
3.12154467765516
1.37870250647726
0.0991229477347053
-0.69081893332861
-1.38064908171159
-2.30569435716459
-3.43254542155092
-4.56795663870582
-5.69605558019236
-6.93601998148226
-8.23733968612267
-9.28999703649286
-9.77998901134716
-9.66984192368538
-9.20066898522867
-8.65736399519976
-8.16567582476062
-7.69414415656108
-7.17939830961456
-6.59951322935106
-5.95985950020456
-5.26349054658056
-4.4840685637905
-3.54653929109589
-2.38242995822001
-1.03655695391008
0.337162799571871
1.61633545073333
2.77941443847307
3.7972033296636
4.52450539508514
4.77162595767287
4.48659871515531
3.84785911517669
3.15984107124208
2.63461352268903
2.27513883054542
1.97486887755164
1.6781266701566
1.39447105542099
1.11984673906192
0.84326960596649
0.622225387592571
0.584786144212023
0.84814507504657
1.44366655689664
2.29383068629983
3.25086905884662
4.17188030699141
4.9491778418064
5.48599002491712
5.72452009231108
5.72541733304154
5.6267223488945
5.46522701738644
5.11920048815851
4.49627227176629
3.70036395917448
2.9243147956058
2.22945434785534
1.52240714885789
0.733675672036068
-0.0515551134481172
-0.662020577593678
-1.02179348906195
-1.23704000320335
-1.47975402579877
-1.80828135103355
-2.15202941431487
-2.45091550833194
-2.7292993248968
-3.02513984870024
-3.31953803786854
-3.5658777284333
-3.75391300451966
-3.92916150072913
-4.15691317881719
-4.45650255246038
-4.76471501668563
-4.97658496338794
-5.01775245176928
-4.87430232282378
-4.59305743914824
-4.27667908912657
-4.0281405069263
-3.85585109716924
-3.65468687251164
-3.29460732937701
-2.71031901835967
-1.92365896857741
-1.01240121574625
-0.030336918110228
1.06575698369034
2.3454835244481
3.70953330605811
4.83695481066313
5.41457596863772
5.39257381553833
4.97453058010254
4.42471244830606
3.93635109752172
3.59090744997932
3.33949935823209
3.06120776580144
2.70989627681558
2.37814402581292
2.17880144239224
2.1035736948855
2.04739931071611
1.95267448996291
1.87229859717052
1.8705530483237
1.90563292973532
1.85440051225647
1.62223426074903
1.17812587877192
0.529249016205479
-0.242725919937989
-0.932396811479174
-1.29994512337622
-1.2521268678652
-0.913185739083088
-0.52448591822266
-0.288765028199525
-0.281302263811269
-0.479930756208117
-0.85614614357365
-1.37761286584388
-1.90985263883903
-2.23900742276359
-2.30304273074709
-2.32952761623902
-2.61681650693587
-3.19952013425462
-3.82455020989008
-4.23752467943434
-4.41170233193855
-4.51632287460236
-4.72714172380516
-5.03597782343991
-5.18844481725661
-4.85755058929624
-3.94962811456938
-2.72521413671974
-1.60096616735667
-0.859429751142921
-0.51877235852894
-0.384392253448548
-0.195523326833058
0.2147895087986
0.840720006322801
1.54710997182947
2.16286387900872
2.5433984889416
2.60334420661237
2.34383437050165
1.86568458321941
1.34761597113031
0.97918855221394
0.872855775643738
1.02213230280779
1.336439655551
1.69425673721814
1.96947084967583
2.06997797396814
2.00406446858231
1.90490091192635
1.96485420296218
2.31739296227795
2.94711264587584
3.71014734624503
4.46893419796004
5.1956416112743
5.9076194989546
6.5365834155143
6.94437136936686
7.07025517991518
6.98934118779566
6.81524027993513
6.61272848435645
6.40917903388481
6.20404463850187
5.93901103955113
5.53202170115626
4.97785633552526
4.37643030796001
3.84923119435477
3.44076064843998
3.05748784161932
2.45434513418463
1.33024797269454
-0.475979664059081
-2.86728844923206
-5.57496025949241
-8.32310330460587
-10.8778370559096
-13.0038709645278
-14.4969361850254
-15.3189662773006
-15.660010457179
-15.7969415960891
-15.8739455634572
-15.8427925706672
-15.5953783263782
-15.0920706396507
-14.3615912936775
-13.4442050324838
-12.3521126012977
-11.042921870481
-9.44214718207237
-7.54020920691113
-5.44735338014199
-3.31193859901035
-1.22772202879558
0.735110826522663
2.48480253802007
3.9842206765527
5.32503762529763
6.63340322731062
7.9139312736005
9.0400535423152
9.8822643105016
10.4231878558627
10.7808327354766
11.1295852880708
11.5504491705505
11.9397834756844
12.09602376906
11.9058386967843
11.4280493723739
10.8035761617503
10.1228093629535
9.41650490317718
8.76672486433487
8.34998242083475
8.292731021609
8.50744929029548
8.75612149941607
8.87428908819915
8.85604959402774
8.72995391613837
8.46180208344756
8.02378867090344
7.48850434772488
6.98254219176705
6.5354275016376
5.99575601907403
5.12871471683379
3.81194837838118
2.11782164424645
0.202186148699491
-1.84449575723149
-4.01810024491056
-6.31479326160081
-8.65518913632728
-10.8929095922695
-12.9170700921009
-14.7645631341085
-16.5829598083591
-18.4179405069861
-20.0531450538267
-21.1176656527622
-21.3624228066847
-20.8283613234646
-19.783575446362
-18.5199493124868
-17.1730964965791
-15.7040962400119
-14.0484058931021
-12.2446228879586
-10.3749787601222
-8.42698244740119
-6.30851276730632
-4.005043616911
-1.64830254397471
0.598684195955521
2.68776185461896
4.68475336523958
6.61090335088081
8.30236987179013
9.50054990736321
10.1340738404219
10.4437753244793
10.7442739768585
11.1156477391093
11.4217068928514
11.5752053163979
11.6560082091762
11.7658269565579
11.8725104429523
11.8453540830757
11.5968336567806
11.1439693478673
10.5370923186823
9.75778017872341
8.71860662468927
7.40010894356264
5.99814298643059
4.87801392134079
4.28891205578567
4.08543778579225
3.78781594094782
2.99402125801462
1.73728438898282
0.405606945817781
-0.652876085823291
-1.37926113968291
-1.91898837115079
-2.42736878061707
-2.97800495817538
-3.55560542692416
-4.08462365070045
-4.49432383928959
-4.75294201854669
-4.82194520656389
-4.63952350740529
-4.20978587688126
-3.65212509598673
-3.08892335137268
-2.52605476090003
-1.91838606381339
-1.33225981108456
-0.969396538803168
-0.994815034988042
-1.35089022971185
-1.77515779385827
-2.0292362117119
-2.09128702569287
-2.09719811194489
-2.14117508076174
-2.21029258662349
-2.29441022617608
-2.46014881583143
-2.77119198172396
-3.18112924479674
-3.55310451772778
-3.78416667797182
-3.89506363273011
-3.99947093663573
-4.19218176186977
-4.46280818568262
-4.69644603300633
-4.7365319766459
-4.46962004323327
-3.90882878982219
-3.21031246021489
-2.56474627839176
-2.05596089264769
-1.64251852546507
-1.2433780385738
-0.789896715150052
-0.242258543590525
0.348884441282945
0.814775523835392
1.00907628148084
1.00355237309317
1.07622936956081
1.46837545365108
2.17416923568991
2.97305856403247
3.63928615901185
4.10039665242259
4.40242061251796
4.57206022158748
4.58053027505462
4.44155308787723
4.25955717282419
4.12642698147095
4.01092350150052
3.80247505379926
3.45493747339056
3.05131892166238
2.72061028403994
2.51858995607983
2.41586480922851
2.38517554258187
2.44569830821422
2.60100678656095
2.79275653684645
2.9791234001633
3.21910531940614
3.58547681245906
4.00242298028154
4.27494372663362
4.31335335440853
4.25233318732675
4.3009419904744
4.51718208402463
4.77086945254368
4.90687061612956
4.90239046101989
4.85951016007908
4.88669373325373
5.01338743740402
5.15292278093373
5.04987627204703
4.29262390856052
2.52966392656691
-0.235774614737417
-3.59301442923125
-6.98293516368118
-9.98876544861031
-12.4133666009382
-14.1860805208496
-15.2873904262684
-15.7857803526336
-15.8950464687537
-15.8937309483688
-15.9265925903121
-15.9107577329876
-15.6625622608047
-15.0824999469605
-14.2007105827935
-13.0899574795454
-11.7674365665418
-10.162084964066
-8.1716815094868
-5.78387179001988
-3.15440908190096
-0.543452016302119
1.8422881914999
3.94807039586566
5.82180130939925
7.46241670098994
8.70607948828687
9.30501474434978
9.19403084562972
8.67652439567381
8.27131966982323
8.34491312843955
8.89786886774599
9.64232546478633
10.2085852293537
10.3388642142365
10.0193343698521
9.45973048625283
8.90112521983958
8.44118943422461
8.04195718516368
7.63644337195589
7.18590951351131
6.68138539738603
6.13136990526509
5.54345003251669
4.92897113834686
4.33021592106734
3.7923104462491
3.2857335601113
2.71694531749001
2.04663150061765
1.34054069932429
0.674332007218567
0.0436373836983165
-0.594733815351067
-1.2298981384151
-1.7851805524568
-2.19632841331835
-2.48740510900599
-2.75971925027969
-3.09549759347067
-3.47723722034517
-3.81783112316706
-4.06000300522105
-4.21678793638015
-4.31464821533284
-4.32547825423087
-4.17252830580035
-3.81388462753413
-3.33054926908538
-2.90781071233899
-2.68149450081059
-2.59815694859031
-2.45801429189331
-2.10218429388377
-1.56979066267638
-1.12249265131736
-1.11311553877104
-1.73225132833691
-2.82363965412043
-3.9921149595754
-4.91729226503398
-5.52978973642115
-5.92154029778653
-6.19246240485846
-6.38888982537786
-6.48072637385035
-6.35146110121706
-5.88148894004242
-5.1007229773323
-4.23240444407968
-3.53870400650927
-3.11826158974389
-2.86675696671737
-2.61410684278854
-2.26382968447353
-1.80843262444225
-1.27071342969722
-0.679144479473278
-0.0882930089734658
0.426398760139886
0.828340413970647
1.17918191866502
1.62664343594494
2.30128647458921
3.18713092948164
4.0951442698062
4.79991808028687
5.21472196313016
5.42507692213159
5.57744701920185
5.76528994617238
5.98547642940085
6.14175775700769
6.09828964301675
5.78795506476421
5.2927707483591
4.81268068475899
4.55284408146261
4.60933653738874
4.90653219547579
5.24161983769286
5.44213145197576
5.49645425213694
5.50920768348523
5.55004468149544
5.58959891303898
5.56666753263843
5.46421728738269
5.31047957938082
5.13966827954226
4.97155868377139
4.81736048737421
4.68223698918467
4.5488241213088
4.36811349484577
4.0977067106594
3.77317382630507
3.52353895651327
3.4543081364618
3.44706167173024
3.06114218534775
1.72828916134472
-0.798526199104522
-4.12686254350455
-7.43322797798251
-10.0589825409653
-11.8915659408863
-13.2118509656096
-14.3141201450015
-15.3118601795213
-16.1673553628861
-16.7796594170745
-17.0573230492435
-16.9632091734098
-16.5066800906971
-15.7089527765596
-14.5995854823395
-13.2353388823009
-11.6910276813534
-10.0178517457786
-8.20649652403287
-6.19637459973812
-3.95077828464168
-1.54819984506303
0.803875003170991
2.85113132779556
4.40571117286003
5.44366742086052
6.14026129594819
6.76183258742295
7.45369266481287
8.14747872143867
8.70750114121136
9.12319137163724
9.5023010146167
9.89494638221237
10.1758628233567
10.1258730598547
9.65098224451491
8.93082248750086
8.30239465778583
7.94219435519288
7.68912864223948
7.2246839996545
6.3890265842195
5.28509192492599
4.14718331166382
3.17887380972013
2.46219847313877
1.94055036232818
1.49244419874107
1.04409365531026
0.599343044255112
0.183036105231461
-0.191350083146209
-0.504937397612022
-0.733381565884742
-0.866161405883
-0.90162686330424
-0.836450390014887
-0.690859803974247
-0.545819365512746
-0.527103857261544
-0.712235721059347
-1.03307749650019
-1.29801445100988
-1.34159136755734
-1.1403359148931
-0.781663890638997
-0.370412523818877
0.0197207703151058
0.366124243483288
0.6983868333479
1.0282988401886
1.26325663577058
1.24686246508617
0.893590318412852
0.222044346508795
-0.726276529482344
-1.88828337609398
-3.08506012560708
-4.05527836339545
-4.65840451252286
-4.98714734948103
-5.23692639169744
-5.50895723967558
-5.76441629549855
-5.92277031698342
-5.96193240236991
-5.92946548464761
-5.88221571046883
-5.8323114479755
-5.75008046457015
-5.59905187201464
-5.35332492590393
-4.98658369563279
-4.45552741784393
-3.71138256821315
-2.75910223948424
-1.71224072517457
-0.745587226068633
0.0390474888665979
0.676801253066682
1.25962204571722
1.83408722495094
2.38980095324298
2.89502550171037
3.31779661009231
3.64807812205244
3.91719253350647
4.17845598121711
4.47887045364058
4.86785387160114
5.39024355463526
6.00752719800508
6.53883060156027
6.74348606348711
6.48614121359259
5.81861408716782
4.93244682147549
4.06124708318162
3.39285285695868
3.01013378542119
2.88425092510865
2.92465004858769
3.04438792815523
3.18620310827711
3.29159269591742
3.26535216170389
3.00807386731158
2.48685003059065
1.73453168994656
0.784291258545433
-0.326749904242633
-1.47571246170925
-2.45410711234179
-3.09789612727902
-3.39674003975821
-3.47821140744441
-3.50519607307602
-3.54329754548773
-3.48870321596209
-3.1888743364377
-2.68183726671136
-2.24381670675653
-2.15039320967519
-2.45403507333905
-3.01275999490007
-3.63214703183065
-4.13067848014419
-4.36478398426096
-4.290822471978
-4.00114978952336
-3.66349852740596
-3.41394291949093
-3.28925572827834
-3.22596378791083
-3.12100019129818
-2.92639488971113
-2.69549238459257
-2.50919981172445
-2.33878971588509
-2.00346014419486
-1.31454989147774
-0.29899437266997
0.744052768801997
1.46758241095294
1.7730770031
1.86400803858274
2.02287572082157
2.36774796781718
2.79858335633451
3.1191793485612
3.19365884516158
3.00792204984112
2.6201507462288
2.11686469056847
1.64519085850185
1.40201965593756
1.48635023691688
1.78661408713522
2.09483734085226
2.308951898568
2.45577490500106
2.55785069957447
2.5764596404939
2.49065800933026
2.35923749500347
2.26228028511261
2.19572613459697
2.06072594418954
1.78178010102541
1.41264593046336
1.07753180855786
0.816803141709093
0.55875568338873
0.260325877320561
0.0062471933825514
-0.0755159038737416
0.0428212386745411
0.264368209726887
0.458312425730603
0.549313620425163
0.537002967360694
0.457985991912728
0.345842831675653
0.228927960251295
0.13864980730965
0.0871601627874592
0.046828548281226
-0.0203019381192278
-0.117020836136884
-0.202272488105306
-0.207394480225083
-0.0750819990795379
0.140850283756523
0.187061180538634
-0.278719210346809
-1.3777997201828
-2.82256600608676
-4.1189499953866
-4.97902898318883
-5.49033958944148
-5.86124338914252
-6.0678858239656
-5.85180894890152
-5.06925956377903
-3.93097661486893
-2.83498744996637
-2.0429218110897
-1.58200963957193
-1.3715115607931
-1.33141808166185
-1.39003616501172
-1.4698901435404
-1.49111469695068
-1.38777120828557
-1.14177849361367
-0.784991961971993
-0.316591513216502
0.3524124196983
1.27496649914942
2.29235958335981
3.09715124543288
3.50960712333281
3.61981629832316
3.63738283942336
3.67351445115168
3.70421362434025
3.69636805763969
3.71054276134895
3.85618680196434
4.15583483500288
4.48813535639765
4.68413070068067
4.66242558011599
4.46287567761726
4.16947127418448
3.80235609653837
3.2772587455335
2.50336940572239
1.53841585470474
0.58549358958266
-0.203639116021766
-0.86216856700697
-1.51452318928345
-2.22331211975698
-2.95979754330969
-3.64123127478495
-4.15242388359832
-4.3995880590307
-4.3937102436919
-4.24932777886793
-4.07984165963506
-3.91216924738698
-3.69615500856968
-3.37494561972623
-2.96392358804077
-2.57366494976959
-2.31644710275086
-2.17328623593932
-1.99771048029655
-1.6701358990254
-1.21948352177156
-0.792429336519565
-0.524098786776389
-0.425809870073158
-0.391399728568766
-0.329211406144676
-0.256683295091722
-0.215163360596041
-0.136614083759114
0.113571417575167
0.567080504698652
1.09740595179721
1.543999301801
1.85533145885544
2.10869706985376
2.41399308372803
2.80545881302444
3.21830984551132
3.54913870634381
3.71935253383042
3.70298929627817
3.53910953157459
3.31657032650756
3.1173313874463
2.98008322550949
2.9202069172894
2.93502008528631
2.9710268092298
2.95018545314007
2.86263516382538
2.77526232925309
2.71901818233302
2.63384881819528
2.46409329909885
2.25171686133142
2.09509007911113
2.03838443681106
1.98443102766047
1.67524059581007
0.83138075244112
-0.567208714103685
-2.16431025854417
-3.50171604691729
-4.40208673942322
-5.00960599089707
-5.50776351936244
-5.91656756844372
-6.16348728796406
-6.24572306116632
-6.25951131069855
-6.29000942755239
-6.31627183513026
-6.24070609054158
-5.98527418663163
-5.53332394165499
-4.91134146183731
-4.17812833826651
-3.40418140568472
-2.60760137610542
-1.73803524348875
-0.775686606156313
0.188508081836026
1.01778045103603
1.62932199243128
1.9928163879109
2.1031874042797
2.02038878324331
1.883207625402
1.8130875387871
1.81105338790016
1.76580798844126
1.54899924120757
1.12122437909233
0.589725122046725
0.156852270314251
-0.0297248287930708
0.0083928308293974
0.115539717055317
0.152759257014968
0.129888654760897
0.189718928565968
0.43344004803091
0.774735756025001
1.02352355999463
1.09821897171438
1.07149889436529
1.01595308467477
0.916604250873592
0.771916955569803
0.700233283195306
0.887815690550297
1.43879478951505
2.27225021575933
3.15032967707217
3.82587804729505
4.19083876242586
4.29665428191351
4.27196794891791
4.26400338991422
4.41851188807811
4.81410132468056
5.37492572254761
5.89488978942769
6.19530129758207
6.25641561868503
6.17400280139727
5.99233065447409
5.61621288407996
4.91582421113318
3.89791654779273
2.73307811142228
1.62488458637301
0.694682339905146
-0.0411957844172771
-0.689778746835369
-1.49256353828183
-2.6963826115913
-4.33197326170622
-6.15939644842764
-7.85168630733494
-9.18621855189933
-10.077161688151
-10.5247747083446
-10.5839873956064
-10.3511814253127
-9.9423212186915
-9.44729428734692
-8.87406559956997
-8.15886612015277
-7.27250421731722
-6.29538048653401
-5.34560178455645
-4.45362189382548
-3.53932716546877
-2.4890909752711
-1.24274086001077
0.149819731192094
1.52858063588814
2.70087327882324
3.5376726322337
4.01273657947211
4.19542591298811
4.22125550595534
4.21915470443837
4.24063631844751
4.28880090299908
4.39576500001071
4.5827459409029
4.72803399649609
4.57891424610076
3.97507259098898
3.02343188292871
1.99242059537242
1.05629360793901
0.209044711740732
-0.563730704715533
-1.11037338574589
-1.2021616619398
-0.795519499352283
-0.127410350661716
0.473961775893934
0.816292069195456
0.881991502770219
0.738948780274222
0.470936924399276
0.153888750023058
-0.152751498198476
-0.411573522334051
-0.621353124152456
-0.822242186280189
-1.04353437357464
-1.22498033381883
-1.22585921411215
-0.939560568700017
-0.384633292504593
0.314490068469311
1.00431499209859
1.56959882721397
1.97810472906268
2.27744051041296
2.52872775652769
2.74634881621052
2.91084382458762
3.00667920420763
3.01209731211557
2.87353049605915
2.53660521705793
2.01767238501617
1.43321174957848
0.944010555233596
0.65033930085664
0.522575957863877
0.438633254402285
0.306021490730851
0.141813196545806
0.0158563280966812
-0.0714089908444294
-0.215344047158062
-0.492097062826125
-0.842126241719661
-1.11147581970393
-1.20773034081872
-1.16080150354526
-1.02232709287323
-0.793841897172549
-0.502396075200479
-0.252939283980508
-0.109907286245918
0.0283918794518325
0.354834715480295
0.962687609473246
1.75921440894678
2.53507116869999
3.0970010788272
3.37662400357268
3.43827347099635
3.35051317040793
3.03391739068312
2.26919596569368
0.893818365531808
-0.993012880903715
-3.02406454687164
-4.78640586239155
-6.07435964158271
-6.9358436082666
-7.51201049465196
-7.89086171109415
-8.09870810232658
-8.13765750703346
-7.99387065639108
-7.6707968849415
-7.24376083216172
-6.82367230018627
-6.44118970885886
-6.02511919029061
-5.5126246967417
-4.90857090536059
-4.21508085901994
-3.38875321900681
-2.414739913864
-1.36745761295166
-0.368259780624611
0.472416626593775
1.07185663892262
1.41613029567791
1.62395515358941
1.90943249962321
2.41492933221919
3.08704556383965
3.75633377214777
4.33933525765342
4.92598400633511
5.65345408395947
6.52057181598924
7.34635256781754
7.89372900448941
8.02548220775548
7.77459710014101
7.29558232938079
6.7458783723445
6.21289991458216
5.74452580144515
5.38166684276603
5.10017784367341
4.76917446863953
4.25723914099733
3.58327972123148
2.91198948110823
2.39899093383661
2.06775718439009
1.82447111236275
1.55875394170496
1.22808662771299
0.86666154455936
0.532684739593522
0.264979568983429
0.089150632042489
0.0276639002609508
0.0741882899009303
0.176444957975552
0.262357237608891
0.26961009733375
0.160728892848524
-0.0505015198209859
-0.298880533083203
-0.544198153414693
-0.831792285074274
-1.21287022934045
-1.61791568528103
-1.89677970015342
-2.01604836589702
-2.16145437531572
-2.59472675915791
-3.40627999515483
-4.41561415790034
-5.30918367500471
-5.86446686961297
-6.04124208022961
-5.90935029280932
-5.57846691356662
-5.21318844638192
-5.01586142933966
-5.09952455469329
-5.37790708908119
-5.61985633502486
-5.63287872443749
-5.40690752591875
-5.08760499562086
-4.8095511339648
-4.5627704551811
-4.22373278314235
-3.68847908110328
-2.9560265568394
-2.11908980450888
-1.323857244642
-0.7278446617192
-0.440707328431125
-0.470672337208707
-0.718409172237385
-1.01732387724367
-1.20721322083707
-1.22951470410234
-1.16960164527045
-1.1642469043168
-1.24205666240292
-1.26593105900691
-1.02910504253802
-0.403559171059684
0.567092743911018
1.68455724653938
2.7245047668949
3.57888884181425
4.27382488073013
4.86646733088037
5.36237451576653
5.72674981420948
5.93852344503556
6.03168227531184
6.09246621866068
6.19315960593683
6.32663847608054
6.43823917607127
6.50981716519193
6.56866947123629
6.62799387366684
6.6554956852768
6.58181850225563
6.32694229580274
5.86992053652364
5.32009815475835
4.87046397042646
4.64524329269801
4.61262493214874
4.64769308895319
4.65274348944329
4.63024082411438
4.67556565670397
4.88304070367473
5.23033977340428
5.58182307135906
5.8222437874858
5.94386859290548
6.00071629759757
6.04804841141777
6.12254869545008
6.16650940449962
5.91255509388263
4.91186417794997
2.77083960083714
-0.562680565472486
-4.66951558102764
-8.805778060334
-12.2845427250215
-14.8208045274347
-16.5399439848287
-17.6985871770336
-18.4658411913227
-18.9315557138241
-19.1703547381742
-19.2125912099696
-19.0076058806074
-18.4804735243587
-17.6196592726267
-16.490197336224
-15.1713039982196
-13.6935637853343
-12.0314810855227
-10.1490894201724
-8.05981382300708
-5.86152961268943
-3.72141026929431
-1.80258550700226
-0.171469894015785
1.22317892164338
2.45878323549372
3.54098288807966
4.43020335188162
5.14295727442112
5.76495268186722
6.36101013974212
6.93237849746672
7.49160341219709
8.13858566637922
9.00235005402716
10.0821182603427
11.1767554094832
12.0293534596898
12.5533369726232
12.867851147141
13.0938499993164
13.1748717484004
12.9371841452501
12.2753774580112
11.2301479652967
9.92824843267002
8.51740235686633
7.15674673185103
6.00347625565468
5.14361265321673
4.51728606298733
3.95346116441495
3.32669543514147
2.66121897373328
2.04178891798992
1.46533242411269
0.850700375993535
0.160251053417667
-0.5771901690808
-1.35249402545783
-2.19296111309103
-3.06957238656281
-3.84837928499476
-4.36601075841497
-4.53360963096843
-4.37697325709247
-4.02532876453407
-3.6730313205984
-3.50131511181407
-3.57909402343383
-3.82443860858104
-4.09033019646876
-4.31256608168298
-4.55686463230002
-4.90471578896318
-5.33136748984708
-5.72937005778551
-6.00302808526563
-6.08117990136978
-5.87870792056557
-5.33597149809676
-4.52109428242814
-3.65623164191408
-3.00052465045326
-2.66820707105137
-2.54315006653223
-2.39275403219264
-2.07289465347839
-1.59166025861475
-1.00030378511712
-0.325897718968752
0.36307876549686
0.927013374967299
1.25283245320247
1.33653839061283
1.25588340766737
1.1174073667789
1.02889071526237
1.05348251627998
1.16937879867221
1.30337889142619
1.39422840421115
1.39849831359339
1.26871682375603
0.975404368873265
0.545505769613809
0.0604348617386046
-0.372173346766085
-0.65492264898519
-0.759538138148967
-0.768381095415271
-0.82698734023038
-1.03175777217725
-1.3543877466072
-1.66440533471743
-1.83957752390566
-1.87824333071937
-1.8783911455878
-1.87648254914006
-1.75349339118072
-1.35753368876044
-0.693248771127557
0.0549194333397014
0.673531365913672
1.08232825955244
1.37273085347172
1.68708676304461
2.05022708380021
2.36269407537588
2.58030204953765
2.81541351890898
3.19252960117384
3.67198453116678
4.09844127278871
4.38189741364983
4.55688646680282
4.6838521559837
4.75925855653831
4.73985050317915
4.6233830093812
4.4695420310559
4.33032930658537
4.18669802059189
3.98869229252521
3.74485430649493
3.52710792875473
3.3897220810422
3.32607939133051
3.3001582133388
3.2780319856873
3.23953652456338
3.19890840920263
3.19167193074301
3.19971574915589
3.12138643285975
2.87282276816232
2.50350804664969
2.13753647837793
1.74592351086947
1.00213580016678
-0.52040924458636
-2.89997072584594
-5.64806572496526
-8.05084579093635
-9.73798761487157
-10.8463760585901
-11.6713747213676
-12.3058631440987
-12.6504470728498
-12.6426318778258
-12.3605524759695
-11.9177478353592
-11.3395842828169
-10.589674498234
-9.67657214499871
-8.6526287823193
-7.50547468547522
-6.14735289225751
-4.56359206725244
-2.90280675063895
-1.35600882321573
0.0111081404841868
1.25002281268991
2.39086704823567
3.37866901188167
4.14363061468701
4.68192413161523
5.03740989034072
5.21449624518053
5.15093910904075
4.82697243543077
4.39774754159428
4.14314358450037
4.23387309568079
4.57601867060314
4.9169298428735
5.07401906240067
5.04204791279366
4.93045455931602
4.85001578795114
4.84147702200276
4.85775674338704
4.78958494639178
4.53178117579613
4.06795685378233
3.5004212640748
2.96310452998939
2.50052788706384
2.08359719769447
1.74232386047215
1.58611366902397
1.65529902157278
1.84576752245308
2.03245704276815
2.18548437346406
2.31509839222227
2.38299161368773
2.33196695447658
2.15767985771943
1.90779078569263
1.63866657177945
1.39364136095633
1.19682319376927
1.04858687921973
0.930090216042091
0.810012374106684
0.655979680260268
0.46247705500565
0.253323871651854
0.0235420947015208
-0.292042693036723
-0.737711986707217
-1.24938997241632
-1.71399267107589
-2.11450031292942
-2.57088102498318
-3.22614984988327
-4.09883073918335
-5.03927334006531
-5.83100918348437
-6.34420738737792
-6.58363230009878
-6.59664256636173
-6.38686330062399
-5.94382748522971
-5.30916471154732
-4.57075713882995
-3.81637863054315
-3.11840377842944
-2.5315029970381
-2.06467177615592
-1.6592869678384
-1.22299924022456
-0.703970198091483
-0.136240584338635
0.384722749086614
0.762312059474529
0.942364210203076
0.935937833651419
0.821158879964276
0.685623952430803
0.53171137773129
0.274322146257472
-0.123742607240578
-0.550476622374482
-0.832895176514462
-0.893771935176741
-0.762858752285078
-0.476426748304322
-0.0555840343544474
0.426606127155975
0.837015343930582
1.06337551825606
1.08376837770116
0.967199972509803
0.81049955883201
0.648520413818962
0.435923096149782
0.15385919559012
-0.0929524770148422
-0.14810091710195
0.0347761367307814
0.35018254040626
0.654809454582448
0.88696889533259
1.07512305264386
1.25749024844678
1.42236300477465
1.55357072972573
1.71450137559265
2.0098737019946
2.43604042509447
2.83906780855291
3.06385778544018
3.0929478928811
3.01304758065888
2.90661938563442
2.80788390045766
2.71311891282259
2.59751475946523
2.44449174981323
2.27219097085024
2.11901098707736
2.01175894977181
1.96098110687923
1.9622228877553
1.98162743224156
1.97345139663217
1.94191168631599
1.95861426537023
2.08234252710696
2.26494927705959
2.36188150717723
2.25904053378338
1.99564325130967
1.74203553052125
1.64619302047186
1.72403928795116
1.8918478606199
2.0463145751071
2.106972667187
2.05829332029184
1.97910308553056
1.96856538708794
2.02157446019461
2.02093990019669
1.82891861988673
1.30272418946646
0.246137284029038
-1.50405209835104
-3.85404339078521
-6.36812087026932
-8.49675576722045
-9.92758696121063
-10.7223458314269
-11.1415180269588
-11.3824033654437
-11.4876140912651
-11.4239473493671
-11.1580585833639
-10.6645943360183
-9.94459621397282
-9.06924214703605
-8.16273934366291
-7.31343396988874
-6.51781281074275
-5.71328250525463
-4.83909693687823
-3.85754708336081
-2.734327758718
-1.42567533748007
0.0712707794908416
1.62778307796609
2.9915973734117
3.9604901410123
4.54710705131033
4.93380194545364
5.29446779633692
5.71207070344827
6.23102274739598
6.89795273589781
7.71710772746326
8.58129436455014
9.25508909928952
9.45638363484011
9.03078967395868
8.09891091026665
7.0127872838247
6.11980308218306
5.53657430452723
5.13209382375387
4.71639112480393
4.2360629297068
3.78148166903296
3.42941188431858
3.13568921842351
2.80042923042233
2.38717064030619
1.93515216439627
1.48034881683387
1.01112633685286
0.508057415241127
-0.0002676852182293
-0.449709103011244
-0.816716596200276
-1.15525950598243
-1.51751036982487
-1.85059050976734
-2.04254358762603
-2.08755160809524
-2.12688298650316
-2.28699150799927
-2.5426557390937
-2.76807354898388
-2.85295603372532
-2.75253911883994
-2.50717074415111
-2.23457035073167
-2.02942480605261
-1.85843479462778
-1.61852267228022
-1.2901482803825
-0.953431810718383
-0.650326036521444
-0.313011390890879
0.137862235158203
0.676109349577012
1.20082209373006
1.66545192301846
2.10396184363902
2.48411462779648
2.5934873905391
2.17457642972968
1.18793139224732
-0.116293796982207
-1.39089272770715
-2.41704809180715
-3.17272001157794
-3.75985439424849
-4.28293038341606
-4.75714165232127
-5.10835341705165
-5.2575310638799
-5.19548141105458
-4.98006857770886
-4.69123033502725
-4.40226231097263
-4.16799905223302
-4.00648521304188
-3.87388377844858
-3.66010718589639
-3.24788645798905
-2.62190002683192
-1.90892775260429
-1.27030556229961
-0.763837406107856
-0.335514575012093
0.0877844852744399
0.533753593198133
0.974366143991303
1.34103904166018
1.58557319851447
1.76248287031858
2.02101611293412
2.48391174653738
3.14943564537785
3.91642498717662
4.66520301081535
5.29169621915844
5.70072387090273
5.82647267706023
5.68648206581506
5.39274855563809
5.07173744084405
4.76851467221459
4.44681416725104
4.07112432397645
3.66156718478842
3.28254989305632
3.00412241950096
2.84678095172449
2.7267758639134
2.49208889705462
2.07275576238858
1.57808363903591
1.18963994212212
0.969121367554232
0.814276940223759
0.580624866582282
0.201651066884216
-0.283080267679945
-0.772409471298821
-1.19644608180467
-1.59007937887995
-2.04171993595352
-2.5577763482657
-3.02894232782145
-3.34909530674127
-3.51920142039677
-3.61434915360032
-3.69302426030621
-3.76991533707531
-3.85479511196068
-3.97768289614894
-4.15211488268482
-4.32207393489376
-4.38235626041026
-4.2698415220478
-4.00767265732141
-3.64690624968404
-3.2049524879116
-2.68302890647114
-2.10352159898416
-1.50372657841376
-0.923358981743897
-0.413269314999535
-0.0212042712210641
0.251133313151564
0.455008599538865
0.648024973692831
0.855006311307444
1.07066635072156
1.27440794343824
1.43474463684467
1.51340805202393
1.48018960495558
1.34909098873288
1.22295440075111
1.26658353880495
1.56295201190258
1.99317134299
2.32663543156181
2.45162646053229
2.47604770702153
2.59723459397974
2.91917356412379
3.4067882658209
3.96827940491157
4.5299872930311
5.02304324137039
5.34200395555617
5.38197406422892
5.13314849725929
4.69841768483446
4.2006244442372
3.69918290457256
3.18809498209515
2.62134577734732
1.93486642313177
1.09515448271123
0.142362876587363
-0.84269554305294
-1.81310732059172
-2.76980884087051
-3.70419416320066
-4.55393588028871
-5.23007969681707
-5.69220105054265
-5.9967607362179
-6.25675870435926
-6.54220112352582
-6.83303140537559
-7.07471273882785
-7.24463303579745
-7.3356957365648
-7.30969219111489
-7.12059207294999
-6.77982676478209
-6.35344768962542
-5.875291931326
-5.28630748579907
-4.49775907213391
-3.52543411773808
-2.52281174163507
-1.64466974015967
-0.904998297252368
-0.205628759288927
0.534284334244356
1.33114181928288
2.18762120452471
3.12810202612928
4.17896710299265
5.32116897565095
6.42962294510794
7.26088142541846
7.58023956445278
7.3564556349143
6.80069686447485
6.19224395266729
5.70398377145377
5.39456100681089
5.27898077839367
5.34098673769775
5.51169736310858
5.69475353826168
5.81709981890661
5.83905273465343
5.73195083601601
5.48066642714583
5.11370240464402
4.70619065030232
4.33551033794972
4.03518946445279
3.78741794208427
3.54219489664889
3.24360064726945
2.86085881972866
2.38982659113154
1.78908967610051
0.933595900799986
-0.287452348297497
-1.80593449983375
-3.37182689668362
-4.73568872543683
-5.799415850397
-6.6203938867552
-7.34477886928188
-8.10894296503503
-8.90797705499307
-9.55157685338177
-9.81259085755105
-9.63515640284654
-9.18404093844413
-8.71165884839652
-8.38461452389031
-8.19761245878143
-8.02545302181019
-7.75676331174755
-7.35871878074567
-6.81111076463444
-6.04899603221064
-5.03435241595329
-3.84747267093528
-2.63830676714645
-1.49049162458775
-0.37723226876143
0.74445654514204
1.83121547097764
2.77629429794285
3.53876231149643
4.21784962045807
4.95848976699347
5.79143238814423
6.61105627200835
7.30403667749777
7.84064411223573
8.23552944153391
8.48200286981256
8.5417888566766
8.35799927893607
7.8846792516336
7.15533824555054
6.31833853956489
5.55386774617522
4.94574529246555
4.45833290616165
4.02766503328835
3.62647465159925
3.21473606454937
2.66661906541264
1.82442827267946
0.663773623791571
-0.624455133146599
-1.74910577717514
-2.50526397953425
-2.85484306398655
-2.89169196942118
-2.77270533174734
-2.64006266608361
-2.56197225095336
-2.56205133263945
-2.70192487803749
-3.06902253198994
-3.65928009729269
-4.33217287785983
-4.91253558881729
-5.29409521423668
-5.43438835275416
-5.31574775066886
-4.95539011345776
-4.4267035841733
-3.8399356549549
-3.29513360968164
-2.83466859525567
-2.4296140565245
-2.04060051034957
-1.70039875722447
-1.4856669529794
-1.38656533252837
-1.26477572035895
-0.980614123717183
-0.521687445305726
0.0215790136288418
0.56637220855765
1.09197657770208
1.61321711100671
2.13258594537507
2.61513264976319
2.99898313291484
3.2340552856087
3.32267804635447
3.33452027264369
3.38250473649396
3.56822027850981
3.93260544190324
4.44278533484593
5.00385862739834
5.48029175095917
5.74506431654016
5.74798632323793
5.53832516314425
5.21356769991888
4.84431180831425
4.42263309691798
3.85263806471851
3.01213267690499
1.87273806903873
0.569125630168348
-0.676876209609836
-1.7165921912397
-2.55774568288811
-3.29392686821718
-3.97771638442419
-4.59346281616901
-5.14156225613755
-5.67599731312924
-6.20611439025536
-6.61724507923986
-6.78159304263227
-6.72569674158118
-6.58520173798413
-6.39673044779308
-6.04456461301046
-5.43728022784561
-4.6497420684552
-3.86292675661586
-3.21905146873935
-2.73203180897027
-2.27323558991976
-1.64488426666874
-0.738554180493225
0.343626437731383
1.34411940152815
2.04181741634658
2.39540130157453
2.51918770832154
2.55495286742135
2.59382447305872
2.69589494999191
2.89883944894173
3.16165710574514
3.37087687709976
3.46862025117094
3.51589470068927
3.5769165295147
3.63191266763638
3.6790857676142
3.81365706218831
4.08144416731837
4.31790529854572
4.25393664236818
3.76512849131672
2.95340241900339
2.02634246406367
1.16360722215314
0.46444625487321
-0.0504370849572068
-0.405811050042906
-0.639645301483434
-0.802318461195162
-0.944619119076175
-1.06804131174076
-1.12527255777375
-1.11082110131908
-1.11163076287142
-1.22759880491182
-1.46947047357245
-1.75379194168648
-1.97132360257435
-2.06185879702628
-2.0559958458383
-2.04184325416193
-2.07395282635408
-2.13116468745276
-2.16422662545227
-2.14210118022392
-2.04279456681936
-1.84733335117794
-1.56886057417913
-1.26638188195285
-1.01052540445925
-0.827004559612225
-0.663393740133871
-0.416768440487588
-0.0064224454734411
0.581726384684616
1.30379842434328
2.06373576825781
2.71224976370218
3.10987429596733
3.23004973737905
3.17019177382794
3.05111287929843
2.93706366377097
2.82961276342602
2.65896593691527
2.28487798831173
1.61181550483337
0.748158059743274
-0.0214407043486833
-0.479930627856831
-0.6704844708784
-0.828002969858023
-1.15786834573967
-1.70911454965414
-2.41314877457349
-3.15924226175938
-3.82049201442254
-4.29242744174231
-4.56967943771865
-4.74588254937607
-4.89295988196131
-4.97472526607849
-4.90526093485977
-4.63905515056573
-4.1775199530294
-3.5567292707139
-2.86973746397585
-2.23372191358575
-1.68083668547802
-1.11692137211537
-0.413717558664372
0.483243756835244
1.52345318268262
2.57692090520567
3.50156049702553
4.22895409585229
4.77770575453309
5.1817124098585
5.4619802790641
5.67706739809429
5.90802970161731
6.14510421142214
6.26927366386066
6.20915983337451
6.05408274448118
5.94465799876349
5.8958346337818
5.79581436715226
5.55156371596428
5.15133335590983
4.56306593732078
3.65880853829042
2.35464403660314
0.831645856994094
-0.500791569315746
-1.35006906741255
-1.81301733016349
-2.25516024211179
-2.95380205188284
-3.8914170126923
-4.83975123635848
-5.57524598071124
-6.02714714972619
-6.2766182105632
-6.44779979621269
-6.60647634454235
-6.74065458257226
-6.78805984699359
-6.66986713755615
-6.35048935848076
-5.88806156460882
-5.37924351107857
-4.84434747644931
-4.23286103500405
-3.55918907340908
-2.95282281785373
-2.52308978407639
-2.21819377076331
-1.86401435309779
-1.32519031507335
-0.602027542986255
0.214102022155017
1.04183011593039
1.8489198938511
2.61411702089211
3.29159156707964
3.82043525104916
4.14168776511905
4.21539419453973
4.07261703933774
3.84923666623097
3.70555276135119
3.69340289787797
3.73252178760707
3.70541821321258
3.54194083725956
3.23879078179539
2.84505969992258
2.42908686215505
2.05017050622134
1.76235806451302
1.60093135651616
1.51960892396436
1.39086125054874
1.13630797515109
0.816985734428222
0.538956239572076
0.332452656537587
0.193223888027812
0.16665061714626
0.282408655375004
0.441514580680837
0.476499615645537
0.335815620517284
0.140594221996805
0.0394712886640212
0.0553481785199943
0.0998916790593146
0.0986901102134047
0.058391919048032
0.0248668506174753
0.0206417373999307
0.0324977620829296
0.0271964291308679
-0.0335625011045055
-0.158777266218992
-0.292146359866311
-0.358450377718827
-0.379542474480509
-0.493901972824833
-0.809613150804851
-1.26921876091119
-1.70156876103888
-1.98570820449133
-2.13919466647201
-2.26682828810918
-2.44516831389214
-2.65731422990912
-2.83613530826737
-2.94728548651816
-2.99274880107548
-2.94612959203683
-2.74587011001768
-2.37213860682266
-1.88891783124884
-1.38278342718784
-0.878315210939239
-0.342730720151299
0.21495259374159
0.679141148864317
0.921676017536619
0.963404215218545
0.965040692865922
1.0358501050552
1.13557075318599
1.19047386691833
1.20732917633865
1.22771839518779
1.25197440970862
1.25434912827412
1.21723406889278
1.12821217276104
0.997350030208199
0.886639012654774
0.864319667514045
0.917715548578493
0.954341755156467
0.891073512102731
0.714453847852488
0.474122519128834
0.248871793109625
0.100930637429978
0.0448895020343801
0.0656492546830957
0.136636131019819
0.193672345166839
0.151907971449873
0.0119959861054439
-0.100899589381221
-0.0720682769163761
0.0627300519388717
0.159357788819419
0.113186291471634
-0.0639802912218429
-0.272448691032285
-0.402285158794363
-0.416290615244403
-0.380716412400203
-0.402570909248554
-0.530373451350159
-0.711710158740536
-0.830575472227854
-0.794565888624777
-0.618030767454263
-0.415638551396523
-0.286766656463356
-0.220653458031847
-0.140427426879836
-0.0108107826752373
0.133588724380934
0.239859277663309
0.278073145967698
0.245920919290239
0.161032038074358
0.0488887339234219
-0.0657819048526837
-0.160521337344229
-0.232089493213481
-0.315065757175182
-0.446683926874984
-0.609652778541526
-0.752729930581154
-0.859222944848391
-0.937170232172345
-0.953522715048627
-0.848127286259017
-0.616903102803638
-0.329333018387692
-0.0572369083746061
0.188986915652625
0.460006983025177
0.811959156431293
1.23460019931948
1.63891032069565
1.93550486933111
2.10534750267584
2.17178780316982
2.14512566886801
2.03686523710782
1.89693552927517
1.79841322072066
1.79910360066597
1.91828391250287
2.11310030125993
2.27694767923427
2.30229733810329
2.1552657977048
1.87548895511597
1.52226193239604
1.14477742258228
0.78694305962877
0.493864555781322
0.304106103930819
0.209034097733281
0.0915659262321415
-0.250660028672058
-0.934741361185305
-1.8297369798827
-2.61513939761759
-3.02505241058522
-3.03526867288373
-2.84269876304795
-2.69186655147988
-2.7033598743892
-2.83670377677866
-2.99118078205266
-3.10778445869702
-3.17084291033458
-3.17021875618093
-3.1096940435725
-3.02848695657708
-2.97884270001182
-2.98592615911578
-3.03404205095725
-3.08059239329035
-3.08561877375597
-3.0319580298633
-2.90714773712849
-2.68194314950841
-2.34734466228047
-1.96394508594689
-1.61415547657732
-1.28288691239677
-0.822386627124115
-0.0692826792442047
0.990402869598061
2.15998184629448
3.14319321738584
3.75368710680357
4.033681830813
4.1580029744818
4.23867671530343
4.25726607266495
4.16583319053196
3.98711709413621
3.79848947938906
3.65974214718504
3.57991585031663
3.54272211395366
3.55554560483188
3.66140045563766
3.87839298726711
4.12832795277777
4.25365252151803
4.12156557465416
3.72242992779449
3.18547802519767
2.68820496857874
2.31194545059204
1.98422216350897
1.58812512214993
1.10847327493797
0.636991287524181
0.26664045953764
0.022516764424832
-0.139507834525134
-0.300744554881474
-0.4997742511497
-0.664975905354991
-0.700111701256285
-0.660630922314925
-0.760242583745072
-1.17169969674553
-1.89060619861575
-2.79692142342815
-3.75268482586117
-4.61882761608411
-5.27065233762797
-5.65514529423045
-5.8143462191342
-5.85183849398948
-5.89274875136652
-6.034729049114
-6.26940437905628
-6.43294740723681
-6.25493529097438
-5.50361934353426
-4.18101560500696
-2.64923786986484
-1.49899889822581
-1.148453659338
-1.50646412636866
-2.05419584471489
-2.27937346866976
-2.04787459498181
-1.5977367834922
-1.22171176254883
-0.985216628795942
-0.753106005222726
-0.428222894059653
-0.0675116107070492
0.240523032214643
0.510036638305149
0.819468419745128
1.2053276655951
1.6438075760327
2.10138957335607
2.57474303167584
3.10039916998418
3.72199438045611
4.4155333379171
5.05293963079065
5.47587230769122
5.61328109558551
5.51631509128353
5.29395521960645
5.03781941552978
4.79483133875083
4.57376612723998
4.36610347587976
4.17779512761813
4.04475293826994
4.00185285943064
4.03434229210703
4.07145345821532
4.02721074887066
3.84134668669417
3.50337777632476
3.08210811325163
2.7309286471157
2.59123502166885
2.64208198487342
2.69883253264317
2.61857357374941
2.45977421355289
2.37918823960544
2.42239225657933
2.48669440414735
2.44211316642438
2.20120847289439
1.69638617695613
0.887960555879188
-0.175289883562331
-1.3454163496986
-2.4456802467107
-3.34958300179686
-4.02530555082562
-4.55357791581337
-5.09355858872659
-5.76693201086171
-6.54382358812155
-7.27942674935916
-7.88936659194697
-8.44401308494202
-9.05092049194776
-9.69587167413746
-10.2611477472059
-10.6587219709665
-10.871759975597
-10.8904545307168
-10.683474560628
-10.2314051851525
-9.53946289197321
-8.63367218413452
-7.59278976328813
-6.55151261144649
-5.59461438763016
-4.64474997073991
-3.50649516856293
-2.03402995511046
-0.253471476578076
1.63863970187629
3.37054023640646
4.74017678102048
5.7359595302784
6.52243699950629
7.26825358049613
7.96682737727337
8.44577590380821
8.57387437573776
8.43301045507036
8.24100637290254
8.12047614713881
8.00699732785865
7.7802159724282
7.40061512926181
6.89449959851929
6.29018636394581
5.62442677671869
4.96531928073466
4.3809243819195
3.89420195434991
3.47796104329196
3.08606601995743
2.69813918300035
2.34211247350372
2.0604063436192
1.85540274208828
1.69085162543107
1.5420083365264
1.41079381755602
1.2890714724134
1.14359594880217
0.954821882271581
0.753938891476589
0.610854701956677
0.578128920266804
0.616537533109845
0.574202979964407
0.309606931746993
-0.117647053967242
-0.438490637246227
-0.422707845452951
-0.105835914370063
0.271416763270601
0.506281354082141
0.567679562941986
0.524201653852628
0.410102335959405
0.186684955994247
-0.189468729901802
-0.699472760697191
-1.28013536701455
-1.88581724009187
-2.506778694127
-3.14565689900577
-3.81067695434137
-4.52731748759446
-5.3284208262706
-6.21260712832361
-7.09250710246795
-7.78636687388148
-8.11429276271538
-8.04453561950956
-7.71673181505938
-7.29484233624129
-6.83072940009431
-6.28493694460379
-5.62809484210825
-4.89462811615207
-4.17159700660313
-3.54087901500397
-2.99593422235609
-2.42988972894953
-1.75955273005299
-1.04850100711578
-0.447959003196124
-0.0173122000751853
0.348074912521241
0.800693829266262
1.37432486988974
1.94245376823491
2.34665310319752
2.56270202780753
2.71814557152829
2.94864586061534
3.2785322361891
3.6511187833403
4.02367389280511
4.39636529584539
4.77212066704744
5.11844399902923
5.36642232187761
5.4384349529316
5.27952955116848
4.8724402903719
4.2501258568928
3.52043126032353
2.85078133278059
2.3653621556288
2.04598507388761
1.77329966270643
1.46804945761519
1.15873151003211
0.918851838085821
0.778572324083515
0.705321945470762
0.650949894036225
0.605667681425647
0.593456276532928
0.60977927938061
0.597592294867988
0.519759121623364
0.427212635774884
0.405246831915743
0.460788401608484
0.498155179651447
0.402609218188332
0.140947017869491
-0.198938207326433
-0.473285589866296
-0.615510015172692
-0.686906304006997
-0.775032913283813
-0.895067251116991
-1.02992345925915
-1.19840889381388
-1.41654023341908
-1.63338719932633
-1.76084783581046
-1.74606110957557
-1.59318258461155
-1.34715773862198
-1.07234041040245
-0.813444966647352
-0.557023174291246
-0.246810645930796
0.145305579877641
0.551560294854311
0.817364394700709
0.825711157923246
0.645913188683677
0.512933389190027
0.607472350949673
0.881671962077788
1.12430748777256
1.1399655819246
0.828538369495858
0.173707750471389
-0.738494569008548
-1.69481121526092
-2.43661529137965
-2.82574086518271
-2.93214750848587
-2.94057779400506
-2.95640717874073
-2.9116133343469
-2.69006708274596
-2.33476561436837
-2.0691808590655
-2.09105658596536
-2.38913149247091
-2.77153192540322
-3.02032220304241
-3.01221133127154
-2.76000088793745
-2.38067136454446
-1.99832259640258
-1.65185481941955
-1.29880387934296
-0.906233595844575
-0.521981312179307
-0.240968427545562
-0.0922114739655225
0.023396724250337
0.244435677235303
0.603677676736776
1.03087537791329
1.50763717615106
2.13060377776104
2.95767137485487
3.83767361498845
4.46198125952138
4.59950726942005
4.27822301871654
3.74255367092544
3.2296534388971
2.78971742044158
2.33877783495703
1.85563214368965
1.45384685537957
1.25127099493462
1.24116685449338
1.32233795173781
1.400642276588
1.4259857619248
1.37056724719493
1.22036236545115
0.998577332107524
0.78270434507326
0.6691685395309
0.694490737480981
0.790091090648702
0.824055935684029
0.693674504938278
0.400247828148268
0.0569620529442408
-0.196231197830227
-0.317134669187442
-0.384948327775751
-0.475240749010503
-0.549069569698687
-0.517110456956993
-0.383873821434009
-0.258633551984578
-0.224297381235962
-0.248784341499784
-0.235240688744924
-0.132874369374733
0.004635930814449
0.068802866749649
0.0120456626266773
-0.114503442682448
-0.267035684495967
-0.490360709582353
-0.808196099262452
-1.07117573229037
-1.03281593287608
-0.614396713357357
