35.274074355166
38.888318022611
41.6367241346831
42.705407139277
43.0521210412417
42.9237264301583
41.2800561838678
37.747660304215
32.1746246955245
23.0994047151946
10.8327483157688
-1.72378417703741
-14.0882798445812
-26.3381758262221
-33.0201986333028
-29.3106494273147
-20.5698366199464
-15.5538286771653
-14.0631767301352
-11.4195249098454
-9.29615355754598
-12.0396141597598
-18.7328292918853
-24.9609708326991
-27.7203233239141
-26.9381728935128
-25.2078683184507
-26.6531075975847
-32.0090191774309
-35.2993503546056
-31.5386822416648
-24.4665162104861
-20.2850604295107
-19.0396952449459
-16.085849950544
-7.1472617648879
7.79778821214353
22.5115051882613
30.2325987562063
32.278387386752
35.1844874587308
40.5021786164375
43.7458083587112
42.4479503698484
39.4901175359913
37.4021019295909
34.3937353723157
28.4687452516176
21.4149882328082
15.7329064454962
10.7834266286564
5.3431452225036
0.827286246496775
-0.724485844639316
0.371950813786403
1.41526716710633
-0.644078075828991
-6.52081441156829
-13.1844422215671
-17.8091786994786
-22.1707306085323
-28.2813671508378
-34.2445753826586
-38.5160759383085
-42.0249087587941
-43.9894352360954
-41.800333663251
-36.4429266441542
-31.7804298888681
-28.7870580414501
-25.8875065317228
-21.6676107062495
-14.8256737094956
-6.51411648539428
-0.803880849422418
2.01125896141807
7.55880540850264
19.4881414997447
34.0780238026843
44.9213551574497
50.4474574988936
53.3620912650317
53.7974919650215
49.4491668476244
41.410533144145
33.0720937467644
26.8190174472028
24.4576402422464
24.8808021311426
24.1457199702401
21.4060080570855
18.5478542798771
14.5166393285156
6.64428482319485
-4.14745826481764
-14.3658797082976
-21.9797872303902
-26.5771953181354
-28.4390433649145
-29.1866422648787
-31.523368255258
-36.7897804602873
-42.2328374451686
-43.9411154431319
-42.9990941482773
-42.9266696089422
-43.7962805389899
-43.786556639993
-40.8341341733343
-33.0670122933043
-22.6997716968465
-14.1369606364287
-7.35086925848719
0.120116116334401
8.24548171428651
16.2787436934759
24.4516019428981
31.8590499437775
36.6365422444438
38.8240675347412
40.5853469613525
44.1504211728277
49.7031618918102
54.236170869917
53.586280993115
45.9499937114819
34.9682966003929
28.7252665083248
30.1898339347822
31.876901776157
26.8102684063733
17.7572272250765
8.84690795128981
-1.85202997594507
-14.9748806528749
-25.5598696115371
-30.3414759133806
-30.9650074932966
-29.0882352197385
-25.1799822269569
-21.5177189497402
-21.2756206061599
-24.7172780209116
-29.0749985709255
-32.5344748263315
-35.5220812195424
-39.7420580929016
-47.2739521482498
-55.8240832650901
-59.2246723540914
-55.8522815547389
-47.7738036736226
-34.6856631350203
-17.467824147973
-1.68079181795048
7.40491394232253
9.91089544080108
10.0302945836973
10.5170820057942
11.691361528212
15.5896479312762
25.389460794764
40.6830808064889
56.9649001454207
69.0405028894278
73.5802194326681
70.474013524909
62.8090812672867
53.0065950900814
40.2035510385532
24.9812931427926
12.8991699049941
8.37902142730448
8.79517573742204
8.03031373017972
1.95108769136662
-9.14907348600461
-19.9240438667082
-24.8271872286748
-24.8596498616511
-26.3911366656488
-32.9581636931285
-41.9195777236567
-50.5421095049387
-59.5641408084172
-68.4003874332925
-72.4626635759102
-67.9976369936138
-56.0611948237082
-40.5255032737728
-25.9639207981084
-16.109569519233
-10.2248662436014
-4.12720424003948
3.90251029538236
12.5231212694876
20.9739384584628
28.9621790300982
35.4308703509778
40.3462688069575
44.9786505709913
50.0269390954166
55.2819234593199
60.0487715810616
63.906726187526
66.0975311462368
64.7261981585554
59.4733626526035
51.2452931041854
38.4949010574842
20.3659533367596
0.660620787115297
-15.7835410128807
-24.9134496791501
-23.860175297267
-16.1738404188295
-9.83631888552791
-7.81596030990185
-7.09374725189305
-6.74567459997965
-12.3097539426469
-27.4101467051323
-45.2225732799689
-57.0779802567858
-62.9364518184083
-65.8908400297537
-65.5406106093873
-61.3612097633161
-54.2510829557977
-44.1744806557207
-33.0555366299013
-25.0509279518535
-19.3736754549749
-12.4846815551018
-5.36420813919041
1.43689949296485
11.2010447278711
24.3994548343238
37.892863013557
50.028197449877
60.482174151512
67.8738317817719
71.1532998224461
71.7904367793152
72.2507195173964
71.8437034493606
67.0888156209908
57.9228671485108
48.1090505267341
38.4395435162798
26.8752885352033
13.8249814443956
1.08059578302073
-10.40654478644
-19.7606337478464
-26.9547799221367
-32.5598453408777
-35.9308384222562
-37.2601943143363
-39.7550273754435
-46.1423213874991
-55.8391666402328
-66.2075614997116
-73.7003943429808
-76.1449427484254
-74.420048653504
-70.3477045369363
-65.1882666828356
-58.0857783093153
-45.495226099761
-27.6172774537107
-10.9108839004594
0.876624016394775
10.6522441243049
21.006885645511
30.5021905437091
37.2704863236962
41.6916744626211
44.7929319043078
46.1068437164352
45.0221557741577
43.384852562657
44.3163094097174
49.2673735760781
57.1821448187181
64.2064889950935
65.9500563181542
62.337805636273
55.2135224767775
43.4810812066358
28.2200023788398
15.4462964940969
7.81550416652761
2.87476780841828
-0.0951488851298068
-0.813631152696228
-1.39379567176207
-3.54219390779113
-7.67690770309875
-15.6438738151687
-30.422794205914
-52.5082176672861
-76.4336465940792
-93.2037315368711
-98.3311748188354
-93.7429718753232
-83.1814787496069
-71.2537329730946
-62.3896718524222
-56.3978009094154
-50.5148481940413
-44.3991304625608
-36.8055499445314
-24.3026707559118
-7.24876290452874
10.7637089840868
28.4170396440617
45.2445597464393
58.9352849690816
68.6834067212117
75.7416333166023
80.7627493733538
84.9093274466625
89.7191715313945
94.9334216719538
97.079078761654
91.184509518327
77.9130253776648
62.9490604455986
47.5474633285215
29.306266870015
8.70982613722048
-11.8413010701148
-29.883731240483
-42.2857642885845
-46.6096646677339
-42.8922678001311
-34.0625386322546
-25.498252142402
-23.3305953772055
-30.6198959824057
-44.3165411203736
-58.7528216775353
-71.3536722836471
-81.4005887161655
-85.7081758353428
-81.9862441196771
-74.7808232684713
-69.0808688072287
-61.678816932022
-48.6096944804551
-33.5521621959365
-20.7018877461378
-9.04236443143465
2.05116290757439
11.197158405344
19.9683668990285
31.8856095740182
46.2861589164851
58.6500308736146
67.415315686235
74.6351209075824
80.4122151008211
84.3873660120124
89.0692190947743
94.142885277674
94.2074457972337
86.5980012398432
74.1320985128149
59.2115776707274
42.2948365996973
25.736170293117
13.3417103475857
5.94955352679226
-0.159988575505697
-8.78146639505376
-18.7826098579389
-27.7480394435292
-36.8278618849658
-47.4199469669132
-59.1529176000676
-72.5606236631643
-88.8949370852335
-107.366099063118
-123.609794154059
-131.560047073525
-129.444166599864
-121.919691515164
-112.182620709396
-98.1426136829911
-79.4530654306981
-58.2990290022325
-34.4613830300876
-8.72957053386497
14.5841762188
32.9647744581347
48.0644356934183
62.8089940442691
77.765484405267
90.4838575444638
99.6831803300745
107.548843360783
116.45656215384
126.067142731357
133.088216591452
133.000563689805
124.361431116929
109.497113307951
89.9104524811992
67.0358335025186
46.1319420941625
32.1085997824782
23.8474221690305
16.5738062098698
7.04112449812863
-5.26706913323565
-19.8641534853106
-35.2456667867469
-48.5850831634494
-59.9946426178699
-74.7542702482707
-96.9004307388603
-123.386037155702
-146.459395421052
-158.594432565937
-156.271237103108
-143.210060903241
-127.457406471878
-112.452383046629
-94.9537024504246
-72.8576838735237
-49.0711988529207
-26.7114421246829
-6.41661355058173
11.7798075995421
28.1337585425142
42.9209858030283
55.6708471291028
67.5597309405929
80.7001653852052
93.6123577342257
103.849694050371
112.626534003629
121.978843112551
130.782904122128
134.600885226828
129.346540681086
116.559691706923
101.277615890508
85.2528594922909
68.0641923135536
50.0579259894628
31.0994853408134
12.4732642531139
-3.23002470280438
-16.9548245117495
-31.155201267495
-44.8455693870272
-56.0710232170833
-65.9361909960518
-77.9124881217622
-93.5656691219004
-109.465415420189
-121.075040037601
-127.547841494746
-129.020510315387
-125.385895497356
-119.629100682549
-114.137805622068
-107.089366275485
-97.5960310578498
-85.8702608971744
-68.8498866496147
-43.6744923926381
-11.9182141694104
21.6515260197369
51.5008814571351
74.9357874955902
93.4920943824045
109.270010380075
122.706699682565
133.765012106628
142.629159678967
149.779545951294
154.883333428729
153.822903514689
142.022279966526
122.432695659916
101.379184761757
79.4310024878939
55.1493248767603
30.8764336328281
9.6207320062072
-7.51327436197606
-20.6233907700644
-31.437143779609
-41.7861730511379
-51.3683617080574
-59.6115556479536
-69.4181317822136
-86.5918658397667
-112.117733360982
-138.374044740643
-157.509289587661
-167.76290356755
-169.466912243312
-163.122665167685
-151.499635539733
-136.603585226289
-117.267492995583
-93.4458382346007
-67.7725742207204
-41.5891304851478
-15.0250649708081
10.184619211201
33.5031497725581
56.6661796871635
78.6905642585585
97.3344618748099
113.642429394774
128.84387266311
142.298071690809
153.316353548855
161.305337066957
165.719491799486
164.6791725574
154.737014622393
135.624927615475
111.691218224271
87.2419312824798
64.6806180861498
44.6767385862321
25.1581213245635
4.57787507043996
-15.4450160978319
-33.5676395250387
-49.4056175504807
-60.7666287670797
-66.1202750695682
-70.4471469769474
-83.3143344198112
-108.815502777419
-141.139152035371
-171.013062841651
-192.581841924774
-202.763713759413
-199.960665779896
-185.863774601439
-163.140110129658
-132.786814737345
-97.6660846502681
-63.396870975614
-32.3429615305762
-3.03373361698778
23.2158889066813
44.2283168964208
63.7763949705051
86.801310767405
111.995078594026
134.879663787728
153.171830715463
167.272940445155
179.049793532333
190.425218780329
200.82252740806
204.69462068479
195.7238267925
175.097010832431
148.77261839715
119.489733541927
89.2015884362881
61.4867042337272
36.9371646388608
14.3247697907271
-4.95347131897297
-19.7787956023827
-32.4418813750168
-44.848140316138
-56.5403065176865
-69.8692518761895
-91.4282862756179
-123.342660558094
-157.485719423515
-183.336405850632
-196.940176313184
-198.728564024985
-189.982927058985
-173.644195068733
-151.935587195306
-124.781095480158
-94.124225301611
-63.7000313788636
-33.7593971043229
-2.39045341141851
30.483881898906
63.1606706370894
92.9813772802414
118.592568234986
141.693077463081
163.833662015222
183.773942837779
199.780182838778
212.354854773192
223.554896444651
232.74888858956
233.453417908603
219.504531414243
193.853819241959
163.682475480815
130.026564831639
91.319026894415
51.4304880683749
15.8682655916011
-13.3516573374763
-36.8490420395049
-58.1944729643177
-81.0031682723725
-103.506218489409
-122.926227096522
-143.765228117638
-173.928505221117
-213.452795976499
-254.151608080463
-288.781535827681
-313.732221762791
-326.326403639956
-326.444001119792
-317.503899715085
-301.560115803681
-278.572801956179
-251.633648098244
-225.157542237281
-198.9567397187
-170.813074251011
-141.997165630107
-115.639692561212
-92.7910922035773
-73.1546659864462
-56.7138228570201
-42.9566553277442
-30.4767296098792
-17.9262543288071
-5.27268639105505
6.4244957118033
14.0130354642513
9.8493679866835
-10.6957792098223
-38.8848964738006
-61.8003040990758
-78.566944652789
-97.0050834554988
-118.541753749642
-129.842479754099
-111.38103901658
-60.9355307660424
0.694059052566736
53.6909283351329
93.7727326557891
125.189438512265
158.662631475801
212.15036489768
296.106404638299
395.739829626268
479.125454573664
527.440387369422
548.372193842293
558.685563617306
566.061210218097
571.360173569004
575.100718652604
575.158980959148
568.466113421139
555.666187923779
536.595681096473
507.775384535358
469.114554362906
424.834629966939
376.49509134605
323.1405493697
267.31148749218
212.081950877277
154.453406948365
90.3667993492616
21.7454275865711
-50.0265493617239
-132.571781644687
-233.721836161159
-347.270604684323
-457.174952921107
-546.866152683197
-599.621102143344
-610.649421334406
-597.992742497421
-582.258332388613
-568.376777460091
-555.842495264299
-544.837781481433
-529.572669226578
-503.163405560674
-469.121437513912
-439.383705834576
-421.500504478653
-410.642403868271
-394.59011204193
-364.253490824095
-318.571742088567
-264.287239384107
-211.549755253561
-166.650803497303
-131.676671307232
-107.405848589212
-86.8292928336028
-52.2505158970964
9.67395197518482
93.7205556464563
180.434485370695
249.16035598914
286.481178045702
290.49675735176
271.105438517901
242.48171997497
214.111758901051
188.271092023737
164.596826300991
147.405312993887
143.080940326176
148.835047973083
153.782638929513
150.28481884627
138.301906655769
125.849399666008
125.307824883112
140.115830048052
157.635545053485
159.041372158446
133.413786854533
86.2177800051433
39.0021309840458
13.7270329103763
15.5511516712897
36.2566856749045
62.6949162815468
75.1572731563545
57.2254448905228
15.4873635088597
-25.3047636627308
-51.0129551768699
-69.047355249988
-87.1154722336611
-98.1990291544852
-93.678883741142
-75.9442649291795
-54.226371154676
-40.5071427712562
-48.7422016803416
-86.6041666392188
-148.644456958209
-222.23297717562
-290.299703281476
-327.905965954789
-321.807088960986
-294.651534330894
-280.963765178872
-285.840404524492
-289.141604511319
-274.574309851471
-243.221904697378
-211.320045856154
-191.745495761995
-168.232343419647
-100.656024559194
31.386563410522
203.59129265906
376.918210079687
537.140119220195
694.570539791964
856.335496809108
1007.32558590634
1120.55252239713
1186.93555167463
1226.86394848869
1270.69258897637
1333.41011534507
1398.96654601548
1426.83635376602
1386.05107916968
1278.16035842308
1124.24541412566
942.442175608054
739.509427836579
515.109911863462
269.038108013388
3.86321239677456
-277.178628147755
-569.819712927764
-866.93304069411
-1163.1478366847
-1453.44193434897
-1719.39937008613
-1931.57334785621
-2080.03290113827
-2193.17420942412
-2310.58835615636
-2444.44391700554
-2578.43265213277
-2686.30212880412
-2724.9296638353
-2629.2298601036
-2369.32374180945
-2001.82516682962
-1613.92713324762
-1243.42825467668
-880.102409812842
-497.870894612388
-70.36542714058
397.744594837064
843.702364457635
1190.27025736376
1419.78679653738
1575.11346118012
1695.71522532446
1782.90456954696
1824.50285623109
1822.55343321857
1791.84224792435
1757.69163090524
1747.6416811783
1757.21352212043
1743.48904070334
1671.55071581656
1545.50987986798
1386.85523775614
1196.06294884922
948.455122989301
636.934067600245
304.621467916011
6.85003878779025
-258.73247933445
-550.269129226082
-895.825837215365
-1237.75944821377
-1482.92862353464
-1585.74402129595
-1559.01389603388
-1421.52890842585
-1167.10905786375
-798.143865293074
-374.397874917916
15.9825907141646
358.260720293983
733.779171965668
1190.53903481975
1648.61787998229
1991.49338173694
2181.23952748387
2244.22853045219
2218.10784313167
2138.04553691476
2028.70144264821
1890.80949263484
1707.86002557282
1476.48900409751
1220.22946324951
961.855759186222
699.31537212673
422.466827705993
138.987987414737
-125.910534888058
-354.172974046525
-562.539387227024
-799.146513505464
-1098.14893964092
-1445.02727986068
-1799.86782429522
-2136.12607824747
-2441.42599317946
-2698.65536210298
-2880.53371590205
-2958.92823583311
-2911.91781138644
-2728.50368714267
-2426.77743573054
-2061.63772888317
-1698.42493705234
-1381.44646757793
-1118.24400403646
-889.690305667693
-686.941767645719
-523.862687963998
-403.90304507836
-302.713338162751
-198.499828034621
-97.7238946925879
-16.8590907399297
39.4796592680307
73.5027735179264
91.4765322708678
111.120977573005
156.795717937116
245.201740565293
378.54094090976
548.145079317366
742.455598218245
952.687703667268
1167.37234248758
1358.09997806233
1483.17055726058
1518.76718848991
1480.04934239561
1403.1015176387
1311.23285801624
1204.63921904379
1075.48827268072
923.776394067665
763.865533674123
624.756846549646
541.453142213635
530.270092116979
565.487865733192
594.06540112581
576.294643444426
503.734006495765
393.697852003767
287.027665178154
230.25115431193
227.80734165123
229.640179067029
187.860552911213
99.4411660139782
-12.1911196147025
-127.15390046555
-241.439746350007
-362.624027682937
-489.37035671051
-603.813764199057
-691.991205494189
-753.658600327326
-789.032336916125
-796.54072558579
-782.599493292236
-758.488293630487
-727.99536293152
-684.036982228793
-617.220414386446
-523.224577899745
-402.970877995003
-272.573748084496
-176.101723010404
-160.334530678602
-229.05744900951
-343.874800119987
-460.185476302266
-533.213768608264
-513.765153704805
-386.426194795848
-199.318667746109
-17.8883346787176
137.738291674278
279.834030478066
398.582968843745
457.79981708258
437.07205495645
350.628224974451
227.649404541579
97.2130887961649
-6.47625143385469
-50.6753681495928
-24.42186110239
61.6458132508195
184.691117448802
303.338883204109
361.79833738595
327.204202781659
223.078842922637
104.680117782124
3.11403709317549
-77.5566596355778
-122.304582618722
-112.693474863105
-72.1044602054635
-63.3389901254571
-125.06616689444
-226.264498299618
-298.152116461882
-302.694110428822
-254.958854574345
-195.69134563349
-162.782780339517
-158.67016107627
-124.325779702987
13.2093349839162
247.970350405978
485.1705145441
633.356606967903
680.100988462287
674.967727343835
665.898803416184
670.577502951619
691.399217639349
730.285844595987
787.171652469643
848.141900896573
887.170774106009
897.920195135917
908.550176541862
950.710474919683
1031.54827705872
1133.15563131625
1215.21593966397
1224.75581092141
1123.57747816033
910.404092352597
622.882140669714
319.105054380288
41.1483235219172
-204.903753249021
-428.727514458698
-638.653079095228
-850.644266063184
-1076.18972714661
-1293.2158610678
-1467.34714730395
-1602.67652897225
-1737.23454171344
-1889.33266013105
-2025.49623359759
-2081.15554479726
-2014.06433641956
-1841.26060984288
-1631.62614540089
-1465.9226093381
-1377.51248652344
-1312.88451383828
-1173.30631937027
-912.348559895628
-581.709875392826
-279.95534709826
-63.4213085011934
89.6014994643653
227.440802523904
370.413202039141
527.613889955732
721.860567773466
966.94927781161
1239.25996428484
1485.33114018862
1660.52624720427
1753.80257339716
1771.15104428492
1719.66504859046
1619.23946600314
1501.44227425739
1381.45821410944
1249.0852801319
1092.67900672277
912.307814052078
705.658198803986
468.307617721463
223.140895497493
26.2862041393822
-77.5639980121899
-104.911321238867
-133.3036820485
-237.337579476284
-420.310661789956
-621.955161259931
-777.031365704282
-844.84770106244
-817.668498300594
-738.845711707509
-676.060119515532
-648.43037201276
-625.003408891739
-589.318818087429
-543.076042035935
-471.71763112966
-368.370511151226
-267.235297839294
-210.828706288288
-206.8353601594
-239.96702797834
-302.910082960292
-402.321696725866
-545.593480824354
-722.075708788021
-896.588698902374
-1029.03685980452
-1098.88486301798
-1103.03764558313
-1034.28959333151
-879.799723587791
-649.795832488119
-396.580645605235
-190.953650392896
-73.8484285313892
-33.7115102953495
-35.3076517126863
-61.5489754180782
-109.78354028471
-145.833882021108
-92.2707656686402
104.318226088638
407.574256026089
721.810758594408
971.352373537668
1129.6372159197
1204.58024792516
1232.27467779429
1262.62091210289
1316.93294764128
1371.52507708522
1395.39218009532
1382.50376801428
1347.37868664044
1317.02506917905
1312.51241967256
1307.80421731642
1237.91831724835
1072.10413943972
844.773623109755
611.314777811162
399.703104203535
198.800070333215
-15.5085973208965
-238.541869795225
-418.4792857038
-484.089239433887
-406.717192544759
-243.325979796686
-108.122867381718
-90.3951070498858
-196.615338956165
-366.86821897666
-538.010519378217
-689.937513385129
-834.489884575052
-967.612966587161
-1057.84129086704
-1096.95386120108
-1131.66733617145
-1212.70976045498
-1328.72841829513
-1415.29181152279
-1411.65963122694
-1291.70686240946
-1074.57611128317
-831.517468726377
-644.54506702712
-525.022068144326
-395.802014804086
-184.528125300632
81.4274675768441
310.170688072065
459.483755589637
563.625839127314
658.737090005953
741.907631335711
796.916833572849
818.158428493221
821.844031050284
839.015534931225
871.302849650262
873.150742309382
801.009528607829
650.896654182542
445.01111463725
216.521440809599
-2.29053815043978
-199.077306344389
-371.040402004359
-497.520018194581
-553.046494018382
-544.713331113064
-509.240441094978
-463.681706242203
-380.143353699768
-227.536269008303
-15.8656107515773
216.024478213162
429.948450849614
592.615387777193
671.959863089487
652.674784978258
556.916904545446
431.155830796481
309.277208112485
200.977808195851
107.660254718337
35.936070738487
-5.40309410571072
-15.2578904942192
4.04018648242663
45.8003175481235
79.1436660152587
60.7585600187148
-17.5922386696474
-116.867224062142
-195.845168674889
-259.56026390893
-354.445154702652
-514.205146983364
-713.459000346163
-868.625293210158
-887.137932564848
-741.794225791578
-504.178077918491
-280.867701713957
-117.640536767228
10.5915285395887
134.491911706217
247.722232639937
318.560684806304
329.322270407141
305.632468327547
299.379064135526
344.928242420993
441.23398819413
567.614718028462
698.174384530822
796.385739756481
817.400319198575
742.190446503985
610.882698464995
499.609690101058
450.748854196462
442.510063842904
434.953838879661
411.452614995653
357.776917841109
241.442206731792
41.077004687425
-220.208090695973
-489.154032665975
-728.787659975789
-943.663067804929
-1161.45586465923
-1390.77379375951
-1588.76020629391
-1671.74833696331
-1574.05367750758
-1302.78374207863
-930.28315790815
-537.008876965794
-172.380693214716
126.378316192952
311.382520341332
362.97553932734
326.922861270752
272.096658865513
232.617692556341
211.932293219349
212.533505127554
240.298370026679
295.049877511272
360.145341417891
399.907918440456
386.156905487947
327.0766662345
255.542476138762
198.716219205005
164.367703615053
140.031252748002
107.039579379191
65.669803056916
26.9364002044575
-22.917596870242
-114.886416107388
-254.952696214128
-417.085845191402
-568.911996109611
-684.092598197823
-734.443154731919
-691.658338530335
-546.279083446799
-300.143998356197
61.7784588438278
543.474695784101
1071.83342891764
1512.08780151355
1773.14903314868
1864.90625574625
1847.7531354485
1766.31192080154
1634.07644299611
1445.53322840928
1195.6986868788
900.873341845345
592.751257456213
287.716199578154
-13.9221498996375
-297.021065404277
-537.726653093062
-739.215170577902
-929.660015479038
-1133.25057768388
-1354.00898263769
-1567.43170574262
-1729.24552908669
-1820.04118196828
-1870.69175343463
-1911.04745963987
-1911.52667735062
-1813.27034625692
-1611.93819126703
-1378.07089964392
-1179.97349651311
-1019.41012911385
-863.101834135258
-690.873757778515
-483.077109426548
-205.503521627823
156.200860904532
573.757598190342
1007.96080200665
1426.8838868626
1785.66725076917
2041.96023378319
2195.51439541883
2272.68003736934
2286.79850197066
2237.84710850855
2122.45437608255
1931.7935870398
1663.04871094637
1330.50770307748
955.738470745419
556.426536620574
140.079468938121
-293.332030880852
-724.693489736129
-1103.93832239744
-1394.32511040012
-1610.97476746945
-1792.12032914534
-1955.07880943265
-2083.32742860001
-2127.67066516275
-2035.16566857316
-1795.15450530138
-1418.45994055693
-884.798453004327
-203.144031462817
493.965146668805
1025.39055193806
1320.65909979523
1451.96713411835
1542.94834683287
1670.31901480397
1825.72329194028
1947.95768518571
1989.27109845133
1955.91052780956
1878.64998784227
1757.53769341066
1572.12839753529
1330.00152493961
1062.891518481
792.115553971828
524.91639494997
263.105652605594
-1.23241570452585
-281.36680654082
-579.029097944493
-875.332136402393
-1140.2434622827
-1365.38536215495
-1573.9935127115
-1772.47684704946
-1939.60806516726
-2085.43769238121
-2244.74880686301
-2401.33954726192
-2478.97577532082
-2395.9070847828
-2109.41434792914
-1651.89657231673
-1138.08325866148
-701.691271054978
-409.341314806683
-234.249512071117
-103.208478197368
30.1230196863574
153.363701066889
236.573147690075
282.546471420963
316.225853088539
353.556629775462
405.690077729643
488.324875598297
601.021214720786
706.513964869759
754.431075046043
730.790612119216
665.966843560036
600.255691298321
569.048759628482
602.838568378363
704.667996170167
833.138790811886
935.525783533065
1006.3895906019
1081.01362096967
1157.84417210139
1183.39219358726
1128.79941387185
1021.58372632741
900.468162665434
788.885096508465
701.545071793922
637.176734680515
572.742776275137
483.980803723985
368.789214688742
254.340375952141
166.618506136322
72.596975216442
-102.069933506331
-374.970514115124
-682.536907211193
-955.538262751855
-1174.25451494534
-1359.47172025289
-1535.27194058371
-1701.72847699547
-1824.83109830571
-1839.91696342192
-1704.4897206825
-1469.06741052851
-1245.41796733131
-1100.753443398
-1024.78607519922
-973.542251367503
-912.375198120911
-836.812232715314
-766.277097075168
-719.544828445248
-693.760437926933
-661.441085435403
-594.666119735196
-488.17062115591
-348.167769269754
-176.688800539388
15.7454428673028
211.410673662438
426.964083920514
716.161172096256
1103.08661661276
1544.33196839899
1970.93208932129
2344.67330564703
2655.40032949179
2885.83169655619
3020.78505339175
3072.45277389284
3056.10648408128
2962.45245474927
2787.03740381688
2564.15234791116
2337.63952943315
2114.30722515444
1870.57967844544
1586.3225535593
1252.63686647588
862.032216517663
405.046881509884
-127.697988057903
-738.563455808362
-1416.2828098052
-2137.33969407885
-2864.68324651082
-3537.8843339049
-4070.10907895842
-4377.56449425652
-4436.55727140447
-4300.22818298175
-4037.7839913427
-3664.38937244045
-3138.55352097596
-2437.23931989861
-1637.46496448723
-887.683454753368
-277.89348096661
227.571769938589
713.204395263715
1202.67888128471
1643.09155069554
1967.55515317258
2146.94582382361
2201.00936624528
2187.02703841968
2165.0922449185
2151.46624113284
2109.75302456336
1993.60500599293
1788.74779721156
1515.72145670668
1206.14515669089
878.670244678716
535.168993285034
179.183499381081
-168.364215747714
-475.698619192502
-722.46490100722
-914.825354479832
-1079.14166301818
-1254.20768278884
-1482.86521563069
-1766.03383096974
-2021.28369863104
-2131.19764171073
-2032.95695988868
-1738.98483897675
-1300.04923851016
-783.138369523256
-265.198244593756
187.643137083149
550.8159422091
847.641827082077
1107.78924444749
1325.41125866087
1471.01522470257
1528.07969879787
1516.05548292336
1481.14984851261
1443.81343747971
1368.09405869694
1213.44418542166
993.441426014906
756.787774863208
535.976462972191
327.80935995873
100.952649283987
-173.777960743194
-482.393113734582
-766.009593301523
-961.200833778743
-1030.77533940928
-971.294953708858
-823.53320184509
-680.073764948022
-635.807945691501
-695.68349119744
-768.197370941337
-766.020670756123
-671.963435972046
-518.252254788169
-344.630577384422
-176.797148120835
-36.7374617883514
45.0196078327988
51.897800584048
2.78401956644739
-67.6777903136326
-142.369066285969
-221.798391794403
-296.077996271187
-339.698855651828
-335.267810819838
-280.881678382401
-179.833267708212
-42.1741039929863
105.799143018543
220.746590727757
261.144210461376
217.544842332298
116.632540375702
-10.8633743148583
-153.920226801908
-304.162561631643
-420.014231622581
-414.778479161664
-201.902055334573
215.187763858055
705.479443479624
1098.89719917771
1308.64793756344
1352.4931703451
1298.8216154159
1223.55833856885
1170.82903210149
1118.98320064591
1007.03427359549
799.094274177877
508.768682823883
177.482613339252
-151.60284439748
-445.136339703244
-673.465384283476
-800.523093522313
-793.985540553672
-651.865778106563
-423.65078107671
-191.080029375736
0.369716539550414
162.933937037147
297.368573075606
364.76354668723
344.754268308818
255.907864194753
115.275210417951
-64.1243972775151
-240.988082058471
-365.023915545502
-428.08293213454
-458.594782875656
-474.697614610717
-473.728908773759
-453.539848188551
-420.036316632825
-387.852704339251
-383.1797412912
-426.181200819878
-505.099786180395
-582.497259204011
-638.359032641437
-705.872873631319
-840.4632008418
-1052.36485397514
-1290.74866976466
-1456.42507329789
-1420.70891948354
-1121.68258512893
-657.884992392706
-204.743143588536
151.228741595608
434.800163079416
686.831787676437
910.798800451771
1091.04497128061
1232.79694867902
1375.57222552617
1546.44266184194
1712.3343544062
1816.89769623319
1844.70202485654
1815.24533217235
1740.60989919962
1616.0012250554
1433.16017938084
1193.13263574124
911.922153530012
602.15808902955
258.852342247521
-110.299776514016
-464.154982327403
-768.248487681092
-1022.11136693825
-1217.53532064715
-1312.3528924097
-1283.89556576429
-1179.03218196969
-1079.23127394851
-1034.06089118844
-1044.64943991341
-1087.33187180338
-1127.17333696425
-1117.12438881607
-1014.34317389234
-814.535194820784
-561.914972343459
-310.658074801384
-77.9563449240025
152.110934469518
384.036149812217
590.343953480058
730.394431749905
778.76055911853
746.39908085782
672.531499045394
594.963273655166
546.926340420961
555.429821543426
599.014885219118
607.664597607563
551.748961453828
487.977661167188
480.966642554741
520.449377614553
544.99364520497
512.986787286588
423.881921284918
297.481484462511
156.356482691401
6.7340979281932
-171.557902832343
-385.816125437053
-580.249253695515
-667.596074994788
-627.00204119377
-532.803289335442
-470.779899836759
-466.364247359694
-504.281203641175
-575.062703810455
-680.552679019946
-805.135069114963
-898.666073037101
-911.172982227284
-854.084528320652
-808.569113522966
-853.695381934597
-982.720012977104
-1105.20399021749
-1138.93381523591
-1064.16346197855
-870.24712245498
-514.26381824164
15.6294541816327
637.58328017495
1211.02733507523
1614.82089486829
1802.18388658282
1801.33878089749
1654.94170877293
1382.75756148833
1020.28235831347
638.728849753005
305.252997266676
63.4801581120023
-57.0852719528705
-56.3981553120444
15.5474625457249
84.3068588325539
102.076762806855
55.7862070397329
-64.7581967129772
-266.426823808065
-524.902589109725
-801.953214219585
-1085.5918177448
-1372.26117455046
-1618.57723749932
-1744.22779405133
-1679.96780273605
-1420.51989535523
-1050.11052975952
-690.591657300836
-416.805535908429
-239.671575326474
-124.878486847761
4.929526299435
239.893814068778
631.516850442905
1174.49860573324
1797.57731292953
2364.62047811519
2762.40343414825
3005.50990103609
3185.53706332685
3324.68153065491
3350.84374924918
3201.76280344126
2890.83470677695
2479.80955456798
2028.97916044176
1567.19605469095
1083.24498279517
548.594312734229
-43.9750229300699
-667.595398786357
-1273.37307296953
-1809.60438976998
-2250.70961549813
-2610.06136739339
-2913.58753603588
-3168.46920569459
-3354.28890717673
-3433.88946057656
-3381.03368380902
-3183.47653671209
-2819.1378913023
-2295.82839030535
-1710.56100111193
-1180.05058410173
-716.887016213913
-236.27986347111
321.363890474598
912.017416751728
1434.76788650559
1818.84089338193
2044.25124321213
2115.79622393171
2055.01065822177
1904.75295593587
1713.91788558947
1515.79972004123
1325.87607175564
1148.84189539234
979.266723990671
798.610560431136
582.301173383983
322.620118333834
36.8222926280699
-255.800047045697
-551.975356839618
-862.901434288047
-1202.26462989578
-1560.28519647181
-1892.34190260386
-2149.34273565931
-2313.04084587569
-2393.65370070608
-2390.26230098373
-2251.96335670819
-1899.42844293752
-1305.06776163949
-541.367994126047
242.968203898369
887.197389516982
1306.39192308394
1538.51997889439
1678.04672681201
1771.33736150618
1800.44195112748
1742.09492353001
1601.69020778126
1403.22981795281
1181.42886373321
974.021261441354
792.371397051297
603.311174280393
360.225226552667
51.0276044265554
-292.088240900478
-627.01414002783
-937.915838579216
-1221.39050237173
-1443.12947894611
-1552.5930385207
-1547.93680548615
-1478.16764634125
-1371.63222132768
-1205.49872880539
-957.191471559451
-656.679170102877
-373.380782489308
-160.430370314455
-11.964378349332
137.255893343085
357.684098194517
653.768240095665
962.303882682438
1218.12072875877
1405.3759579799
1556.77819287371
1708.59679039828
1866.28756875473
2022.56423103646
2169.36123055174
2268.27271868711
2254.65832238288
2100.20935712219
1840.88808150053
1530.27672555682
1197.80034259926
857.952073357133
509.14952222834
112.703534510039
-356.91018556018
-828.302693990222
-1170.84299863058
-1322.93781851492
-1328.42526652312
-1263.01375338849
-1185.32946460193
-1136.57874214409
-1133.3705483622
-1171.76761935409
-1246.62438279309
-1345.35983961449
-1437.9676229427
-1503.97290189158
-1555.03474773504
-1604.63858539186
-1637.47922845914
-1630.24662381482
-1568.88673794763
-1438.20615233468
-1240.06768622027
-1017.48142538885
-826.360201187787
-696.623804520713
-625.188516843418
-584.588270305394
-545.698478116853
-493.839454811586
-412.46060762528
-289.415576026975
-153.159478456449
-48.6663151509542
19.8453727983387
86.8790909440141
215.315826286081
513.618740618893
1077.49789731709
1863.03469191253
2671.6124218313
3291.97016766692
3625.88226639291
3682.79971997694
3510.81473992571
3163.36918383543
2706.52504725689
2210.85447417365
1721.56481670406
1249.67976443218
792.986785015661
359.736062305975
-28.8806361706627
-356.682746363196
-621.543206660707
-830.23904942223
-1004.29991710097
-1178.38046846979
-1369.46757692225
-1560.23542485266
-1721.7246685616
-1843.35253830587
-1939.53223777436
-2020.52178982611
-2056.75571366663
-1997.59244319983
-1837.51152651924
-1633.89139579435
-1436.36329115924
-1234.80858286664
-1000.60544345241
-730.920132867954
-437.522725305394
-138.851364346748
131.681279150311
334.874638351068
443.619233509876
457.403683948658
410.00890436721
347.815926312963
294.203612248366
257.768201491658
262.743350794694
329.672612926039
452.943538733888
640.970109402085
921.641489043865
1251.41131740165
1488.78246543769
1523.62747519754
1382.21444166388
1174.83582770512
986.390155775519
832.5146117136
696.159278316633
574.799614863354
472.037565862773
368.847343648899
240.842590075969
97.3802136963383
-24.0675062699766
-104.486010231875
-167.781967262641
-248.357115480278
-343.941260002188
-422.208023675601
-471.879974211313
-530.326181419288
-654.190208088843
-860.290004102967
-1100.02886608674
-1286.35430143682
-1337.26553542656
-1223.87049067314
-997.088970556381
-742.035278959458
-503.798746156104
-275.045870024746
-43.0226026331077
170.752288781606
325.358710446574
407.004810337478
436.00601677069
427.030063269362
377.9442332149
303.680184441467
240.788982658551
222.288303536859
276.647550896764
418.242279430359
610.966174036599
767.779219922275
814.439753943388
759.003830603645
688.970138180977
689.405741205733
750.121048003374
767.985636599294
667.626661953125
480.670091338852
278.993356861761
97.7054832098528
-37.2803181594007
-80.8712792419607
-24.9720339999802
64.8883831995646
105.902739196534
63.797820707005
-49.7062425285632
-217.719892822488
-440.881580721199
-738.709503216074
-1131.22378912026
-1598.51182335754
-2072.55739197475
-2481.68375612114
-2771.27091667356
-2888.41562811313
-2802.6673739874
-2536.48991585284
-2133.73297166547
-1619.70767632066
-1012.26488735341
-333.675926441229
387.123393111776
1079.8856749248
1625.49616424233
1940.86696149196
2056.86525302332
2076.82512056113
2077.8229302916
2070.98484632933
2034.50827912478
1958.07648741419
1858.65842609934
1780.76684373225
1777.91288542673
1860.03717750013
1965.56678751755
2009.86313629632
1946.24480244158
1772.74625939578
1505.62499261037
1148.91913213674
687.677495740614
131.393080318842
-454.495196667874
-991.851342085829
-1445.40799728378
-1820.22525460838
-2113.87414927067
-2277.50167606673
-2246.04055981823
-2019.11245971384
-1687.82549989681
-1371.19272681046
-1143.71575090145
-1023.28782118287
-998.43942742105
-1050.26833796945
-1152.97244106732
-1262.9863086543
-1336.29947914203
-1365.70081877679
-1362.93782708173
-1310.80185954673
-1180.6789486177
-960.638251381864
-625.123063607809
-157.223019049704
381.165698296729
900.248727365034
1361.59614961024
1721.50015015236
1903.37183684764
1888.52335577597
1727.38629922851
1460.66466916711
1129.97549580146
846.558286547281
754.126067108283
897.425482062574
1172.66588076866
1430.33281731976
1593.3433324286
1672.48517337737
1716.09469686578
1755.61657351468
1769.92079701147
1699.49797235281
1504.27098108703
1191.52043748395
790.327390039569
331.130115305948
-152.674537205328
-629.959597190637
-1071.92835452472
-1443.81874000138
-1723.09273140769
-1918.43144646991
-2053.00315071657
-2156.10184221918
-2268.36502121602
-2415.14374539011
-2583.75707816982
-2749.16822594506
-2904.94016329066
-3051.18827840866
-3157.20572944086
-3161.28683215474
-3019.37318234333
-2721.22582807585
-2243.4141250857
-1541.14062005196
-637.160774818333
318.771939716198
1135.41923860567
1715.46911437798
2085.87579206552
2313.05267608244
2435.33277629358
2487.74303302565
2512.37146632347
2509.67042187464
2456.04454033222
2383.85941225814
2372.5408964535
2448.88294504166
2541.27483804783
2551.94153968939
2449.73793071218
2268.82220713165
2052.69371801064
1830.90759853969
1610.59972597125
1361.24057626141
1021.31113843778
540.011521603643
-64.6069386390611
-693.297007494265
-1225.51976329164
-1582.22144644676
-1751.45899137106
-1788.56264512927
-1777.70785787033
-1779.21674157631
-1812.11677461153
-1851.37912864814
-1831.05546743629
-1690.77756940977
-1430.91745637897
-1111.87336843051
-809.99984089245
-585.338024504843
-483.530646512062
-518.085549285555
-611.705014565734
-605.691998089107
-387.738483987014
-8.01420378734346
357.943260721565
571.307683066312
635.044479585938
640.983540165057
659.886834969871
696.953892658018
721.502485823842
715.948344738684
691.121006041773
657.482866230108
599.540992054666
500.18078408687
376.506920140752
264.991690422686
188.682188841226
145.19294365364
97.1528484429169
-7.22066121984646
-179.41659274501
-384.046305640558
-585.047260686965
-770.142054443541
-942.73832089174
-1108.00413377677
-1255.13079719555
-1344.06100580723
-1320.50281957322
-1157.43110503874
-880.936057004232
-546.647219228519
-204.795741646271
103.781162452366
352.936259896051
535.135762192951
636.05019479324
634.611914444228
539.993409891796
390.923113047137
216.21671734162
27.4191892289547
-150.277843240091
-270.973311816841
-304.885094328438
-270.084593540013
-213.380570379685
-164.412380904986
-112.283889218485
-14.4397853668346
155.219226115877
364.396836138036
564.596895321487
739.47530448869
869.488014503501
908.83814809158
830.13067764317
659.510969555063
463.433299462951
305.55426499756
210.757127324985
166.864788035474
151.996819347703
160.380370277971
205.495054725987
294.912359384024
416.104818435977
560.700785596821
726.689222899621
870.300999856872
911.124233565774
814.648129625233
618.89834071288
373.928376015429
94.2290282601129
-234.027201330816
-611.841041469321
-992.707521045499
-1305.47495170936
-1514.52755955936
-1631.89182074747
-1674.07815862739
-1641.37322583414
-1540.57174978183
-1402.31670520855
-1263.43640287114
-1122.88618198768
-921.218856275673
-596.604886854872
-141.511330511853
429.530241087037
1076.74359866795
1663.99448619184
2024.34631997713
2113.9730650562
2020.53520442455
1859.88301059973
1708.43796874626
1598.09117016438
1534.873949131
1504.49872826251
1480.4991591766
1450.05151708835
1411.80364646968
1345.79699187552
1221.90323824458
1040.25289261594
820.968479721011
546.426261488229
163.929905306668
-336.766804861254
-893.207998438086
-1438.35958265178
-1960.66170184911
-2466.59723218531
-2924.83598086232
-3287.70559064434
-3526.64120267078
-3609.56038909528
-3480.90201280096
-3113.74211365255
-2573.75989747416
-1990.63748990721
-1462.70058145641
-987.246845709294
-468.243827273751
173.299397514474
880.478232390547
1487.89131386994
1857.61957087031
1966.67010107366
1900.94810457666
1785.89405738693
1693.72958009004
1612.7913776871
1505.04362182529
1359.59001471259
1194.24846311557
1043.64505715861
942.68912494999
894.503256505928
850.658630786587
731.194224782804
483.300218460936
148.084913879385
-151.218169411732
-337.801837289019
-464.862829616138
-616.383678643067
-789.582581243784
-929.931834686262
-1017.56272839405
-1069.39811460852
-1072.77205284362
-969.592349495341
-745.268192968742
-481.517191398099
-276.114673891244
-159.382127030424
-107.057259680024
-87.0230946702346
-77.804465546189
-65.6182846259772
-46.7398787137036
-34.1094980696276
-49.2535040168855
-102.623067842548
-169.240338583199
-184.591936085116
-107.630079701187
13.6000909530717
116.833749920023
261.87477172124
568.394515788006
1002.67564637208
1360.43995368247
1474.10608140743
1340.12175245929
1077.61047012156
834.988674108874
700.934805194595
661.942978946282
644.150366197833
592.870585634877
505.336956981805
402.239174811434
293.620317427759
171.694882968565
23.3311023726884
-150.205542095757
-328.154029414342
-498.496730063923
-685.487809486631
-918.057113699316
-1167.02397374462
-1339.03532132139
-1338.61437714957
-1149.06830161659
-875.271707402931
-675.890472113899
-628.40835469124
-689.622730048864
-776.156196297344
-833.819623987931
-829.509228068021
-730.619008232727
-534.444573413917
-296.527200696947
-93.3448914991728
41.2088382836764
128.887994001804
208.196579148664
305.176755208396
427.171348497099
556.699757501968
674.856506217183
804.874185069865
988.116378697179
1194.21561926921
1292.19748064084
1163.79238202522
852.444827783907
550.989360549993
421.527216803352
469.277916271377
600.023590219684
726.189202621967
788.860336125935
753.727431508049
627.496118824606
446.729887165962
248.867194631582
72.56307306609
-40.6974448859818
-76.3056738232283
-63.638933573489
-46.9510250517679
-50.7600931653903
-83.7670769968458
-162.650237944215
-312.550484017672
-540.816922643661
-816.008292048205
-1077.0384161377
-1267.11653465898
-1368.85936859854
-1412.62465670093
-1438.95106927753
-1442.64878070501
-1372.14249295394
-1206.63100616688
-1008.0985976648
-856.658908939426
-751.794931780457
-609.694520696692
-358.149892940371
-29.5693203956197
257.176277017492
414.532498954478
447.393142803884
398.424746353828
297.385994118779
182.008997690877
120.331927058856
165.119380720347
287.401208259246
397.047649792601
437.841673746133
438.033399766649
468.880619430056
570.198488274944
722.411922352218
871.092864262549
963.840700173246
979.253132249922
930.132935302576
862.201560008023
846.915529569301
906.334855958424
957.553211644871
905.048976776307
747.796827092753
543.306730190528
325.899110604847
100.254252956982
-122.892944806238
-302.911923155992
-381.990306709036
-332.647525372674
-178.246232423518
30.2556716905129
228.817842279654
353.597950006218
378.468166601548
326.603972081689
235.357754081745
128.576373207455
10.506150309645
-132.533880332134
-318.019478719426
-556.429068575631
-849.225564211556
-1180.67076709253
-1517.77380895121
-1828.62393577734
-2083.16198582796
-2222.59275577634
-2162.29108750998
-1858.06684812593
-1332.62373135044
-630.440253829765
164.873147867615
879.476656063646
1329.56862506489
1451.25990045345
1306.90060263324
1018.5380490456
734.293847742523
591.554327156644
644.248269588292
834.434753128316
1051.20412697348
1206.92156894988
1264.58657750583
1223.9803380888
1110.44430487858
968.701920613249
822.546798780673
640.65653568342
391.758901247971
114.295979312241
-134.742624844078
-371.248053244615
-664.010283233414
-1057.2786773001
-1534.60232912994
-2005.78393666283
-2313.96374001922
-2298.60963419587
-1894.18319554703
-1186.74452566255
-375.373588693126
328.150357792744
794.61104708325
1019.82114516643
1088.56584065422
1095.4464165098
1094.56561173568
1092.82757901156
1059.18306556427
952.031907711938
760.353717544188
513.017610902255
248.4949100778
-5.735319337068
-227.085989122885
-403.257184778515
-550.791249258726
-694.585980462489
-837.249019513874
-989.340918792518
-1185.7338678884
-1409.94443371337
-1553.83080521206
-1515.74723303852
-1304.06263393292
-1016.79628701653
-759.002199279774
-588.154420420086
-510.827793384471
-519.598726899877
-608.402579612236
-744.252942498144
-859.898962656746
-884.032169534859
-781.238949654291
-586.315527932953
-375.39211790619
-179.835744029153
17.127729314467
193.714054609152
296.117633095616
362.484954878825
565.082261866437
1061.3912856764
1795.29107349314
2491.67569192139
2892.71674871567
2974.38898670252
2899.35354109812
2815.51354216558
2757.49310440728
2703.17258320949
2647.12496673993
2586.12332635745
2478.98607627804
2278.3151196481
1986.90105272194
1652.33710123609
1323.79679066109
1030.52581970532
783.49087690586
571.973629186591
345.311860294693
10.5567156331822
-518.680439011784
-1242.98240397006
-2032.86137138307
-2689.07721677902
-3081.15411625998
-3210.10622560266
-3145.8737376522
-2961.17597803191
-2722.30091849746
-2488.16101849759
-2284.89276688884
-2091.00837358585
-1870.19779900408
-1609.56590665495
-1316.93591354437
-1005.25653366859
-693.555977671222
-410.531535822875
-188.808548182117
-52.5249635633064
2.99562531705302
14.5169318732874
8.330231458331
-29.9569007172188
-117.465467382728
-234.05746164083
-342.579141168023
-430.56039695795
-519.642660362269
-630.42430620753
-735.756954912846
-772.997460989931
-718.298114060434
-603.78082110794
-438.958931134418
-181.14436565412
198.567855636601
673.331108008557
1165.19440057297
1571.65960206961
1832.42539338464
1965.33804440245
2016.56981179114
2002.59195659377
1909.92604013191
1727.5211608644
1460.77378348614
1122.60310222041
727.843592846025
306.069218138489
-66.0987502566223
-277.022465420895
-287.929878161077
-204.514539115498
-169.495900106169
-196.968224030446
-168.317612320138
22.4440365729144
362.539946718086
726.615058844708
945.00653078518
906.912678808247
643.005922180076
296.294850382467
7.75629934298409
-154.911343044359
-184.345384047139
-105.739690020303
30.7448277759758
159.722943238616
216.853492376588
162.030958106562
8.14684445005405
-184.539434704049
-354.703351052382
-476.520818371502
-579.345829996152
-745.6027134214
-1029.82949170392
-1352.46864792622
-1536.81942031627
-1471.38258535518
-1183.74287288567
-776.310408484542
-358.844009775795
-18.4528646392403
211.177391052245
356.994000944188
461.519634906495
534.502818074818
557.080486590418
511.909314532169
391.94693584206
202.097382390354
-20.5839228096387
-187.576313915477
-184.753086964402
29.3946207895659
338.184726100461
553.221461480152
597.783496059584
513.536145950012
318.527908135743
-2.01858952515342
-382.213287148099
-681.673481678339
-820.280791061646
-831.847576292666
-770.433765631518
-629.846714140701
-389.50920962067
-84.4877731928011
222.088498490658
498.77280252969
738.539120941914
926.793620292752
1035.51405029325
1033.48280961882
904.747401500204
658.995459460963
329.575795143314
-32.2859405929807
-376.803160421262
-680.251818052231
-939.457808008988
-1132.68365446439
-1203.56171101195
-1100.0939605102
-818.719551793751
-420.479705229785
-26.843860489856
237.693981487471
343.476990166839
379.530479831077
460.735912053406
616.896441857603
774.811345723723
840.739048568128
777.617758854581
595.95946217611
316.947217361243
-19.7543201999056
-348.10023219778
-614.567524947196
-814.38135821628
-969.592711909674
-1080.49729343905
-1119.10270884077
-1061.08084133015
-905.652736207042
-677.911697689053
-428.999171908428
-227.006922330321
-126.190899455541
-114.136824951425
-98.5877667114688
5.22796128161545
189.288407440682
391.393136268041
581.010750288099
771.437081074614
976.541565080934
1185.6534306755
1365.2886100225
1463.67182166998
1432.26865086654
1269.53430840814
1033.63219847545
790.017025615836
558.329564617094
342.160316112952
185.756655587867
135.811983804756
161.606382458352
183.241278604542
156.593814934809
69.4937072098955
-94.1140596630316
-330.61033990771
-599.372568192603
-843.702467221228
-1006.72870746209
-1043.68143905976
-939.097723314286
-711.145195454762
-399.716436467359
-56.2086621421701
262.122403643082
508.436768451018
660.66338494681
720.050199537956
707.102405848887
641.031680350083
507.714563175425
277.242144277659
-37.1404564704549
-362.030702888157
-609.163364771937
-730.849012697563
-737.437745812897
-671.239913639887
-577.774049648306
-493.149676037837
-425.259770040618
-352.997845408496
-268.946406137664
-206.964410376559
-210.98446580963
-285.931779608541
-382.927396299798
-437.616544885553
-434.074128968132
-423.468445834262
-475.613925277687
-623.427146444785
-838.579853337976
-1030.2734152696
-1083.04844902448
-937.945106213268
-644.305601977156
-314.600191179124
-30.6628535444611
181.739451947563
303.228701418741
314.431871599879
243.004499679585
154.954549178594
100.632035937498
96.3371231371856
129.854174957712
178.270404854922
243.625920345167
351.042744712805
510.857317151413
713.535630878801
939.33740138017
1144.39911410988
1274.83311328075
1313.6754464727
1273.04599338639
1155.90524799467
979.777240201221
794.234766690739
624.777809843503
460.298320057797
314.280549461384
216.559668015527
153.317673461781
103.529691003686
115.516703147314
255.28481596161
485.138851109497
680.298981686871
760.448346582612
736.717818137981
650.700530318484
516.662881356381
314.180503191186
20.8253974403355
-345.727831999136
-707.757126451304
-953.520987394902
-1014.73903541873
-926.33322587519
-791.343585041278
-701.470919508414
-704.562852240079
-802.637427548287
-943.176777331085
-1057.2653966775
-1137.12852463598
-1220.95555823537
-1299.07019979653
-1310.38472762601
-1220.02485793431
-1034.55103064076
-769.647069221949
-461.167763142853
-179.154038738764
19.5038203553697
138.930542100509
218.582309855054
286.328696379938
362.266530142805
472.707844748963
624.289569725786
774.194082180862
853.91694484842
845.869920617257
819.957101726474
856.469130442581
945.719545828792
999.215799798257
945.461383152776
786.25392508534
581.064114771841
403.237181723883
299.634812199678
281.506031930812
336.359075646985
425.278229023758
488.166869380665
479.692268776319
393.646862991839
244.293303379341
39.8011576208112
-215.487014787116
-510.728244914956
-822.90058279271
-1100.97839875394
-1279.4487572364
-1339.86810296045
-1332.72115891168
-1321.83908080127
-1326.9763571111
-1315.75296684392
-1236.94318943636
-1056.58553613371
-763.132464075974
-373.307751495787
34.3215362329067
323.864911836425
394.85436668632
273.068040780324
80.3507612580084
-77.4056720918579
-167.68224126511
-206.365894128837
-229.54779969951
-269.208699228003
-293.663313362745
-208.148895627413
18.537979406852
290.037510998015
490.497539645546
560.698301163694
459.196706878784
178.198138396716
-202.64854863853
-563.33565163234
-799.291786353496
-797.520715153489
-454.518504001015
209.278903072446
991.199948378952
1636.92720186866
2028.27518395043
2209.0001090741
2275.79406675705
2286.47181506872
2233.26262931454
2070.65203094151
1767.11937854219
1336.39621192848
850.941330901345
439.399097447298
215.009901021003
161.871199539915
128.50579333645
-30.6179319083588
-329.741046453894
-686.157878040705
-1060.44343641497
-1503.4522158236
-2007.5439652062
-2369.36162958765
-2318.78080895821
-1778.34303096921
-919.426188306681
-3.87564034379746
760.996950485707
1279.58687794793
1569.42235797605
1705.47773811361
1749.48916918299
1724.481509202
1630.68830142814
1471.60850138426
1263.86422974919
1022.4176144573
748.597758566612
434.479594233163
62.6376578134856
-388.619728303379
-911.903983650725
-1451.35740280715
-1937.91782075815
-2333.08441148782
-2636.15709090758
-2868.95209691432
-3042.22037571365
-3108.69461281639
-2964.07266930726
-2538.29566230568
-1883.90063955653
-1141.39961805685
-436.243583533156
164.707032989733
636.899931099224
983.820318567081
1227.13368524951
1389.32120902013
1485.0082206007
1523.82973473637
1511.89991745443
1450.51308237656
1340.1959492355
1188.3128840724
1000.96155564779
763.319301469478
445.877543828189
38.91848951551
-426.561148826467
-898.583885870624
-1336.37198895327
-1694.69348380818
-1891.05188276298
-1849.38975318637
-1579.57885711479
-1180.48665022816
-763.09551433127
-367.647451009923
37.4050075402624
457.131027477817
814.455600139601
1036.69202946767
1137.93958660244
1168.63269414231
1155.02012096039
1122.9908306161
1103.75062633714
1094.93199091137
1068.8248681214
1012.66409639325
931.040864682542
826.405186662965
699.94325932889
563.654755906637
427.173177144347
263.65419262203
20.3457015823192
-307.642979804908
-643.573809568614
-894.076413915057
-1019.2276306066
-1035.47591113172
-989.481218266232
-937.029989777485
-916.768127044183
-919.853004085759
-892.741739023256
-792.506552137991
-626.977296358438
-420.704551605175
-175.885399952206
99.6501823436946
345.481420611782
471.148814842698
454.80891548143
394.08411404424
410.6386788656
526.419907881069
670.893428285191
772.18501777145
808.40084373553
797.765792072384
766.170010676523
729.794284178781
703.443827208029
707.213872178376
745.852468599923
776.313320685761
723.641978237108
567.397230879918
385.957360385584
259.429975662987
151.849861267127
-49.1393263968563
-375.01408459419
-700.313792949098
-840.300931310508
-708.454415288628
-374.664695723358
7.93446521268882
310.227670446485
461.873965607881
426.451102608729
194.472503420695
-207.297392076317
-712.618325865367
-1206.58899321412
-1549.02533077736
-1651.25938502828
-1526.21852574238
-1265.26830098772
-979.45853389791
-736.973799607805
-534.31414068992
-327.517801548861
-79.4133615978203
208.321549744703
480.605916306547
682.388182627092
849.217023916915
1081.14605389389
1408.92657792172
1740.91529895373
1946.11064422702
1948.28631672825
1732.8968342832
1321.9247860714
789.458306553755
252.595343359379
-199.747009875204
-546.211523984956
-796.787476788483
-948.034488012572
-995.665270882224
-987.609602074041
-1031.38177734137
-1210.1667077382
-1492.24309885195
-1759.6597632179
-1914.97097486862
-1921.58212626424
-1785.17964866724
-1537.30257588146
-1201.78979221279
-785.705548547489
-325.182948055742
101.546091680541
416.673922867354
583.140562122642
629.122469124051
633.687786305579
665.734105260291
742.800084288452
843.921432292949
945.45721941005
1042.62738564136
1130.91419732538
1167.6830644835
1083.14585582685
845.059206852586
487.928624301691
95.7573616414315
-208.966757737855
-313.107491085921
-198.611040206833
51.5647577178188
343.636083919145
637.364519738898
918.866015915046
1150.7318698799
1280.2650663505
1282.63087461466
1171.69343661572
976.260308363127
729.857082700765
475.916907431962
248.120572519858
38.6923256354096
-190.24815725891
-451.087220712199
-711.316028038207
-945.84867053249
-1164.08373691107
-1380.10393940938
-1613.94310080008
-1885.73186741519
-2131.33484932268
-2181.27742809511
-1919.67206531251
-1435.25330103754
-944.200134431185
-580.536551076789
-307.065555913643
-16.3598478859586
329.677925542335
672.138691738621
926.380908193056
1055.08438880728
1088.71832752435
1088.66986571218
1091.89160464814
1093.2913686902
1066.32281737486
989.944431226279
872.105540774855
750.092035677978
660.940980841652
619.993957643432
616.926720561579
607.415008657848
517.368117129205
286.714854195864
-68.0378200738559
-432.884190176065
-672.765226050861
-753.121529805774
-748.379078015185
-724.764903250694
-672.519112040602
-554.471801964891
-369.417489502255
-160.892847953372
15.8229826901455
140.01535932231
245.476362161371
384.192805783155
564.409175653898
729.787589706905
809.63330972126
789.528245697556
712.117110000842
603.29738594985
434.339961114051
176.349090007071
-143.026925371881
-458.432932464549
-711.638696993383
-871.120955524642
-949.813561419879
-1003.19440417121
-1072.56355288276
-1142.42945247916
-1175.05695065466
-1165.07874159854
-1144.8125822066
-1146.22271234761
-1163.27526958621
-1154.98427936329
-1089.60843032422
-972.244481790355
-821.488879119866
-646.403022805758
-456.880951058448
-264.895941415526
-69.7474412674131
130.060529676969
315.208795231646
459.734664896429
556.996735539825
613.859842994341
636.156271357743
642.336526353705
668.513590134308
730.36789847639
802.941979582887
863.823601421725
935.107108778356
1055.33217807718
1216.39254203593
1352.94010181488
1399.59011878421
1344.57468021103
1228.66254904983
1108.72223602157
1020.72985146404
952.582931282913
844.912415110142
655.65960516004
440.108445833027
312.004599484696
304.412076240054
326.362416264464
256.793530439205
29.3543255836368
-343.883429065772
-784.730126383253
-1205.47866228217
-1555.48460293202
-1805.69545694113
-1929.21441151405
-1912.09550946251
-1771.50961743493
-1555.74341512723
-1293.67271119228
-959.989057205743
-540.554089679808
-91.7103048907063
319.365172775555
693.339618243377
1069.73279096014
1440.13133256211
1731.29597535103
1877.51967297342
1880.28685858749
1776.65868132723
1571.04059198256
1239.87443286687
800.407082848646
335.361541083255
-59.230596372025
-338.239205610488
-519.696769107489
-644.309151129121
-749.581279670781
-882.179559931498
-1078.48628849473
-1315.04137728936
-1525.87763931652
-1672.21485466948
-1746.70752717228
-1723.69189476319
-1572.60239019863
-1310.4324061249
-986.499037839118
-636.527029770569
-286.947373066549
19.283326926004
223.648632311834
283.504605542767
215.664212451811
95.6779304717113
-12.3198177300974
-96.6042415268351
-148.767797762083
-130.131061374734
-12.015629353229
194.858156558142
454.400106893285
716.186813568483
922.725428002116
1030.24988719691
1027.60522103643
940.099062729775
822.852916610134
739.376756857677
716.261144037053
723.468181728525
733.780525073705
780.648703465656
905.558331668561
1070.27867358377
1179.03043393911
1167.70764183443
1025.43027258193
760.048869261394
398.882213302402
20.1258919930292
-265.014464020183
-398.639578148697
-434.116168494651
-478.388822967249
-586.096620582063
-731.107767938681
-858.11181640796
-930.055441340834
-928.215037257148
-827.504853463718
-603.964290046451
-285.373764397055
37.5052050576623
281.530758846941
429.341182403739
494.341744715778
468.499723769126
348.650785750866
174.887796190971
-3.76312324150789
-170.943137731266
-338.93874033307
-539.301163197401
-796.433458893536
-1076.07812242737
-1289.89523027171
-1366.79547321153
-1302.26072064956
-1145.70100707243
-950.522944449921
-738.810151169634
-520.390974967616
-326.011932885359
-194.198371733699
-133.390698077885
-114.136740567855
-98.5742386033556
-67.7569851897598
-10.9551405385007
96.1658855130776
278.724716304648
534.700073023863
830.019993417849
1116.54714086674
1350.94931828002
1497.20390933631
1532.81637703719
1467.87310796995
1338.16988927187
1180.63281029874
1028.52739885612
898.793250084328
770.381820666447
611.974377042076
430.158444112917
255.506768221271
94.6771622401481
-74.6369695470003
-278.433015055255
-532.359535377045
-827.417057040201
-1103.27305882544
-1249.40643369149
-1176.10860301667
-903.53581227096
-558.062287416454
-270.122285603646
-91.42827834602
1.98420658112316
62.7783414924772
120.749557652656
162.010315048186
171.085155263591
167.892882462684
176.671846362929
188.958392787702
168.223145865338
65.9113672071069
-154.706800943979
-474.112088702982
-805.522756538124
-1059.57617353587
-1209.23685822233
-1277.46633271492
-1286.35175148683
-1229.9569891749
-1081.27899499989
-825.333783746386
-492.046552348075
-148.384010514812
147.897542701878
380.815566118278
562.980558373485
706.699079402557
818.466669553701
905.74093903646
969.741153817545
998.851515029254
986.222083818717
943.596726654391
880.285257643579
785.486222325413
649.05461291554
480.943792883121
297.48485183013
105.476138553369
-87.8669246006578
-255.964260435849
-360.227095850765
-385.749614752296
-361.772013523049
-333.201900759834
-313.882867029784
-285.560893776811
-234.345533584373
-160.345963794105
-62.1140004560247
59.7237204495709
185.38225450964
280.618979787542
317.037249221806
275.831094008602
147.061201553722
-55.7568271173253
-290.186782706204
-490.962784016361
-575.815573915848
-488.784188530143
-257.39936601857
38.6277133274416
347.244051379759
640.046224342722
868.026780894667
990.107230674313
1016.47321083662
979.868024106352
900.242446708688
797.821451016
697.092645546422
609.562547254154
532.545611156717
439.220934601464
261.018532589136
-65.2076606865011
-504.732608416497
-919.732495973959
-1185.42009037814
-1291.89718310983
-1314.71806822917
-1305.53345210727
-1240.56970296126
-1074.55852338861
-811.90015884965
-502.480406069615
-191.602188042886
92.2578575499591
315.903536743216
442.568253378255
457.378072134076
380.018984922553
251.189068407613
112.899405601104
-3.35094361212333
-83.4317791666951
-129.521033299546
-155.21098050858
-179.707543934789
-214.527344850578
-262.969377391968
-337.183171038437
-447.420826152222
-571.343433867524
-665.638507042037
-706.284498027869
-696.727627163198
-644.179354732368
-542.254209056958
-374.722721136879
-133.792974975288
161.927644985984
468.460945358152
737.685994523588
940.959792974242
1076.22744678916
1155.03314294871
1192.02660167972
1206.09510313458
1212.42402218364
1207.9195325139
1169.66846844494
1072.93217228986
918.58595493416
730.023622200679
513.578256735465
241.593658806075
-109.406155281299
-498.612707720599
-815.913659158206
-966.59229072146
-952.243333274358
-851.242579082172
-741.349576612706
-659.220762962755
-611.782094826586
-592.46275524323
-585.939704662962
-580.85829722709
-581.269360113093
-593.88246258447
-607.906031221929
-598.40338279875
-550.917771916109
-473.751692880845
-376.631816325556
-246.913696040075
-66.751308931208
149.693714354629
351.86101383052
483.764339275281
518.75453612403
475.991440013167
407.727796015328
365.882045187227
373.883646856398
420.086202190775
469.85373833998
486.520116221084
450.545999678438
366.933920037761
253.673561279198
116.532978400774
-56.990542619589
-267.338044690071
-480.22176344303
-647.173492280486
-735.673905291844
-729.128112145253
-613.167708913158
-385.08143889031
-77.2429649444463
248.035645280199
534.866608301704
758.252845680485
919.851154735654
1035.04936332848
1121.79778694038
1192.84548598718
1254.64613298997
1309.1905187947
1346.96009382737
1330.95901522197
1206.67980950139
950.607330480627
589.547553117244
162.248729940899
-299.725746652901
-759.973839952506
-1183.68160402555
-1528.6007527033
-1724.75613741383
-1722.71690640679
-1560.43281607663
-1330.36318461436
-1095.90340468165
-879.045193949388
-691.789800234981
-530.760734083645
-370.269330105807
-198.42178596407
-42.2610794015071
61.0475265869774
104.202196392602
114.264840992881
129.928980270735
172.62669032781
222.703590916765
230.702561742545
171.405573052719
76.056596184856
-4.71209059279414
-55.3043593046329
-99.1768214526508
-163.623131140991
-253.355303279222
-348.409764016032
-418.477151471518
-443.326963767586
-424.155774661472
-376.34698230287
-311.547311918005
-231.009770803895
-136.866989530983
-38.2843330928298
59.2787321495057
164.148397107571
287.643305327014
423.259253681151
551.761290703124
665.780514344631
771.76533217367
868.096754595234
933.236520007397
939.07384791948
871.996413433106
741.495992184599
575.401343595504
404.920046023578
249.009699609849
114.1587453426
0.804257494210865
-99.3995798221728
-201.348556661054
-304.224167398161
-373.474331318464
-368.642148228876
-292.940490687714
-184.540100859811
-60.7320640066934
86.502949708598
232.810779867946
306.05793426636
262.214397104693
144.334087738999
32.2115783731953
-32.8381590565593
-53.4671131335088
-51.1598302383377
-59.1825674303709
-113.371702396002
-228.395084403232
-384.529343453147
-540.30523371623
-659.896670284908
-731.23802383318
-760.830127245121
-755.81088828933
-712.564663158481
-623.66850322563
-494.743797153343
-348.85153693668
-214.824909673429
-114.843186680464
-55.9844556095219
-26.3444213723585
-10.3257862532335
-12.0632013682822
-41.0881553806577
-73.8595195108621
-66.4707274987107
-7.47139879665921
80.089556590836
186.176550860106
329.546848028901
526.691350334377
760.701504600803
982.065225300996
1138.95355137659
1203.79376839592
1173.75804073251
1059.48838335963
884.363634936563
694.734205327846
547.003398360143
463.365543569579
410.075175378058
322.632730006039
153.590582770056
-81.8065265354794
-311.884261159293
-480.044985234981
-584.756047796873
-636.480616344496
-625.729989071937
-555.659121178763
-463.728190650454
-386.726773209808
-324.746462134216
-260.597793341566
-202.999264035954
-183.670602298078
-213.086166567449
-259.604941629291
-275.820531589912
-238.923521022429
-168.50530876295
-105.360716551497
-73.5238476511311
-80.5557048497475
-147.071190693122
-296.588275224541
-514.998196816999
-745.783233676905
-926.422436227486
-1024.94264225037
-1045.81098518446
-1009.36185229189
-936.005669005827
-843.774506792907
-745.503294183422
-643.649740715393
-527.753199570451
-381.686255706765
-200.675940631901
2.51039076757711
212.78456668214
424.403216058576
634.354136709716
836.22520091521
1019.37966910366
1168.46997071696
1275.01255850562
1351.58457261439
1424.04915388068
1507.66928200279
1580.71471364936
1572.55618847364
1408.14894488752
1096.93825031185
756.855399522197
516.745705587741
410.760815723704
391.529291702472
416.099332360614
483.933530087743
598.744374835317
724.528650303489
807.434494024296
821.264259563738
752.783269034974
573.392701191854
273.30665005672
-104.169976284719
-499.789556943388
-891.073347794152
-1281.48850070869
-1644.16527213471
-1912.84057744615
-2036.9485491726
-2008.6231991179
-1840.24971642869
-1557.70044231659
-1214.71509279589
-884.612063316158
-621.081864874104
-428.995490248647
-282.393350514175
-164.279574881752
-76.4647637146675
-19.744498538527
16.9966650785687
50.1899150263127
93.1941529594938
145.350529932796
187.32540211868
200.971104291074
190.201852274048
172.887062249804
162.235636875407
163.376176636361
176.753634139425
193.441278950713
192.993222471743
159.869559604366
98.8819031227916
23.4791045294007
-60.3671485184185
-147.419944772459
-220.198412387378
-248.643915744804
-205.888970745742
-91.5581436457254
65.9839929014387
232.109841824152
381.081577555133
497.784971198823
581.164582004408
641.448064803488
685.602432910658
708.289307014273
694.97309872393
629.639577844494
506.889075663986
341.850228536295
162.473455314771
-9.43464942988998
-168.305176959201
-318.609771378638
-453.82092704574
-541.859468555863
-547.69552448677
-474.45381014653
-369.801969111687
-288.196433259525
-248.714547388556
-227.727865924175
-191.580845963108
-132.875283552714
-73.1906760308429
-41.384132282227
-57.7995774665766
-126.117119349209
-227.116051163815
-330.949628750356
-418.02656135923
-475.03082188088
-484.108253844331
-435.965449476159
-343.297451436884
-231.830908666681
-125.934406080767
-38.4853899048656
37.5994452763722
122.048079882482
223.796508149838
330.064664764425
418.993207171999
476.469410470312
502.508712448108
509.587989324761
513.05524387998
517.249908564094
519.677178417177
527.712472856383
550.588911364123
584.630352329933
627.093107715022
681.025745030927
729.062978937045
730.039870645328
658.487420763397
534.659105203633
406.873078199366
300.106065609518
178.129450826589
-30.1786730543185
-349.486729507241
-710.045773755111
-999.122797723837
-1153.504686588
-1180.35658822965
-1095.30447200449
-882.998261456431
-546.673697255819
-159.785863410002
178.780745976794
420.91342164152
574.077387022832
657.03338276158
675.113173910956
624.618791470615
504.840197965121
331.368631859079
142.53950437286
-15.1949091656057
-113.555061628739
-161.767835453606
-211.561364308684
-327.036202561595
-514.845088989282
-690.854813793675
-751.298694888954
-670.669166544482
-505.053196223154
-326.974085458778
-191.07297527803
-125.717463187097
-110.822658442469
-86.1442748973804
-15.3537868220684
73.1026520463993
128.471679875162
139.766526482781
134.282620450962
136.225564500489
151.678702650697
179.61631991259
213.779813229437
241.466895195993
257.571389461156
268.522533951034
268.179883450789
225.65710058535
117.341791740558
-31.9786626691292
-160.353123388769
-229.159799289268
-255.01268897792
-280.300336655578
-333.042783702114
-413.4816282876
-499.972266805719
-554.77703955408
-532.165587318394
-413.054823169892
-234.270689631923
-52.6194255114705
111.124020460872
264.009673379264
394.451565158015
463.87194684008
443.361858282913
349.43071582909
238.886121995316
163.646703413292
133.435437083799
121.782450974081
97.7947498970248
49.8518639176964
-15.415166218813
-87.5355415156192
-155.421833054023
-206.07465522393
-235.804525552458
-252.383147635285
-253.8880705746
-215.892509154144
-113.308122743395
42.7598802118903
200.656783919786
311.334087107983
366.976800937563
389.713034466008
400.761136246671
410.914263536953
420.271708834805
416.11057636932
384.935451948776
330.263441223708
273.557088032039
236.556414728856
211.23382901422
148.912037093142
8.04159600024646
-186.699872978113
-360.157569881508
-454.562093140467
-466.167551573966
-432.607792893093
-397.820395814784
-381.633140107676
-378.842291389937
-380.891800304951
-381.722736429303
-361.318474129548
-287.245112492264
-147.88297251276
25.5883739398998
182.969560758931
298.521566134659
378.233945360731
427.9309882794
437.96046125643
401.615038996627
330.517847099116
249.035917244228
181.800410287182
147.236031335224
152.068250320377
181.269267409478
199.736599640291
180.863758405798
133.128076138297
84.1034069747147
43.91805120993
-0.337979174545918
-59.9240957581794
-131.242791547776
-207.550126213473
-285.826280537846
-358.268208345099
-410.710671933869
-433.217873036558
-424.471356491569
-379.568727381232
-287.245674364662
-160.034233027949
-50.84771912535
-12.7355694673475
-55.0115561813159
-148.532248609758
-248.567552375227
-308.313162262038
-299.790056974271
-235.640485062623
-161.464851957403
-116.666622243073
-100.827577229718
-82.0562711629487
-34.8805703612568
36.3085545960886
107.628158617354
161.199634724242
196.21407346281
222.4309351145
252.471349205003
294.849429165106
347.342729814971
397.838448808778
430.159325922223
428.036068353128
378.057704844167
278.954897241473
154.367459780031
47.4227486750964
-6.09693055916049
5.50477497062709
77.1816388835597
193.121316902712
322.48295784607
430.645268499273
502.754958391047
541.91201763729
545.546683060095
502.295215828592
411.709939797504
286.578633850478
128.825806514846
-77.7495061978221
-337.038133981168
-613.84909555791
-845.600857521629
-981.728014991535
-1017.90533987841
-986.612582950326
-911.525020057382
-791.057593014361
-630.606555823307
-464.964613061389
-337.890897447487
-271.285906500886
-256.148673154402
-263.470989932377
-262.271887427277
-233.680010240057
-173.044781704745
-83.9186930595801
28.9133627142829
162.497530822136
309.058879094004
452.780258386457
583.371837406809
702.587558621268
810.547985693509
896.999571706908
946.091771664869
941.723370094411
873.230339333956
750.833701949739
618.769330705513
527.648294933306
476.883416054969
401.943595961724
229.237010742407
-55.4248643137257
-376.490996933707
-606.162880280832
-656.36154889546
-539.791027782776
-340.969839008337
-148.935316403446
-20.1275566046304
25.2659302813347
-3.56664663958253
-76.5095886410882
-158.392632363872
-233.264068971902
-314.266742966214
-420.657013640067
-546.194310760552
-653.848313933751
-698.607055093401
-657.944941327627
-545.600978837675
-398.501829400026
-254.587956773959
-140.040579261934
-64.4562346199744
-21.6135646293592
1.43621565486087
14.4976724228533
23.5925851348838
33.5995386730576
45.9768648524544
58.8404105527887
72.9197600165622
94.3361599515457
130.169226228524
180.090058365563
236.430712799791
296.039084902876
360.376655162438
421.396172079115
462.091026377542
471.334938913626
447.315885189925
389.11190178742
293.930177764801
165.452748804474
25.2688725857488
-86.6091071427904
-132.021195831554
-107.36085210084
-52.463398947958
-15.0012888914233
-13.7968753529936
-39.7774593167601
-72.4563331065414
-91.480323548245
-89.5151521438286
-77.3886675783801
-69.1516447866104
-67.3928854739688
-67.5451258191744
-66.2665291418636
-60.7811443465775
-48.6718482329438
-34.0417650620882
-28.4414984681913
-39.6063709582693
-62.2833685017698
-83.7949132424191
-95.2408611956397
-96.4821967889919
-94.063064783324
-94.2310169433051
-96.9409128782105
-98.896079817511
-99.6030139377461
-97.9679112512089
-87.6530719460155
-63.3341233061153
-27.1741114789839
15.9389173271191
63.6672015886185
111.400919340716
148.806441513294
166.533572651625
165.002684710106
156.283214047002
155.053757418297
164.713123062754
173.367311430091
166.007798622347
139.918981517714
106.633249925685
80.5728067960147
67.3026844101511
60.9002802906969
49.5688590224135
25.8632201005391
-5.25046432520885
-30.3564519871184
-39.9438530036795
-34.709255842649
-20.8661917012535
-3.32510901505073
13.2800038851687
20.8334082649541
13.4337232809773
-4.0474229923299
-19.6721198336731
-27.0836188471303
-33.8655619256226
-59.286113561329
-118.71181863413
-201.987217985248
-273.23666949972
-303.26559304445
-295.385191384922
-270.602708894797
-239.653722266989
-198.868315867116
-143.546559660046
-78.3324984612794
-16.6054425563989
29.1932323786059
56.5021579408241
72.0766217269102
82.7345940264381
87.2770822942876
79.1039900526099
55.0685609660801
19.5792134758199
-18.2289859309795
-49.6371088908433
-70.1369304715384
-81.9794368534712
-92.5994137349944
-107.37102506493
-125.15357274452
-140.868148008887
-151.60775004363
-159.267280184702
-163.829075610385
-159.322239103905
-141.646202762275
-111.47506513993
-67.1446513610468
-7.6830645944849
57.9208877371392
117.131642399393
165.481544681124
205.908959850061
242.965836535299
280.454275486554
321.823461916201
370.949389759039
433.907142499563
515.740024473819
604.102492492254
661.940138617359
655.476433134104
585.075255338322
476.193897895559
360.71712012427
276.3865127081
249.768117671366
269.662101656969
295.856801492878
289.625487160454
233.506697150144
133.188724550194
-0.305422693041483
-169.192301175554
-378.808733692899
-609.360960630869
-805.582086755155
-899.376243773845
-855.929885183116
-705.325425349373
-521.341768172311
-368.448335067588
-266.79707854341
-194.342093145724
-118.969428013937
-32.2928175195793
48.5655666292825
106.370005177604
143.000472748561
174.314515561395
207.708630056531
229.675263280855
220.601218730231
174.783438809783
102.474124135809
20.2717849180529
-61.696068910872
-147.820641855326
-245.447834479212
-348.747764756439
-443.675446272851
-513.3244267718
-533.489205959488
-492.098795011879
-417.597504265969
-361.865061210812
-349.560679681106
-354.52700565668
-325.481364570644
-232.125781009259
-91.3361813174237
48.7700677632603
152.070120669171
219.227553013628
271.623653814945
321.347761330256
360.686159858473
376.427302115502
370.291688321972
361.456841132396
368.445552293154
391.558667436196
412.505401022748
410.964768305964
378.556890597646
313.864951549226
219.331567702272
114.080212864704
34.7532382256875
9.64937866311922
33.9864292758917
77.2509862708425
111.686056555491
127.251778247605
127.311021015315
118.510681408628
103.370205655593
82.837289214279
64.2621040732883
57.3830931599483
56.980472623486
40.5877166023596
-7.45307174209002
-83.0282856258619
-175.690259851579
-269.657395048849
-330.250430204718
-320.705299587832
-241.546675151548
-136.719248768514
-56.5735677925749
-22.0532442776805
-20.245842989746
-24.5543237318013
-21.1472532685377
-18.1238008647216
-27.4463369112055
-47.1377890529006
-67.079917087291
-81.9139612363567
-91.5158858326498
-97.0885218127072
-101.843243156029
-105.224656790505
-96.4665899794569
-68.0183380307423
-27.9707222843615
11.4850902736975
43.1462973546478
58.5127003954172
50.0203895855192
23.3528450274086
-1.60261689088122
-6.03227079458437
10.6593352515468
32.2316772385117
43.1254326366704
35.879385513246
8.38412635787456
-32.8753299576818
-70.3926416352103
-83.1984668110424
-59.7474079221423
-6.95928815647587
51.1292469735855
88.7330440995568
101.652612767573
109.195112249639
125.180242639086
140.658932599515
142.562916085906
134.151947359222
125.812559350703
115.878255751004
93.8979147468051
56.6901493575189
12.5221031178007
-26.2397387808139
-53.8031857273198
-74.7597685139281
-92.2842882388237
-99.4550206465791
-89.3472216233111
-64.7913487419347
-37.0676117833768
-19.8600058909958
-20.0383543594848
-32.7074319346962
-46.4227410935185
-53.5409293092497
-56.4061558055641
-62.6402465030171
-75.2161249007831
-89.5998267081587
-100.540605301552
-107.258331285806
-110.532479683375
-109.602074456971
-102.95370417426
-89.4362524307226
-68.8710762240388
-43.1590658917691
-14.9270389629481
15.0397366488352
44.6626433710849
69.5304063509245
89.4780780592488
108.043050911611
125.247700314977
137.700781336212
140.98169931363
128.822781074385
98.5378346404086
59.1637386609234
25.5338888856313
4.36936895439046
-7.33133320054875
-14.7485974595318
-22.0945423083628
-31.6126740691275
-41.5704404610161
-48.4269494544211
-51.6325177937006
-54.4289381001959
-59.8417327569691
-66.2785808423823
-68.3101284094749
-62.5082064551889
-51.7878323051109
-42.2377249076236
-35.9589036447647
-31.0739318592814
-26.40770423766
-22.1236225622495
-19.7190608848707
-20.7034777904866
-23.3328181538166
-25.229762136071
-26.9359647351554
-28.2754579486671
-25.7535648836195
-15.9199851676126
2.99996459255777
32.3587887728163
70.9591452064603
111.443906291045
142.909346006515
159.250088241597
163.395380074449
163.701193227705
169.298799472734
184.251430429299
201.637210283011
212.012703002859
217.610089140492
225.052920988881
228.004602703416
209.118756313651
157.063246724233
79.4581804864978
-1.39501898065992
-68.9208445896748
-122.340774478602
-165.35168639073
-196.640258761869
-211.971410534542
-210.143169220829
-198.429030694033
-188.831682256545
-187.87166737836
-194.098393234242
-200.630092622039
-198.030301353265
-181.798944926835
-156.543935650735
-129.464802844756
-105.338539368899
-88.0093930309804
-77.1385722518353
-64.9229031240148
-44.1869060950251
-15.7067250813914
16.2780585222562
47.3940884719407
69.6806785426348
76.7780884423841
75.6934181540254
82.4430550624242
103.971874369774
131.234338454183
148.336457769556
142.475286591551
109.355388080546
59.2091729573325
15.6287616122555
-2.44114267336853
4.30114863687246
23.8209605483503
46.4990326987986
68.0368657066289
89.3646858751984
111.963170249488
128.239335298671
125.659639390141
104.576679861468
80.6122892563774
64.4284576577263
46.3917931664125
4.16379201954272
-71.4928224539799
-156.53754036829
-209.542281099807
-210.776460849384
-178.522001177265
-149.894792659767
-147.548827470083
-158.92449075601
-148.802035816344
-93.7277537382496
-3.12377942644895
88.330988544599
148.563296643362
171.241349124041
170.927105289371
161.90532550301
145.304125674558
110.603549064792
51.2658308910653
-17.1283635104261
-62.5920722549572
-65.4193236964079
-35.071123356704
3.50090594134721
34.2211913928346
54.1650934056267
58.575651624293
38.5064740871375
-0.736562760482561
-35.6052081683756
-48.9507107487887
-45.2126139758706
-38.2034824037103
-36.7309370579106
-40.0949280198428
-40.5717681806091
-31.8140544585543
-13.6004661696777
10.83482564847
35.8021898236015
52.847194788278
54.637999260779
38.8849959783848
9.72798183383128
-24.6663288743622
-57.863134266613
-84.7491918750694
-99.5056693766469
-103.201958761524
-104.997453478772
-108.811589011445
-109.192378130547
-100.521640470155
-81.848192111483
-57.0840008319562
-33.2343889465969
-14.1026536849901
2.02437815901531
16.153701360457
25.0554366946226
25.6892657924981
18.6310495538135
7.03223310426609
-4.78344178215196
-12.6163170155055
-14.4413389788827
-11.7921927000445
-8.12119011919694
-5.01245165684552
-0.965316767457265
5.90426906880341
15.285971129495
25.2129579708952
34.3752425304024
42.7245841367596
50.6651246295175
59.1604682212213
68.4462992182696
76.8979423193584
84.8338619544221
95.7547464026696
107.657631020213
109.718105556711
97.4158971782732
80.8805983881257
66.9159063137685
48.4855440546985
20.9879146257115
-8.63970725723029
-30.666291673025
-37.1645256129288
-25.7595050914585
-6.22869108709159
7.76006438181465
13.0013458680175
14.3206876485242
15.5554695853017
18.6057879066707
23.252230987475
25.0528435833651
18.6534529249342
3.76922698732672
-14.777904711694
-30.7189573055281
-36.6915884758023
-25.9441820358995
-1.76992134400789
20.215805896264
27.0701541399509
17.3995773997717
-4.95604789301274
-32.1689195581111
-51.4840781428459
-55.3519560744144
-49.0917711782197
-44.0137492128505
-46.6280145602817
-54.2116905378522
-57.1990142427092
-47.6032216007707
-26.9416551867702
-5.68697827410973
4.88413735045879
1.94015218321144
-8.73620761294839
-21.0372259050895
-31.0104514078793
-35.3559857371674
-35.4485394773322
-37.2088254908925
-42.5704649353817
-46.9503105329579
-46.3571579871804
-43.3997899486442
-44.8023598970698
-51.3485578740333
-52.87995810904
-39.2571344418907
-14.7842538682584
5.91213214231009
16.115659290128
22.1757357966561
31.655718750347
45.8767487225118
61.6130639392108
72.6601488826355
73.8447378320245
68.9630202144542
70.0812847284702
82.7100627945311
96.1364358487311
96.5521682683114
82.7769147615679
62.3344769912621
43.6464004061368
33.8190105419705
31.5443241527138
25.8902352335218
9.86035414050159
-12.5780378521272
-34.9724157522385
-55.7197259759742
-78.5691868025803
-108.146047356794
-139.878349875707
-158.4524808987
-151.96074436971
-123.407649484413
-84.9798367091351
-43.0834082453772
3.65692190361274
50.019412938953
82.0170183232073
94.6391909659173
97.3660773693412
99.6691317080174
103.140219786056
105.306929809796
101.323792995142
83.2303875962814
46.674756118246
2.97444722160291
-25.4810633446314
-29.0032542044289
-20.2896315257937
-16.8025733545352
-22.6710287960024
-29.0738698951344
-23.9573852007187
-1.44210632284849
31.6688232847805
59.9920344699197
72.2049110532239
67.5169157316353
52.266326925532
33.799202271779
16.1819807474779
-4.50477876871537
-43.7796774779885
-116.094124165311
-207.048062055397
-269.435404659039
-264.066117285903
-198.116115091383
-112.13229035977
-38.8274878797811
18.1484313049151
69.9895742242923
114.05241443965
132.335755035721
121.893715389138
105.412283973391
101.525175903419
104.663525338948
101.788073837172
90.238134798491
74.7997094763157
60.6547882625349
50.1608929563238
42.0029983709751
35.5742169671384
33.0473619232714
32.3333401703748
22.750403628472
-5.39166185392694
-47.588178917229
-86.8217251916068
-107.974081791171
-105.059665347992
-79.5081022639697
-42.0998617598299
-10.002963303501
7.38871924854366
13.0924058713429
12.0169894043458
4.46947474003994
-10.2275831147946
-29.5293129287614
-47.7454989827164
-57.7568932905098
-54.4206033453352
-40.116461967348
-24.2724945041966
-14.5044414588943
-11.8661908685079
-14.7847755961189
-20.9129498953595
-24.772715853784
-21.9590893917134
-17.3494451789502
-19.530474634279
-26.8080236273606
-29.6445629770107
-24.5042805632399
-16.8412765935083
-14.0309423318255
-18.8701773783048
-26.6246135558631
-27.552595964406
-15.982241113526
1.28089157214582
8.42302634847782
-4.95292977608082
-33.6722301315407
-60.2787735035513
-65.7690823904985
-41.5759320988604
3.22888998374412
49.5022701552169
84.1358195953135
106.86710092464
126.642374053491
152.295058755289
179.61449509041
192.517271763599
182.505752545235
157.741563998987
133.619559419794
121.484117628727
118.431937120236
107.425486004098
77.4926194121194
39.0043698285163
12.1190828557071
2.39367372950512
-7.36324259822037
-35.2291170282393
-79.4378655546357
-126.079062552687
-158.478406290517
-158.992925598995
-123.844258549131
-71.8311972294596
-26.6811887502109
1.24238245456817
13.5483341073837
13.9938113597642
2.76982504327956
-21.9014312082262
-56.7529069308682
-90.2828636513015
-108.646748649291
-106.26450819151
-91.198871929972
-76.6784405362322
-69.1009045327842
-68.1723978529221
-72.1505394819279
-76.7473724347196
-75.7838408148785
-66.9318997041131
-50.8671934653882
-28.5957692905424
-4.16262041993864
17.3442335411431
33.7367209759422
43.7876596760621
47.715659886758
49.6357937753366
52.5463831470972
52.8796153491023
44.1434938461582
24.7257047329705
1.47047922758282
-16.0533593499294
-25.4323041346217
-30.5082073067243
-31.001686709942
-22.1153785121408
-4.3961854947024
14.3472526185923
27.6095189969097
37.4308846901543
50.4376091420146
67.9226569292466
86.2705608220334
103.077413854533
116.426625868804
125.03625191766
129.94887752405
129.025788646289
114.13385132295
80.7531669805862
36.4329364472554
-5.40172875249386
-37.7524149547995
-62.2869436589748
-80.4610520394226
-89.7812972979237
-92.0815600109609
-97.4324659805036
-114.973925154626
-144.619421928371
-178.249148583907
-203.327528441322
-205.690505062069
-176.06675272458
-120.232808982411
-61.2398468645779
-23.154963931262
-11.8851204004881
-16.9113104300935
-26.1398213334213
-32.0418666822471
-30.3565635083468
-23.0919875863932
-19.8208480577009
-29.0790870858919
-50.4363160593554
-75.1834060765748
-90.9251910830557
-88.7961223643342
-69.2682620411647
-37.878023734405
2.37976959638774
51.2624834621295
109.972670649389
180.245499932771
258.007767727276
329.7386759062
380.238247193089
404.749227836621
413.737653460206
425.723164500311
453.62131352758
496.093315614028
540.511587882742
569.163832166545
561.57160353791
501.677208819681
387.022236900104
225.221981757597
28.1864565449212
-179.330082372603
-357.506792405225
-477.186508055244
-544.946450788691
-589.77412571956
-623.16969212268
-623.571420665223
-567.74713562859
-462.940001854119
-338.320197366287
-222.600115594869
-135.654136147532
-84.2963278810653
-60.7079465533245
-51.2489256462727
-47.4832786450618
-45.9118468850664
-42.2017848192684
-34.0940882021948
-24.0633028679458
-14.4681146534447
-6.47692263845857
-1.75933964932792
-1.04427616734511
-4.04305688651003
-11.4406453114694
-24.0803136486007
-39.7738078272648
-53.9856773776546
-64.5731745446493
-71.7756837912496
-72.3819085704928
-61.8644494065721
-45.5112301061109
-35.4728187468759
-32.0551922670545
-21.9151029544872
2.08428578342736
32.7734721471461
59.1765391482869
75.0865088448693
80.6863099714117
81.162374840752
83.1898245388171
91.4823461620997
106.835955026047
125.073862859461
139.105694743813
143.462309243512
135.443620179254
117.545428614909
101.513417736943
99.7496993814955
111.430292906591
124.921795245937
129.321407065282
119.806246790143
100.20610747686
80.1330723273018
64.2273307145759
48.3876628459433
26.2176805856552
-3.76778769986656
-33.9016677857895
-53.5664055737583
-63.4467485004656
-76.3295818851985
-99.0517769170498
-121.436487630848
-130.858922777961
-128.151406746542
-120.381715178827
-108.699148387936
-89.72969871356
-64.2321146561432
-40.0306110896345
-23.566716780462
-11.4514810096585
5.01767325164438
26.9320610863959
45.5435650651852
55.9877429254186
63.0633450826585
70.3851842449054
75.2891617090845
76.6995441821425
78.5852780377763
81.85113140827
77.8153364127741
55.1161648786468
14.3348335676459
-29.2207120553951
-60.2472753970373
-75.0224856011357
-78.246502975828
-76.2698184857648
-72.4568355409126
-65.3460602792944
-54.9428551448261
-46.3430459330502
-40.1099036759155
-30.2952891314579
-16.7109974859926
-6.12852599232458
-2.16234828023279
-3.14196403467451
-6.04613432908964
-7.69110523034524
-5.57452246363616
-0.402587870896352
4.35799750535793
6.7478583311893
7.90193819352148
8.450274963436
7.07956164951401
3.77717615318344
-0.178305999916905
-4.04050111883123
-5.49645336133756
-1.4950042905177
6.51075018187103
12.9381153573401
14.7630924621957
15.1257556800023
19.5029518273685
30.0453167078908
44.5266979617214
58.6716820847372
67.7311838532026
68.388456622543
62.3911509493687
54.5888888577811
46.4323214303048
37.8353070174648
29.9482017106637
18.6894055540474
-2.6855645601055
-30.4073695750758
-52.8322464933285
-63.8240996170901
-64.116194948293
-58.0500448823769
-53.6225629762875
-54.6951427616326
-52.8659305495736
-39.237492564003
-21.1069072689341
-13.8660339151977
-19.4947597172385
-24.4036988224184
-18.0999370442359
-4.95286975330786
3.95011084827568
2.27270528809905
-9.35940376028323
-25.7451671052598
-40.4632252245059
-49.1788973051216
-50.5298972938944
-44.5574028286479
-30.6356170268682
-8.9693772953929
13.574237036784
22.8772807808647
8.29763982846521
-26.1975773313828
-62.3255022605491
-80.1814115352112
-75.7079918790452
-61.2670403903364
-45.9206989238614
-29.3426234936225
-15.2692160613324
-12.2260843965097
-20.1044768076326
-27.9816104785448
-24.9043067596636
-8.71000679782056
14.1036519567546
38.8438370037202
71.9569875364669
123.065596888477
189.108866500037
252.354753690588
295.831885712946
319.167668554841
335.750977287804
355.28454181403
372.592914164361
371.688325052308
339.413193158776
277.966515779059
203.537960955155
129.018358330446
52.5838753561224
-33.7847729452884
-137.015488458806
-260.145354815852
-384.558038235782
-467.965919936813
-487.497448738743
-469.225160817681
-451.977180549594
-437.437772207272
-394.111924177828
-302.308489220782
-181.841320794941
-74.1939528856249
-7.6290967831651
17.8581037297889
22.9835093229659
28.4839964296019
38.190668156471
45.4991606098645
48.0369146138562
46.7135034030293
41.6800849650093
35.9760284115346
33.7585604588943
35.6662038006154
41.2899075651304
50.8041167102532
61.8738864314025
68.6887848354645
65.93376383666
52.8712922361283
34.5132017161215
21.0875412042306
20.5750255929773
26.9278773518733
23.4236325323501
1.97615329466633
-28.4680488793468
-51.6701252481269
-53.1152424470889
-23.7175993311471
34.2520116911199
102.909445368246
154.672782875736
166.568593165598
136.45013456289
89.911215301831
61.0241741619634
60.8370276582801
75.1037461814649
88.3785858531428
95.4180654696583
95.8058095116342
88.196910037901
68.0197899149698
31.8207936739327
-16.2957616604339
-68.401169935638
-116.913440453606
-149.597145770791
-154.739732938861
-134.392835732131
-102.502956695706
-73.6104378885756
-53.3807515579579
-35.1108978653898
-9.90365486135909
20.1427291493783
45.8462067078087
63.9763396752487
77.1118759811622
85.6281091513736
88.3550175372403
86.3187087897128
80.8826580284034
71.7865783577617
57.373306690076
34.1912987073103
0.645119593643791
-37.0828402879457
-70.1574947351881
-99.3353554249804
-130.631512837358
-157.071104270143
-161.755443755706
-139.878024418621
-101.223084379895
-57.6082032557128
-18.985982760766
8.52780665062118
25.8844662333187
38.3853965066392
49.8113340059139
58.592304176437
60.1311871739867
54.272767893253
47.1613228595775
43.7803607826814
44.0429029975483
45.6329571008271
43.1120651603851
29.6173190247912
5.71339949973891
-21.0791436249972
-45.0974529382358
-63.4730262869722
-73.0944428113892
-71.7858412193538
-59.7481094586804
-41.0509986644183
-24.4876648000911
-16.4482363152692
-14.2792716724494
-12.8666632850767
-12.320289110433
-15.2350171403253
-20.8652747555994
-24.0498472539607
-22.0363301000875
-20.1437572979559
-24.3822240565284
-33.8002137136996
-43.2849208485307
-47.1095194434821
-42.8955162770429
-34.9354147032597
-27.7637868758775
-20.0248787907818
-9.8930538055909
-0.49789828092563
4.37486430485695
6.41763272990945
10.9878341615335
20.0065059244461
29.8501981934082
36.219729440351
38.0083853834018
36.6575884714419
34.4110699461325
31.0827413532976
22.7983305002308
10.398119484384
4.27593539532837
12.770411340504
33.6519095904829
59.3708930235872
81.1142266026498
92.2386286454578
94.4182179622873
93.942190665604
91.9428027956185
83.388214299124
62.818724026476
27.9079382364881
-17.4978906944446
-56.6374519153128
-63.2259961238499
-24.4506478518444
44.8452665935765
119.457106652417
185.157294847596
235.551514202928
261.899685690748
260.190245311618
241.616749235898
222.135539802525
201.453936726221
160.970143808268
85.1316051899347
-20.4788591168993
-139.669413830127
-268.104984928023
-403.697532344259
-517.128678878861
-563.895329856551
-529.879666251344
-440.967923024744
-330.627253511833
-220.066308673414
-126.187918330563
-65.8862886649487
-43.5744846750824
-44.4409954892012
-49.6974298173001
-52.8477474379314
-54.6442528080391
-50.9288518386988
-34.3316891309858
-5.7373498719734
23.7546953605436
45.3651070313048
61.2422338985794
78.3137823639629
97.8219907143366
113.129033991982
119.954201208142
127.700439842175
152.411789784202
197.015125514677
247.344793810202
288.624622029557
315.469303706183
326.5732302147
323.227745325135
311.908167661495
298.524179657664
284.028817085264
268.037069857389
246.333515486236
204.470967939938
128.534051396577
24.9523515781253
-78.609357178986
-152.798616725682
-192.079925223034
-225.626197898212
-289.151350981722
-376.937986619634
-435.791103747048
-418.173324011954
-331.2834654424
-224.860185171765
-141.660562314127
-90.0712335907916
-57.4883164044252
-35.0495957222338
-24.1105055383782
-26.3178014455914
-36.1023195430941
-45.9652555429437
-55.5277392458893
-68.6105030211863
-83.133797912697
-90.5284493439441
-83.7387308918934
-64.5397893845429
-42.7174465668896
-24.5625341612695
-6.46054506923867
16.7151338312907
43.6389309977458
69.4383239715752
91.6063020018933
110.521752781427
125.17518511801
131.390330024892
126.463021096777
112.041284353403
91.7313378796383
69.1181198173586
44.7728858137899
15.5568914774036
-17.0829225579511
-41.8149516999125
-46.5066622201004
-29.5300494955872
0.788250303154455
33.3254664344878
58.8948336544577
73.3886281368735
77.719763423152
72.235977464669
55.3306629615149
30.6987501271968
9.29702630539822
0.314241276966148
4.05533650032173
14.1414715301336
24.0497892967206
30.5737338565916
33.2318002813182
35.7417203665952
46.6162051152403
70.2673685226632
97.555689984445
109.718460543618
90.156016776642
32.0645413467469
-57.2456729914634
-152.751999168134
-219.864923080724
-237.530957134858
-212.52426601964
-167.978900358252
-123.700699665314
-88.9863729684398
-65.8957095600556
-53.8091167087853
-48.1326156931471
-35.587065397871
-0.606443391233588
60.1131360426129
133.776394354809
200.539583279101
245.742941294334
266.501509818888
266.973008580041
251.707396668861
228.860085068005
209.794460803305
195.546978104193
174.066037650528
132.742139067659
61.777059688029
-41.5198137006595
-155.612245160345
-242.636355058927
-286.014271825705
-298.007749136855
-288.652860556075
-253.899968788074
-196.436810584218
-137.732413533204
-101.839053711787
-93.6273557936253
-97.9761049259274
-98.222109776596
-90.3963940687409
-80.8496712696578
-75.967303239243
-75.2658461827936
-73.5044752404992
-66.7150918719214
-52.7226835364444
-31.7082393696058
-9.43225929747256
7.26163116100388
18.0238435790945
27.7082439694588
40.4611385230304
58.1198262340745
81.3447689042056
108.786961762456
136.941681532584
162.51442516481
183.750108773965
197.84265152753
196.427044514109
168.37544680631
112.059840537301
43.3370109393485
-10.3230438509895
-26.9861323972466
-10.4741391624649
8.68691100683192
1.87843651574946
-33.4822689147483
-80.2934885011897
-118.398799224893
-132.232913444798
-115.433810246084
-75.9811594443808
-32.6046204963652
0.0473422131999675
22.0644087573701
41.51628800964
59.9975202529285
67.4995547965538
52.6648646068233
18.8937804812985
-16.4170877878478
-39.6207591651896
-47.9299629481216
-44.2913829562679
-38.3345861518778
-43.4930720148332
-62.3622260683427
-84.1917125632148
-99.9658683132839
-109.209418443658
-110.674328051511
-97.0991751302821
-65.895787210786
-27.9536429417368
4.57645997478137
35.3010188926455
77.5771434995925
136.364270229682
204.036739746085
265.16970303634
300.96654136512
298.625644939538
259.188880605269
191.688212682578
104.900100351558
10.3867584852906
-74.8441756866525
-134.609307568725
-163.435967292068
-169.660893517761
-163.517518136774
-149.634713941377
-136.394001016242
-134.530394067614
-142.685140103957
-151.270901885804
-155.877089113714
-154.687784877358
-141.775467470813
-108.805257113303
-51.7394088091594
19.6656367032897
86.3812026382872
142.925380576575
202.617410316904
273.854531525108
345.326199626046
398.157039138477
422.339762505334
420.757083427767
404.985723973751
386.575652714955
364.113166475295
316.740059324785
217.728487603661
58.887891213651
-139.087660508404
-335.119467045846
-485.769003190137
-565.416462125951
-571.401904507414
-513.984246716083
-414.292376284936
-302.734530573704
-201.910957335366
-117.991665913286
-53.1329365487732
-12.0695733423923
6.87334853386662
14.800265529703
20.7046517126319
23.139830672407
16.6083746014723
1.20530527631313
-17.2112314654465
-33.551276377579
-46.2613997630773
-55.1831472287018
-60.4417705051041
-61.9792474630823
-59.5772078772771
-55.1082185006832
-51.7870224303079
-49.4667109470464
-46.4222278158417
-45.6493117214952
-50.2430780339208
-55.2906222669133
-53.8330715971501
-46.2555477802089
-38.0610177691599
-32.0459170308749
-24.8172027852042
-10.9193568302617
11.2858165653554
40.4513520325085
74.0721494893049
106.15357905799
129.061982904133
138.769511510459
136.586655895855
129.427434527237
127.37728492416
136.62474376178
156.419769494318
182.18299063564
204.501871703574
207.796914211187
181.626193357195
134.708817567825
90.6578167836772
67.912242089771
67.9971194549861
83.2486942679572
106.111484883583
127.431422578893
136.760007401007
127.793133625561
96.9391695639382
40.8779230138488
-37.486701361254
-124.137734802913
-196.478241667285
-231.531814201949
-221.545638679905
-180.842687413244
-128.102805998341
-73.260351429856
-28.9827951142461
-14.4665320939943
-37.2320577026209
-82.8425742225109
-126.301477646785
-148.202710070842
-143.996871082422
-124.377436089953
-104.928538400932
-92.2446730086184
-80.4469814596066
-62.4710242163965
-42.0421356620477
-27.8048222796102
-20.0293917761685
-13.3618265976688
-6.37856014110166
-0.71719747559667
2.95060133612898
5.22075423906147
8.15437140930346
14.4576918644731
23.9524663791615
31.8918835338155
32.4731044238571
24.796826113493
14.218401713104
6.55489460483772
5.21162805968683
13.6247117387716
32.3045962953005
56.0884472559188
79.0506693435902
96.7234050049037
107.382324348524
117.694358995049
136.356724883871
157.036162947828
162.259743625568
148.43487973042
132.058310005088
128.748429640221
139.668627210633
156.972229890383
166.752780023946
148.429704691006
89.2366985623638
1.83071704098702
-83.2841321631957
-144.567004103191
-183.622742411763
-211.478667558824
-229.009605532551
-229.989208477751
-216.410251956272
-195.003507093303
-161.794515483004
-110.057731716592
-50.3233323069625
-4.28207613092044
14.1209498741488
2.88261407300426
-31.0764274710635
-73.2702423718236
-104.882506789505
-111.306081718608
-93.0650759821892
-64.195698545093
-35.8238167737773
-9.22567851067771
12.8765984664755
23.3238753965407
24.2779979802074
27.1672757729926
36.0197013275948
44.0238450275366
43.1460790487853
31.0361283287953
15.2558311427872
11.8097058189405
32.781519262795
75.3628168294391
122.679171223817
150.471935785293
142.655982180713
110.664223436402
85.6823148014495
83.3797669026661
88.5982327337527
84.2439873836182
76.6003715537822
74.5933939427451
67.0478352693038
40.9011144817396
5.98212107361438
-13.5237946912897
-7.23085932394671
10.8748242185449
18.4017984082942
4.98803374890576
-21.6190526643738
-46.9425647475888
-67.0823760768966
-90.3442705254052
-121.729310649917
-155.006890710246
-179.000686745959
-183.507001598339
-163.017648318334
-119.989752899134
-63.9559535348994
-9.24342254102695
28.885301083029
42.954516444509
38.3907981306148
25.9658628630228
10.6708278351173
-6.21231398233394
-16.9536753909597
-11.2269069561674
10.0014646419904
34.7612601936804
52.8666849495374
62.0058865024675
63.4094678414721
57.8458117103846
48.905769107744
44.3823442067469
47.45042050296
53.0579359196694
58.5440089695799
66.8294992307709
76.0870331013334
78.1769298135498
66.5858167799778
37.6485656871596
-8.05754654092165
-58.174594793057
-93.545873658379
-104.443843910451
-93.6247603619957
-69.0593924928635
-41.2996679999869
-19.2221222683118
-2.26470791407662
16.3969889236464
37.2811050043283
53.1465386533271
59.7448000565228
59.6640382280223
56.6073087244814
51.6017591490338
43.3155539465154
29.7877357087667
11.1265474755432
-9.50670736925074
-29.2385606909707
-49.768942238646
-74.6803409874933
-100.924168241253
-119.337481233907
-125.356888413234
-121.121092453303
-107.618073218363
-83.2352836519635
-49.3433683885602
-12.0600903248252
21.7541184810835
46.4776000575638
55.1857205081746
42.2747318808522
10.8233061881242
-27.0558956748978
-56.6834865579602
-69.3437839054103
-67.7696090353606
-61.5538429075825
-57.8602095500408
-57.0075903051497
-53.5173105221056
-41.1685197377808
-19.6765911712235
4.15026429152044
22.6089431777599
32.1005501018468
32.961250095214
28.4115822067894
23.2754221150621
22.5495353726282
30.8585690565764
48.98619351697
71.9640603381175
95.6399603572352
120.448734433257
146.306706821053
170.604146294166
190.441464776521
201.589281128707
198.246054395709
176.886608180203
138.397949308171
86.263534669056
25.0100304830445
-38.469779659371
-94.7269062575064
-135.444619552929
-155.87199872236
-154.497112740254
-136.162387423869
-113.836901562177
-97.5956952289122
-83.7761826544435
-61.5007970374471
-24.9572997888304
20.9285417025626
63.1179322524518
93.1331761467249
113.074090251309
123.486256665827
118.856160149033
101.099080717911
81.1916010978875
62.8120362938111
37.4556166972112
-3.62788786445215
-59.6619497603707
-116.857566774333
-152.275690635293
-148.167974812921
-105.343304200878
-43.5719153016468
12.0071504203862
48.1895433688036
65.7961825354297
66.1898617458723
46.1991524859579
9.01675616744042
-28.6950525189981
-46.0203070119622
-34.8312486445139
-7.85712121536474
12.4535163333225
12.8984306494022
-6.21286843508155
-41.5770593620002
-91.8220994895453
-149.480747799857
-194.814540307236
-205.680011950117
-174.410553252074
-113.338157735507
-46.5088021061045
4.81641040332519
34.1198675355103
48.3387048976905
54.5684675829787
54.2401402167829
49.3754644143043
42.9247175561803
33.8150958250435
19.6516488573927
2.89705100082672
-8.54126502071742
-8.49836311842711
0.86732332710868
14.1574808077774
30.0459329333913
47.355935705334
61.6585434695739
70.3142974580913
73.3443507744946
70.2003570425702
60.5896831019316
44.426696877012
20.480325841209
-9.43121900787721
-37.7936013504009
-57.3732128202083
-65.0846792024354
-59.8073440845229
-42.2658122109596
-16.3175838252268
11.5395024706565
33.4180254490503
43.7242717847596
44.8582702489104
48.0620716555546
62.8107725675351
81.5533276706988
83.0420795322172
56.5498775606126
13.7474259611387
-24.4571999827878
-44.3258541388809
-45.3800716621554
-35.5682254573247
-20.8623275473976
-3.17468187855573
12.4004965005076
18.0489875380485
13.9293771570743
9.19386508469466
8.52227839571854
7.79020266725997
5.79817497111718
8.3343424021061
17.430029039156
25.9668174068927
26.2219807700917
17.1867344602751
1.22571857777065
-19.0120567338139
-37.9807209054502
-49.6142788269525
-53.2720986392912
-50.8663296201323
-42.9912471301644
-31.5312644131323
-19.5303996527255
-10.7116386470478
-9.71766300853846
-17.2822215615137
-28.0237754841446
-34.8414742224277
-34.8995234125401
-31.6548052742503
-28.676069339158
-23.4658891768025
-11.9018542994949
4.10134475034263
17.7045548620217
22.8704751820964
18.4281197709972
10.5335980608682
7.17798804625879
8.77763329269595
11.4406322400377
15.1582668691894
20.460454401525
24.0672737939962
23.3857639449939
20.3717807939379
18.888689582483
19.5503718711599
19.3598194059322
17.3022152125432
16.2386446395124
17.5753620884142
18.6405535230749
16.8517163886984
12.2881582997741
6.05565338779271
-1.27900727963471
-10.3991318838181
-20.961267343696
-28.0289032450596
-26.8258906711199
-20.6869332456119
-16.8844275577113
-17.2499977370835
-18.2964550216822
-16.772538425914
-11.9674332892332
-4.57789294011393
4.38823350017328
12.8361759178269
18.6032154545872
22.5587666762845
26.250171308132
28.4310166238141
28.8805358550019
29.2851754412368
27.066185027485
17.3772261943469
1.57689203365428
-14.765161521143
-27.8411072260283
-33.930813350187
-29.6169556899389
-16.3761413864716
-0.342366231691483
12.5923471672723
20.6104654038175
24.5473333696033
24.9380982434445
22.6352186614703
18.5190133742579
11.8312245341251
2.09942578841753
-8.38006777280241
-16.9683671953814
-22.6097964445717
-22.9813554799525
-16.9333635395409
-9.82782325847988
-7.9156038885149
-10.7983279120003
-14.3206370572409
-15.6883910412792
-14.4233087584283
-12.1808794694479
-11.5288051329931
-13.0962193615661
-14.5752173206133
-13.1108824707214
-8.62310113845325
-4.36632489860368
-2.02653466259773
1.22128849442938
7.86002534628183
16.7187348409628
24.2148465899769
25.2035520350676
16.224480934811
0.271081333965916
-15.4250562372079
-26.1395640061937
-30.7919170631527
-29.4638822622097
-22.5510907665911
-10.7997798245664
3.28727876590931
14.8275344016783
19.6540847485859
17.7438011603054
12.351220423877
6.35556555494164
1.68714533736222
1.1275340525092
6.17517103516663
13.375016553764
17.1582820993095
15.4282247623691
9.13557531159689
0.274209393132049
-7.50014055717955
-11.7958864206766
-14.4361000678693
-17.3818907375909
-20.6280105765463
-25.1270194575603
-30.535172253132
-32.4444601853315
-28.465256561791
-22.4956262766506
-19.0510181621476
-17.6612437249898
-13.7072343833816
-4.52131513893215
6.60006776100392
15.7831717629385
21.8337529311898
23.7161107109592
23.4584364388897
25.80584556779
30.705143488382
34.9887144874577
39.3808392580007
45.7746486963118
52.5575926351426
56.8739370641543
57.1485198653265
52.9633539127944
44.5125625590605
33.7153180007224
25.6666770883952
22.3332254649797
16.721963269059
3.83993236366717
-8.80490620687597
-12.9775816233009
-13.2460006956395
-18.0312814726752
-25.4884666878249
-27.8241089320923
-23.3621751672713
-17.4826340602518
-15.6329484897478
-18.5558896212057
-22.1135384708178
-21.6252761248038
-15.9662367784302
-6.83591832477663
2.23531792687985
5.94501750392509
0.778081013601684
-10.6210317952944
-21.0148458922507
-24.9369044398011
-21.4505771287272
-11.887259381323
0.497912178356685
9.10359707501242
8.1643205282365
0.0143673929615061
-6.29772351387194
-4.3729159200572
5.02389032648646
17.3502396019161
27.8323660058988
32.0243006616548
27.2636983283166
15.1517464623091
1.32171249860647
-7.15178280250169
-5.38102342737367
5.69530010446434
19.3464543328117
28.1923555589539
27.9388131763423
16.3568338706566
-6.0881126533492
-33.9665637462721
-59.088273283825
-75.1724410353821
-79.428370874933
-72.995992251755
-61.6742123364698
-52.4683227044751
-48.6150034338501
-48.9199041669606
-50.2266410465833
-49.4657339696838
-44.4862472995001
-34.9477153292519
-22.8918857722838
-11.6901174938083
-3.79992853410227
0.524918523318677
2.81574297690474
5.20996644751103
8.47051855337073
10.4365021703815
9.22326451896145
8.29732846832213
12.4392609211266
21.1020568841312
30.8187734340887
37.490547151597
37.638720268634
33.9821944192035
33.5943045993785
37.3981418454622
37.7934252028541
29.1505702698023
15.3196209216867
3.24411166562589
-4.54275142822698
-9.05777507077098
-14.3952326671718
-25.5047955017057
-39.5746418436419
-46.9626203231436
-43.77293607217
-35.1411613048011
-27.9198119915538
-26.2931054499527
-29.6993933914785
-31.1135234563716
-22.0748007425366
-2.43935264422394
19.5807270088091
38.9689800599203
58.4093372036872
81.3776275184569
107.985145736715
135.535977912028
158.189097948432
168.625678082912
165.861666049845
158.532147364808
149.973905563584
128.837147324397
91.518273799474
57.9658507143404
46.6464938225481
49.3481185519067
43.9055179378018
19.1488128433602
-24.9867973031766
-86.6785889775102
-152.659736352165
-194.656791447291
-194.406762774944
-163.972881925095
-132.071232032604
-116.126540570259
-110.606165206761
-98.6355212615077
-74.9973380293937
-53.1913981123165
-42.9751963408342
-34.9200116388177
-20.0969122589477
-6.52171924912399
-2.69512141743948
-2.80806312945692
1.22611336202567
8.32464113924015
14.8420843735736
20.2074607250634
25.6893518038631
36.1206300362272
56.1434293855871
78.9404410886936
89.2111501683569
80.7602784703875
63.4418157333561
52.202020016017
52.9529531551725
59.4470895603448
61.0118291460603
53.5304384661285
44.5219791509552
41.7362938675629
38.2017561898238
20.1913519875023
-12.7819060301233
-48.5825932137227
-80.0794581203367
-109.623464402159
-138.273225931492
-161.40469887021
-171.078616794236
-157.864316185073
-119.734852051702
-70.9089710768526
-33.0568204058258
-16.1305131780077
-12.79032484097
-11.1658218321451
-5.5409613834179
3.47886805403894
10.7904920960804
12.0819197350518
9.71609856209738
7.4340061060875
4.47792136172549
1.56460106563007
3.34189644072067
10.5242558042914
18.2450797891581
24.3085616677498
31.5297548534007
40.8032979911504
49.0583149676253
54.2824465608556
56.2611210767244
51.6070784302277
36.1318367110957
16.76093757083
10.7414879702214
28.516734403148
66.8457109494367
115.431130943284
160.968198441547
191.170448801588
200.91242184802
191.667344810315
166.225375074087
126.302493121988
74.687559978645
18.0931507812876
-34.0629116095315
-74.7347120009346
-105.929484330092
-137.539455269416
-173.211470852722
-203.977612355358
-221.91265678623
-227.362220073021
-217.349034790553
-185.15378839965
-134.389026277106
-76.7512602423897
-20.0650530072646
30.7381404252304
69.3391011878285
91.4541131880491
97.7796239935232
90.3932301138514
71.5116489102214
49.6950468140767
39.5463264130378
48.2657216546413
65.1121699500365
69.4141803239514
48.1965873172491
1.05059177754603
-62.9116036557314
-122.493334165362
-154.071018465922
-155.012220433119
-146.671046799055
-148.183566004793
-153.010289928553
-138.810514181511
-97.977608682474
-47.374832640822
-8.24402064294009
13.1387743963692
22.947322951997
27.453437753569
29.0815793307938
29.7354154708317
33.011111807226
42.0644043308649
56.3276579127843
72.8609913633286
89.3315377524623
104.684396865045
120.316560305893
137.728259842319
150.273259855676
144.385544256199
115.894782631094
79.3405792239866
57.6387777533849
66.0773707251703
102.958814458846
149.84031121921
183.446313123314
190.654834980714
172.281705534936
138.046324421256
102.924823973589
81.658315402911
79.3010501878094
88.6627245978662
96.5217921558907
89.6216783493986
59.2393907215669
5.95539666290328
-61.3356830469985
-137.298205838337
-227.531078966308
-330.768323092003
-417.796267199823
-446.072007168108
-398.872668948908
-303.786902686511
-208.252853788513
-138.109141570949
-85.8962901654142
-33.6989915958348
23.4061699946412
73.8228299305972
103.669113345925
111.406431778608
104.994943988227
89.0271367113536
63.3890495581778
32.9632718716501
7.98433177642879
-6.05548915507993
-10.9488676760438
-10.815554702985
-8.89630576468763
-5.75410772778119
-0.399919952788061
7.08003548698429
15.3659010655916
21.9574800262098
23.6259697563627
18.5861399621763
7.9854137372428
-4.35524622903684
-13.7400447659155
-17.1717610523811
-14.7769358224986
-8.85318219164921
-1.86764838411195
3.77016396794548
7.07265994867695
10.3773908618845
15.3966612544929
20.9910712607074
26.2611245434355
30.5877560998608
33.2618738521042
34.3160194685039
33.0003813733884
27.6480676651161
19.2341745821438
12.0334649268571
8.04295891336769
4.36244508016831
-2.92554136914883
-14.8773378404565
-28.3680448935587
-37.9762590097991
-40.5231271723368
-38.6999544632712
-38.0512986702171
-38.7456108877544
-34.865679532933
-23.7108586208212
-12.3753181673719
-11.9146292499237
-23.5394331739656
-34.8328065608093
-34.0349808725848
-22.6566218845484
-10.373725888536
-5.34107680538504
-11.3016932624706
-24.2829522620849
-31.4272712860025
-23.2110237768093
-4.78689544981109
14.2181350056089
34.0459356680899
59.1571832740661
85.5811301522097
103.132053714542
108.389331002665
109.47965307519
117.432193168678
135.730601981546
158.71456891037
178.706347355176
188.944891139588
179.777756954015
146.818117157493
104.242006905203
72.7812267962072
54.3834969513058
34.2829516892752
6.35954079739809
-21.2276677669665
-44.8266735186822
-69.1237556828295
-90.5661875529073
-94.420474611257
-72.1627003241593
-35.6061785020575
-12.6852976122743
-27.1743355244724
-78.2741765759155
-138.524215970077
-174.970013098651
-175.754826096545
-155.537871708308
-137.100676019512
-129.000955140303
-122.827273416548
-113.165719057426
-107.024663556437
-108.685312640206
-110.508068648383
-103.959935881963
-91.3851194557838
-81.0719018848243
-72.4826559973374
-55.4591855649198
-26.4506892930004
4.58806381042423
26.5326408831223
37.6865833633669
42.0533354546699
43.2881474470473
45.440360948217
52.8421048765446
66.947188617264
87.6378382662006
115.077735277223
144.218632480118
160.305995374841
148.773859239942
110.549698547985
62.2419791011883
24.5810468027272
12.6711351896436
29.6904374104934
66.49916387594
108.794258376371
144.767328729976
165.168118878556
157.788223802904
111.706882256343
33.2840083086899
-52.1434922079458
-119.824591581053
-155.151814231895
-148.029842932825
-100.316710980702
-35.2525303200016
19.3940674450783
52.2059335224679
65.9896294712829
67.7934829898371
63.5072348135158
53.9688642953468
38.6297836597679
22.5119600961021
11.2599509520502
1.11034904741414
-18.4194472610893
-52.1719413290934
-92.8152686347103
-125.885459678315
-140.006897404809
-132.654239122346
-110.314623662143
-84.4414805747696
-62.8406752513684
-45.606255991168
-30.6351645018962
-17.9306303238924
-8.42643228945571
-3.87315278999885
-5.29095096475919
-9.56205544783737
-12.4648430777991
-12.8315594745772
-11.9147242495696
-13.2300322799915
-19.0810306318994
-24.252020716471
-20.8149147329768
-9.81284937110002
0.579501093797873
7.19498177269559
12.0876330423145
14.2732229894367
11.7058383894407
7.70911742379373
8.31607630576493
14.0899655399217
19.4604466125498
21.5508578461528
23.1932242475841
26.4420213012816
30.2286096013966
33.4342959814514
35.283380294629
35.359771363823
35.2863047752151
36.4755155571919
37.3337563609204
35.7644506431388
31.0879433423618
22.8809259312674
11.579635352613
-0.499654286842646
-11.2059348408659
-20.4860675894213
-28.6842695659407
-33.8558810688671
-32.8146296875136
-24.4173957788337
-10.2717984927222
5.3730396196595
15.752143177912
16.7707889241677
11.9936212473166
7.58605755800853
6.30511869321679
9.09952429286466
13.4762335485983
9.62657407071408
-12.1411363483041
-48.2586828461571
-80.0827697366396
-89.1666715220062
-74.7973690772367
-50.8952845512914
-26.8230935733375
-1.38035110987534
26.2074817759203
51.7670627473411
70.9093162889077
79.311212695355
74.0388227849426
59.8285779880211
45.6031782356399
34.9681626237384
25.9183969713362
17.0225923844203
11.8528389340705
14.6863651859261
22.197984444092
24.4975210027719
12.9234242173089
-12.2418672367722
-37.7081589956604
-47.8414604007338
-42.914649268447
-36.7954354589775
-37.3470308736807
-39.6966740936932
-37.0957777447252
-30.2942686981086
-24.296709001187
-19.8976529169324
-12.7394115564148
0.428950375088771
18.7240084941035
36.8612230932819
44.6581413863349
36.2057422341178
21.52834862794
18.5943138403943
32.812558256252
51.2890942366915
58.9839064898979
54.8503414641262
47.3774617551566
39.6822191879257
27.7682776093842
11.159202126884
-5.26242227112303
-18.9370880232666
-31.2827523142248
-45.0102101010732
-61.1419651161899
-72.5840265573134
-68.9955959795245
-55.6918865263754
-50.9070651403395
-58.7032100093648
-63.671619490633
-55.168781640196
-40.9575169049233
-33.6364971195182
-34.2353624332197
-33.0799373777299
-20.2895140874656
6.74807463447952
43.2889158300616
83.0360702714128
120.331363284073
144.145784990403
136.518971808057
88.9189576361789
21.0631219904365
-30.967576643288
-49.1993316841972
-44.1440722236348
-33.64709341322
-28.0984124182548
-34.9823445617628
-59.7976607694829
-95.1680574282364
-119.523103502921
-115.971390458684
-89.0571335948086
-59.2212428092833
-43.3618840338315
-39.2599260082514
-28.807156861602
-1.47339857949672
32.7405608935125
61.3561322306076
85.6480767445081
109.046934255856
126.078311931346
131.718334234998
128.626082373801
122.678585438099
120.62205887183
128.284446662575
143.276198691308
153.987120259843
148.963955531744
121.523192738501
69.0978137793298
1.27587354814638
-56.1706798155063
-84.2501017172068
-90.7935560014216
-88.8706703542348
-75.9114223338041
-52.5718803066365
-34.5853118947567
-34.4157197690312
-52.3436129158671
-83.5017744995007
-115.719653329819
-127.634332490324
-107.309593505446
-67.9725712283168
-32.1013951540489
-8.43871038371632
6.58692428629349
16.5730178980094
20.5582529473495
15.5843682980609
2.55238081599094
-12.0440989448825
-21.2093334260028
-22.2606998348955
-16.5142623457253
-6.83638837003735
0.766257253041553
-3.35327614525462
-22.465958445517
-45.8733486166829
-59.6876235505593
-60.8730566972327
-55.7036740549295
-50.8954860940397
-49.6075835134587
-51.3569386950399
-52.9676979590901
-50.3094531083489
-40.8127581390737
-25.685891668021
-8.53350292315205
7.36888427251431
17.6931220844387
20.0248996079761
20.5645516589937
27.5708105385653
41.3066418840224
56.8251750381608
68.6188794113614
72.3747397174986
69.4451647632347
66.1860834529559
65.6866903795604
64.638087470282
59.2047844481395
48.7386224090121
33.2019005218032
13.6771031751703
-4.38800892968947
-14.4362277881239
-16.3504633886664
-17.6839100538362
-25.0040699967694
-38.9056719288887
-57.2905756163762
-72.6015737109236
-72.3506020164391
-53.6102684974417
-26.853859123599
-2.7946322935416
15.3675139149341
29.632615538526
42.2818366547922
53.1975081597201
61.134952574377
64.7006537083615
63.2395727443726
59.2713936006169
57.2226548420229
59.6225664533901
65.8447592050712
71.303893495655
70.2886277124343
62.9653797916664
51.6252178795496
29.3988118590018
-12.7713607702636
-66.1779483188814
-106.456757550952
-118.139746200278
-106.352409367565
-85.1020184237047
-62.9732322531568
-40.5688503402421
-17.118394191031
2.94491730745999
10.3322634421874
-1.74388072489961
-28.8747867366305
-55.6919455077566
-68.8914330526455
-67.3094153846921
-56.6328872587053
-41.0427422669316
-21.9449215556118
-0.130559080072589
19.6893225099884
28.419989486856
23.2567826625028
15.2485909423382
19.1136497196529
38.1540427395524
65.8421495932142
97.4349527645779
128.919337877672
152.104938134738
161.046249583466
155.239115094492
135.547277866251
103.899801339478
65.0479638069588
24.9749145738039
-12.8513231166556
-46.9482504118345
-74.6133700277871
-94.0889380293627
-107.374150012362
-116.66831370859
-121.041452634916
-119.065400358263
-110.739435297518
-94.4652334989309
-67.0835892519947
-30.7159921839875
4.98823848750755
30.8464070092973
44.6822796374584
49.9476687285264
51.8943560868611
52.6616419047347
47.1282305431632
27.8878069673272
-4.39453980259488
-39.6924860854611
-65.8143248887693
-74.1751581630531
-64.5545477426953
-46.8877022208202
-31.7794228866775
-20.8380644755083
-11.6294768491781
-5.31828340212268
-5.00808770895324
-10.5598390288008
-17.5470711477467
-21.8432062434809
-23.3341596446557
-25.4259389863949
-31.7111745393206
-39.7404001348666
-40.0041084417073
-26.0004018099021
-3.38328901314662
15.2919574542562
23.2953722338135
23.8359346233001
25.0873944060622
33.2355621260876
45.8854898093668
52.8915035197691
48.1017025194462
36.1765381877546
24.1339265091989
13.507126859053
4.34689605670315
-0.4163540302185
0.903457162715651
5.65142714172542
11.8184651673035
20.472281373724
30.7857676101683
37.6253475478427
34.9638147850333
18.7962394865393
-9.16039678343461
-35.2558356883673
-41.4314281580809
-25.2161434596831
-1.66523466003379
13.2665894578571
13.4147098099223
3.5365730547331
-5.56693031678654
-7.59991326603793
-6.52490250291881
-9.02870125083976
-14.1207330028811
-15.0759788045454
-9.90468678376634
-4.03147188411197
-1.5509008391305
-0.442020079257182
0.336462339665461
-1.17601454201128
-0.853046560490696
9.75693302674296
29.6317476295868
48.6652945646946
60.6135888836194
65.8424856624561
64.1036707771812
51.6092115133804
25.883195735164
-10.0301128871749
-47.5643393246601
-75.2883024763901
-85.2595453095687
-76.897290742005
-55.0500669837082
-27.7314953178632
-3.13610451578265
15.6927543500407
33.4789099733133
55.7158665559797
78.2970672345564
90.2571536865001
83.890499736863
58.0332957261549
21.0626492725745
-8.36704341054289
-14.1123276035424
2.97430806933887
27.1948223498412
42.8942721465391
43.2625276176415
27.8242184915158
0.868178147779746
-27.0653904646795
-44.5391300072133
-46.6452003688858
-32.7178616664029
-5.09043613718329
21.8258681204267
24.4449808156685
-6.89360547469665
-55.4059698186138
-90.9793738994906
-92.2689310824485
-62.7184095796972
-27.1742668295586
-7.49669181918073
-5.87190737433725
-12.2908929237593
-17.2356296995138
-16.5599700408418
-11.3215677341711
-4.77302050171136
0.429615450808291
3.86533428543044
7.62399941982862
12.9670612402176
17.8960371239385
19.9431723171927
18.0909690536336
13.0631877935207
8.64263624423236
7.57277125894607
6.557096245425
1.08120513786977
-8.01719720553518
-16.7862795794738
-24.3432988092009
-33.060270776795
-42.9305702689988
-50.1082977596279
-51.7023889499681
