-0.0169682815874171
-0.203752149906677
-0.373616751476431
-0.511173863610456
-0.571204196943749
-0.49017094965127
-0.253081201717614
0.12516922884947
0.594409153023249
1.00790699354849
1.23427631608508
1.34476917374239
1.48856903457623
1.61570382762421
1.54818390643231
1.25567532893468
0.857917859395301
0.472793931795807
0.208893042429753
0.123255122707998
0.0870661984941116
-0.0940827954727999
-0.401677028201403
-0.671279899109152
-0.87273544446995
-1.05987135199089
-1.14050164530199
-0.985206105570693
-0.694160997248802
-0.519274660839235
-0.595049313069273
-0.902762703946167
-1.35807615516391
-1.79454312243331
-2.02029498766519
-1.98467747011234
-1.75144553186418
-1.34811070541919
-0.837727128650709
-0.432537433505007
-0.303840391707541
-0.373881137167083
-0.457054368393866
-0.485994779031358
-0.501459604413663
-0.542561133695852
-0.585169272486881
-0.515621272867189
-0.23355876263556
0.169611215606877
0.483296338441844
0.649956602091429
0.771395784299136
0.884018848528898
0.97456210561607
1.13607724311239
1.43968059190332
1.75585936443118
1.9247016501828
1.95230821362607
1.8864124583221
1.70952554170984
1.46471949083162
1.26215034593989
1.1002115903749
0.884026469401219
0.613224824518659
0.357302155116154
0.109842825824942
-0.139347374944629
-0.294040233297294
-0.302359985263385
-0.272698763265998
-0.265712331607719
-0.162107197709692
0.0901863214947152
0.292471573030058
0.20821937261612
-0.184043820520495
-0.711516051109627
-1.16671688968161
-1.45069580305831
-1.62116762634526
-1.75949171253241
-1.82754269536383
-1.76857223655081
-1.65965806484162
-1.6128882267772
-1.62614139962185
-1.63806896830916
-1.57913679531719
-1.31202104598924
-0.736226672429375
0.0063015302217853
0.633058936266361
1.00594916964501
1.14652555633351
1.10313361152736
0.98627590867777
0.96073270064672
1.05716680421891
1.17122751977994
1.27825568007811
1.4043774866919
1.42270305403708
1.17749741588259
0.773287501194795
0.465306264775922
0.322767176186049
0.242506435316311
0.194253562732914
0.210066804273313
0.230147442849891
0.161105695754496
-0.0038538391671336
-0.223018399569811
-0.429473472881483
-0.501342871799883
-0.38370033939004
-0.20629037800732
-0.12678679051349
-0.152216010420239
-0.22551252405094
-0.334793074986454
-0.454573546711438
-0.530749322377224
-0.55192053161301
-0.522996836333171
-0.429806830057671
-0.317915377151293
-0.275512106355053
-0.279799783233829
-0.227540403056601
-0.117159454534539
-0.0089534121513836
0.117846793184099
0.260812055665028
0.300978803147928
0.217960967607947
0.182869403746408
0.261812835240502
0.290512537051371
0.181210544772685
0.0737196578060829
0.0889856599491914
0.196845066498386
0.357612696361751
0.540577495542869
0.622959778444729
0.518870546792486
0.359439457239834
0.321481348103115
0.363522011996933
0.326608906775624
0.17231959908842
-0.0396071210580559
-0.261150452255355
-0.432214109445495
-0.496202796017475
-0.489181392311825
-0.496584645922578
-0.547396165039587
-0.627081671146206
-0.703876005543471
-0.704618580600319
-0.581336104005142
-0.390240808086878
-0.200469533013521
-0.0077700093468049
0.169283679741222
0.242749215640995
0.171582660837915
-0.0182401208172711
-0.30236857618596
-0.567990443633583
-0.584081342883308
-0.29827293153507
0.0127754904642914
0.116344992666916
0.109988792075597
0.145352839110477
0.174049092099939
0.151146572507469
0.178071664819533
0.285360583447243
0.343895193375711
0.289426658735665
0.207094319695897
0.164952436089635
0.165161190961024
0.225813800179453
0.324947771935742
0.351706577104602
0.281378697748228
0.25928324064664
0.366238832271951
0.479783918461981
0.480897501663274
0.406809145885545
0.329481384455624
0.258571018604768
0.190559224037913
0.125658802220588
0.0526337569077417
-0.0221614001018331
-0.0855124588768249
-0.150982151661684
-0.205804444299772
-0.189853797809005
-0.102774235376011
-0.0190914056356336
0.0470640980488457
0.130906083475176
0.175080721528491
0.106494795550741
0.0071143922082259
-0.0135257170480676
-0.0134418523940934
-0.0764347608833024
-0.136041826505732
-0.120643968029662
-0.0792248541136453
-0.047380848205393
-0.0125536962850907
-0.0532726994675172
-0.25617147622883
-0.499713306361024
-0.582866242262397
-0.526590083182631
-0.493757916595523
-0.492933226569546
-0.418351996684437
-0.284217618154211
-0.187928966477381
-0.156120616149377
-0.19237057446792
-0.31541364445114
-0.44252771159875
-0.429376630523335
-0.283998232043141
-0.156074070054417
-0.1102116290438
-0.06303943678586
0.0844990681521957
0.336062052219644
0.565224007685184
0.59962334455296
0.425295496116631
0.225319569919231
0.125480146395322
0.0548257672841632
-0.0571586550543084
-0.153600675188123
-0.19242443606718
-0.197215624331621
-0.152841291138228
-0.0688438887804803
-0.0749695051507066
-0.230339650840133
-0.375168007653312
-0.367047091427971
-0.268013556689688
-0.150714248484907
0.0311422378842934
0.266235352170318
0.441292005075201
0.548672214528437
0.692981664606114
0.864722990671441
0.942923388292785
0.906857649126037
0.82224653491551
0.682339950460338
0.479284286914049
0.325811823319619
0.304485356496807
0.324667766227364
0.278469828471842
0.189735789142408
0.122387603423255
0.0937851591638393
0.104789703474573
0.129145075865199
0.105713245120447
0.0251822683719228
-0.0513641643879405
-0.089555460501725
-0.0956909564776397
-0.0602428082274335
0.0039899303503392
0.0360662347183535
0.0175428750314797
-0.0231168559793159
-0.112553489859709
-0.270891537059201
-0.399005971182479
-0.440565102310883
-0.537965047616986
-0.789906587928231
-1.03455383650445
-1.10998697799872
-1.10617337223401
-1.15087784377154
-1.19307739749471
-1.16094188912916
-1.08200876134701
-0.936935582038801
-0.647432207320823
-0.277252813060664
0.0021585854764288
0.173649389974701
0.359920709193562
0.5668909867982
0.691921969967868
0.741377426097329
0.800579973031128
0.843946265753365
0.765056512045315
0.540009027251583
0.263519370796921
0.0885419701283369
0.129397778066488
0.334663280092162
0.502808257471492
0.492226280181241
0.338867798285239
0.154349143018003
0.0270724117327928
0.003116860862999
0.0440075956109596
0.0564239267566374
0.0336971183194565
0.0369379090134347
0.0076987696550723
-0.177058761829971
-0.432067316393308
-0.49335713015503
-0.240444263074963
0.209510806782752
0.663259084330473
0.935541650239926
0.916676661009529
0.714443728052247
0.568889868443125
0.54055771577086
0.476452352581644
0.305483603552159
0.12448132885774
-0.022393897182762
-0.20221018253033
-0.419182913756053
-0.59733847594814
-0.717725836873559
-0.79225683192721
-0.778260040664037
-0.679569584755819
-0.60559849012143
-0.596574272060563
-0.544254844235487
-0.374977653365481
-0.154257491296622
0.0285748931348661
0.151320691662777
0.24676303570505
0.369430170907092
0.51556949687558
0.581278107014424
0.50071076094371
0.351937025683988
0.207104929989122
0.0207491760397126
-0.210360044204678
-0.370337152957685
-0.405421779537601
-0.362628990221472
-0.229736876803911
-0.0023560151975437
0.15333760337123
0.106422881679789
0.001957514382901
0.0069500302851338
0.0192589399260931
-0.0950004581269222
-0.21809890968946
-0.187732598851708
-0.0562394904793992
0.0497732428201216
0.114661565114276
0.147867011185731
0.113410831560203
0.0301794124401386
-0.0284621838601727
-0.0599151306349832
-0.109128143612024
-0.159402552841811
-0.17194249800932
-0.146933612883749
-0.0704948862572496
0.0636661707322393
0.162650544094046
0.128993060229712
0.0152111714101191
-0.0630832242330086
-0.0788842279382954
-0.0485493928458953
0.0261792560835157
0.0969070886100615
0.0937288525382804
0.0255486441986266
-0.0647478078342252
-0.165599358233781
-0.212567573399963
-0.111396032064839
0.0532501243226728
0.0630362101778771
-0.0973959175093722
-0.205654676817665
-0.14159516064616
-0.0014528408499448
0.112397856616488
0.178813165342838
0.200657526185359
0.237257619981508
0.371578012414181
0.536968446749724
0.557984650286727
0.427000715652017
0.325134653007668
0.337737431717936
0.380537838975736
0.405093093778517
0.424530982737863
0.361666327342297
0.138977014233542
-0.120159394099828
-0.227424125234783
-0.200465871333701
-0.195923718677736
-0.269129961919128
-0.350031981134482
-0.358280010466622
-0.26754214669458
-0.141888288609522
-0.0993898779546737
-0.167129792842695
-0.24048150067876
-0.233321826642104
-0.169941099241936
-0.118504782543404
-0.135917620349603
-0.240274279051391
-0.353998593712197
-0.36860181696612
-0.31550045500151
-0.321362819933837
-0.389550354576912
-0.423217428646844
-0.414291485779326
-0.385112534145175
-0.254466655054624
0.0064673185652378
0.241809438198967
0.333285884168263
0.355361152548904
0.366953598186362
0.304997137176481
0.203022579480785
0.231352594020458
0.405304629154302
0.521593630387837
0.472413578295622
0.371123372959159
0.318085595692769
0.279182967872856
0.204633650696901
0.0714033945837979
-0.138658454025402
-0.356642383180921
-0.438933984927838
-0.3555427661461
-0.22016148873741
-0.10741198465144
0.0022730308846153
0.12337579621678
0.243717344316932
0.341116963997597
0.360840906329416
0.279978508651089
0.181075101109846
0.125669092079161
0.0345290981984073
-0.153069083041961
-0.330566224768332
-0.38102562700206
-0.329944096456176
-0.252986574272434
-0.215225424891238
-0.309413833883083
-0.530290045023705
-0.667219555461612
-0.550066376044444
-0.284414969988613
-0.0487963937785954
0.147587923797256
0.331955755051439
0.432179694192201
0.433255489221072
0.435888260546005
0.445871242005197
0.347771351660254
0.164324771106853
0.0793421844146546
0.140932104701884
0.201711372268623
0.190944414741973
0.203372029581436
0.303565608444673
0.431222949752421
0.486417527288209
0.405524364287637
0.205435826524119
-0.0204559604748277
-0.204058900498623
-0.34092822497097
-0.39575963051119
-0.321469775113428
-0.196143489506055
-0.151210762370647
-0.174717709807653
-0.177992543989668
-0.178109644224048
-0.221905448411478
-0.267702296343388
-0.305950023413908
-0.398564998659412
-0.488905840311367
-0.435982124728476
-0.293178618896576
-0.25093519046712
-0.305452140259125
-0.29346739872043
-0.194198839262714
-0.105547697859912
-0.024758937402972
0.0984699578646252
0.218118059828251
0.285801823341637
0.340344467901734
0.385088287649
0.353951305579525
0.273201204841384
0.256566340811916
0.30294412987653
0.304493507593127
0.243649043884568
0.186257613514071
0.148695988450316
0.139624199218388
0.205779246647176
0.306212079013287
0.30487791980269
0.17414841248946
0.043336713046611
0.0107905652382753
0.0393980751160365
0.0280916916796655
-0.0858263185840799
-0.250383385573264
-0.331493879575799
-0.291857219670449
-0.240533908081196
-0.218828827670428
-0.125660025297059
0.0454320007155229
0.149435927607708
0.154621001986984
0.171100024027816
0.182827634856091
0.075422310057169
-0.0956407059185628
-0.18974998662316
-0.240920090836819
-0.332651535675515
-0.369947118731062
-0.253278089971235
-0.10395541292381
-0.0857294497316979
-0.172315826322654
-0.25009033764121
-0.268709615292221
-0.189809669609714
0.0096481054742405
0.218810769995173
0.282863672083137
0.22837290478334
0.205510042908528
0.249877677757627
0.284582419516667
0.277205980063849
0.2496450284451
0.224115925433006
0.226120973395643
0.240981119518624
0.18495046667959
0.0253798598221019
-0.14208902706147
-0.218511889287358
-0.200516015414504
-0.126072800475527
-0.0509842452622674
-0.0530848235616688
-0.129311136092819
-0.173202914040097
-0.152988005259648
-0.147461898650365
-0.145398021807155
-0.0541705114961621
0.066203435819127
0.0645006266786572
-0.0325084576263875
-0.10086319082243
-0.163501999630403
-0.271210969049063
-0.314615364182399
-0.221876779838913
-0.132489043093272
-0.145926464115394
-0.135068331268443
-0.0013242582037592
0.137002624555816
0.174322354582193
0.188046787832248
0.254497116608717
0.325088985081542
0.352906417844612
0.335949080524611
0.243648856742564
0.0841727665822162
-0.0285564667439465
-0.0222553368155801
0.0257176437111381
0.0103533807808906
-0.087800373776546
-0.221101423850348
-0.302373876955581
-0.267112133474447
-0.170812597348252
-0.117650624883395
-0.0896082627112525
-0.0024276673345211
0.116563431610579
0.183101445038596
0.196756462387561
0.176294908877775
0.109337411451321
0.0733387903213555
0.17885557896072
0.326430201477317
0.29455998488771
0.0843149817757397
-0.109485819979803
-0.21241799499682
-0.266957732677945
-0.230531036312168
-0.0597471931236597
0.12626129521562
0.19176207354207
0.160796607199733
0.10290013455555
0.0219240269908891
-0.0372481758761174
0.0147566809599663
0.132212829004415
0.173566858152064
0.140413951918456
0.142590253545165
0.165949081016922
0.119092083266449
0.0381671289179286
0.0352485780841196
0.130475922579109
0.265546738717298
0.378839933643959
0.41674897907677
0.373055007046991
0.301369644559512
0.224661123201994
0.116962411662556
-0.0068916077551623
-0.118698542408106
-0.262743952742129
-0.458099574181382
-0.608015204448276
-0.667507036346532
-0.750643965805916
-0.925775594667273
-1.09385024675589
-1.15917324083073
-1.09163604587664
-0.810875485237296
-0.295079357999818
0.218572835607028
0.422098341705757
0.278381125094785
-0.0277487472583775
-0.346531616393425
-0.587318016233868
-0.664007636767817
-0.608767235001617
-0.589117484984035
-0.667441320549004
-0.688740256462272
-0.491365190651217
-0.0717957396607805
0.476973281052175
1.00682212766427
1.32671155311305
1.36235504495547
1.24894951054275
1.14364489083806
1.06471405960113
0.985108035560516
0.918876805000209
0.866376554637281
0.804558584128869
0.722128409945746
0.593754275432007
0.409017009807667
0.256009099310064
0.238785034744212
0.325488775038293
0.418381184691531
0.485666097095883
0.486987053994174
0.338836094734363
0.0923150968230562
-0.0695463324441961
-0.1108107667926
-0.176359460860069
-0.321851752962242
-0.478038653164785
-0.637609018334125
-0.807926670458218
-0.890209650230413
-0.857805416206965
-0.889038420791665
-1.09024099656833
-1.27646657710829
-1.23398504721576
-1.00574158508415
-0.748353212960958
-0.518604089720881
-0.343653773194581
-0.275077556314944
-0.248171432358435
-0.0982222302306068
0.202601671675876
0.499393648849435
0.655550773789006
0.658009063861742
0.56732349778146
0.468618747460115
0.416419771616727
0.390232787827156
0.351221424449819
0.296953004612959
0.221334488855239
0.123383384241871
0.0628046947537899
0.0677290276717947
0.0403578921678621
-0.0728229319752092
-0.138078336599827
-0.0657204349661799
-0.0093976311300161
-0.118589485370898
-0.297098407492247
-0.390097977734768
-0.378660221351172
-0.269762843006027
-0.0532663716173648
0.170925784616964
0.270252337519632
0.274242043142432
0.282283687152031
0.269673006640656
0.181450955927616
0.0862554579152752
0.0591857370291376
0.0559660957776311
0.0441705857116802
0.0913671124905723
0.201937576540998
0.240768789098292
0.114670908700704
-0.117115644544101
-0.332334833797596
-0.41338586933495
-0.288991015397214
-0.0331868373489855
0.174934297811053
0.253720772191428
0.25084034009499
0.191704256328155
0.0725128907984825
-0.0448031060061907
-0.09149539126162
-0.0753367003775657
-0.0196941081202232
0.053664090663862
0.0597442653681374
-0.0569146544639945
-0.191298283431218
-0.216968845327268
-0.160215723830501
-0.0775180784901987
0.0559415728979163
0.188614734714348
0.167927084274321
-0.0064745131981317
-0.161449616185455
-0.227949894354059
-0.27157772463297
-0.275305228472355
-0.171671779991653
-0.0300992954880071
0.0388932868387035
0.0782747047163249
0.176792240718762
0.290627802196296
0.35197673675126
0.406250904487062
0.486378388654699
0.518641011605047
0.474617737249599
0.435609746025471
0.427340778714877
0.370111471821332
0.231630983474673
0.083834650249205
0.0059722545117367
0.0105550633636387
0.0344951875082938
0.0021265755635341
-0.0577748672774663
-0.0424169284139967
0.0255275071613418
-0.0126555022405319
-0.203035106050394
-0.407191906638695
-0.516487418486432
-0.548281575021933
-0.544383361904001
-0.562608103594269
-0.69578155669951
-0.925497622575049
-1.08247555386291
-1.07799110073313
-0.990500558553366
-0.866708235779712
-0.693343732636653
-0.574062205324247
-0.629580914500345
-0.72412455748858
-0.570961914495587
-0.0902608977570085
0.542936370521252
1.1188953334161
1.48308393353188
1.53727564121159
1.33316981164954
1.06266088505899
0.846612087136253
0.657560499627358
0.478874297323876
0.348421360730226
0.24389320935551
0.12976833275364
0.0799249760256541
0.167400016170326
0.311328659277465
0.380190764284638
0.347355636868955
0.262459887816689
0.177863440956382
0.124829218177673
0.0789347252502027
-0.0064489624797692
-0.0997245217197577
-0.141869869630064
-0.179030799873755
-0.27089817442707
-0.340327721394513
-0.320869409752228
-0.321146869518818
-0.42357539205693
-0.502773937646146
-0.442292840878654
-0.311562972791777
-0.189099220012107
-0.0617217057574952
0.0373051941011097
0.0544168344660563
0.0655455783162358
0.146236394838974
0.183903350214026
0.0671141369534746
-0.0773203729133272
-0.07726749420371
0.0121830858932612
0.0487868801388068
0.0407205658269021
0.0458969193804212
0.0216995728052581
-0.0562029963067331
-0.107258616432601
-0.0837676776065118
-0.024901977343736
0.0463179895699973
0.119136088813714
0.138027826978951
0.0822230326141195
0.0131539093586069
-0.030567883823909
-0.0714801553159001
-0.117376351716068
-0.163782183553428
-0.229818055844003
-0.306893780666965
-0.358179423232988
-0.39096687736404
-0.397081399380759
-0.273969308047763
0.016471217820933
0.319178043040163
0.496539451833842
0.590474636738144
0.619279974781374
0.475757677285542
0.178781108003175
-0.0604140455304926
-0.132096199234487
-0.116608472168842
-0.0614585654771444
0.0469112197221178
0.121914708284392
0.0611549120706835
-0.0616696714295304
-0.117044045717135
-0.138306289605952
-0.218526800430181
-0.313630221584155
-0.330311275091943
-0.269793369142072
-0.14815237192965
0.0542400021866876
0.269101797638667
0.347423404277354
0.237848244832692
0.0124877308477877
-0.247117231428294
-0.463074696367635
-0.550075408427004
-0.489173694818828
-0.331571141338449
-0.123087716806135
0.0869853875542807
0.240748737031224
0.365429093045321
0.538425221869704
0.701413657119582
0.6966163203086
0.514341783118817
0.298864141662272
0.133757832371836
0.0187073440894159
-0.0395639857732596
-0.0915298688883044
-0.231733160955552
-0.38760503522602
-0.355538675997048
-0.136539637957607
0.0317250310840693
0.0178889754501604
-0.0903360920892161
-0.195615961877412
-0.263650269933215
-0.245739359794373
-0.147795172080504
-0.0902099292421039
-0.127105859006172
-0.137514625559074
-0.0368288453492169
0.0811303422331977
0.134693599399672
0.18439861923029
0.277160148797362
0.356346513561891
0.379111459405416
0.367877971277606
0.358060486133988
0.392105446915561
0.479502743648779
0.516930104183666
0.385589436057391
0.137308386229345
-0.0538026057005988
-0.0895971550804174
0.0042523516911784
0.135006579469624
0.182799427265971
0.108220183902662
0.0189327747936906
-0.0135914732787493
-0.106547940332305
-0.353390727217438
-0.620424363241413
-0.747078689464939
-0.752499784628317
-0.699778767702445
-0.599399457640037
-0.533090653730467
-0.59579103384807
-0.681055510612405
-0.598032248423603
-0.375256570866749
-0.190121593611366
-0.0775910420776749
0.0399892010338499
0.141088681482374
0.161552358721816
0.148449949992414
0.157328347152815
0.131605710686582
0.0400780852530774
-0.0278092009271091
-0.0099992331701464
0.0582392191129519
0.159531954312236
0.300207680321168
0.417557485066394
0.441303356742369
0.409174003533537
0.430027643760654
0.583632967179482
0.84963616558417
1.06260216591924
1.02836796617477
0.76960524116434
0.517594143928403
0.408575361319197
0.372758397349491
0.32796984947571
0.254887890741233
0.106376642738895
-0.133259419937447
-0.360910756223443
-0.491617238182587
-0.548761209453332
-0.526868959631211
-0.39058597002679
-0.255551847732584
-0.296187317115111
-0.470678296747676
-0.605742076440104
-0.68574290171069
-0.788361192145015
-0.852046089578397
-0.779535820498288
-0.646185206143259
-0.567756639850658
-0.506821283154369
-0.40669093698077
-0.33498363172769
-0.325877179421605
-0.280105360067926
-0.142137470066474
0.0229895754274573
0.171739183054361
0.30462023182889
0.378183472880028
0.367163886883652
0.332972236454622
0.319150679399185
0.30710109516444
0.323875707926143
0.437715052713553
0.637782366096824
0.841686973755583
0.971954313096606
0.956298564681631
0.772917783055125
0.52247107209654
0.310481993290343
0.116432286293763
-0.0588759596484919
-0.0925041258738951
0.001750667792723
-0.0425773413468829
-0.366965557318703
-0.75043144843946
-0.93657277291035
-0.930763643662881
-0.852422941156968
-0.762156887472864
-0.702790598578528
-0.676243128135652
-0.574627323240792
-0.327286143962573
-0.0499961124892603
0.121705798185407
0.220013777567322
0.311925004857611
0.365329054329425
0.393631654626277
0.505710618679445
0.681915665843361
0.740986701349
0.619023347727362
0.457085105289298
0.386485210764282
0.417153525808154
0.498123090989371
0.542518068476852
0.474521249722417
0.336983948829644
0.256205786882771
0.290236724692683
0.405240955496902
0.530918312020376
0.54961848398305
0.359108143663758
0.024897577163701
-0.266105598248308
-0.417253409710302
-0.44697562602684
-0.383453071516156
-0.296627212677462
-0.293959625768965
-0.346381726616924
-0.314278135358909
-0.219039730756243
-0.222150947707011
-0.314777695514917
-0.340791826179672
-0.307357522593669
-0.345762491346123
-0.416755479930229
-0.377387727797801
-0.268369140549044
-0.234740978456734
-0.254032430998627
-0.215088622214522
-0.153546598845335
-0.178009794733143
-0.290214434168522
-0.432071858704976
-0.547896660414014
-0.525365467504326
-0.275254614934997
0.0991142700699554
0.388593137136305
0.512031020825687
0.538801159002282
0.554624262949174
0.591373739181484
0.615196436534429
0.565891863315991
0.457525401767086
0.366702553529039
0.289759034402776
0.158608579644653
-0.0008256158452003
-0.1291223630836
-0.307999714509287
-0.629786709472534
-0.975472181364264
-1.16592891368435
-1.20062551643762
-1.14516043600079
-0.994080420936417
-0.816126898972804
-0.775999073481126
-0.873293781666902
-0.914475936765524
-0.817700781788491
-0.695237292747061
-0.608475985939125
-0.478497464949548
-0.241073065556968
0.104806109268758
0.557467024078593
1.05206615459574
1.42815012870793
1.59983335979341
1.63880642762259
1.60906929861195
1.49459477740281
1.31880525333305
1.12926693687284
0.882402735695836
0.536401136127914
0.186116799787616
-0.04891411592359
-0.160152305633131
-0.187970203156958
-0.166479015089433
-0.150239094303964
-0.152206286263135
-0.101060950674627
0.025989245347346
0.14631408685579
0.219678620389759
0.276439088714249
0.282791388223638
0.193014205027893
0.0876168128722836
0.0472931432934204
0.0311904539514611
0.0711392244443779
0.332891602203712
0.789829212879018
1.13270910388879
1.16123357034207
0.97261425078927
0.705959729026961
0.433032799492346
0.305652322939905
0.451504437196971
0.714926938549921
0.80823454291209
0.685224659831042
0.501080444504052
0.309392013906221
0.0664450392526346
-0.191544420710357
-0.414874499843776
-0.668478695453993
-1.04553068524196
-1.56547000808848
-2.19195829187659
-2.8217393004145
-3.28958322586588
-3.49557330199768
-3.46415434038806
-3.25273553332973
-2.92678962982892
-2.59141278761234
-2.29342237762114
-1.96256045191231
-1.56985681357549
-1.21110157546298
-0.960100520426907
-0.830762944438425
-0.88363519492284
-1.09680070210929
-1.1753059605371
-0.807658963084319
-0.0503274879843929
0.814273849286756
1.66130824951032
2.5299974928918
3.44601312447341
4.42835490456378
5.46141431216743
6.34706578849281
6.81405653910407
6.83701304815079
6.63715022594142
6.37461471878615
6.05794640462037
5.70593991189171
5.3591307263102
4.97029541123011
4.46709380688859
3.84821507741119
3.10927759042237
2.23144307934741
1.32221356299892
0.57347713986885
0.0250595835627462
-0.475086671753852
-1.09762025301901
-1.93431554309239
-2.97493076466846
-4.08724389007432
-5.12316574917567
-6.05904745186669
-6.9240293829734
-7.67182086127226
-8.25172078163951
-8.67333397968098
-8.89704912424961
-8.84154983020159
-8.56149256005554
-8.21510468255482
-7.87628011765601
-7.59996301968017
-7.54713780055573
-7.77689996009457
-8.07210994544575
-8.1971992075287
-8.12270179510469
-7.83436270975798
-7.18747501733015
-6.09360696837195
-4.61545736029929
-2.81934713488123
-0.780814565272669
1.25514505503112
2.97829718381495
4.28732402514571
5.27147102627406
6.00009675063514
6.52307651453955
6.9466695118301
7.31629774744983
7.56369327463334
7.69926115056558
7.89520725742132
8.31008559014805
8.97524113417101
9.82939594360682
10.7220272998127
11.4589584218769
11.9650708653969
12.3261509657763
12.635736747081
12.894871822291
13.0227730760915
12.8744600221016
12.3588461207967
11.608970242144
10.8506025473227
10.0516757940959
8.93931059772707
7.41129192072695
5.72013364729705
4.2620759922913
3.33141061031188
2.93013861897612
2.63649991107212
1.8178240327369
0.0912477902804376
-2.54595815123538
-5.91703661201067
-9.64807733185958
-13.0502543331127
-15.4898671841684
-16.954093701236
-17.9485898702716
-18.8483324753289
-19.6502339970355
-20.3058023515656
-20.935825937745
-21.6717776845468
-22.4993233360621
-23.2492819423918
-23.6227968257373
-23.288990814207
-22.0199214754097
-19.6887121252369
-16.2109086585207
-11.6060166634403
-6.08180730791488
-0.0539611250921057
5.83033074626205
10.8037304115651
14.3431259066638
16.4090567199223
17.2689907937769
17.2856151768726
16.9510968074691
16.8198522385731
17.2348911622457
18.2513237947282
19.6989299614429
21.00408662625
21.1656188896445
19.4198108353468
15.929568123638
11.5788705459192
7.27545052673147
3.62582915952794
0.890434011670805
-1.14089550081111
-3.05228885472188
-5.29180441479189
-7.78070280608061
-10.0545820378806
-11.6587083845784
-12.4310268076531
-12.5688200806325
-12.362281007579
-11.6991400900253
-9.96732526835031
-6.67322397487601
-2.07820919496249
2.89472006483193
7.25611806228105
10.4045416733415
12.1906520866249
12.6753651678866
11.8713716808599
9.81011024273349
6.80671875038429
3.45171935399179
0.350170724304044
-1.99794539654943
-3.24583720244493
-3.41722330411405
-2.97560159385872
-2.47545312074525
-2.25597425438772
-2.52209173727565
-3.42084324323998
-4.91244101872911
-6.80554187896466
-8.9275118878239
-11.0076978475044
-12.5049392303475
-12.8862774335013
-12.0148518679102
-10.0532728452627
-7.16513601357239
-3.56358693414734
0.269800907102238
3.62409780750145
5.82308529961599
6.51417933576467
5.89588452860249
4.6568549230364
3.49061413636215
2.65868006269766
2.11933115527536
1.8783880821523
1.95677453748117
2.18204726003778
2.30143430532726
2.2424871334099
2.13007786517937
2.13842917562685
2.37790719620216
2.82943912530231
3.37172093757717
3.889778882752
4.28901554273673
4.44140772888423
4.26366374648957
3.80966832671852
3.17333174345912
2.41418395820314
1.6575380233729
1.03783842645511
0.433544129829199
-0.479415615778747
-1.81080953183445
-3.32465802750556
-4.71325147456003
-5.74974117102833
-6.27090058821331
-6.28412570497655
-5.96191096897048
-5.33021554774471
-4.17949625832082
-2.44560003715308
-0.402787759818435
1.66363888127878
3.68673519807308
5.60732821255883
7.23248804601444
8.40790447834273
9.06155903282799
9.02329520291912
8.09401168959509
6.3891037023668
4.44103789124159
2.91231926487946
2.19639568132815
2.14190109605914
2.17502630975376
1.90374846689059
1.54313552215134
1.50533744031276
1.69210362474275
1.49130776099015
0.412272048699113
-1.49070316034074
-3.76355869278399
-5.9555951379994
-7.87234901919321
-9.48666933146837
-10.7138880539326
-11.4565901485935
-11.8254873064197
-12.0344110829443
-12.0729352696687
-11.7549829664401
-11.018601738453
-9.85574222256855
-8.07294726222842
-5.51855174802417
-2.51909691474732
0.159896926070787
1.75839186116841
1.91964211955023
0.924758236064033
-0.36366655409974
-1.0309130047036
-0.689787611286125
0.545592825450796
2.48482664562063
4.98002802194351
7.77965227442632
10.5919256499777
13.1695462219362
15.0944068922685
15.7489560853428
14.8448444240359
12.8030054331314
10.3601671573846
7.93068719522837
5.45726722087574
2.73062637823655
-0.194189191564716
-2.81457801356721
-4.47762533864567
-4.93046340272054
-4.49439301227443
-3.73862151079924
-3.14922000081348
-2.99546392562347
-3.20083090354616
-3.3157267410127
-2.79527170498873
-1.3345032849686
1.02237487771234
3.87952151813503
6.52546368029933
8.12489885701044
7.94031176213511
5.48184564374471
0.826053593698457
-5.06639764363113
-10.7569107710773
-15.3290357441604
-18.7508083143202
-21.182043895256
-22.3492387784637
-21.794642159217
-19.3744836278854
-15.3045577771515
-10.0337085563863
-4.31201913915224
0.80366371061227
4.24220984252594
5.37081267157142
4.44874078482901
2.77059834854752
2.02231086941488
3.10556176243437
5.53742350271022
7.98922169089382
9.32511064020719
9.26195665953701
8.32052810883729
7.2427280868752
6.44324618738365
6.0342555868054
6.21919190524561
7.37820098801712
9.71732290981503
12.945874293738
16.2955158642948
18.9142601606061
20.458020438283
21.2660625519737
21.717009140401
21.5652673788042
20.2708546382897
17.7906979614821
14.6255567319989
11.2954397352463
8.18891802976999
5.69352465805936
4.0060006405045
2.8732727414839
1.73523306340957
-0.0046671636136221
-2.86864389649215
-7.06963793922194
-12.1807362820334
-17.2953572437062
-21.6453571590994
-24.8939230295247
-26.9385068127639
-27.8322810703954
-27.9411734212218
-27.8888128007302
-28.2560460101168
-29.321841008095
-30.8725279501559
-32.148098571491
-32.1746590447528
-30.3202264475549
-26.5570541491325
-21.2893013171954
-15.0285797030712
-8.19684488167013
-1.21100905826935
5.2989640595376
10.6230362721565
14.497070532721
17.2622210439945
19.2994564622424
20.5404396887168
20.713661067783
19.8075391865468
18.1045226960501
15.9608158030057
13.6658031849392
11.3810273909218
9.20057918474209
7.32376745556435
6.03338215326262
5.45912184938849
5.57889185474912
6.4609952472091
8.16426409662115
10.3197561566058
12.1762531301094
13.2176264347489
13.4756395045511
13.2076254151018
12.6423841951758
12.0957482093545
11.8714598559098
11.7936093860357
11.0624288710889
8.79699398647529
4.77710567630449
-0.274665561369469
-5.10606711111426
-8.69340804172383
-10.6835562790551
-11.3114139022926
-11.1929230543607
-11.1382212956728
-11.717817423663
-12.8203025685677
-13.8359191608938
-14.3222062940528
-14.364667518022
-14.4140143178783
-14.9410029889025
-16.0525452189054
-17.2329406162725
-17.5842955968374
-16.3769433982185
-13.2330564469446
-8.00529047180587
-0.992713527009838
6.70354445910175
13.4941185695998
18.1794287993365
20.4530709219958
20.6720928341799
19.3963930990182
17.1660708307702
14.5051275085165
11.9178532346174
9.71895668947893
7.80536662110699
5.7282170967152
3.16673260100043
0.30004248808409
-2.34437589787385
-4.2087826659852
-4.75669372590291
-3.5516288094852
-0.66606396010645
3.0292812550797
6.18893486378171
7.71435744436202
7.30416618404482
5.41871135843764
2.68446257926192
-0.581339613942268
-4.07870558696016
-6.99260403929517
-8.30831774668272
-7.78393748092213
-6.25656490757182
-4.85739581693267
-4.11086016231801
-3.79254934275898
-3.46184980452892
-3.04794605551783
-2.87256840948993
-3.09620917571665
-3.40953084505051
-3.46411601546243
-3.2621600290343
-2.80286274800292
-1.72745685895792
0.221374473308976
2.61358238668527
4.57791887260794
5.45083680527712
4.92304612454235
2.84367608434212
-0.672364562870563
-4.9783331195506
-9.04260501505536
-12.001245514738
-13.6385557773852
-14.4311334560998
-15.0813033205389
-15.9048029852861
-16.6920928261086
-17.0743621702347
-16.7587749084391
-15.435406120264
-12.8330744847137
-9.02564034319515
-4.50496232219885
0.133549894523953
4.47619294723476
8.20268461935041
10.7893287136439
11.5883021740307
10.5864190993887
9.0219134331751
8.65196545279322
10.1374294403496
12.5532307026351
14.6350127512751
15.9649305589045
16.7165457820367
16.8507999524114
16.0348282518983
14.110145797522
11.3496567281287
8.28617322546168
5.32227921304087
2.54200190428448
0.0419766480897644
-1.6761094663798
-2.04465601170088
-1.19618048536562
0.026920406353625
0.964567333722107
1.73005641769957
2.85287711806611
4.68901663984031
7.27614698414064
10.4267363613131
13.7488823620579
16.635387327941
18.304589980952
18.0599292125527
15.8617780462732
12.6067318503633
9.39956917775064
6.43060703956069
2.8971307119049
-1.83941545276254
-7.228484214402
-11.7863173939923
-14.3628239450558
-15.1593126027456
-15.4595712704967
-16.3647081931662
-17.9479508726908
-19.6161509274555
-20.8939760486596
-21.657868314954
-21.9339866748166
-21.7082128497183
-20.7903781064481
-18.8963966990036
-16.09665618675
-12.9895873375905
-10.0746205835667
-7.2173471508956
-4.19844882395056
-1.51854347303626
-0.0461164755452086
0.113117341141953
-0.0118976193969753
0.969855696658529
3.79794599257814
8.01681137901745
12.0998655694048
14.3038521858099
13.7678528666162
10.8788620978729
6.68816491015546
2.20978032286251
-1.82129925783153
-4.9595401623558
-7.0895545958329
-8.40326451713477
-9.16601930555767
-9.30883588927432
-8.23359741836375
-5.31402755720221
-0.786471265229803
4.05779291760836
7.74177559952686
9.54471857319358
9.62247951723214
8.55821843832068
6.94650658316529
5.21736650666187
3.74072492452705
3.03677007913737
3.60476646387066
5.40155469768316
7.77184132988598
10.0594005039644
12.0449446758543
13.7172202077292
14.9264764062648
15.3966385180794
14.9379008487582
13.6452863513042
11.9273209298203
10.145831248129
8.14076794376541
5.39801814561818
1.86111167368993
-1.67855959822275
-4.16503666990884
-5.04624006937037
-4.43848030137975
-2.87694344420547
-1.01266417005377
0.719760685737485
2.23266351429615
3.45577830929993
3.94833867485745
3.02398382763
0.27702590211521
-4.00780517962222
-8.88463543615318
-13.2369178465479
-16.3720756056268
-18.1888000418458
-18.9216211407314
-18.940579294429
-18.6436109347003
-18.1575412670465
-17.1544300716332
-15.2341602534288
-12.4415197634498
-9.27366508218176
-6.3715731335696
-4.23824273244162
-2.84016266131503
-1.36701658770039
1.14836377270606
4.76025028432403
8.43730873622124
10.9922079164902
11.9388047656984
11.5606243590326
10.518505792629
9.39553233051637
8.34148200106123
7.0415298373462
5.02203166772995
1.95999821421804
-2.12361041973106
-6.68266141677918
-10.7493984259227
-13.5485892165685
-14.9697121781029
-15.228740765234
-14.2740149040511
-11.7965832933987
-7.64244482195179
-2.03604410568514
4.40008938624584
10.7700420103661
16.2572763095952
20.334692763678
22.5115412959134
22.2587015925976
19.7163206673247
16.3369399502475
14.2098528578287
14.4107233583939
16.0556988795164
17.0727426734914
15.9913906768547
13.0786535501344
9.79883576702062
7.29675543176099
5.49929512984882
3.44949290512803
0.188311569232954
-4.53322042711539
-10.0074383921318
-15.0112027289247
-18.6664272373
-20.8217841774414
-21.6709450539432
-21.4043362464515
-20.3322199017324
-18.9073892863338
-17.4118241181139
-15.9329647724048
-14.7268932672568
-14.1756680591411
-14.2335942211808
-14.2618201735749
-13.4701520587726
-11.2020192772375
-6.89167643513076
-0.272273079296729
8.19953578811007
17.3113536020584
25.5172135593521
31.4150152448355
34.1423035496662
33.706935594318
31.0831638179508
27.8147074519286
25.040427450511
22.4905304299512
18.63039591974
12.2677292285587
3.96976584400105
-4.4108588827308
-11.367413253749
-16.5592635413876
-20.4485820531335
-23.7260362017923
-26.8988792623251
-29.9458306857443
-32.3220307022439
-33.3296443733109
-32.377560850441
-29.1639025231589
-24.1011438084232
-18.4719470530004
-13.6960848285687
-10.3627463683411
-8.09488372046522
-6.12874638336415
-3.81715028912414
-0.849129210891416
2.7154716876604
6.72893467000631
11.3243563929728
16.7375521263602
22.7054064848085
28.3156806671841
32.4953281844659
34.4551949186031
33.7772882823249
30.4437857092861
24.9415362185104
18.2593114249331
11.6148125098671
5.92210549509016
1.3810700243362
-2.2627758686116
-4.97878433466882
-6.20711230545422
-5.47352968893193
-3.05369845273536
0.0462388544984698
2.61735358763715
3.79761360864265
3.32777900475314
1.38040343669727
-1.72165486643209
-5.4332829355266
-8.89218857228877
-11.4463169882914
-13.2935849748894
-15.1742381857596
-17.4218783901441
-19.6092559690725
-20.9670087596299
-20.779491357323
-18.5210281233882
-14.0592909534184
-7.82954009360072
-0.644150286085988
6.7021929097982
13.6419730429042
19.8318522082441
25.0955969295497
29.3375561450673
32.4022543978487
33.8357033632943
32.6530850438908
27.7058535400801
18.9534786901811
8.40608361787809
-0.861241133856437
-6.94831114215555
-10.1857878563838
-12.1364344674666
-14.0769401708273
-16.4155875997871
-18.9739970050046
-21.4690861362427
-23.7874148348429
-25.9362064109585
-27.8976248645406
-29.645617951147
-31.1215473448048
-31.9949852314324
-31.6433976826306
-29.5509464605252
-25.5287228756942
-19.5753904245915
-12.0562119405415
-4.11041870341868
2.84262800668748
8.44836824105974
13.8475550901926
20.3156408662451
27.5949729634203
33.8107061993189
37.0084046519815
36.7349512661687
34.2296966004347
31.2195131103684
28.6390354434659
26.4642366151099
24.3459622636302
21.9326309129944
18.7891304788188
14.6746511962431
10.0650147772101
6.00001861131213
3.21340090147159
1.50095009901886
-0.0966625437365428
-2.56391910043899
-6.23737644704627
-10.7130389132347
-15.3382544657684
-19.6625878075239
-23.4155413176382
-26.3091612884567
-27.9879599683218
-28.014585951712
-25.9298074658166
-21.6197715337557
-15.6882049176908
-9.28954594204269
-3.60825253427921
0.46443823936713
2.49587607939167
2.76517593253872
2.32890528117326
2.5411340444863
4.14439333921833
6.45547131464509
7.51696899470713
5.72031190182003
1.63628836802444
-2.21752619091998
-3.75309678214641
-3.08396518504365
-1.83156020107597
-1.3892607709028
-2.26852954334762
-4.41201157070603
-7.29924843096252
-9.87956761441927
-10.9726712195429
-9.90491063406588
-6.77507421940067
-2.3311421843789
2.28134186943812
5.83311851237836
7.41451013995011
6.9165898991986
5.3419261824583
4.43010278317305
5.57557354678618
8.94841152512595
13.5909532341652
18.1573413933667
21.5617202011899
23.2816347262799
23.3148701197551
21.8767529308344
19.2537372156331
16.0156734636274
13.026560847223
10.8903056917819
9.50114754555333
8.28762784132032
6.70644682011586
4.51698204076875
2.01378810315637
0.102838772241655
-0.293718067740921
0.836755105089666
2.43775530543416
3.20670211879089
2.43248103768844
0.118548330679877
-3.36899553746885
-7.59871562643999
-12.1162257351679
-16.3704230753936
-19.8502740390177
-22.4991625208282
-24.8365783724806
-27.3661223599605
-29.9632318452666
-32.108420672846
-33.5015878426316
-34.0484519285018
-33.4051942794893
-31.0410224204423
-26.914106930322
-21.8959249148137
-17.3038187679749
-13.8535497414805
-11.0755774862862
-7.90731497682751
-3.79167608901997
1.06284731341935
6.35015730643638
12.0371418129372
17.9306617164585
23.2939166043501
27.142434481571
28.8261676851746
28.3402094258555
26.1944282620075
22.9899471029605
19.2063122629202
15.504636951308
12.9021535762224
12.1351347135251
12.9060392557322
14.154211200499
15.0261774214016
15.3267253197333
15.2783735343773
15.3156156240435
15.9912111069822
17.5419296244631
19.3996275005954
20.4109855884379
19.6949980110673
17.2477991795307
13.7323712641001
9.76800885806065
5.52494918870218
1.04950854874588
-3.24668054531124
-6.73817657005805
-9.1222832345469
-10.4898776196447
-10.9881464100219
-10.7816842670944
-10.3378806429599
-10.5514603343957
-12.5460444961199
-17.0916206125174
-23.6983405396934
-30.3103737998362
-34.5124052222342
-35.2528893108984
-33.1146909755435
-29.1238527397263
-23.9186497468758
-17.9932773269759
-12.0037786472912
-6.51726373773823
-1.75140372150299
2.21535432222437
5.04264917505483
6.12714204303206
5.22366463036033
3.09846515585037
1.27402027143374
0.877475960021639
1.83010774285292
3.27981346996224
4.64101747026568
6.00609527120109
7.63612921260837
9.22252931899637
9.68378433665569
7.83976479008477
3.5911750052383
-1.54416146675735
-5.3476110120922
-6.51580054649907
-5.44989568830526
-3.67614081815428
-2.58321572622403
-2.49211761795537
-2.76405840973301
-2.76619228458658
-2.52921455784158
-2.31104109036954
-1.84715755880316
-0.48136305802644
1.98888597585697
4.8959640714718
7.24294662559354
8.64535747299099
9.68988281951294
11.2247275349814
13.308385029123
15.1116321643009
15.8193014786277
15.2162578293516
13.4333931062502
10.7706075923804
7.97437963949902
6.11891852663592
5.8342379390302
6.84764253276412
8.37402382267181
9.76163342729512
10.8256603220628
11.8378292469542
13.1427939622276
14.5730740132436
15.3928320399199
15.0317490236311
13.6682778620065
11.9049182615414
10.1119808497731
8.2133894394809
5.8473474243351
2.69443824199919
-1.04962801344473
-4.52138264052086
-6.81651595872594
-7.82732981182605
-8.30265150617714
-9.10154400243183
-10.4997189335629
-12.1764103221953
-13.7118123744999
-14.9589364594426
-15.9677917738444
-16.8255140874443
-17.7387319565268
-18.9767585411757
-20.4205225806507
-21.3941698119922
-21.2279344303034
-19.7415929880125
-16.9916619527415
-13.0231296702124
-8.29744861877815
-4.06824794728797
-1.88757020147671
-2.66277090215002
-6.12555630548399
-11.0222646129021
-15.8919953897017
-19.9700020449714
-23.4670744514855
-26.9573545500001
-30.5909006741459
-33.8987680884356
-36.0246804395368
-35.9110732085555
-32.600883113132
-25.8630668748868
-16.5668835135001
-6.21151089174385
3.9743487936048
13.4841135886377
22.2887464808017
30.349171643596
37.3944210204916
43.0477319630593
46.9978182742813
49.0338998094215
49.106925052415
47.4563688026279
44.5627979650903
40.9574779052722
37.1629715458807
33.6190366640583
30.3552116742802
26.8961744844803
22.8647999710403
18.5494364132329
14.5269620825442
10.901909246736
7.28765055114615
3.40875519543017
-0.536342195405195
-3.95598565513613
-6.19901715223764
-7.12216115271719
-7.50698869455812
-8.64672034866587
-11.2872506822899
-14.9942285473469
-18.5012372462948
-20.5660494079001
-20.7000008067052
-19.4445226398751
-17.9715399608685
-17.1635602609523
-16.9702141112224
-16.6324676999465
-15.3977245270936
-13.0272281669272
-9.86613513563244
-6.53520357917364
-3.41085936551746
-0.307943411173995
3.31555163641801
7.79722430665918
12.7655677455732
17.1238801957918
19.8049893241402
20.7737542988163
21.034477225027
21.3708348173506
21.2944660039593
19.4996424412104
15.1948713466911
8.81587849114449
1.57323679544791
-5.56216258842653
-12.3867794489987
-18.9183965942303
-24.5827580417643
-28.5425838183253
-30.8555521292536
-32.5617329519798
-34.3369917518614
-35.6338183051444
-35.3745030639529
-32.9080318915879
-28.06676520274
-20.9817394633776
-12.4219562162312
-4.03929416354563
2.24984043937216
5.32505430055111
5.42930982217725
3.85268356974407
1.97156004788481
0.349754520942684
-1.28128635785671
-3.13191721949544
-4.53815256906478
-4.16617225565313
-1.20335337833738
3.48662767539171
7.58177469802168
9.14521053384879
8.37625693528165
7.27717943569054
7.5861712411545
9.22599543041911
10.5866598965517
10.0236342553544
7.27580046371207
3.7750346409426
1.55132156951954
1.7297615922937
4.07970327735315
7.68331061919155
11.6001744589974
15.1399767680145
18.1564695206412
21.153209816794
24.704411303441
28.6705436831624
32.0779293094232
33.6745737357251
32.6192929331411
28.9340776734716
23.4373447275706
17.1165522461087
10.5941652159519
4.3355876868802
-0.895218365127185
-4.30149574045814
-5.81408365248795
-6.20460997800379
-6.35639611899967
-6.69085514430255
-7.34082733069159
-8.56874223645213
-10.7457948874641
-13.8674047239178
-17.2059700147859
-19.6656157365257
-20.6038557412703
-20.2541076283056
-19.3691898505561
-18.5738910808341
-17.9742970711986
-17.1731005587987
-15.6508767775203
-13.1892546933345
-9.83862262031228
-5.60091960391374
-0.58118101517308
4.48413346002566
8.34906609486838
10.1858354877801
10.1996022322862
9.30299172286733
8.38720797379906
7.75423983613831
6.90689479604644
4.9363319960446
1.35117342117922
-3.45676155385444
-8.49953815156669
-12.7170452994965
-15.3345198496475
-16.173030097044
-15.7486053796235
-14.7693701819046
-13.4322038622271
-11.410973180426
-8.4988250246282
-4.99156636222544
-1.43525652018809
1.81223158862824
4.76546051673182
7.58578966422678
10.0646443281316
11.4174958864769
10.8530022282078
8.31615644454616
4.47843253239285
0.156190456645707
-3.98098594176835
-7.29510274781871
-9.20259636089195
-9.45832437107012
-8.27834642316553
-6.06834156529408
-3.10236523650916
0.302952412670168
3.23348749250942
4.2479949452951
2.5880824833419
-0.731484969188626
-3.55252093276395
-4.4309892220017
-3.70089337781179
-2.85181194194899
-3.07731606080743
-4.1710972413606
-4.49432479181845
-2.12882240119626
3.62778826089001
11.6652284140872
19.7117815591123
25.617321055668
28.5374026510098
29.3355275934301
29.7106183216751
30.6769486472974
31.9532677899583
32.711208139726
32.3881737434534
30.7019384198313
27.5727239750453
23.3853172696922
18.8309142069184
14.1732434708085
9.02734780205576
3.06790668170106
-3.33250517206271
-9.33037510388229
-14.3208854439634
-18.3361851353886
-21.7831020574086
-24.8599496312951
-27.3900959301263
-29.288018768955
-30.912523594223
-32.6750877447645
-34.3888692318639
-35.2148737655279
-34.2919844338038
-31.4662959877501
-27.467800794198
-23.2559170608459
-19.1381076485039
-14.7387333608731
-9.79095785645018
-4.52854358834489
0.677885477115957
5.44035383685446
8.99275153398664
10.3999277728055
9.46666123012015
7.00286982222143
3.9667141933385
0.740210918485838
-2.62369116437943
-5.9254144219468
-8.84048426819033
-11.0971137545269
-12.4612882657194
-12.7631650816326
-12.0087391876357
-10.3068630432642
-7.67841418808675
-4.04202925824175
0.617295760775657
6.0853279622111
11.8705264948736
17.2766017884721
21.5335396247181
24.0196736772717
24.7116817472464
24.5816301476314
25.2043013051229
27.5243374500916
30.9308773046767
33.6134664414006
33.8352934299672
31.1182251534532
26.6077790362079
22.2327086687329
19.0915927070958
16.6252239222683
13.5568163695106
9.365733785369
4.50032548999224
-0.502092924926622
-5.59083893356447
-11.0252026375045
-16.9056217680782
-22.7497218569028
-27.4903778980738
-30.2392748004645
-31.1398917822741
-31.1040595084405
-30.6426910905061
-29.3460739778994
-26.5742417498636
-22.2611151839379
-16.9861307537876
-11.6747114343643
-7.36812069195555
-4.92691225408254
-4.57839725785574
-5.595345926572
-6.46371715631513
-5.63596190506813
-2.42878251500177
2.68522907141739
8.56507258875203
14.0543879525785
18.3082071581671
20.8463409964659
21.4682975396503
20.1848727153309
17.4155412585699
14.1731287835342
11.5406164953891
9.74291167955867
8.09810186825703
6.02450607417642
3.7428338046946
1.94852981289468
1.16842972094306
1.39131928590655
1.92394438853279
1.68008060748414
0.0092646367474276
-2.74619119638506
-5.65938513325714
-7.97120691392333
-9.28040260915526
-9.39519188217628
-8.52812393671786
-7.62184598524388
-8.049925121952
-10.6753169354661
-15.1104111540817
-19.8924844726375
-23.4260284203975
-24.8043217165223
-23.8038694420167
-20.4413119635473
-15.0117490910668
-8.51053045957567
-2.42238165492093
2.26604539456051
5.70432583398133
8.72962421702831
11.9345145767978
15.2394066403856
18.1871779881522
20.4136119989533
21.7871179757223
22.3178385542187
22.1855867300032
21.7759034363558
21.3928489589662
20.9289804612951
20.0488970059569
18.6097105056536
16.595180417912
13.7758281348432
9.89325139679807
5.23244794237313
0.732949368368981
-2.52555913344107
-3.9501126645712
-3.78819315414444
-2.92773279365824
-2.08994392129675
-1.20301318512608
0.168924630924926
1.93746510653051
3.51887985173158
4.65989533625171
5.59216314784828
6.22427785921102
5.74524982768412
3.33977755732217
-0.986066644206346
-6.46189338488388
-12.2336040825724
-17.9077377842095
-23.6043710657142
-29.6147788911607
-35.9614093365255
-42.0880695279783
-46.8089715749409
-48.7525860607126
-47.2644282243154
-42.9536769725203
-37.2056111930682
-31.2862700019363
-25.9909027470994
-21.6243072297698
-17.7814304685397
-13.3446437495023
-7.10478807505008
1.53511812294326
12.2009272681343
23.4140879076661
33.0718044198805
39.8212084979192
43.9390904855268
46.3419931355003
47.126191566066
45.9095744755976
43.2082930931118
40.2676323837334
37.3999192817834
33.4644070237086
27.4308529386892
19.9151667844765
12.7473197569105
7.28215678570271
3.48089675062836
0.561502522823533
-1.8587888785046
-3.60311797884559
-4.77179652693741
-6.11706129426047
-8.17239484397506
-10.3409456491707
-11.4057183181162
-10.9905532448421
-10.1826148213298
-10.485871090776
-12.1615376213251
-13.7592936006747
-13.4277917565873
-10.5570283550159
-5.96571692277488
-0.838210801825869
3.95334081014882
7.67769617861746
9.70398192811716
9.87050394533436
8.47667662262018
5.81656604975347
2.05911034784093
-2.40717354179334
-6.83481815312945
-10.3501820005483
-12.1619168857444
-11.6799949576645
-8.76910157439241
-4.03889290387983
1.19800018969767
5.43899780368016
7.64171565418091
7.50274288380406
5.29236140882809
1.66626120210434
-2.38329121841988
-5.80906791098032
-8.07236310091566
-9.31153451793587
-9.81322793728311
-9.5909905816257
-8.75988558737948
-8.0874344144239
-8.77251301218081
-11.5991164065337
-16.310594501506
-21.673368953473
-26.1740109955285
-28.9174063247417
-30.0280511721658
-30.2509469791238
-30.2370699617725
-30.0671145844316
-29.0973811026365
-26.1780359751596
-20.3161512294839
-11.3171135815219
0.212566095256699
13.2675412834429
26.5437760717946
38.3225420830114
46.8782102521828
51.4550103106803
52.839834748021
52.705749334563
52.1556922390431
50.9079090350337
47.9945911291702
43.0655172425435
36.7517968209052
30.0711804540514
24.0544064033306
19.717496472742
17.4747833886462
16.3083445376149
14.1751181045448
9.62866342421136
2.73562479631873
-5.63126804308094
-14.768106025634
-24.0798110127965
-32.5131427729097
-38.5949152002528
-41.2046385643116
-40.3852126976556
-37.4475230186945
-34.1835358798161
-31.8637285761273
-30.8317607888192
-30.6439567355861
-30.3194405442511
-28.8344682674933
-25.9198024404705
-22.3444308716189
-19.1039778012605
-16.323714198122
-13.0737398909627
-8.20154586215289
-1.31169758843889
7.00152668679779
15.8399365972864
24.7289217769117
33.3638719187181
40.7816595120874
45.3762761229011
45.9771861026564
42.6970164087714
36.7341041569418
29.5632856456523
22.1542910236703
14.6215330867068
6.60774423882946
-1.90779437426484
-10.2850085520267
-17.6521803020762
-23.3435793290538
-26.9019420194128
-28.1140748344734
-27.3049707587787
-25.30805449945
-22.8628526627454
-20.1021691125072
-16.6765736143608
-12.3051965675763
-7.25908365850354
-2.35254024319367
1.6573888305493
4.6343930858812
6.90636666639967
8.83256885503471
10.9346496657205
14.1778800713504
19.3720696111329
25.9896710846688
31.8199012410567
34.084172760987
31.1528984178341
23.481906945885
13.0857949566989
2.15151311083859
-7.9612558074787
-16.8363350070489
-24.6880918518943
-31.896711977978
-38.3509443347505
-43.1212643908017
-45.035587888768
-43.5501579633885
-38.9432311905431
-32.0492756628172
-24.1980841743314
-16.9896328180648
-11.3251806218956
-6.47621226601966
-0.582336826981084
7.50841565803939
16.8894085899636
25.2594350834674
30.9468509151821
34.0882114993267
35.7828466494716
36.5197351601278
35.9076478779606
33.7374594586645
30.6150538161752
27.372890959832
24.3339401306939
21.3313132080909
18.0306511360194
14.0043565151996
8.8262991356475
2.47187339440024
-4.32370249471367
-10.2524740374014
-14.207730197017
-16.0607065826246
-16.6513208026719
-16.9697036992632
-17.5086261447658
-18.4073604623155
-19.7032328722745
-20.9723685521368
-20.9185158850288
-17.7898389010501
-10.4702925413699
0.551520349555428
12.976664209139
23.6380735055556
30.2594604930768
32.6290494923013
32.0567941394527
29.7868969618822
26.0276657812123
20.3172148968436
12.6286418724734
4.17541311990547
-2.93474372844968
-7.19613912470552
-8.94869891130499
-9.8244815985482
-10.9412512027512
-12.029718931423
-12.3117008618353
-11.6290552472874
-10.3648608512124
-8.5180474570785
-5.27198034366776
0.237580811131316
7.60184641418033
14.6456910877601
18.2910265499406
15.8839267376456
6.11990426193353
-10.3084679044079
-30.372842193231
-49.4684010142133
-63.3384129077582
-69.8265451910905
-69.2832039170156
-63.7195426507058
-55.4531205636285
-46.1221234557877
-36.806720158879
-28.8397169427733
-23.7590568442365
-21.9585316075073
-21.7435248034807
-20.2831238249803
-15.5513693000675
-7.23694631816388
3.97211600840463
17.4679335851573
32.7247151231687
48.3077407344777
61.468628764786
69.4223636743071
71.2446516973328
68.3262360903875
63.0017975582391
56.9996168264911
51.0589706404659
45.4203137648696
40.2923089981463
35.8918403516535
32.1586079969623
28.5862620833261
24.5475018290076
19.78638447389
14.4535243640392
8.78986643574206
3.00460110613581
-2.63285089202404
-7.73833530801116
-11.7604788036006
-14.0562235210549
-14.4109982413422
-13.5759711840725
-12.9387935791055
-13.5188228290229
-15.4222756381903
-18.1140669649594
-20.8575312813974
-22.9448067382445
-23.8493282128696
-23.3230182119857
-21.4331879543056
-18.6054275920095
-15.4689358530692
-12.4405939964976
-9.6276414860706
-7.2813613092558
-5.91652336312023
-5.55908009917237
-5.19610426586858
-3.56680021304712
-0.567142680655885
2.4344695029062
3.80081022210425
3.09823452571637
1.37683059551114
-0.0098795968792512
-0.805548665104496
-1.85703611545493
-3.73228820586815
-5.82787371315453
-7.1369735320899
-7.42443788378308
-7.18297220368098
-6.81103818700042
-6.42327629106553
-6.29580743780207
-6.83181662851868
-7.8512859597096
-8.3149599498409
-7.21293634280528
-4.71824798217333
-2.09127047575441
-0.308362015574075
0.897004964408591
2.43225509449968
4.59724032730627
6.72365960122802
7.86620440331785
7.59757912926794
6.15726340247398
3.84574119501327
0.266673047536315
-5.50951775906915
-13.6831130663282
-22.8423700489973
-30.7472525418716
-35.9113889930819
-38.134943751184
-37.6403903351512
-34.1160687736034
-26.7693043984326
-15.1546252997239
0.20329142681947
17.8706846943515
35.8094132380587
51.5105107519682
62.4505673364288
67.3104340978156
66.8955941783694
63.3318637297986
58.2082437376502
51.7990470031256
43.8876461968571
34.7562672960547
25.4348000908654
17.4823792396876
12.3857237545739
10.6166291170826
11.2496850919581
12.7245834193414
13.7787289034875
13.5181834195943
11.120227204282
5.9729939174803
-2.01519224875341
-12.3869936655459
-24.208789642384
-36.1835281306353
-46.9837095637387
-55.4649282282692
-60.4298964766863
-60.5797356561327
-55.3058348151884
-45.5880291791877
-33.6549972896548
-21.4121575122022
-9.3557928081622
2.55439963994396
13.029501655087
19.2692240468955
19.2437990019048
13.7204168686951
5.33674423784844
-3.99768145242787
-13.8824491200259
-23.7766727184486
-31.8729052907375
-36.4248648216099
-37.6904999489447
-37.7288446927403
-38.153089005951
-38.448708569095
-36.6311263142624
-31.2864655362804
-22.7786785802773
-12.7505408543575
-2.87590501908751
5.96710008899928
13.7493801800332
20.7255578610354
26.7417654952863
31.1574352039635
33.4854490843611
33.9123879952928
33.222345618158
32.6072723335651
33.4654900628779
36.5897181932383
41.2142168599163
45.4418559161492
47.9182702927322
48.6261982952714
47.964084163498
45.7576315378755
41.4939010602951
35.0688295706146
27.1017541603151
18.8524238296575
11.8322155718239
6.95628611312807
3.74982887896108
0.563952149425296
-4.17985533060602
-10.8300196813125
-18.4275277234896
-25.6899369738806
-32.1082732079794
-38.0437543225529
-43.7527044555657
-48.6148213511141
-51.5383677410309
-51.8528354209151
-49.5567964952163
-44.9866411558267
-38.583126754112
-30.8621674043693
-22.3876304401736
-13.7263458761153
-5.3117991321446
2.80520820585804
10.9532299515294
19.3715024406004
27.7490056160113
35.2790209576491
41.1133045319635
44.8191642576239
46.5109409573485
46.4496017630635
44.4437262734182
39.8219720319923
32.0545909080797
21.2573242615501
8.23930410026209
-5.64226925710675
-18.8962572440686
-30.589126788185
-40.5469738827664
-48.7819359312689
-55.1692030533223
-59.8326570147834
-63.0785001429614
-64.4091804859839
-62.2004094837877
-55.0480130179502
-43.2195163408456
-28.4437948817387
-12.6200584898071
3.02165881656268
18.0446541299511
32.6515708391533
47.1688452261942
61.1497582785944
72.8671957151011
79.9870879745443
81.1172174378547
76.8359621325986
69.0439444936954
59.2267732485447
47.532919493017
33.5058041751901
17.2867916289055
0.0091956903502923
-16.5264271095815
-30.4454855140666
-40.6301205988978
-47.3483996503145
-51.9007544421507
-55.5208271066435
-58.6805991743774
-61.2929768758126
-63.2247143523967
-64.3171313575969
-63.6843636933232
-59.1841018958083
-48.5368239818777
-31.8434140694838
-12.6988255546133
4.07433100683005
15.9829759935335
23.8837641366259
29.7907399120337
34.4251073372503
37.0362989024214
36.9501792696836
34.7145542671835
31.8075618733775
29.670380223308
29.2401940032852
31.0000219073265
34.6891775241065
38.7883478058497
41.0575645542161
40.2285069431712
36.9834338074434
33.0492443877555
29.6455742459188
26.9239546860313
24.3874142176115
21.4259159786757
17.5752378531381
12.5271886869352
6.06412501551396
-1.81471825097772
-10.6607273386089
-19.7069321440755
-28.3519223199627
-36.3591154261023
-43.5311629727082
-49.3250133900054
-52.8141258755586
-53.07973497803
-49.9485088553805
-44.5466529254558
-38.9270271948156
-34.879744368004
-32.9203133452332
-32.1015055217589
-30.5669365396754
-26.6299382464812
-19.8930667105336
-11.409833022276
-2.59083301026974
5.83521931550695
13.6340256215881
20.4675105413484
26.0873623664616
30.6562743579255
34.1712093968763
35.9393429597378
35.3741147064195
33.0840033821318
30.4631957480485
28.2381278535388
25.9824122563374
23.1660584800032
20.1926480247705
18.0136196278754
16.918896559388
16.2098462891915
15.1683513604488
13.9178572572057
13.0225682113732
12.4296810117877
11.0811440146634
7.64055317693145
1.68393519270512
-5.75687611123853
-12.9215566118885
-18.5491202299481
-22.1970027047647
-23.6886487959736
-23.0484691502245
-21.0802190809262
-19.2742078066977
-18.8249028344759
-20.0532426266617
-22.6635353704692
-25.9418370040634
-28.6206141303546
-29.0742715467117
-25.9845913835556
-18.9725661911453
-8.98552385767321
1.74088956865737
10.6564612954307
16.4489125639237
19.5128544010798
20.5691038322526
19.1144289531332
13.7770581905633
4.2928613001775
-7.16823301195472
-16.9599160116527
-22.4978581558633
-24.0081525065863
-23.806241239893
-23.9162803757656
-24.4367217684531
-23.9751338828745
-21.2042796319839
-15.7938301687367
-8.12727863532629
1.31964809315849
11.8828763380869
22.13175174615
30.155391499289
35.0158670197736
37.5543609122364
39.1290739341389
39.8207324928833
38.5498394875499
34.7629234280279
29.2758340937296
23.4443248743891
18.1007439075242
13.5024762627539
9.94600841395491
7.97773517489117
7.76704796208442
8.4033633561746
8.28396763482837
6.52170929454111
3.78962680354812
1.50826792017456
0.298121450366739
-0.591309591035022
-2.37070694767024
-5.24785289735675
-7.86570644796384
-8.53414355812848
-7.29998281584681
-6.36997144018897
-7.92663453877446
-11.7099077078992
-15.1910264606291
-16.0171371376054
-14.024565252174
-11.0389856894163
-9.03547491554033
-8.59427532969561
-9.05772345627941
-9.84517321071925
-11.1381933789789
-13.2630783740706
-15.883417297681
-18.0223758175242
-18.6590451721644
-17.2274995073433
-13.6890947826501
-8.21877512317132
-1.11049859807551
6.56589294456269
12.5348465157132
14.6858448302863
13.3743839327622
11.5752302373466
11.9913461126197
14.2597051017516
15.4683697901757
13.1858353204868
7.52986504589147
0.465566745908959
-6.21904521405129
-11.9091411435214
-16.6369186779853
-20.3933345659963
-23.2681221563261
-25.758867336711
-28.3019275028693
-30.4785287655325
-30.995525284884
-28.4885966278181
-22.3804086705716
-13.377976564347
-3.42491096331553
5.18844541987208
11.1960824130748
14.9683082764503
17.6746339223417
19.9079618746725
21.2777303665276
21.2978519011186
20.3316198364
19.30263465789
18.5405446797244
17.395823461239
15.2139787731073
12.2852498456989
9.49384756947469
7.37000862173785
5.91581782385251
5.16151537808695
5.43721433937624
6.9724484006371
9.29222678381307
11.1128939688345
11.1430837952262
9.24331702867646
6.61885925513874
4.63668186472267
3.62104966519538
2.92771467009354
1.7874465961793
-0.242501382375105
-3.20484573262631
-6.514148014565
-8.9223618198329
-9.18371159623036
-6.89229414565743
-2.70564439601676
2.00680649372116
5.71075306610105
7.35329539359551
6.92700340386068
5.48332225021414
4.36338684490014
4.12783672324797
4.20033953165674
3.69892528531043
2.4265827505811
0.6509215434599
-1.80802803300283
-5.43974141055971
-9.93420711451389
-14.0261923009822
-16.7362102414137
-18.2513779883893
-19.4650423927385
-21.1055938286905
-23.2727839088621
-25.2617381124771
-25.7106392587352
-23.2642611745137
-17.3755340325324
-8.75076808716746
0.752969395607974
9.03199554826669
15.2030871125423
20.1753619011113
25.2797424309
30.3690812456786
33.756741747627
34.027689076516
31.4572504970376
27.5791198497568
23.6933047864989
19.8719883136953
15.2007999175088
8.88842888636784
1.18975318942017
-6.672384743056
-13.3608423932113
-18.2287006146378
-21.5546443601025
-24.0576783891827
-25.9185279916771
-26.2632186515492
-23.9705809426307
-19.1039901856852
-13.3324283758081
-8.92475132557306
-7.37434610856884
-8.57623421706324
-10.8265234409018
-11.8169200396284
-10.3296833255729
-7.39750932758434
-5.80516821940942
-8.14898307870351
-14.8084186582943
-23.4044872448074
-30.4169850027929
-33.6271773234166
-32.9493475255917
-29.1330257037229
-22.5318322773484
-13.5840223031045
-3.78162841227791
4.72546878501122
10.5430810488311
13.8024202295713
15.7109494840915
17.6069909302197
20.3145853988046
24.1184313485271
29.1114134250031
35.2442737020052
41.8909751845457
47.6596933686753
50.9607431091915
50.8348138750116
47.3767881209283
41.6126464881374
34.9779369900646
28.7802977396858
24.0341014862753
21.3919233381025
20.7250903574546
20.8862871901516
20.3808194989717
18.2941639410533
14.3604210202549
8.46415207204371
0.580803128549108
-8.85253103527729
-18.7720736994465
-27.6622671705169
-33.964610376642
-36.6901862353957
-35.8536685876516
-32.3482087143439
-27.5608458350572
-23.0324111889033
-19.8887394338415
-18.2122533046755
-17.226922777403
-16.2400114897974
-15.1014979124916
-13.8444140882234
-12.5388715577632
-11.6050049200767
-11.5627450762758
-12.2072372744078
-12.6620096829364
-12.5944557134058
-12.8533668251772
-14.4575807755134
-17.1856727691122
-19.4815407686071
-19.7262125595874
-17.4992856833751
-13.6484558881982
-9.38459991525842
-5.63240178673025
-3.17737725584441
-2.81016590376307
-4.81275204246298
-8.38447218820316
-11.8551991035119
-13.5973729546939
-12.8799469825713
-10.0214146551022
-5.81161524223714
-0.930506895320116
3.96548737081934
8.01138131654796
10.7292496691579
12.9223816201006
16.2781265737826
21.7108195081273
28.4477544456822
34.969212631017
40.5002387368525
45.274967560905
49.5299821736072
52.6559775823016
53.5631864116753
51.7629377183339
47.8288462078295
42.7957068266451
37.3881506099663
31.8700953902021
26.2247213396078
20.2086542623869
13.5316609773537
6.30410866489059
-0.909188895729995
-7.81207145666477
-15.0844558969691
-24.1284108585331
-35.8851740838912
-49.4951932336003
-61.8631231514169
-69.0281624154749
-68.8339527241851
-62.6628536820115
-54.4840167776841
-48.0398881321864
-44.5855946353414
-42.7303566745802
-40.0609513661726
-34.9970951617286
-27.3868315720251
-17.6482576183444
-5.6265880256705
9.64281664723412
29.0456683089043
51.8877370685022
74.8007914459373
92.4045028793612
99.9919208260796
96.2494140356012
83.5170072949502
65.5437858443511
45.1566568629711
23.8589604397938
2.94121837662115
-15.8709311332849
-31.211982849967
-43.0648141519451
-52.3332348496096
-59.577315224429
-64.8132724782648
-68.4302402856362
-71.3320954004461
-73.8266924080913
-75.0336261803263
-73.5432225785184
-67.8227547749702
-55.8964992400374
-36.1567392243419
-9.82639991487611
17.7825783082592
39.7077238377515
51.7709281633847
54.8534211910767
53.0547208227626
49.8560762267333
46.0503395213066
40.9852559079249
35.1128560328081
30.7859585082897
30.5616529004091
34.9397949834375
41.6512614294869
46.8843404272131
47.3657987900769
41.9331543958621
31.8322563871047
19.791244938841
8.3929549325022
-1.45237784175929
-10.7833026893029
-21.0334738387185
-32.0309496974273
-41.8468414654385
-48.629595093486
-52.0267211655801
-52.6418514222931
-50.7932471904759
-46.3594724298509
-39.4570106862299
-30.6382198277629
-20.4744022439669
-9.37515606311797
2.15006901958676
13.3641598499932
23.5424395845433
32.1464487075391
38.5906462300964
41.9988894514733
41.6144652107198
37.5666878544654
30.8065983798235
22.1194874673462
11.8231591206989
0.857022535952593
-8.50401593525049
-13.8681565612128
-14.6298846809725
-12.310988893499
-9.11056502957208
-6.29717337730172
-3.84537945368328
-1.34022077487781
0.994759834420093
2.27111382947625
1.77992046552257
-0.279153350004688
-2.6821062026543
-3.70208670576624
-2.29181092576463
0.839161391719462
3.645054715624
4.46081400500788
2.98221044982808
-0.358353150214712
-5.18227906779266
-10.9743142617667
-16.6415843603124
-20.7779421868382
-22.3808654331784
-21.2867107670054
-18.0136269036067
-13.1651372960006
-7.0266610443224
-0.0356859182382819
6.38990326238431
10.1713053220174
10.1163559489912
6.71290157249717
1.16719808837457
-5.59484205702995
-12.4431901933334
-17.38677544251
-18.6021010013226
-16.2208420707612
-12.3307184045602
-8.83598488455101
-5.70890081356313
-1.71619497007627
3.4212783559956
8.1639491548863
10.5877197680028
10.4274575721402
9.55041128089331
10.4020667742618
13.8029494834561
18.0996551156083
20.6829625260548
20.5604741285527
19.2654406930931
19.2230190354833
21.7115477800379
26.445404863276
32.1653935384318
36.9263296579972
38.4517290337649
35.2608659191061
27.650795785593
17.2649366878213
5.74835710206368
-5.96018319233515
-17.26148171058
-27.3514008009211
-35.2325629442594
-40.1163806148091
-41.7338790709378
-40.4007366537507
-36.9332727467084
-32.3332821261438
-27.1443936525158
-21.0763208476542
-13.7325107132453
-5.82738642794463
0.933491824727263
5.50324481861161
8.41627752409388
10.5974450712806
11.8154777868326
11.029706330378
8.04946828274677
4.1487975578187
0.797562283908743
-2.00157592953598
-5.83382410259359
-12.0016983530022
-19.3117645892422
-24.0558967393171
-22.9084766250802
-16.1906551379951
-8.02889480080968
-2.9983539641931
-2.60564175693034
-4.97063926883945
-7.3102407442482
-8.00937489940454
-6.55287112683875
-2.71836103017469
3.4243804712065
11.2989893008743
20.1634836553743
29.1506737294049
36.6002431447261
40.2689875756439
39.1614834204593
34.7463335576367
29.646811406106
25.5245241720856
22.7700671111338
21.4697147588961
21.4991751103465
21.8474733949015
21.0110682143641
18.5840973020621
15.9508278705989
14.7696678308116
14.8161817317431
13.933808547233
10.4020970715468
4.79341323769631
-1.07587203672349
-6.54010135876512
-12.5127375731916
-19.6062975456266
-26.7434737049172
-32.0680339243943
-34.9104588122646
-36.5259463143446
-38.7961155637891
-42.1884334447535
-45.2126367250615
-46.1834859120941
-45.3542074719567
-44.8310168906703
-46.229950693564
-48.6005986382082
-48.8313457474026
-44.3000776068688
-35.3416496423643
-25.0596862118969
-16.5456164229252
-10.3980454425171
-5.07939569871473
0.799585066497323
7.2774515145138
13.9666536413363
21.1478043257714
29.2484928924013
37.6164905827728
44.6520666996698
49.3896347014592
52.347271995659
54.2854876982959
54.5742850514483
51.6905010192568
45.3872528373031
37.5988943225472
30.8737020167536
26.324150269923
23.2571654823696
20.3408597009238
16.8125790394661
12.733879461258
8.38994436330629
3.73134939607866
-1.42923873196793
-6.9628705590374
-12.6212478274459
-18.4808725695864
-24.6004290878472
-30.3152821907241
-34.3760843985715
-35.705133098966
-33.7704866511385
-28.7558783048763
-21.9704366195744
-15.6091885868514
-11.2176456825516
-8.37739404932675
-5.38634523601055
-1.08001863432354
4.53119045855101
11.139491769537
18.6343627501098
26.2743540256639
32.0615565438945
33.9265337102611
31.7397329015875
27.5694736620622
23.5791375193557
20.0796946647252
16.0518615379396
11.0822592590099
5.99905557755505
1.6209413342933
-2.49702598328877
-7.65463484494202
-14.2754029890891
-20.8616294380986
-25.3052680239743
-27.3776761417432
-29.0377114618641
-31.7911660385117
-34.8285304883495
-36.6499288882955
-37.3171520324316
-37.6014468841801
-36.7209025965023
-32.7629725361426
-25.3316957123745
-16.3241160255172
-7.70716781825551
0.405867659265742
8.7336680192309
16.5215487616808
21.4665564776306
22.2703417431937
20.3195096809673
17.9839457037472
15.8511947089329
12.7705272915052
8.38589457924813
4.30277790832053
2.35450387303363
2.58917176328869
3.49374831925321
3.7130592221981
3.06347601113561
2.03421794693008
0.753795547562941
-1.15939669257989
-3.59731463290605
-5.26031566564023
-4.68959586113276
-2.15425103685142
0.0420165545382227
-0.486100023688765
-4.13795323334451
-9.30532680664195
-13.9453151056494
-16.728017628382
-16.9715708296294
-14.3269170472819
-8.89451927984029
-1.18697878480483
8.32251318908978
19.1156024081883
29.8707983847918
38.7446204869071
45.1633798848941
50.3946654246505
55.2022969745235
57.8088527819824
55.7799623067351
49.4851111696742
41.9813192552838
35.4353746684864
29.1688701292941
21.5571224625305
12.530913659084
3.44602023897934
-4.78609386647463
-12.5730235188952
-20.6522628830129
-28.7233590839172
-35.5509281917479
-40.5362605596041
-44.653558738784
-49.274020344311
-54.368738402837
-58.5244848291748
-60.5880463598283
-60.6254522766624
-59.1506286422453
-55.8745895104118
-49.5495673048386
-39.1521252513999
-25.3603175930956
-10.8771345226062
1.06733241340343
8.99922587559838
14.0926748122048
18.5807720617838
23.3252306621276
27.3644860012724
29.8089649049108
31.1776351698255
32.0481176271892
31.1245963306433
26.1140281746318
16.7546109974038
6.03506624813541
-1.97231071633086
-5.04887256973721
-3.6772040634558
0.208378375351477
4.83241716465026
9.30300637856603
13.4108532489998
17.1757426095422
20.6248111668202
23.6378721327293
25.6710556525599
25.7774688318304
23.2291072998076
18.1042414972854
11.1387595657675
3.21356358986776
-4.80165716536387
-11.9485799928376
-17.2982375696023
-20.3040487241256
-21.1583505895182
-20.8955759381282
-20.8812730402951
-21.8080090067546
-23.1341248294554
-23.5962564365077
-22.2417348839409
-19.0549215934684
-14.7737306700337
-10.0011778191634
-4.40190867877055
2.7894029385212
11.1424816805524
18.5531936966166
23.1512844769891
25.3537756715407
27.2800496408945
30.2933609315462
33.7309128983354
35.8857623219814
35.4674136448222
31.860744703586
24.6620383936318
14.0002732870051
1.69143756869863
-8.68697263055051
-14.0660978366767
-14.6487800315313
-13.8757908224036
-15.1887478668169
-19.0327788993782
-23.1908468789772
-25.5159662613329
-25.8124620553453
-25.3627183446673
-25.3158198496645
-25.7313509591276
-25.8101335106025
-24.637482872727
-21.7276439258413
-17.2704879418427
-12.0271883728529
-6.64074657620553
-0.929566614956266
5.65557732674442
12.7407618630363
18.8487160325226
22.7330572393085
24.1016978125631
22.6944185290036
17.7771207058027
9.56283231236326
0.408519747607774
-6.73860460426926
-11.0669666197216
-14.0668252908173
-16.8364006041235
-18.3139147906776
-16.9963071519067
-13.7272349886633
-11.262822180369
-10.5289230193399
-8.52724328141079
-1.55515829711155
9.48393873655142
18.475971158479
19.7378668233628
13.6721818814881
6.13298520722543
2.76308515977674
4.78398395764414
9.84118773398144
15.4716784276699
20.9044549704168
26.1137734979864
30.4903882392483
33.1342357349927
33.9135014212023
33.4277985544577
31.9106485415205
28.6711804271972
22.812768013445
14.294334681203
4.09770134978618
-6.55625451492282
-16.8481065311443
-26.1129023240159
-33.3585893242182
-37.5001313567986
-38.0051201339668
-35.0542095683464
-29.2663567159607
-21.5486062944092
-12.9620614979462
-4.41407354848207
3.32989529660466
9.22853083986419
12.1081488118589
11.7179647503402
9.36820387366247
6.94052999844676
5.12363605538733
2.94228520583125
-0.689026976487979
-5.15455155539345
-8.42399468190868
-9.2573082876027
-8.53886112908828
-8.10549581383
-8.90406037600571
-10.9140829775991
-14.1930814148425
-18.7115073099486
-23.0221051416021
-24.1935608646851
-19.9290826118184
-10.7933050111456
-0.187308612567361
7.99194304305971
11.9985761804919
12.9698521438538
13.2557838724907
14.1286254583927
15.038005085904
14.6886325756604
12.5398844825603
9.40921515784133
6.76990300063913
5.33998682585057
4.43115278836973
2.93086959927209
0.675475408474857
-1.64074133840597
-3.6770216994863
-5.842495199955
-8.39898908173815
-10.6872025733644
-11.4989867803078
-10.1217351801549
-6.97578628070731
-3.2452364421865
0.0736074507461699
2.67730070433973
4.71805605407639
6.54129754746614
8.68021988802382
11.5036621341516
14.5488293750554
16.5779622011511
16.5714599917226
14.4532888301904
10.8391923104235
6.48906749433714
2.04339561310726
-2.1440495962865
-5.97753936549019
-9.13489628508914
-10.8121145821915
-10.434834215195
-8.53996350650515
-6.53147729666076
-5.48235541282238
-5.21853316144725
-4.46077972095358
-1.9556986471488
2.26370067841955
6.83957002384572
10.5402313874683
13.4323277110426
16.150076525699
18.3151349867178
18.4424037152512
15.5618032170943
10.4387263723426
4.89900219168325
0.224273845642283
-3.40270135532295
-6.03635227983021
-7.33342559102088
-7.26900875842683
-6.96332678202735
-7.97184259902765
-10.7453228658233
-14.2537123148262
-17.0320446868127
-18.1800818631881
-17.5324712170395
-15.4778145406308
-12.7441165391658
-9.9125500534925
-6.82350895753362
-2.60647011151412
3.37987990103056
10.4650136913671
16.6198522764026
19.7227898086654
18.9201798616771
14.6937301333019
8.00645630411316
0.0286234750505288
-7.51083436456421
-12.7642108898817
-15.0791592326374
-15.4769994610608
-15.5573640713739
-16.096491068732
-16.5670872405324
-15.5436874409896
-11.554163297213
-4.08038332125685
5.75345903923734
15.3070021172
21.4968343577261
22.4499661443518
18.7785445105228
13.3127539783554
9.17452895399976
7.65181057443836
7.58099413528233
6.63309120928664
3.41338138631908
-1.37086324320704
-5.7255561682905
-8.28589073189642
-9.22421860597736
-9.37006220471048
-8.98954027128831
-7.6692293561201
-4.91630237727866
-0.457005722058724
5.70315349481703
12.931821786184
19.6871254306202
24.0442972682645
24.8608435925311
22.5400819782281
18.6181305233319
14.4907706034568
10.5287555458541
6.45273301117267
2.22321999132958
-1.95140867192447
-6.31056276522917
-11.4062995613729
-16.9594756713183
-21.5906731704959
-24.4921072034213
-27.1122498581934
-32.1063489784954
-40.026059156886
-47.6758780075375
-50.6366836180608
-47.1812112986824
-38.924954408892
-28.213017029234
-16.4914180745424
-5.19950840259296
3.90599318041113
10.5628104423857
16.9369454072391
25.3794652952262
35.5263585633525
44.3641378763906
49.0912284695601
49.5710426472358
48.0272530003176
46.5746633006862
45.2147444808116
42.2026456899172
35.9683114809833
26.371842662568
14.6135147569741
2.78779095321301
-6.63801166088099
-12.0473336918341
-13.9510254497694
-14.5744269810674
-15.7819344933688
-17.6157731542176
-18.9656526674975
-19.2335652132865
-18.8892166609756
-18.4962645872362
-17.823688630563
-16.3839555790001
-14.4580056272409
-12.8027370479905
-11.4149496092825
-9.47078698608581
-6.70504285080088
-4.04256829599639
-2.48555629893342
-2.03550805469212
-2.14927150011019
-2.73612833663358
-4.17255157109683
-6.53266009605185
-9.24043521389095
-11.5680702090764
-13.1937209805146
-13.9318387019743
-13.0863854098335
-9.82156013543038
-4.4965851185872
1.05026474504885
5.15935838606934
7.94929526901141
10.8686220048839
15.0525217422729
20.4751509195441
26.2277904908269
31.0693424880847
33.9078451308126
34.1848534157605
31.9011320427353
27.4118893732546
21.4135543618738
14.8577884840164
8.4199428084866
2.20637889788355
-3.67095508507239
-8.54118670224632
-11.6612345851458
-13.0683953764063
-13.5206420772362
-13.5616318942551
-12.8263747494954
-10.424748919809
-6.21961732517174
-1.760417927146
0.412578818242309
-1.24860307762579
-5.95638551131978
-11.1871897304807
-14.5933354393615
-15.6632035760884
-15.9199096810472
-17.4374515008261
-20.9064863870342
-25.0916454808853
-27.955147224355
-27.9162001147949
-24.280718284761
-17.3832270421611
-8.7970135071473
-1.04823752579301
3.39602886364545
3.29298375745888
-0.647284561534125
-5.88700704952273
-9.32083680402124
-9.06231676327181
-5.32292446478629
0.198300830050521
5.52285608543619
9.32210637287207
11.4440170455797
12.8136838260259
14.4990236766011
16.7055550764561
18.7350496487495
19.78307499738
19.6530554191466
18.8955518009291
18.4644191085523
19.1548161118074
21.1215528061828
23.7018850404381
25.6883520305946
26.1158568761834
25.0799627192599
23.6009323344452
22.4608797604252
21.4444131935395
19.935956287055
17.8235336297794
15.4123856005295
12.8153936495437
9.92226913579099
6.86569651077956
4.23523301406142
2.74618831852077
2.49400407100445
2.3689761346581
0.596204635393061
-3.65035733848864
-9.32258106441768
-14.5638730525946
-18.6618080564288
-22.9392553561685
-30.0533277438053
-42.1859993395722
-58.8316861981417
-75.8637760245328
-87.6125726057499
-90.6831481914172
-85.7400685913588
-75.7518716023013
-63.1592913997437
-48.7184874455346
-32.2092602651283
-13.6592038504474
6.08725989153816
25.6784527929566
43.5679000138606
57.6967912889803
65.6054653251246
66.0509567594303
60.6566483753773
53.1990379168761
46.9161831972741
42.6115879807648
39.0970007001106
34.9757288878835
29.9437801751938
24.6878447758227
19.910005729532
15.7832465466972
12.2836280289566
9.51397787907272
7.43159855175691
5.58871113240597
3.37546267867994
0.352195784030034
-3.63409114061456
-8.32226875125845
-12.9642055133435
-16.6739790022753
-18.9776572461881
-19.9161578781821
-19.6870658591855
-18.4188992802038
-16.2502995173622
-13.3469587080031
-9.7486706380561
-5.31135316592772
0.0891849543955622
6.09255611805428
11.3941562280842
13.9778455859271
12.330908648304
6.66293661345064
-1.13822671197133
-8.72169421178696
-14.4254582620638
-17.5767206571434
-18.285532915119
-17.3911969441315
-16.4179171747049
-16.7600889209238
-18.2946204320963
-19.136895059251
-17.4283113206955
-13.2470678255197
-8.26176542086025
-3.76530747578646
0.309696702499506
4.57145480380643
8.95627877383324
12.3609685685789
13.2842797445644
11.0651901950967
6.72112216997531
2.44086616566528
0.187255317009552
0.752631572154677
3.68929480776017
7.66931523510601
11.1938400309302
13.5620486735801
15.1913103195321
16.7469174973162
18.138192005252
18.6339681029769
17.7400484184456
15.6759730150653
13.1350658577342
10.7758884794206
8.89191142207802
7.49447345859998
6.57724100832897
6.01699292800336
5.24626206124442
3.43846165184477
0.117782396677312
-4.6394289007422
-10.4143653937447
-16.463699078232
-21.7727084660521
-25.5802569729545
-27.7589084311231
-28.478705313165
-27.8380490595558
-26.0715196573363
-23.7514489020121
-21.4183056046332
-18.9887459961751
-15.5314506413004
-9.85025476535369
-1.85925026402673
6.52588967279175
12.4705490125147
14.44105281567
13.0607723079589
10.029948402994
6.92912891927829
4.92544260319611
4.59509122289304
5.5386467425653
6.68133925384024
7.4464815551583
8.51599756730819
11.1159703610469
15.394905779512
19.5444318219373
20.8118482609108
17.7144988794425
11.2590868912171
3.93715803396361
-2.13310339009543
-5.93999204698498
-7.24250109175635
-6.42407922476839
-4.65076686349333
-3.43725037283658
-3.45432276191486
-3.60121865134518
-1.54722989885768
4.25206274821999
12.8617655450391
21.434344936156
27.44106805386
29.9753328294178
29.1494282106681
25.1997680471254
18.5084063568179
9.86846980513613
0.347417221009547
-8.93905069993337
-17.0227981886077
-23.400336765714
-28.0984114082541
-31.1985437864129
-32.3787787363626
-31.1340933757856
-27.5945154222837
-23.1744878907964
-20.0183502213219
-19.0446005342986
-18.4205013325282
-14.8863775640085
-7.35499246238447
1.16220395553817
5.91537437215093
4.73546581011193
-0.157385574644318
-4.26000990650744
-4.31093185665913
-0.135072006844204
6.14554915893676
12.1490418229364
16.4810341134832
18.6158604221835
18.4996415270234
16.5831132942922
13.6642522579837
10.2461937993551
6.31158106681478
1.89362057243495
-2.61572043933483
-7.06800442821925
-11.9917311944488
-17.73152712145
-23.13141706616
-25.7398389833342
-23.9587313377731
-18.919633587802
-13.6401631240428
-10.1619673861549
-7.9673478286022
-5.1982703517937
-0.688918727526678
5.31504955064199
11.4680594431715
15.8334979873397
16.8846021831493
14.8577862220441
11.9357703906901
10.4944486692072
11.0300144964703
12.0098696899004
11.8571976732385
10.9910881867193
11.6539534576237
15.464786846634
21.2916118332867
25.9931278568529
27.2747297044412
25.3954667160885
22.1434910875176
18.8273264785914
15.5944211452063
12.2528780956984
9.09032813808194
6.56606740586484
4.4029284704011
1.55515219357281
-2.60348718787237
-7.34167528606876
-11.0953966697424
-12.731807619676
-12.2208767945761
-10.4881041630337
-8.79865948532352
-7.88792586339071
-7.48830762658235
-6.92935344207155
-6.10214700308659
-5.46535612542801
-5.29756026445282
-5.45329261401485
-5.78594537158499
-6.39371999491234
-7.39705742574518
-8.61948317255841
-9.51662996789369
-9.57488750011857
-8.9745975203401
-8.61858003845329
-9.14988307974852
-10.2404741586456
-11.4215123095214
-13.370289771664
-17.5450721532953
-24.3938698132711
-32.4901545116983
-39.6027854493917
-44.210889017012
-45.8558475159131
-44.4676424817339
-39.8758950550944
-32.1584917888241
-22.1549214467097
-11.0830919736711
0.461618392219827
12.6182498959416
25.0484792418562
36.0186471422364
43.2932152676055
46.0836921456264
45.8549020121307
44.9329768979677
44.288734332588
42.9154534066895
39.4561297648862
34.0194174800831
28.040453705403
22.7529494440552
18.3514071370031
14.4329074253947
10.7234098151465
7.39027403239906
4.89512908188774
3.48742759490598
2.84686694182965
2.44715161161517
2.17271381920172
2.22329044136155
2.5314042790296
2.74286360852399
2.73580639851327
2.66924198269475
2.41895458294047
1.30629551301203
-1.4840694328559
-6.288915167733
-12.6109954365571
-19.2064787644337
-24.6858476929183
-28.2424028716719
-29.8629415030785
-29.9892616418944
-29.1001686914914
-27.3554214794791
-24.2943731827534
-18.9697336595584
-10.7390726535586
-0.194745992858408
10.5159548426377
18.3675845513245
21.0034651555873
18.1992822380341
11.8705121958896
4.53113584466047
-2.14040276088635
-7.36042033450851
-10.5632328351694
-11.2146381732522
-9.31681530869559
-5.92527684017316
-2.89143992561759
-1.67203767310525
-2.22962894541511
-3.26549094991594
-3.44092274857524
-2.10079188702882
0.876244478235038
5.1500931265142
9.60479764572495
12.4817557059408
12.3597863864628
9.22839396575579
4.7463688737203
1.42002946054367
1.09044196436121
3.75144382175067
7.73494884237002
11.0307667929462
12.3664540838463
11.3331106711217
8.13212632226229
3.50036605082792
-1.42571849557231
-5.66236969857267
-9.06225864596629
-12.2915788247242
-15.7539792994627
-18.6365853788322
-19.6157292367913
-18.4964401756701
-16.267973887791
-13.2283339410709
-8.01159000840547
0.764622920379114
12.3424576393036
23.875442324452
32.4098344826785
36.6408926091915
37.1542454278639
35.3058840300391
31.8044367468962
26.3144768215015
18.3357698018321
8.12918673225863
-3.31295138836375
-14.8064846026599
-25.2694640200029
-33.8125818438446
-39.8467720266052
-43.0898514519655
-43.5100643546935
-41.3695300677237
-37.1160156198195
-30.9521013537073
-22.6412647202203
-11.9946058383525
0.439461454088114
13.1025115291632
23.7581198898647
30.5361480091874
33.2028499494256
33.219400753222
32.1548028952365
30.3033281451912
27.1060659019796
22.3649752442269
16.5371103870384
10.2378837028536
3.95555364142442
-1.9842691718402
-7.60464298798239
-13.3726731061851
-19.7541496242184
-26.3791997137058
-31.6093318669693
-33.31094952106
-30.5433094848852
-24.4864187412833
-17.441415834838
-10.9725108811614
-5.06775622963707
1.32576506292735
9.20979576200327
18.465143366156
27.332640491959
33.1332009504045
33.9523294741321
29.839782147329
22.5509683349652
14.3178775510947
6.71055465234847
0.24915818545032
-5.13567160867565
-9.37970381652413
-12.2042437415757
-13.5978629996594
-13.7440257289037
-12.3085943834534
-8.54682256632732
-2.62075001206862
3.69704579698803
8.21685553581741
10.1081708133105
10.271088340638
10.1900120995195
10.6829152133189
11.5616567671901
12.0480842667658
11.3531935086201
9.17315307134596
5.98766371454441
2.75028016881649
-0.0699134169535288
-3.06570722976336
-7.22597085029233
-12.8659979068327
-19.4668683140319
-26.1463393012535
-31.8322842218958
-35.43551151526
-36.4984230364722
-35.4989019493614
-33.1822192592073
-29.8222871750038
-25.2095931023753
-18.9285391689989
-10.6472105411196
-0.733405669698876
9.3393556624792
17.778603931789
23.7759197967328
27.630885849343
29.8014525902005
30.5130331341962
30.1339843531376
29.0854180878262
27.2822192917045
24.286836979248
20.1295932519418
15.5756086482713
11.5489264339481
8.54774383794325
6.53028067927961
5.0224627252162
3.25838270005462
0.565256568638764
-2.93768990735975
-5.97458893396101
-6.87377133683861
-4.99086302492231
-1.21281211502426
2.98527660384293
6.56854563952269
8.95094186628638
9.66276472242434
8.55561452980528
6.07479274415796
2.87608160419373
-0.869245131338606
-5.65618983783983
-12.0221173585789
-19.5953274030953
-26.8145351945069
-31.8598417535878
-33.9073121397574
-33.3593389816198
-31.1091087340138
-27.9313260129024
-24.2629813287372
-19.9074001836396
-13.9898771900697
-5.84846769968898
3.84448074845588
13.1894035156303
20.3025448759656
24.2253701674243
24.929098828478
23.0497919671764
19.6572834796919
15.8410877210229
12.242690109091
8.90012053911303
5.51855814753865
2.01928535905212
-1.14637418917979
-3.49136212022823
-5.30801168290545
-7.42812113695423
-9.82806287158399
-10.9623329927125
-9.13000997264526
-4.46651855531822
0.897470536490702
4.8193498856279
6.95497509080399
8.29705958441159
9.27457871593509
9.15943890638076
7.57507979729541
5.71979822011125
5.39655753996793
7.26477744546915
10.5066551347068
13.6594065633154
15.2652222132961
14.3155924197761
10.8601682591078
6.07006962399015
1.25399203742091
-3.1280635049606
-7.26355597063735
-11.0012500608994
-13.4149301704286
-13.4916799559827
-11.2444024855191
-7.99417474118663
-5.33332765606704
-3.87274197737717
-3.20998017544435
-2.82854389148863
-2.52514492416575
-2.20415443682382
-1.95282914939538
-2.3558286272583
-4.23877491814243
-7.92669174512532
-12.7789146388918
-17.2761390269981
-19.6230779674495
-18.7680136939676
-15.094660972249
-9.93374874623368
-4.38161329513756
1.24752755371965
7.02227899530291
12.7804912197301
17.8377049039599
21.217922536646
22.387545787461
21.7396986990204
20.0273754187002
17.4021716363141
13.4704255658643
8.35460046345555
3.31358743488978
0.0463615977650715
-0.672609080565379
0.319625737747555
1.31994588799114
1.28278489457854
0.505635462710989
-0.271365766948607
-1.11125530249315
-2.81251224877981
-5.75034730702685
-9.2687270018687
-12.2902788145119
-14.2498585330189
-15.3854574334558
-16.2718174123551
-17.1308538198425
-17.6292625036025
-17.2813283355158
-15.7177463069249
-12.4475113745113
-6.8993961104385
0.748799445476947
8.91268681612588
15.1620223898752
17.6028416646053
15.9440999841456
11.5870360005222
6.69739993471066
2.86553120927243
0.448954319746178
-0.979558377968667
-1.88537542125984
-2.47425148334249
-2.66405870188393
-2.10735109419494
-0.452538712326536
2.28812134368941
5.66660636676436
8.9863600170716
11.5205534463088
12.8038327113802
12.9000159449974
12.291160975287
11.4420737978981
10.5118417799303
9.35487603060761
7.6246716393417
5.04893237042211
1.92035167360956
-0.775422586294761
-2.09924956423038
-2.14105634140436
-2.10765559459264
-3.28481883382556
-5.73511630008635
-7.90255318251137
-7.73146553375448
-4.48665202957232
0.563448000744213
5.27966195609676
8.13817601396613
8.55898534389507
6.3825068760311
1.56251619322998
-5.62370910936389
-14.1328995565895
-21.9498996433896
-26.7750877700522
-27.542326547209
-25.2873009613408
-22.117766874063
-19.2469837270857
-16.223598309385
-12.0248099067564
-6.62581180911771
-1.29801942617616
2.66412780062931
5.25648999165872
7.41937734489723
9.46124640110084
10.4849355569801
9.74573757903479
8.09059160787321
7.3810630512105
8.46061976138579
10.1101601712967
10.2327065295967
7.97903623057958
4.56730808587953
2.00591776651621
1.27689953134908
2.09247370599494
4.10151818298
7.39317437112963
11.5202065062396
14.8578442669845
15.6488947241392
13.5054496601359
9.60008583197491
5.58821414636342
2.50049969818173
0.413971908340936
-1.14874441690731
-2.61154330303706
-3.99791680677087
-4.94588662347795
-5.03399280902798
-4.34479142744563
-3.73519481834382
-4.14103077230391
-5.42886020066536
-6.28857027527598
-5.46580443339431
-2.88848957874277
0.386737376305143
2.95540013951454
3.77265703562935
2.52197949369856
-0.373163591615651
-3.97073144655357
-7.07217015839241
-8.65542484078544
-8.54620391337151
-7.60001253165468
-6.74709566249202
-5.85183310622483
-4.01838272000214
-1.08489529463598
1.75905939848991
3.09069673268842
2.60584472006919
1.15462204827447
-0.307140961567367
-1.61868116842472
-3.2929080103246
-5.53337116789042
-7.57282270163497
-8.22304616663716
-6.90041422485687
-3.85686168563482
0.288560623045552
4.84507969932667
9.12180641791453
12.621628979003
15.1196729658736
16.4290038203874
16.2468520762936
14.3182359090827
10.7138107872165
6.07670988216081
1.60264409355924
-1.58415228113574
-3.18373676612538
-3.62625820736795
-3.37494833312258
-2.7738473543136
-2.3672764947179
-2.67150431688002
-3.57125267425309
-4.40992021319311
-4.74753243727764
-4.80955166591109
-5.24393184391744
-6.51737978775264
-8.36062608754729
-9.76411023661735
-9.77088472339106
-8.33024689729931
-6.26092802014549
-4.5979883760483
-4.14009130521467
-5.04428175909042
-6.24111726553495
-5.69023523951004
-2.07497915296762
3.65556175334061
8.75122592690461
10.7079250764027
8.99324277770907
5.20030352238992
1.68775599156649
-0.132605078094962
-0.324666006357788
0.503854020826978
2.12119085223033
4.40976148315573
6.67932663830281
7.85907287823988
7.45069380489963
6.05523916390555
4.80624082452696
4.23432791652905
3.75578798501798
2.4111277202456
0.0625050794320865
-2.26322702337321
-3.13418293725192
-1.79067220420055
1.24786032356196
4.53006682647906
6.85373474332456
8.10813390237546
8.75680678427296
8.80230471076475
7.81152249783688
5.78160961454225
3.35874555283529
1.28028676824417
0.13126184323695
0.386745983085045
1.87523316680148
3.22636519264056
2.64763052164631
-0.476827667521077
-5.04820835956698
-9.24212066134984
-11.7698430543602
-12.4448325327363
-12.1177826476173
-12.2274552355373
-13.9543913376853
-17.1920157606626
-20.235521259569
-21.0048597896071
-18.917288055505
-15.1903084295588
-11.103551177829
-6.64451318252096
-1.36356812165751
4.07353683432043
7.87708408507976
8.43348104254298
5.44742161342279
0.382862401662952
-4.01544815740855
-5.33451441155699
-3.15210849472355
0.932933346793996
4.78289078722898
7.13153050590307
8.08605827045474
8.79743586045596
10.4001105197986
12.895249375708
15.2550259561033
16.7136895749944
17.45700744238
17.8249109693689
17.4797192801217
15.9318628972878
13.6007172189387
11.8127709997889
11.6111978452885
12.6489710168167
13.3508186243912
12.274205670097
9.28191410325858
5.30956460609765
1.20726359054133
-2.92375592899039
-7.42302652595064
-12.4157633248271
-17.4214335699979
-21.4649830377734
-23.6608303341476
-23.8292265545081
-22.6309643828531
-21.1968793609547
-20.4466827739746
-20.2609759433122
-19.2178758415657
-15.7347797736274
-9.84120086679484
-3.51552979962678
0.911089439066213
2.47565073184605
1.95847374041341
1.18368301718663
1.87707855344801
4.44325476585963
7.5383936472162
9.20496150501493
8.68984499177834
7.07037770475176
6.09607299545073
6.53881841375019
7.6318526337774
7.96268353430525
6.82916762657814
4.68805833677953
2.40961071628054
0.491889116487115
-0.851085668539046
-1.32361534043536
-0.7118451496194
0.771538044242628
2.52455571161904
3.82402340514179
4.1735099676917
3.75205987718851
3.43149050706816
3.94654371368421
5.06685498224434
5.84814656857598
5.60145873543172
4.41587823022235
2.88008114149247
1.51938633997545
0.505993523275143
-0.175205257575942
-0.468570921558985
-0.414871743567996
-0.465397098137752
-1.20483812037321
-2.77573246891234
-4.92314330902009
-7.37390212938457
-9.68145460392616
-11.0513655136351
-10.9962958467087
-9.88683233574267
-8.2360849695298
-5.83250372165105
-2.34754438828166
1.47627316233627
4.04271387338652
4.30453433624556
2.56816891840964
0.148286530245788
-1.44506703215658
-1.36331886405326
0.0557359821665749
1.6765753406694
2.55694927638292
2.46841225041471
1.73798051269465
1.04866494507094
1.24464584764025
2.71975349099178
4.75961438765466
5.82157700036987
4.88414604235792
2.56173867789413
0.572901712153809
-0.0146441225983853
0.323039432163392
0.53495408158398
0.294398862910549
-0.0443033977477082
-0.252201375423482
-0.401755416549566
-0.459097711078928
-0.0777139486890461
1.27867436452933
3.96917641960392
7.62609536634128
11.1028157138544
13.3255756898877
13.9749785078844
13.0535016962439
10.3427915878377
5.89378780599194
0.642511212825351
-4.13291978173941
-7.8371697922547
-10.7204112334288
-13.3558253232535
-16.2566720279879
-19.5059324443864
-22.2524687243121
-22.9153480232115
-20.4169059231196
-15.1957284996112
-8.90895551979484
-3.32174786366481
0.544308537528763
2.57386065182151
3.21862020907143
3.13966732069803
3.14183409823244
4.02979412461994
5.9719713963839
8.00272744725703
8.66625128299954
7.49140608828094
5.74570255288872
5.47430522617131
7.55589784669605
10.6602999713702
12.3051112302027
10.9828783945042
7.09273383206374
2.05051568960823
-2.84770517528385
-6.70943968935734
-9.09639528353709
-10.2603685567979
-10.9105653246104
-11.4093091820564
-11.3222881140129
-9.81471296694238
-6.46598865872704
-1.88999395574115
2.42028938718171
5.26059010414129
6.90799824013288
8.7810518770706
11.7158444374841
14.9030270750938
16.6255283366237
15.6435292790311
11.8296247958415
6.05535023933596
-0.227564576040493
-5.61266863392038
-9.25522456447177
-10.8855030670697
-10.5760636035838
-8.71755596039033
-6.04047263799016
-3.27125721374941
-0.563321031290247
2.57776918301856
6.42086209100247
9.99264102577404
11.4604677812622
9.90253682707985
6.28412683474933
2.30053529264268
-1.26529334930399
-4.58357036079519
-7.69978361515149
-10.0410341359439
-10.8399006029262
-9.82067804464548
-7.68479909742372
-5.85383086188001
-5.26637017859614
-5.40502065771576
-4.82250853992195
-2.52693885823781
1.26701523159801
5.28449838597926
7.80522668042832
7.7299500747024
5.57386374836832
3.09646430664809
1.62822486247313
1.06744801333409
0.593690637233927
-0.251580382074923
-1.4289334767032
-2.71949630475586
-3.78004098722651
-4.22315727047686
-3.96980879459686
-3.43754040088138
-3.18192184462189
-3.19331556647891
-2.61181652089065
-0.578976587150669
2.4125875504518
4.52644500137795
4.36886963677521
2.41278786745861
0.308973406561831
-0.792412364990854
-0.83471064027064
-0.158641614847706
1.18427953793459
3.26164640764703
5.60079365748378
7.1012848840328
6.97085000639443
5.58555292667148
4.00122817345737
2.80800225214196
1.93259558697084
1.2101672263214
0.462388469668971
-0.664359639826361
-2.10259762011988
-2.77009818844702
-1.4365877477985
1.69943266764264
4.90685492868743
6.5770626926174
6.66293199789082
6.41257232381317
6.85100247445452
7.49278840098684
6.52722973300184
2.43066058176358
-4.58761955529803
-12.7310794118964
-19.8796373428418
-24.6254335860389
-26.6245158439721
-26.3743412418483
-24.4714566797096
-20.9468766835874
-15.5058935846255
-8.35675623235954
-0.518107424094566
6.67010868318928
12.206331686168
15.7707831551297
17.5981090713871
18.0038714404346
17.1518461493182
15.3631603934012
13.2763762532176
11.4015630036815
9.85659435488186
8.76153153571785
8.38444343496726
8.57464471407284
8.50533198124243
7.33165304484455
4.89028727379706
1.62289488880648
-2.03050998628087
-6.11669000519647
-10.9959066978508
-16.4308635328755
-20.8967397020119
-22.3213547639704
-19.7734498881283
-14.1914653768831
-7.51042222769703
-1.48829726716462
2.86748039960696
5.60381177699594
7.70457867691418
9.9995843761939
12.0722380487299
12.7545891988987
11.5897117191197
9.13326859075354
5.81612084161609
1.27192121387955
-4.74198773870623
-11.0378720458937
-15.2077163839685
-15.5002352646093
-12.3938073742026
-8.10264200539222
-4.6745806218265
-2.70560638479475
-1.45280816906437
0.293582590026983
3.18602306953072
6.71394220736473
9.71310879226824
11.5007985514732
12.1550853430059
11.8902102312799
10.905057383365
9.76190400921616
9.08040159963929
8.77888861759921
8.25053206474902
7.27105394763466
6.14239196669083
4.95656429310308
3.25179883308139
0.476678869841247
-3.47576388477487
-8.07982355393253
-12.2335199222844
-14.6646660211553
-14.6910843400653
-12.7815677549771
-10.3708846344726
-8.91798180483409
-8.73550044487072
-8.59862516426464
-6.81384947816394
-2.88327309996752
1.97090216106798
5.86222668863281
7.65364858755971
7.5215793966338
6.46377791056066
5.30897232058075
4.16894161661326
2.83584032968172
1.40156042128002
0.172509442988217
-0.695332896213232
-1.02068415483214
-0.444936047181964
0.906893861159641
1.87099909338474
0.981873940248475
-2.25153959562823
-6.98813338104716
-11.6808153066591
-14.944133761171
-16.2383752464412
-15.9762170565404
-14.8495832839232
-13.0639503144131
-10.2684295697619
-5.94577583493219
0.238239241064967
7.94692333608002
15.650935943808
21.0826598360306
22.8473498138688
21.5255970625481
18.9600772935536
16.7012424491408
15.2884856037291
14.5551641477236
14.0733428048222
13.2498025725511
11.3341232116261
7.80752818889557
3.04442810812385
-1.62994053875415
-4.93306887845849
-6.68686258661964
-7.75384734097866
-9.09328936298872
-10.9958363569899
-12.9248143003736
-13.8983555421436
-13.3203408768989
-11.6324290737132
-9.91599163335273
-8.76083913644348
-7.75211885484732
-6.09804324196682
-3.58114769156959
-0.878576624812837
1.05391417603116
2.00795121408677
2.74280931087071
3.88818236176203
4.92135741828974
4.78955542086189
3.37060358639529
1.63992297085471
0.344967552675015
-0.882646574394991
-2.87564262622085
-5.7467766065895
-8.51865917814924
-9.77163940539053
-8.69029916014131
-5.68340654030683
-2.04969464914065
0.956220254683564
2.80335356369059
3.76013045191017
4.50261787220119
5.50569855006277
6.82102467370344
8.55810241537561
11.0558186258159
13.8911212188701
15.16963043414
12.9043722352929
7.21821821863314
0.505925998295944
-4.64012598424838
-7.26998590272843
-8.11053587449865
-8.38423233381729
-8.71906061534898
-9.05228523141847
-9.36508055455568
-9.9473047509457
-10.6112002124119
-10.2995107911574
-8.22191081945017
-5.04266679590173
-2.24709364697948
-0.478857685411557
0.953451641706539
2.94426627602959
5.38715128809804
7.30704906818049
8.08913248564331
8.26134832764787
8.74564581265495
9.50907928243461
9.55937656565845
8.36158181739373
6.59609669607211
5.30585679147199
4.98467290824295
5.74952493304378
7.60959013159742
10.0692792867607
11.9972370314548
12.3755495721504
10.9853104138394
8.20011190857591
4.45449329614536
0.296612338327119
-3.16909441882755
-4.55335624736731
-3.47281251840809
-1.37273556654899
-0.398386778098845
-1.33299197925184
-3.05180627035354
-3.91807484677498
-3.22820643659409
-1.47511205004948
0.125946297201361
0.337732222790723
-1.37631164057599
-4.69291055969942
-9.00085569527939
-13.850486164881
-18.8276407413056
-23.4413319538942
-27.2480961301726
-29.7819707581591
-30.502409478433
-29.3035486104709
-26.9806820661544
-24.6103317709349
-22.3290202335959
-19.0856604949916
-13.7934178209334
-6.66667969688331
0.615871971093446
6.20544149084922
9.71588190086517
12.3988554142132
15.5295310975923
19.0680228012503
22.2657089081647
24.9058372831389
27.1487643371597
28.5525386084109
28.1591998329854
25.6637532695481
22.0405732656426
18.8071698162606
16.7215474659866
15.2914772922028
13.6406924533979
11.6780482817367
10.0621822604604
9.13971318942651
8.43923995070963
7.20381734580279
4.95064609551935
1.59235581722978
-2.4238335683273
-6.00663184504248
-7.83187531389784
-7.16024637475013
-4.54509552356415
-1.94164520181119
-1.66144211815431
-4.44695929161097
-8.52671896261361
-11.0615883961233
-10.5659133235702
-7.70887518016101
-4.20522113613124
-1.60672679745967
-0.900178345799377
-2.33742279555652
-5.28998368034237
-8.51619099759822
-10.6969162282802
-10.8889534231899
-9.01161490414275
-6.19970355465119
-4.32466197595918
-4.66828003931264
-6.77399961834845
-8.48478684105519
-7.40236828788169
-2.91355927472706
3.04739488828441
7.55502475281886
9.03316730238442
7.85917244187342
5.04442814189412
1.02229706680618
-4.25570589729493
-10.5636958489023
-16.9426358378935
-21.8941446650417
-24.0794482454233
-22.9253238222259
-18.6931590126321
-12.3192862940565
-5.24752438356935
1.18594794245857
6.63410341968859
11.6959449737315
16.7171776308728
20.8990406540925
22.772016640866
21.359458251226
16.9022684021629
10.7670470035043
4.66961236148124
-0.281483960264642
-3.84355574338927
-6.01770227142693
-6.61478237682466
-5.68108851199751
-3.90955609387081
-2.21687355357175
-1.01341097348057
0.0961731512705405
2.0437565817526
5.43563113225663
9.59011714846096
12.7595519609852
13.7487288981726
13.0858954545905
12.3107842142448
12.3983169697194
13.1303143872405
13.7255307184016
13.7344156489683
13.2463871126704
12.3129283028125
10.4821581024764
7.30361502411477
3.23540933111809
-0.364452263474652
-2.2469794861704
-2.21932811455379
-1.4216435605192
-1.85494128552256
-5.09631611129642
-10.9229847123645
-17.2638976901002
-21.6660722281274
-22.8424147353095
-21.2178502369045
-18.5296612226221
-16.6899669788355
-16.3218103804797
-16.245074963577
-14.7652163637967
-11.5288943676325
-7.891590396056
-5.53565421027509
-4.91756644745671
-4.96017069295772
-4.15354673523131
-2.07165322479753
0.219552588936671
1.40890637311816
1.46175461524295
1.69224083294659
3.4418510924659
6.81554380518713
10.5429865975526
12.9599567534524
13.2751371893525
12.0029460626016
10.2278942710591
8.62314552391758
7.19107288221502
5.61647856197095
3.67684020636457
1.50589486791319
-0.435271858208506
-1.74067413634535
-2.30425884475429
-2.10146493136895
-1.07827200057797
0.548633921737552
2.28550333165588
3.82573924693852
5.10604081612506
5.91319451928458
6.07395187163232
6.09078821684146
6.85123027318259
8.41450376002717
9.58770377551121
9.0102540751309
6.43921673076666
2.92844489560755
0.0237412618314102
-1.24812273921998
-1.00728770984008
-0.432129498605173
-1.04226990054846
-3.78322512776781
-8.27502015171579
-12.7426617960933
-15.1863194792423
-15.0353039639414
-13.4090238159492
-11.7099258227593
-10.4925148791155
-9.70731151489818
-9.23326923917977
-8.84316226921608
-8.19265105056018
-7.14169511066603
-5.78759921670793
-4.04441929118785
-1.39920306631447
2.70181877435122
7.98553629394906
12.7959030526825
14.918034948698
13.4911630098872
9.8317201435088
5.96608430715276
2.79300933225949
0.179656892465923
-1.68717829769276
-1.95376895556839
-0.193576391181851
2.68211888741854
5.02730690615685
6.05174995815466
6.55550721843613
7.74693066675829
9.52829865482765
10.6048919565181
10.2638344939788
9.11660595130196
7.83281740719268
6.20890911406718
4.07648682925081
2.16169498508456
1.13245154480295
0.227567022884074
-2.41182920731577
-7.96214211988844
-15.592962454915
-22.8554550869723
-27.3870542443028
-28.385626434853
-26.7062951276789
-23.8650956102655
-20.7779619729126
-16.7730450331354
-9.86344174795995
0.960937923198591
13.4413880752471
23.1813647389339
27.5583212854733
27.5621748630141
25.5602993636971
22.664933802686
19.0080814653461
15.3979898901908
13.4182019096533
13.8553977893724
15.4672524465291
15.5822227482529
12.2116963896195
5.74869867427142
-1.48272905370257
-7.29496293000411
-11.1288405899
-13.8474865340181
-16.5890734475286
-19.6690540338974
-22.0588954952415
-22.0825255835041
-19.262404206848
-15.4741467741814
-13.6571430939622
-15.0521235598475
-17.7937860988782
-18.3789013231243
-14.7419003719231
-8.07631229786454
-1.64987671024325
2.03122264492302
2.75364683661153
1.94900982166178
1.5162084698457
3.118476047919
7.3609459278167
13.0247709963719
17.6390769465595
19.2566637045114
17.6207649443193
13.8565227040305
9.57926439424064
6.26230246943123
4.78018607731066
4.97857133538979
5.62817783462537
5.22060655105148
3.3285934139057
1.20190536214136
0.609708529450658
2.03452292345631
4.31150804601396
5.88641561071576
5.9305283701459
4.42027543952871
1.91046734384759
-0.616194554901736
-2.27237473055321
-2.89280203110344
-2.8896056524274
-2.55691216445745
-1.81262871890437
-0.447355006808176
1.62962223873002
4.10596631943696
6.00802715597097
6.09595500492346
3.82162245803566
-0.212524852449415
-4.75304946357436
-8.73622860363738
-11.8044183850186
-14.2159828100008
-16.219694735665
-17.5472315283327
-17.6946845550045
-16.6443971782668
-15.0443744612475
-13.5017232132472
-11.6379833787003
-8.1166603409446
-2.32935235779521
3.82203881304553
7.00610731410116
6.14607261396024
4.00605835712285
4.04187659082425
6.53380442560897
8.92295077363558
9.14323394853313
7.40936588042599
5.29739349846875
4.27017594275045
4.90549507877066
6.62210649325043
8.12728092629264
8.72620609806677
9.18323154925834
10.8130806613144
13.6914052703084
16.1932938771598
16.5586752450149
14.7704445670102
12.5525008013492
11.4030642170467
11.014952568246
9.9971656431663
7.74473513517374
4.86719475716423
1.8343189604194
-1.99795990672522
-7.5149248057337
-14.2688877005406
-20.4196468294531
-24.6008472692812
-27.448903227231
-30.5565824631251
-33.9808111232464
-35.6671713716193
-33.627320004466
-27.9671887440267
-20.4355857884559
-12.6354546663753
-5.0950910742235
2.37143782376762
9.83003762783297
16.7052062733927
22.038830383765
25.19503527668
26.0468192392995
24.6066470060391
21.090199590607
16.3982470730639
11.8511759808637
8.22097488534829
5.4948170514129
3.55467729395974
2.3550917988939
1.31875644590824
-0.657743898021887
-4.20227382494665
-8.81681589751832
-13.3563761922507
-16.9593206656557
-19.6127854758288
-21.9532264690754
-24.2678360276117
-25.5607730243379
-23.8891420753578
-17.8283160299221
-7.66152684450368
4.64463411185261
16.5396812006327
26.3128444557918
33.7492528178716
39.4081640388071
43.3742562897751
44.8507478334538
42.7558523919286
36.6249392341628
27.3895769233448
17.4689632304608
9.51066525544623
4.59004740435667
1.7685578558539
-0.68062342881745
-3.91719938734123
-8.0271780192725
-12.238201482115
-15.7231625857006
-18.504563616917
-21.4072009462143
-25.0711665828699
-29.3438417238192
-33.5082642668961
-36.5640717672805
-37.5142112942563
-36.1766857076883
-33.5911505278195
-30.7941182162815
-27.3268012147308
-21.8231064366811
-13.9458157581524
-4.89860534563988
3.82009632222398
11.2956100989164
16.8591964023263
19.728621757745
19.4907481146662
16.8962398353544
13.9399658897854
12.8069528532456
14.4566429229492
18.142353368184
22.1483474208067
24.8881300657212
25.6518983949418
24.705975574468
22.5440728090888
18.9574569271804
13.2955468726886
5.74458881362254
-2.31191664835736
-9.41353514683272
-14.9060100420528
-18.6334277520589
-20.4147265409373
-19.9794794626431
-17.1060224600977
-12.0308513174174
-5.94709622584067
-0.513906659940289
3.51394545082993
6.49349934428143
8.34210236939412
7.72684140244919
3.69936600024736
-2.31577252245721
-6.94365168824398
-7.28658721310985
-2.96449937553891
3.68037356237171
9.2357621371974
11.6942394906643
11.806813149256
12.0196406570153
13.9750563972519
16.8638295640551
18.0196661344535
15.2658978162935
8.94773134526599
1.61548147691426
-4.36002905197019
-8.71072244208479
-12.9194864119495
-18.255501104855
-24.0667589424696
-27.8029758381317
-27.017365647182
-21.6480717742268
-14.0637601099015
-6.73961732461824
-0.337059772231374
5.8090052601062
11.8174925866389
16.1168860560428
16.1126921060397
10.3520073826222
0.338363218672141
-10.1335973388598
-17.6475606332786
-20.9178432860558
-20.3079755434827
-16.7694060655663
-11.4810940988628
-5.49456372051229
0.786740531258927
7.14704206163925
12.4213208369809
14.7880873769637
13.7202210984535
10.9457847013573
8.88184544583337
8.41956535551664
8.55162992532179
7.93377101259297
6.55956866376433
5.95059428618968
7.87529135931906
12.9894717679444
20.4724161131113
28.3516765430515
33.9089281672235
34.337625622811
27.8399587578864
14.659064697333
-2.55653351030922
-19.440064698371
-31.8155115428776
-37.9271574843603
-39.0774830343447
-38.0180139100528
-36.6853908323642
-34.9812672234274
-31.0262593876695
-22.8876211057419
-10.9493936321084
1.4870571589323
10.5637527061776
14.5956741443535
14.2137573461688
10.8490048431772
6.00407350326873
1.12286065169523
-3.09788853862439
-6.90980827641868
-10.1775463703608
-11.4082878206745
-9.13288141628924
-3.97050488685022
1.55986935738544
5.34846065033924
7.5509357690795
10.3717718039542
16.1736099694048
25.4142518566473
35.9829104453886
44.4424588557153
48.1078345141545
46.2539221580455
39.5479154773929
28.4954611553031
12.9523212083866
-6.39101350369923
-26.5934799064749
-43.5700529109585
-54.687411672777
-59.6819989026475
-59.3188208185757
-54.0730774726261
-44.193578218198
-30.5397346667844
-15.3767326594945
-2.26458468334147
5.84278481046868
9.05473481519057
10.4393139827132
12.7917247736382
15.8668353601384
17.1922865854336
15.2215187405516
11.3150214147055
8.86043400231791
10.6967074903772
17.0568467981595
25.3534647372596
31.7528164121454
33.6818117768461
31.8112365831662
29.5161361989379
29.2385971215438
29.0563511665054
24.1111685732637
12.2003042778976
-3.16975636017295
-16.2420257517759
-24.5398409115593
-29.9065341014358
-34.8482243230925
-39.1588603074851
-40.1607523918314
-35.4552731849416
-24.9521093179821
-10.3313216914796
6.63476422494883
24.1114775326409
38.6129684927369
44.9830210373958
39.5419893859924
23.583027871231
3.22946316336127
-14.7761494340344
-27.4386181466949
-35.6447211830618
-40.4179125302121
-40.565447129493
-34.802702611305
-24.3969309669395
-11.5491767156436
3.93783356582173
23.6469864341615
45.7146910184902
63.3261500807225
70.0242834733926
66.1764053704073
58.6070136885684
53.0992162379565
47.9049958205161
35.4986064605821
10.7030561168828
-23.3259886974031
-56.9116834854771
-81.0688657251923
-93.3525352919144
-97.798654240708
-99.6968768733956
-100.082619221573
-95.151190253136
-81.337888472518
-60.8528547466764
-41.4093124305182
-29.8218094100646
-25.9329035122576
-23.1960765692527
-15.1170932728033
-0.653550157377823
16.4690051772418
32.2912368965444
45.2342951571574
55.1170798166802
61.9041791024311
66.2237519576162
69.5417017702848
72.5190518870335
73.8965569644533
71.8928476021
66.1996208600569
57.9604335510526
48.1489956431553
36.5178705606356
22.327639722599
6.27896679119677
-8.47437210663651
-18.1170852835076
-21.4590201468624
-20.793429821404
-19.0249008203227
-16.7575255125413
-12.9108146725025
-7.2349662407683
-0.876065910622393
5.19139507974428
10.9115320235262
16.0347911378716
19.2674877409774
19.3638999000529
16.7892132301441
13.4234417164949
10.4066757225765
7.06205735621272
2.38268887335118
-3.22746263372397
-8.40141896958665
-12.3714566518217
-15.37223736022
-18.0125620879421
-20.932807982535
-24.6636354345228
-29.1549915524338
-33.5379158723011
-36.55660750209
-37.1224487816652
-34.7904728099221
-30.4216368378427
-26.2992482635633
-24.7180392806933
-25.9318958420489
-27.5555522734907
-26.1609681747237
-19.7017117719319
-8.70147512429017
4.58570903194212
17.6575018273627
28.1505650012052
33.73172008639
33.2503832562452
28.3221125225169
22.5771546227461
18.6631733858809
16.4145307054098
13.8575565926648
9.12292522223278
1.50285129666149
-8.12222888638538
-17.4990864939193
-24.3709691778766
-27.9434526996144
-28.7027706907312
-26.9206047050864
-21.8425103689892
-12.5851631176556
0.13704635521904
13.3030423468681
23.0900712120318
27.5528438612093
27.8266358427336
26.7252954868214
26.4684484347145
27.5953779264278
29.1906230111927
29.5674185868626
27.005025670607
20.4187829453773
9.87305093862883
-3.08076405710697
-15.6536996699041
-25.1198240630172
-30.3585581787648
-32.1090269228133
-31.844207237519
-30.5489987003846
-28.1492184163477
-23.610010634664
-15.8359708581655
-5.0355727522324
6.65391772630457
15.960793440916
20.0976267173433
18.3755053248909
13.0783689205213
8.48206974032683
7.95211272338019
11.6344461781763
17.2417317074236
22.7199796498978
27.452606219649
31.1245523717418
32.3172547417096
28.6642036924186
18.5057870760362
2.62626871810902
-15.6549891851896
-32.4024030592128
-45.1033900889727
-52.7792289430843
-54.6248060976169
-49.44319139546
-37.0343211150958
-20.1490054810223
-4.28767049534495
5.71737584957428
9.59283954948107
11.7353847502305
17.0298563985711
26.6185658472048
37.476721805305
45.2493380130112
47.2545090431044
43.567223047119
36.1211086315782
27.1122921168118
18.1515052027989
10.3226347260495
4.08092034558105
-1.29281606741485
-7.43935101045286
-15.2220116237728
-23.1295429190588
-27.8130144544399
-26.7042883467744
-20.5380194868121
-13.4519725380928
-10.1496489936399
-12.301410435144
-17.5511949812513
-22.131212445074
-24.3270567550148
-25.3910249421978
-27.4636152046429
-30.9676706787455
-34.1025635236686
-34.6592663935794
-31.8012368804734
-25.9548941461306
-18.0374140098634
-9.76870036649939
-3.61720251823524
-0.409637606722172
2.88620172017223
11.0181303080782
25.2291393481014
40.8878875608305
50.7009371761062
50.2278084060659
40.9440068424042
28.7997380335456
19.7345763820134
16.0215694394395
16.3620298580338
18.4968551430895
20.8959784784261
22.538279190576
22.4674302026768
20.1091001582971
15.7852541868847
10.886212928671
7.3983383623582
6.47894549860036
6.99747795851117
6.08997704214439
1.89978523069391
-4.40426347842603
-9.88851558751837
-13.2697553306877
-16.8234963841759
-24.367021384344
-36.9109740731111
-50.6379087785269
-59.7831226597062
-61.2410905773481
-55.9120757886677
-46.4705947712533
-35.1812256895148
-23.5405366273307
-12.3781543637061
-1.49741995840416
10.1861549703447
23.3222908538507
36.6160584504941
46.7649457475069
50.3470532253516
46.2257576966061
36.2665488538334
23.8701604993668
12.0986449874283
2.93458699648614
-2.70202458150651
-4.90879402422654
-4.45165126381186
-1.99234990921197
2.3058585263984
8.31609015296675
15.1900725677781
21.03047716672
23.2637667536401
19.6894256379295
9.78937571192449
-4.57163658968019
-19.6448164210141
-31.2611196973239
-36.6127954296061
-35.4964523002588
-29.9533630335826
-22.339215496951
-13.7881795852621
-4.59081868303699
4.70692695084933
13.2910208158949
20.786453606727
27.3742549867599
33.2335253252753
37.9459600060047
40.3442937154324
39.2427242069885
34.6618586249937
27.941174284366
20.1303071493544
10.5272197688395
-2.71220268334859
-20.3826127242543
-40.3197347183071
-57.2741623633973
-65.3046052700341
-61.6697911325315
-49.0042631693282
-33.4304702606646
-20.261840014709
-11.1311819029377
-4.51948994709477
1.33272460491495
5.83355072298036
6.25171517182775
0.637948315030057
-9.6909579951484
-20.8401021227474
-29.1467950732038
-32.8783859417056
-31.5739826253403
-24.7641864704749
-12.0107672299752
5.98482725243868
27.0178488252025
48.5083142720755
68.4321003443367
84.3216475306572
91.9610252073123
87.0412653057544
69.0843179745577
42.8465564915495
15.1143541264286
-9.43255950821833
-29.1935621639715
-43.800626584035
-52.3869639597852
-53.7265563442078
-47.8062103433126
-36.9071991451863
-24.4994792571464
-12.7720061128527
-1.67823131291653
9.40144032118526
19.7154988625879
27.3973761573554
31.3584514184955
32.3722820543862
32.0879731715835
31.0898466164944
28.1590305142963
21.4868429584957
10.3404995573008
-4.4352709730145
-20.8191155322541
-36.0170500929663
-47.1311650431329
-52.4215896749844
-52.0368102598074
-47.2111399224951
-39.1163205730103
-29.048534135727
-19.2230051875697
-12.2862075610516
-9.80427280250626
-11.5044488100741
-15.5615567110689
-19.0397020351184
-18.6368441051505
-12.325397510325
-0.92931740594728
12.2639623515743
24.0691735611062
33.6764705657729
42.0448536223179
49.2655313955014
53.4606697912726
52.5735198940979
46.4693679089857
37.0466274624159
27.1710236160474
19.7257541353814
16.5108042846777
17.1235300366205
19.0675340490102
19.1253872287322
14.6544106982985
4.4439977706326
-10.5090939990155
-27.0964027632855
-41.6964790299885
-51.8214028926619
-56.269052968867
-54.5480331887002
-46.9648311841748
-35.040023303868
-21.1765820314978
-7.56100810985334
4.89359117222803
16.7334787955179
28.7360915413006
39.8758191525684
46.6025394178897
44.8756305117416
33.4529699642834
15.4301328087666
-3.29788854031296
-17.4732228617275
-25.2921799057069
-28.3927900610175
-29.2695239485338
-29.0753363252904
-27.7815610531395
-25.0932751279057
-20.2002380656849
-11.6914360511698
0.575181741351851
13.6377352974704
23.0192927695917
26.7954750126674
27.225061976207
27.7039009279845
28.8567465468139
28.5896112048389
25.405144665778
20.1545671846091
14.3671637579848
8.19011136822256
0.483054434297542
-9.91834195054692
-23.1396597561654
-37.3712384510162
-48.9090585809355
-54.3206706302422
-53.0900819854864
-47.5121126379445
-39.8990982319536
-30.5547693990144
-18.5583587445923
-3.93674508586684
11.1999186354167
23.6461873969983
31.4685913402305
35.4895512035814
38.0451326305525
40.2649782392064
41.1729752945231
39.4960949825506
35.5700096092859
31.186557509405
28.1432067136818
27.1822239528112
27.8309915784105
28.7535173504805
28.165036837169
24.272116064951
16.0978800819377
4.40808042182627
-8.58336674031839
-21.0727227600982
-33.1065009724823
-45.7958897750349
-59.4017710469238
-72.6440799048041
-83.5520406159985
-90.273647731405
-91.0386857912094
-84.2285321988694
-69.5049423152959
-48.9984487894061
-26.523825902015
-5.09419701491711
14.2137363326083
30.7663495154079
43.158260078156
50.5370162682488
54.0347463444858
55.5214466256345
55.6074734819673
54.0444667338174
51.3237838984015
48.3690530393298
44.9236722890982
39.5887860033769
31.6456739676709
22.1711856685031
13.3534262261232
7.0553969006126
3.80078790580261
2.73957364988062
2.54654972596568
2.38566883251495
2.08460520982506
1.69646722372501
1.09193118633532
-0.127307014729127
-2.30994133865985
-5.25265246873073
-8.15962823325319
-10.1430554937024
-10.4936083354759
-8.62757588473093
-4.47706414262695
1.01535998877285
6.46700308138791
11.0168329953748
13.8817346548476
13.2266672511287
6.84524182573163
-5.6061486405983
-21.8030206596334
-38.3882350073367
-52.8706946402544
-63.9565601022039
-70.7999470483182
-72.4086943221151
-67.686007103677
-55.9815964686378
-37.8358183956846
-15.5071499167325
7.14890958062558
25.8453189204447
37.9572181665036
44.1124590085668
47.3631923000588
50.2231730993033
52.5474136591102
52.4148423137246
48.7123345970717
42.5799651686571
36.5428575967982
32.4229426809676
29.9721476373271
27.3292166170206
22.6745626506849
15.5586690886123
7.01478463953145
-1.50017209727168
-9.63867399420151
-18.7703219283994
-30.7485267554793
-46.0479125717612
-63.1510208315602
-79.016066609119
-89.6788293939035
-91.717065346644
-84.6295973353777
-71.1076138559847
-53.7050586126923
-32.2203006591978
-6.14258952954213
20.9859166059403
41.9701798839974
51.4639237047972
50.1234658679121
43.1445979749638
35.8801739433788
31.2680760246202
29.8911674856357
30.6185096411481
31.2297579451682
30.0397807300548
27.8479560111354
27.5594137875281
30.8986550567478
35.7847918594101
37.8743657920638
34.7139334953684
27.8290656339943
20.9651905044195
16.7804182297008
14.7702113231093
11.7035491140452
4.36961837163143
-7.54160159899975
-21.2316212610543
-33.1819927764096
-41.2104182095886
-44.6361047132653
-43.7620292928775
-39.61451706379
-33.3668025818054
-25.5248513845296
-16.1416540448447
-6.17600952696491
1.90120898205886
5.71168578534898
5.32755937541691
3.23784862228206
1.40786222807516
-0.851217671512924
-5.12048375749129
-10.6817840671716
-14.493472450921
-14.2249336937469
-10.304953220035
-5.25689768427273
-2.00392727586406
-2.3533514198104
-5.742716233946
-9.31299291993419
-10.0665180385078
-7.13283385064285
-1.7696900795768
4.20869018524327
9.60029574798861
14.3803256857164
19.7899544476918
26.9130916899145
34.3323185732951
38.1051829149208
35.2725528197717
27.1627419806977
18.3339293189949
12.2074561605226
8.3346316453866
3.89209337792948
-3.09400932067612
-12.4143995439074
-22.3275393075445
-30.1012269289002
-32.4979784474903
-27.8027336300109
-18.0942206105226
-8.19639257132263
-1.42974138739108
3.04061424260399
8.29183731064183
15.8212027587087
23.9913388877379
29.6629409720586
30.9234382423588
28.3990015724651
24.1527312600358
19.5019601252196
14.1091263101748
7.06497217086647
-1.51779112749825
-10.0142896625106
-16.1777792874983
-18.7196791885833
-18.449575838889
-17.8519928391949
-19.1762561707275
-22.7075378333923
-26.7464107470904
-29.2207842406302
-29.7249977347959
-30.2858571550657
-33.5370478951701
-39.6113525334888
-45.4105338073615
-47.3419630790252
-43.9856792271575
