0.0147406929371436
-0.182691587173334
-0.414026078983692
-0.611818849776465
-0.634984735043604
-0.490934584631711
-0.35712695136786
-0.371240690772768
-0.532972007342407
-0.754632091365527
-0.914097289785504
-0.931586780471764
-0.81841949845356
-0.595960216919458
-0.264874810612019
0.0672135157696806
0.200146634207827
0.0756299146021147
-0.171262391020115
-0.397779274391419
-0.487351023086705
-0.306273834134468
0.0949625109292194
0.391227900122925
0.37946751747645
0.268374488591705
0.329370744374481
0.519380200381596
0.665006864190696
0.73854492931085
0.766030177397818
0.715971924393771
0.60971151018218
0.529989321633979
0.465642621561726
0.339617564638376
0.172967407935623
0.0290865861056585
-0.125073612764106
-0.302502206030863
-0.367641239132812
-0.225496049427233
-0.0043542170135756
0.103281312859319
0.0482640413535547
-0.094905574442305
-0.209012846290807
-0.183779523223591
-0.0070093912845077
0.216471773580119
0.382959379486249
0.451033731810535
0.406025978465439
0.282556235942347
0.170116163320644
0.097235240055643
0.0098452595761825
-0.084901378690712
-0.119638551178674
-0.123328755723977
-0.173065725452527
-0.232165381990193
-0.250684992597796
-0.305659438491133
-0.423899867178482
-0.461589580819394
-0.364489638547094
-0.298339710637067
-0.351425700294887
-0.387884662629911
-0.319823959726039
-0.23492151048223
-0.17400591753179
-0.0675815822270513
0.0588739985317736
0.0841244853654285
0.0151092560095063
-0.0219047851765871
0.0114071949843152
0.0627348285938305
0.104969810813009
0.0948817428642042
-0.0324308601798879
-0.20351591732694
-0.226529935381093
-0.048098410611854
0.187502983550787
0.340367241043442
0.379127073278694
0.339138056929247
0.296671857551221
0.305854095463618
0.319906808294372
0.272658458700154
0.192293624277184
0.123810763843582
0.055085098026365
0.0171382953732584
0.0792549095489178
0.174091442950817
0.144767153006446
-0.0057683281791606
-0.132477449719391
-0.174073034080241
-0.158452768922277
-0.0987348982681266
-0.0519855680182917
-0.107573353016361
-0.208605504677833
-0.202883024101566
-0.110928390446687
-0.0919824881781522
-0.159036122091099
-0.195525299617247
-0.197633458243583
-0.222154278225653
-0.182554542214545
0.0141968089175278
0.233532013904278
0.297395174896279
0.275965263230054
0.335870363852926
0.437073081505409
0.402951758280254
0.173685522401301
-0.144615276884353
-0.38712406267596
-0.45535631420977
-0.410812513784455
-0.395251412404616
-0.42414605889424
-0.374406457974746
-0.177595618058724
0.106529764735278
0.364363424241862
0.471533545312116
0.375423070065587
0.203869302241663
0.123867032270504
0.0941180774972929
-0.0089129742298527
-0.102947973672477
-0.0489253492493303
0.0384519871742413
-0.0342379342145704
-0.206715107134905
-0.304168587203975
-0.312642682429243
-0.281727712867559
-0.188278591099838
-0.0704084847869886
-0.0504651135322679
-0.117471328382588
-0.130251823155995
-0.0764448398717835
-0.0781402631737636
-0.145214831029164
-0.174067963446338
-0.155932968951764
-0.154602966710312
-0.144750020605037
-0.0628402258198817
0.0800442469011902
0.255719160104868
0.453266181500253
0.60688965467525
0.637236711863277
0.557427406111957
0.435783054606111
0.334495443273859
0.325296131468093
0.412528443019396
0.452038309136154
0.331139531686662
0.158405734726022
0.0909024005633091
0.110635839150397
0.13843735653066
0.171248104092346
0.170376625837436
0.0490110250617981
-0.143703864442613
-0.262805797862906
-0.283585628948225
-0.2515423398633
-0.141771591489482
0.0040738954045914
0.0096973149490988
-0.156379846073753
-0.284567222608536
-0.26256345407204
-0.221375708826996
-0.239986135188176
-0.223804703209277
-0.160362944549815
-0.176769380646161
-0.271192570414199
-0.275646673239004
-0.12869745418065
0.0524838933249046
0.152721478200252
0.124955336074817
-0.0265583192194817
-0.182514810326902
-0.173203365794468
0.0037184062514895
0.190059436972537
0.296748799331841
0.348782708330368
0.345404538849864
0.241480283225295
0.0230645903788392
-0.279043686901565
-0.585040973452119
-0.786209570528594
-0.858130037190244
-0.880610023954959
-0.882017333413638
-0.816581143367629
-0.721173248585741
-0.661699170873761
-0.536982045253398
-0.222253205232701
0.155378705594176
0.39141898563821
0.526471282519725
0.693394879355694
0.833205268910983
0.846383762376203
0.805598361549747
0.781633845637378
0.691768886345641
0.498227552598416
0.321362584204726
0.235865274707243
0.184856345853939
0.153404445629917
0.186142326050602
0.220720817919158
0.146899265851494
0.0070435255841784
-0.0731539298073388
-0.0762573575098368
-0.0505422605762142
-0.0028672336759423
0.0514188675540608
0.0704876021039161
0.0621083481170169
0.0548378814795736
0.0295955459960239
-0.0220416121587745
-0.0618777753699331
-0.0773798407564042
-0.074180842318773
-0.0233458648835643
0.0520452245775389
0.0441463912300987
-0.0515677807558399
-0.0877024245821226
-0.0118872123934378
0.0687918601577766
0.125290109506637
0.220296298056023
0.282599465599223
0.183902995506983
-0.0096549459872378
-0.157027493764514
-0.285669359533353
-0.452009530302083
-0.551701407330926
-0.504090425528464
-0.413657101574605
-0.370542657355611
-0.315331136833533
-0.218041674474847
-0.150902337983168
-0.116019665338431
-0.0466998460174967
0.0100771052904482
-0.0306095102512322
-0.0776537906534889
0.0137829297403402
0.182283377632031
0.246602754009329
0.151440207102241
-0.0249881560487117
-0.184030675609263
-0.245190185495335
-0.188563111328833
-0.0766768542400746
0.0272590688560284
0.097095632589236
0.0939508135930652
0.0146760956082345
-0.0440635202235809
-0.0217157781372324
0.0030444935257467
-0.0142905857587363
0.0162032616738922
0.117498439647174
0.177523976587083
0.174493825727676
0.202421999194228
0.247490706431466
0.231578055644493
0.227959766751502
0.33567109818868
0.452925565342646
0.446124493182271
0.378686111347035
0.350892100181224
0.317897833743935
0.236603821349537
0.166944927118421
0.108359510829005
-0.0271289643068292
-0.210015108773607
-0.30806526211121
-0.324547864773695
-0.370620531530145
-0.435902690585957
-0.436631686961814
-0.409020702224445
-0.425202893158283
-0.428621534472403
-0.333349255437174
-0.172717288983033
-0.0442047350874648
0.0014515711838134
0.0005885409159538
0.0611884509239335
0.243082316465601
0.448558955617169
0.549941106403588
0.561776660374289
0.531455638254622
0.400942559663096
0.167461902067516
-0.0080724499785817
-0.0434924002982311
-0.0737071066286889
-0.20844866051245
-0.389436978961665
-0.551897440768056
-0.672092584736815
-0.671402296661261
-0.52629523547358
-0.382155865823874
-0.340734133150456
-0.304361895619339
-0.207529427800414
-0.16092082571561
-0.199779511836978
-0.156452548191735
0.0561588646822485
0.283274619362308
0.376185579851453
0.367779381572005
0.323270265959472
0.246024490823136
0.169387988505578
0.144111873153962
0.153699978578645
0.178702910710866
0.239666915887386
0.289196305982545
0.232704225641803
0.106140370233017
0.0504170362032136
0.108395641180802
0.203765915564254
0.26695817662509
0.265100866917423
0.198274948067782
0.130962741272283
0.12861029131464
0.16945481939884
0.205092654017618
0.21612474326937
0.145043301457063
-0.0465089671754151
-0.222136878139432
-0.223486169055742
-0.161394509855849
-0.245207196629281
-0.392581306575177
-0.362657384571157
-0.177578218208998
-0.058342428304807
-0.0563890246783247
-0.0629220483396661
-0.0603979424087048
-0.105654500656693
-0.181851266572492
-0.246774987028983
-0.293785303351712
-0.262316638985505
-0.0698741664177639
0.201609984307929
0.358605366115234
0.365399568843391
0.356888647205328
0.402886664255404
0.453016315531539
0.467584331806647
0.453960995940582
0.423510821993987
0.374261853355607
0.269865689363062
0.0767976618389965
-0.132558224196885
-0.234284444277024
-0.240463054123692
-0.267402232761346
-0.327563043815383
-0.348954829420028
-0.350714732302781
-0.402080685460646
-0.496439996104081
-0.622154290970058
-0.803520234571119
-0.958481203352018
-0.927403762648243
-0.710743380176686
-0.455549439879822
-0.23319953083281
-0.0646387430703126
-0.0315656098962922
-0.105081822723641
-0.0629307802479756
0.177282153255448
0.389160327086821
0.415543198071333
0.421205319244616
0.557298467996392
0.675895419846036
0.593073597007388
0.375229912850724
0.192305097374722
0.10617676092899
0.0995122422600497
0.12365216074052
0.102839611147898
0.0360917192799476
0.0208139257951188
0.0807662711276402
0.121779275174125
0.112336224401675
0.126555978074594
0.193543354831784
0.265798517281306
0.308506335170047
0.314300624298361
0.299686182565218
0.316040440946038
0.359204393854643
0.326784856168092
0.20136685848927
0.136469850847701
0.20380798911186
0.255920870801044
0.190079745337805
0.101675834859361
0.0569222990183391
-0.0118993054258275
-0.114362498065387
-0.176586905277962
-0.215119687915904
-0.299995529554738
-0.409002838246101
-0.502067642918178
-0.601324521831976
-0.660409169611709
-0.558612541950706
-0.339283363865978
-0.215747739923038
-0.246543610220598
-0.261894410699697
-0.179908782544661
-0.119793820214926
-0.150330041801413
-0.187870701137419
-0.167228527494872
-0.106476657772797
-0.031755576542665
0.0247960251435216
0.0317005499461873
0.0217160761119156
0.0434016554862439
0.0733938839482692
0.083967501323118
0.102767710751109
0.122379457115458
0.0956078960014845
0.0548782833090406
0.0621891270076972
0.0739368910099308
0.0427691886136625
0.0444187965841174
0.119521840619948
0.175096604021116
0.202071364121955
0.325518065336645
0.510275718420306
0.538863478944079
0.371505212237907
0.191941400771014
0.073204971627811
-0.0642650692555786
-0.196266877755556
-0.217260399018266
-0.161944579861165
-0.14926423423142
-0.19447898614943
-0.261344472260006
-0.362441056278054
-0.461985298673746
-0.448838388709178
-0.313090425062747
-0.161769230675124
-0.0150381568429722
0.189649345364079
0.389032728077659
0.425524911936415
0.277796350948352
0.0876664623196184
-0.0003478839998625
0.0604175514736894
0.195951916947554
0.269004773926503
0.235819366285789
0.188144145758072
0.188157728714727
0.196185863813911
0.19268955916518
0.196210628100217
0.164083807125456
0.0609364299696004
-0.02664528086654
-0.0140545969527973
0.0499777614290251
0.0983995340949759
0.113993693624928
0.0180195264656675
-0.257523379928728
-0.563917593767613
-0.676555762163712
-0.601769120026005
-0.485143683526287
-0.350828000435429
-0.194825725893109
-0.139066131363673
-0.22673342840414
-0.270945105254203
-0.136257922055048
0.0406289553617957
0.0890185370988846
0.0367592433618843
-0.0247693574513288
-0.0696035396385209
-0.054232427580033
0.0538735287834761
0.148864951232089
0.110086161852232
0.0023125222756262
-0.0320293830392779
0.0280222971500413
0.123670465747968
0.216455828748242
0.268999597551853
0.253657793891396
0.192868692663319
0.114543569829697
0.0391319563175853
0.0368909982854652
0.155831122971847
0.310575269339533
0.411082467545545
0.511715140311626
0.646003958168188
0.678369585748085
0.52151346963631
0.299535648437666
0.135717021982075
0.0207748814091044
-0.0217738555739574
0.0645304382991067
0.167174571926574
0.105788270409119
-0.0774773178201595
-0.199458507423693
-0.232531554496772
-0.275664696496734
-0.344072349648281
-0.403393962560399
-0.481924446653732
-0.57631730643253
-0.598879658789129
-0.545059287867833
-0.534654136057422
-0.608048745220483
-0.672137258943996
-0.665016143832138
-0.589245064538676
-0.437425379041997
-0.251833338119482
-0.14981093793115
-0.166765111823067
-0.203592242902145
-0.175651031543788
-0.0720009151235887
0.103879471527728
0.311848376972072
0.465499676861588
0.537621400427494
0.567383542133133
0.545863112435331
0.450017070498325
0.351827858198198
0.326342649235179
0.344762226396572
0.391704966734969
0.508876409976243
0.623909948714351
0.590345321176078
0.452349860021312
0.370824595941267
0.300000651550021
0.0749828499804912
-0.238520394754548
-0.418724112754657
-0.42075767599783
-0.34247277409234
-0.19930757391454
-0.0025434038222834
0.105588024036777
0.0432771385120667
-0.0516944886075385
-0.0481431018964849
-0.0200141952481966
-0.0760624691958036
-0.187482833485502
-0.273149326737837
-0.283812489729532
-0.195039094338457
-0.0594713745900794
-0.0017314666717606
-0.0612502178321681
-0.142839739505595
-0.156549180236396
-0.0870663737159657
0.0415279332575723
0.158632219658829
0.187348059955437
0.154018393779521
0.135075401247522
0.115974364042452
0.0770365617495483
0.11513965578828
0.252751771332914
0.288075738069869
0.0886870344875237
-0.158505652409865
-0.215938266892037
-0.0921821077610699
0.0862802729608013
0.241984227001137
0.298708162461454
0.232500826865939
0.175818390975457
0.217226165592638
0.184711541996968
-0.105562444865279
-0.515789315617418
-0.763566336420819
-0.787923044378449
-0.711573825728238
-0.610675861245332
-0.525069976672291
-0.511248967480281
-0.521823693004667
-0.420981860535167
-0.21592100136108
-0.0764903650174768
-0.0823574301068568
-0.121784549922529
-0.043680365176735
0.188413531002925
0.449405150416058
0.542891496017682
0.412979736497948
0.207626278889722
0.066926561083774
-0.0006414898128888
0.0211891498596408
0.187122474167398
0.423533872126583
0.571332444206454
0.607623921334038
0.604191643543759
0.553364178663307
0.459606153390137
0.430501671764324
0.465005918419841
0.390746745161462
0.179196669690212
0.0299897303550035
0.0293349584146315
0.0414385241450514
-0.0070035020793689
-0.0451999078392326
-0.063936068796057
-0.128469163367059
-0.224191833846792
-0.305257478985224
-0.406092731043584
-0.532161594111092
-0.580127784376941
-0.512419348731036
-0.443624241006243
-0.449250894790444
-0.473889447606832
-0.473534721302371
-0.451832503326897
-0.368001188594897
-0.192554734681828
0.0007035308231922
0.124544228290292
0.166945787273909
0.14805153804182
0.118003800044599
0.167139263125756
0.301093167175629
0.39459818719298
0.37954937220905
0.337692585606522
0.341658505539321
0.380700199262053
0.449309251366532
0.522747222299449
0.520590383819639
0.47053391874228
0.525657768809028
0.649868023035988
0.569598245503294
0.209286849737954
-0.157443366222974
-0.333813172126183
-0.430607223634933
-0.574416441609412
-0.718467294448099
-0.801010787859761
-0.812080722686985
-0.706229419634919
-0.482399861980759
-0.288723465194581
-0.247194151695244
-0.279958202744277
-0.271649479365251
-0.247811193744622
-0.257662664589853
-0.260905120646157
-0.223370813663244
-0.15719564429302
-0.0580897942002137
0.0479792489862841
0.0789295414660389
0.0441759025072495
0.0718598253794686
0.200556877547715
0.318261167179851
0.347334141425683
0.323518395817602
0.307710099768826
0.347026409330113
0.44996820567957
0.53112468882776
0.506410727155721
0.44254843855398
0.442442476698797
0.453620227311557
0.387807338476076
0.29806606600343
0.24381224497056
0.165745029659061
0.0502616815581464
-0.0108187101189568
-0.0152898406738822
-0.0497559967825739
-0.0862617504032692
-0.0555417399667786
-0.060114640037706
-0.225685031812474
-0.440584321955124
-0.519880837154537
-0.503097804704156
-0.533534169928697
-0.587705713087752
-0.556829779393779
-0.449069604625062
-0.339882703916723
-0.283657756840304
-0.353444560624849
-0.563989130674599
-0.744471778654155
-0.702120368997553
-0.467875709516587
-0.204013166205598
0.0223396394509804
0.235065502300701
0.450410419095603
0.66785014544582
0.858694237683773
0.970301715276148
1.0071494851975
1.01189871570379
0.946089493701173
0.768007207024259
0.603267538616906
0.592171859763428
0.621698196015245
0.473741265578478
0.152313153342168
-0.169075925263939
-0.379966873362917
-0.432366178307557
-0.316478926084639
-0.168643448895228
-0.173771357212475
-0.302155095360188
-0.37301552619911
-0.349523797229653
-0.330539813718559
-0.33247250373231
-0.314261579855721
-0.311368106141627
-0.34440528636795
-0.33488808519672
-0.271602156591127
-0.276076506387439
-0.377574952333653
-0.440485841846634
-0.39470879971134
-0.30897542787196
-0.222695742975104
-0.131942526107808
-0.0901349385643817
-0.120870948662783
-0.128871519901851
-0.0427254648299048
0.0822927328412689
0.176995080609037
0.232670134987893
0.256692521139718
0.277477333104602
0.338111350218682
0.407089001175705
0.41261553124701
0.385262484619026
0.397002818538597
0.403029834754165
0.345054339785467
0.298873694051526
0.314970724304392
0.292541129076371
0.186767584353521
0.0999794506550436
0.0484902398768209
-0.069335669840459
-0.219478616779605
-0.270172638008429
-0.280936675304277
-0.422539723220507
-0.64628700657964
-0.745942935714165
-0.680446791472933
-0.552864813766801
-0.381985228770385
-0.165653118984389
-0.0253682617523885
-0.0276630756333889
-0.0130673457066755
0.178542802453162
0.454867909440928
0.592659489103083
0.494293003096844
0.257883367256675
0.0729958751214077
0.0419656188395678
0.0853198798852444
0.0861666430458616
0.0667855177895424
0.0994185735265751
0.154773789080675
0.186601759916807
0.226963507764164
0.279505706359463
0.290728854166702
0.287498165664596
0.331547094571939
0.340758201345589
0.19793493503344
-0.0191646743416977
-0.147530911844533
-0.15901111861719
-0.089119878869775
0.0494035235783946
0.14102799750036
0.0171076597614069
-0.265847413935749
-0.459303153394103
-0.464261217756636
-0.38232651534295
-0.269962505261413
-0.113889072992949
0.0162499760729799
0.0429585887693549
0.0264774612426613
0.0427143649648931
0.0481061031221276
0.0044542778840535
-0.0505157436226846
-0.137262364567781
-0.298583433762223
-0.407841798574017
-0.287468543290453
-0.0094881159074671
0.169213918061103
0.130101934219062
-0.0232796900232588
-0.12380330304336
-0.081918558619503
0.0445988292629884
0.109388465254892
0.0733985029002751
0.0461545305420316
0.0708323587314432
0.0478401630967065
-0.0696764594413033
-0.209098500543941
-0.310886817574221
-0.312184405520894
-0.0894400720747843
0.326822854980882
0.623317518975831
0.545333087983224
0.208446374976598
-0.0999523957639597
-0.216284498494098
-0.107108221367708
0.153709835820495
0.354272662877485
0.327597347581814
0.156932543076758
0.0008243662231085
-0.175061979101752
-0.460880617651402
-0.745404898356518
-0.852371879091567
-0.796850105086792
-0.681932388786035
-0.494701394225588
-0.197834952255972
0.123528779658701
0.339167953771337
0.384443536220442
0.269702234152212
0.0849937981258541
-0.0490449123515268
-0.0985828240571155
-0.0954967353034546
-0.017324977573974
0.161465376653165
0.362772450797795
0.511689159708594
0.647624351850882
0.803305552394197
0.928575144572643
1.01396292877467
1.09586408958785
1.12409397118121
1.03906851719528
0.909582378926627
0.77313046835018
0.511790348443595
0.114081826118426
-0.191690758607242
-0.284455467914056
-0.341442459930776
-0.506116345700947
-0.672072520135989
-0.731549906939444
-0.746794244887758
-0.782291495565163
-0.816525823234974
-0.855076576523575
-0.916863890521201
-0.932074534174752
-0.842070034666684
-0.720155444456952
-0.633579072450896
-0.527362836183506
-0.378352094479784
-0.278365766604995
-0.262881491922014
-0.248648534175236
-0.186802550487746
-0.10550010973959
-0.0177756627489055
0.0747370562297582
0.145391428929974
0.190578538532863
0.23623982533326
0.292324750555551
0.383161766541527
0.548065232927177
0.734676270684011
0.828360935642432
0.834890855281209
0.849256772451315
0.852870056450501
0.774422556925318
0.684350789669238
0.670892892102459
0.646936758870748
0.524273387302118
0.391424139397764
0.30993186189784
0.176757148409808
-0.0498896145576084
-0.254061275634416
-0.386145719999216
-0.512708268829557
-0.61902607651261
-0.638981071362906
-0.658951023047842
-0.820193495147503
-1.07005852800159
-1.25212103783213
-1.34633659263069
-1.40783243587474
-1.41290504555844
-1.3437256797429
-1.25199279358414
-1.12567900112833
-0.890063463892217
-0.582921827539347
-0.32878705925179
-0.157902556684111
-0.016977234659308
0.112545700980228
0.224668079252906
0.324806112775076
0.412567195265259
0.515507671098227
0.688436900328885
0.900243478847193
1.05115421229362
1.15201983008171
1.29418644381909
1.44224698240919
1.49437884484844
1.48180542363958
1.45016042505842
1.29028517777681
0.952356346522527
0.621017388580507
0.445655992708863
0.345842196910737
0.240841877994759
0.171274739821433
0.0966657406773692
-0.0990764312952828
-0.343296910403759
-0.4340999873289
-0.378627661251468
-0.371670586477677
-0.462514286033696
-0.526886424449051
-0.511876570152543
-0.456006489486357
-0.36089466652697
-0.243177227786777
-0.173971868238514
-0.128420329790323
0.0282904099013431
0.326235589857795
0.638931158638263
0.861315973204869
0.98789872383482
1.05050589277219
1.09000605303113
1.14033603049086
1.21064536768678
1.33729864135156
1.57836007742471
1.87802332275848
2.07738116475198
2.13003019861111
2.11897041326518
2.03521834200841
1.78333779532231
1.39543211062059
0.985670844779507
0.56145688616499
0.105944023729806
-0.313699313441652
-0.723963068628203
-1.29158381448216
-2.0138703867438
-2.64108433289186
-3.04865929626172
-3.39297798926048
-3.79491614295447
-4.16753762551247
-4.43910984692136
-4.66447523334798
-4.85488607885408
-4.94724792042423
-4.96051850787409
-4.96026654527896
-4.8936820312055
-4.64710349592142
-4.21239684709152
-3.67776964331821
-3.14072846216441
-2.67631672679049
-2.29150547597554
-1.92187125929561
-1.53090017988583
-1.11952005635688
-0.623019348808264
0.0343134465161547
0.787230955955135
1.51011443460258
2.20105474457993
2.92514371899881
3.67124448283383
4.38141861053778
4.97347470279412
5.28554768222789
5.21769371260728
4.94075685037431
4.73701457045252
4.68902382082987
4.72576838965392
4.80625808766039
4.84682051530054
4.68855556165182
4.32117033701941
3.91201319987723
3.51922557746275
3.03910354965841
2.47046092693955
1.94512491430625
1.49483437277488
1.06513091112177
0.722019055288443
0.572403830505857
0.549641058558149
0.523931587292585
0.496779962776415
0.458187230459558
0.234971841089264
-0.297773056646537
-1.02470860208313
-1.74179830962377
-2.31406917313194
-2.6273183113513
-2.58570446396914
-2.21619872860921
-1.67805680975979
-1.17641354541633
-0.880221422040636
-0.850727512102746
-1.05692134374252
-1.48050361260305
-2.07452126706232
-2.59490853445788
-2.69300634002929
-2.22114412486381
-1.25174205847984
0.11521289579807
1.66874884894717
2.965360464556
3.67395755092569
3.93492445812405
4.0766237017845
4.13030154397919
3.85609635439794
3.06966081053212
1.81012631922362
0.393890610462938
-0.662410485675851
-1.04208036798802
-0.982435092356931
-1.01143688091194
-1.40450258364064
-2.14284361293377
-3.22145627931166
-4.60378620284819
-5.97099021778926
-6.89652131915114
-7.25120787624528
-7.21553897445113
-6.9894564067651
-6.66945863008593
-6.32772342241879
-6.09483422935804
-6.15938037218353
-6.6300736690596
-7.3751389139992
-8.10964401982914
-8.63797301338339
-8.87106533169861
-8.67317832095948
-7.88561860813478
-6.44788183829008
-4.37947378808785
-1.78767511823386
1.01178679102929
3.58346141935744
5.67496486213347
7.29936749055892
8.58873964866869
9.73984353550928
10.9228520912306
12.0353669378905
12.7708711072607
13.0772517514796
13.2194463130852
13.2458132343552
12.779688862854
11.5286573803247
9.67950090928649
7.64991068570945
5.74349128359813
4.13578734816008
2.89315760496413
1.90509621655254
1.01876269169415
0.250262965019673
-0.310633071870228
-0.697759168810228
-0.987284935771851
-1.16059722637392
-1.19029025050383
-1.12316873941786
-1.0221811577582
-0.96539072318598
-1.07594612227935
-1.41022338971301
-1.85824194338508
-2.22344083152352
-2.33133154150696
-2.09199741358142
-1.59351280698943
-1.08773429639852
-0.789196386990431
-0.792179916037576
-1.18630806190271
-1.99585032626779
-2.99091063195966
-3.86513110165487
-4.58896579692132
-5.28880428651261
-5.88439686748751
-6.17698153865627
-6.15080859998311
-5.88779545778403
-5.37703521967684
-4.67416976937105
-4.03514064379271
-3.66449731009166
-3.52266355016658
-3.51455654249639
-3.63135922461101
-3.79364844166038
-3.7889391897249
-3.45400236477497
-2.74350812707796
-1.64480307991659
-0.227409492917538
1.28536172843233
2.65675071463446
3.74851873219274
4.42026619578455
4.5126883749802
4.02189856049588
3.15229461855285
2.18444051922927
1.38905523169038
0.99586362655342
1.12487365394553
1.74950763719921
2.68178349065448
3.54253951298566
3.92764432309003
3.7660276382583
3.34513469756413
2.87711656884713
2.30293198102533
1.62734651956511
1.11782959645798
1.02234963248171
1.32920375615635
1.85415560753788
2.37045522842024
2.71117388821738
2.91011626944487
3.12607326060297
3.34326191866958
3.35686969603672
3.11019406757197
2.78738561035799
2.53848686273176
2.40100610512974
2.51740197502389
3.10707028182187
4.1324650331605
5.19609652149963
5.76935434851662
5.40042148550444
3.88986557392428
1.51086976664952
-1.07668114587742
-3.32163481187704
-5.11145269826955
-6.58717264040708
-7.80828031381521
-8.66234885968164
-9.04461837671757
-9.12477916859027
-9.35364735287478
-10.0506608898485
-11.059622557006
-11.9618086569491
-12.4724403670472
-12.4754937454253
-11.9286301578863
-10.9510535611989
-9.78264982345841
-8.52682221928167
-7.1620782907645
-5.78421089882746
-4.50881803366425
-3.21684258667683
-1.75146581403472
-0.222914819584811
1.22737210581096
2.74831566325476
4.50069309063731
6.26724414593932
7.67741264115084
8.64997942250507
9.36443237726236
9.98436998428104
10.6078075113113
11.2791455268715
11.8687497508601
12.1206800236591
11.9464386165562
11.5486667311849
11.2376927886654
11.2262619321407
11.5310569086097
11.9687684275758
12.299547783895
12.3754539982336
12.0862194517013
11.2769218789757
9.8510370856008
7.85578491026747
5.40502013896206
2.65122503035209
-0.176045243299506
-2.87403639273252
-5.36638013292026
-7.57764078052071
-9.3574367053369
-10.6458683690024
-11.5141400275895
-11.9996399388786
-12.1957965203593
-12.48059359892
-13.2420410130012
-14.3605190667126
-15.3151857672682
-15.7311539690515
-15.5013840798887
-14.5407012555422
-12.7713327039182
-10.2256979185905
-6.95668388437804
-3.0768870437429
0.937412753986065
4.29042789786301
6.45520926064444
7.51508656666734
7.8320207890814
7.68462264632398
7.32911315555759
7.05801549184212
6.98056988725127
6.90236097445864
6.55069500873585
5.90410038025081
5.29543744931794
5.12892257705311
5.41665033195908
5.68182321174931
5.3889730986285
4.34075318617856
2.65525023584742
0.61707717704202
-1.38564126610395
-3.01339693831984
-4.14173416922484
-4.78810814642636
-4.983219267971
-4.82834095148941
-4.49603915142352
-4.06772616661054
-3.56378260566664
-3.12214002088447
-2.86405991651236
-2.66286097151303
-2.37448276875691
-2.14303556300405
-2.11152999765937
-2.02968748428066
-1.55383567956641
-0.793223176500307
-0.22677884484004
-0.178267434239461
-0.571708101437436
-1.06694104774197
-1.30797588425285
-1.18404686352753
-0.892601246118316
-0.609167653358321
-0.213352903951256
0.41108685712341
0.982520229281307
1.06361735909358
0.570008704614364
-0.232205649666106
-1.08924297832945
-1.88214551435792
-2.47777069443691
-2.62754704154296
-2.06879591982318
-0.778749553870864
0.91719311305995
2.64435596929638
4.31761222742875
5.97732158143477
7.43087752007095
8.34175491878261
8.52027873454907
7.87537162823268
6.35413123664788
4.24311314163112
2.23887802174053
0.900237459538399
0.253308102873265
0.0917220817066661
0.350844288379575
1.03964855334824
2.05691321320955
3.15192384962794
3.93753157334985
4.06400101745132
3.55974459385966
2.84969484037223
2.28419432569837
1.81588474364767
1.22888432179412
0.455554233979246
-0.430276916253163
-1.32789116052986
-2.15831679992198
-2.93321167616873
-3.71898165058601
-4.44459412867699
-4.92909806732075
-5.17336562910794
-5.36060340578321
-5.49859662634339
-5.33133956490433
-4.66049528877127
-3.56200207571133
-2.30877110247586
-1.2188314622894
-0.500696751360115
-0.143651548228359
0.0027337914632877
0.0863211875162288
0.258600563708057
0.654038850386249
1.2220249183067
1.75104063677791
2.14081491204328
2.42569259482249
2.55122026343822
2.49131687568034
2.55545413079118
3.12329543582002
4.01609582854223
4.49228833808307
3.94119868557588
2.42966404464472
0.670549612745105
-0.424923685044871
-0.374847362107609
0.507756154534293
1.46984460136296
2.00417201658915
1.95396733846013
1.10043866759253
-0.803163296661137
-3.47500498141176
-6.04287692190991
-7.76372786995646
-8.59456490287626
-8.99757362192436
-9.37853388990185
-9.7696878367669
-9.98018508294255
-9.97567539650407
-9.93617575778409
-9.85069297180565
-9.30005094978671
-7.86234202599545
-5.59624814154718
-3.02970533377503
-0.856484267717229
0.364163461488642
0.500940337662952
-0.107951324705416
-1.05653169778719
-2.16528667763878
-3.20000289099883
-3.58767600111721
-2.73428468522421
-0.528452595237191
2.53783014459633
5.57818830389001
7.74659738066133
8.79029314158393
9.12629182864305
9.18106542158722
8.86705247631912
7.91212290431041
6.38513840140375
4.61323875397585
2.86552682650899
1.39043326266665
0.502882960151332
0.368883112848475
0.866303306725912
1.77248676779411
2.9056840836424
4.07064524298899
5.08788553392364
5.88262250678503
6.42912757212349
6.71667054044151
6.85287489346328
7.03433741096389
7.33888096952265
7.65439247256918
7.79550038857387
7.62311659720359
7.16568021866174
6.69440728463497
6.55178805322524
6.87263490171726
7.54758281390171
8.33430101676474
8.86906632595915
8.77549582311733
7.96373101049983
6.66374656588344
5.0802279682232
3.26196044385621
1.36122183743929
-0.256001082350354
-1.20032985385994
-1.19992943085881
-0.222508441442117
1.28457494157524
2.46605260533682
2.6560379436072
1.78420174188307
0.0697143070092341
-2.3753000204818
-5.40134298334986
-8.59337613134767
-11.5348520685159
-14.1775665378229
-16.7477152105945
-19.3780307006041
-21.915189222706
-24.0067531608662
-25.3866312219512
-26.1143403535704
-26.4133238448556
-26.2513818688606
-25.2811245996154
-23.2600842084603
-20.3953275055168
-17.2444306466792
-14.3092814897791
-11.6740247218147
-9.11166884343073
-6.6939397168936
-5.09010475513024
-4.85850275752833
-5.46206664454931
-5.32601099864632
-2.96516207349925
1.96641110471197
8.50508776954586
15.0704459519265
20.4784328953215
24.361674719756
26.6009219361943
26.7529416696456
24.5185298455308
20.5472015710202
16.2243897884451
12.6633696819328
10.1713831709312
8.50072517599386
7.25741094097103
6.17660606319015
5.30433839415769
4.89068670436028
5.01147973615574
5.4437037431123
5.97141054051965
6.62244726036145
7.57566304138367
8.99292502563621
10.8613186911956
12.812417600575
14.1856889388836
14.4067763842433
13.2701954980068
10.9615780235288
8.02923129112839
5.2159584109088
3.00247729823788
1.29140966543134
-0.356020166485791
-2.2533492870987
-4.36700333315471
-6.38423889803838
-8.00353726166907
-9.28695207552529
-10.6090519632256
-12.1380339507948
-13.5957046670887
-14.6612693531894
-15.3265685322762
-15.7378671368878
-15.9737609515287
-16.0075106328812
-15.5898549952479
-14.2422944985855
-11.7117177435908
-8.3522955394333
-4.78011749447418
-1.3160178796904
1.9546873564936
4.79188821257507
6.81642082482076
7.82962179089898
7.93664889071821
7.4616306477661
6.77590624808799
6.0042164962627
4.92137851580852
3.37383490047055
1.71793776696172
0.605529110218237
0.455699376475614
1.28806559953723
2.83076087520562
4.59004192940212
6.01224274506112
6.77154582585966
6.86562516810387
6.43782880149752
5.55938567700555
4.13197762739835
2.01682719001866
-0.64836546518035
-3.38785205196236
-5.81578136493483
-7.94159032032195
-9.85743776351682
-11.3933589738941
-12.3186634372731
-12.6111492350955
-12.341368420229
-11.5774433496802
-10.5055941312234
-9.34298318012285
-8.10332051760181
-6.70754266031465
-5.20602553126117
-3.58216221200408
-1.52935477278455
1.16381175666942
4.08846974677469
6.42072626917733
7.64638600811698
7.91050567639967
7.73184319696565
7.48650540723332
7.11008347913536
6.35491764634757
5.40765641314092
4.92494099620016
5.15482795980539
5.37431562608659
4.62972536119608
2.799458973873
0.58617790623966
-1.2854106221705
-2.50113604801211
-2.92903912875556
-2.31566236061046
-0.375347852946403
2.86265021122573
6.95927457256592
11.3654615565221
15.5866354893679
18.9659500342413
20.7169405913647
20.4511573423289
18.3214163666633
14.454396444285
8.79115644126671
1.82007656549453
-5.07838804209969
-10.4732239106698
-13.8055199412466
-15.342540599707
-15.6585098536356
-15.3806649694354
-15.0943265423788
-15.2063258287784
-15.904925842176
-17.1433511044798
-18.4883951963792
-19.1479571806918
-18.4303120516958
-16.1640722196741
-12.6544259862912
-8.51768092851846
-4.64282805879341
-1.85159817037903
-0.180773341165583
1.37906926073366
4.08967357195225
8.23352676075544
12.7113902692561
16.0119136868909
17.5628440635839
17.8818739994302
17.4529962389712
16.0116570556543
13.1984055335852
9.4205841439115
5.62946797093901
2.48433101007906
0.0177501486392489
-2.07049345936894
-3.98143189329814
-5.56506049996963
-6.46562216345604
-6.58620581349749
-6.24171674501816
-5.68786444820584
-4.69651119876816
-2.8184506247933
0.0027531432956308
3.15537464975537
5.65203593006061
6.76197849460962
6.47485726191563
5.37620788405116
4.20879641488454
3.74551374074252
4.80061757304489
7.65850614355596
11.3084410321053
13.8671205199587
14.1806655283127
12.6820787992619
10.4582838011581
7.92477353350592
4.72278421597106
0.548540019623353
-4.28695588409281
-8.98997169160858
-12.7467695759794
-15.0998253923884
-16.0803892952301
-16.1557837086109
-16.0172450078107
-16.1861627591443
-16.7205343260052
-17.375248810267
-17.9065770416016
-17.9625816061231
-16.892491278018
-14.1920588534387
-10.2130716105589
-6.11869068747069
-3.0278028529952
-1.16976583824442
0.329511583681394
2.75453462619247
6.47709059980474
10.3330557144725
12.71970092939
13.1996078738486
12.5822133495298
11.6871618195642
10.6950511000113
9.60950111806216
8.64428629667726
7.98146803117343
7.5782774691074
7.37167149341941
7.42599266298456
7.77267431314454
8.18859009893604
8.16482697454598
7.21587435925696
5.42140163644967
3.57050224616267
2.5080474825939
2.3545679600278
2.46194733381444
1.96103219086563
0.274841834081323
-2.62339174616832
-6.24553730857986
-9.91818060466491
-13.0604721626527
-15.1606622335329
-15.7999798056402
-14.9349845784638
-12.9853928516427
-10.5079776083283
-7.89957091872782
-5.3207955729937
-2.62510767579271
0.510521617712781
4.03836688306884
7.23331397695663
9.22114156426153
9.68898684302874
8.90666081050134
7.27170813409867
5.00196494635222
2.11335944011851
-1.34669708604218
-4.89959002510267
-7.57694017892985
-8.55498317294434
-7.88614908287295
-6.4815532042228
-5.41041928980886
-5.20894879759856
-5.59322018563512
-5.66546297969058
-4.57863529691217
-2.15790997016697
1.14786751082011
4.78055168199902
8.34160485578288
11.5403701078129
14.1982988248569
16.2990992131757
17.9355824088052
19.2396002672366
20.2192221539733
20.429921153282
19.0200882456026
15.5539916751133
10.7927174751613
6.35919543356577
3.57584602510482
2.64341947879994
2.71200110517775
2.57788714787489
1.45506729828786
-0.754939202032895
-3.79247843518798
-7.35383635123355
-11.0243630835675
-14.2880081488196
-16.8495478719599
-18.7481318988225
-20.0692107442033
-20.761125435358
-20.7275526332476
-19.8812715024663
-18.2053799359746
-16.0013700213315
-13.8993206289968
-12.3070882590757
-10.9894079837819
-9.44902043386414
-7.49442616626432
-5.13640584383645
-2.20975282534616
1.45646751642754
5.50616270757706
8.90094237084906
10.4143762808916
9.53814798378496
7.13895405558534
5.03214089019541
4.59705108406874
5.82645265476495
7.74782994979796
9.49671425728882
10.8596595643288
12.0555768952987
13.2228071954821
14.0739623114387
14.0005795577158
12.5273113348947
9.63125251747635
5.69307619812672
1.321803938427
-2.82457171989977
-6.29777761947313
-8.97873384825806
-10.8541007552173
-11.8006849375492
-11.7152026579858
-10.7293095792814
-9.21341739317969
-7.66397796794321
-6.5505465664472
-6.1137074865519
-6.30317778476017
-6.90099413163856
-7.50568558224338
-7.3901923332711
-5.78267752439496
-2.56786026698271
1.47030275171174
5.23911422309183
8.01082281982724
9.59763856007719
10.2935495534945
10.7462060257186
11.555866710826
12.837291162538
14.2189709053972
15.1802442495987
15.3803833290028
14.9039439579221
14.2435082575416
13.8276036626261
13.5633311801433
13.0002590650993
11.8198965459152
9.9953152672635
7.65790173761379
5.002642315104
2.20634191277822
-0.630888874696866
-3.37616288241978
-5.8314948468891
-8.00073320120122
-10.2043382442824
-12.7531205912629
-15.7363351869643
-19.1709432041193
-22.8908813345436
-26.1171393148679
-27.5948718799023
-26.4306525331541
-22.6161937467186
-16.8068156598424
-10.0186671087741
-3.58316086135901
1.07213585911067
2.94146622243083
1.83557393431707
-1.54998513728208
-5.87496892384794
-9.7861364121993
-12.6059804393328
-14.3343177132846
-15.0150814743137
-14.3946575659784
-12.1979985118697
-8.4752611862674
-3.72018662662023
1.18501322292626
5.35610793353587
8.54420475374793
11.3633565463697
14.7536106628808
19.13619354472
23.8986032562658
27.6140988696668
29.0565189768672
28.2645868905172
26.4878795845216
25.0049103514529
24.1801557200363
23.6263086078982
22.9078869712117
21.960228427487
20.9975156237741
20.0564412715217
18.6534891358469
16.0944330172381
12.138493005573
7.13604444919646
1.59713735719193
-4.05400633217768
-9.40415364414863
-14.1342890595437
-18.1701240639971
-21.4926718088806
-23.9480174245365
-25.5437649764084
-26.7071188737559
-27.8193309949128
-28.5841746202404
-28.2014701268265
-26.1678366783512
-22.7984284378632
-19.0877333462297
-16.1251842275386
-14.4632911341515
-13.87789803478
-13.6454993049673
-12.9828386562512
-11.352547766653
-8.65550594691374
-5.26624209815528
-1.80893496468804
1.18287593755122
3.54890282997705
5.65940009806907
8.20392335303965
11.5771987093352
15.5855896079062
19.9234654295536
24.5120899522895
28.9346458654277
31.9897805633843
32.4562921491719
30.1317563010071
25.7792743630656
20.3984275324749
14.8206613439668
9.49993237551457
4.2603172393998
-1.39429588861892
-7.3407740164848
-12.4483024266744
-15.4268982361043
-15.9698045894175
-14.9855737868976
-13.8834842820327
-13.6664053725497
-14.480242818718
-15.8259745862738
-17.0956833672114
-17.8899010048547
-18.0459770901935
-17.6105549613054
-16.6582292671031
-14.9479938976808
-11.9997609669826
-7.780734781996
-3.09486408405526
1.03126127061434
4.31837507073885
7.46251045858438
11.375622614417
16.1235254938
20.5624460206614
23.1279356782765
22.9901288840539
20.3506835610575
15.9072795744137
10.5333299103156
5.34643032962506
1.40001991966529
-0.945139778123382
-2.07155526522574
-2.49024686659949
-2.34832801985385
-1.42923873803759
0.55463096217685
3.59985956919595
7.26743742944906
10.8984241515396
13.740783579153
14.7164768954272
12.6246269770068
7.34428596607611
0.725587778527291
-4.45607464214336
-6.62695771518298
-6.22542874935802
-4.70667977025886
-3.40173879637369
-3.17050244086894
-4.29783159066146
-6.38920714198406
-8.71942814467851
-10.8861827516857
-12.9683528317252
-15.0090159299871
-16.5881853084757
-17.1189746401727
-16.4637837049873
-14.9730598161743
-12.920706403531
-10.2868746183847
-7.24639024386223
-4.45624838380993
-2.50017479137639
-1.2161848242982
0.172060851599367
2.26981938713734
4.86230279887299
7.02276990582239
8.04586230872522
8.32531790490837
8.97340872503367
10.4799266150048
12.1659852817251
13.0454751912074
12.7121665954594
11.2762502793718
9.05841477353352
6.67155027599706
4.95668558927959
4.43018755294075
4.88763269783235
5.65200825337341
6.11019778640842
6.09485418028563
5.96487534059627
6.23619415167875
6.95379572132336
7.56086408779713
7.52172520126284
6.87170573848601
6.03123073033363
5.30290572950437
4.68978186150957
4.04282540121149
3.2140373705564
2.01835169623797
0.0837056440065106
-3.07109474245632
-7.59298722171868
-12.9265776187075
-17.960351370599
-21.5229374127596
-22.9141408163324
-22.3545058005261
-20.9747909503543
-19.9872579029144
-19.720240536945
-19.6297766713847
-19.1137475770123
-17.9941995855615
-16.3759891266825
-14.4209438714399
-12.1788800992634
-9.41311732807835
-5.77844647839454
-1.39880518008262
2.88147802924479
5.98934215909352
7.30860802058663
6.95340444419101
5.65580343756255
4.44166231910343
4.12229767436396
4.86167375671037
6.17505937649186
7.2779234816006
7.52912164723283
6.90667502333483
6.16328893480535
6.14485145565374
6.81199474668356
7.29553771010397
7.05837699530908
6.66700649838094
7.25381757517764
9.42353708341349
12.7460470773221
16.0900194454677
18.3082940409552
18.7681615366805
17.6000995790145
15.6961809581664
14.2669063070949
13.9568850879151
14.3247438535106
14.4216917418511
13.7773872572119
12.5316487718368
10.8259151103727
8.5364723255254
5.52896646860095
1.81857959158086
-2.45041367586465
-6.97998527825654
-11.4419651150793
-15.7491594161015
-19.9218979917588
-23.5351016530055
-25.606736227608
-25.2644782808259
-22.3888860678187
-17.6095355172984
-11.9942476281193
-6.74683219645941
-2.68450228074617
0.324619979980208
3.18556786768563
6.58151972799498
10.2021704661875
13.0555271119631
14.4582314382673
14.5289030042534
13.6638870521518
11.8447703038879
8.83837006879611
4.92860711295636
0.982533627673888
-2.21245328483414
-4.35420345113112
-5.52712699172813
-6.15753022564158
-7.01842213573709
-8.86857867351794
-11.9593328655427
-15.8944396740345
-19.788545213912
-22.5933548351553
-23.6360618349882
-22.9575508991446
-20.987565995704
-18.0601352537325
-14.4494799537246
-10.523413539477
-6.46003912513948
-2.0300669909896
3.02028876313035
8.47824264980809
13.6274414406093
17.483740110609
19.1135185085579
18.1543468349261
15.2228271452668
11.5900647823908
8.29436284091945
5.58556612823491
3.12557316431764
0.587788707509024
-1.88299363719143
-3.76244542178935
-4.74248619210725
-5.05047540762151
-5.00308415669358
-4.60858442413895
-3.9992996247857
-3.88726123918484
-5.01790033715803
-7.25221039454125
-9.48829238165266
-10.385904908335
-9.1044670334629
-5.68263880929164
-0.966546155209508
3.92340842224016
8.16477315964552
11.3689677259481
13.4286297338735
14.4385972148115
14.6696051203065
14.5064285132287
14.3822493921506
14.5665977241424
14.8326657524508
14.5282234789476
13.1879265057431
10.9429055848138
8.28955770907979
5.76857030008164
3.96546392971832
3.44130520584508
4.34636375215391
6.13848766189221
7.75643130017391
8.13462228696868
6.82300649586653
4.31267425197077
1.55549737568516
-1.00440261350077
-3.66602964117457
-6.64722073791901
-9.47885529245522
-11.486071865871
-12.4974692583832
-12.7598368783971
-12.3756428057199
-11.1406923552609
-8.95810803042765
-6.23747572949089
-3.65256591109377
-1.41863314693042
0.949429123039291
3.92004368744818
7.10869247906854
9.29798623198131
9.15099868953615
5.95832622635147
0.124246167538181
-6.92322552678246
-13.6194556748882
-19.1643551391894
-23.3868010008072
-25.9748276708772
-26.3240359864554
-24.1198963132475
-19.7873136470083
-14.4302946513565
-9.38619141355113
-5.48925784587617
-2.55127429892998
0.183156931130134
2.97067462539726
5.32715970038906
6.99874435340307
8.73585429887598
11.7425380847496
16.4926253493939
22.1897461621198
27.1861079811202
29.8829654215966
29.4752006627548
26.0605653465267
20.2612007016183
12.9618353196944
5.24205530219595
-1.90959639975918
-7.97129155113817
-12.8528385480622
-16.5786270903958
-19.1916219158956
-20.8977320208244
-22.1447834887103
-23.4552419980245
-24.9622614338426
-25.9761722870007
-25.2704189037291
-22.0559787651151
-16.5443566177865
-9.53336445400887
-1.85929500382533
5.58536980347349
11.8025756856386
16.1258449398523
18.6477879251313
20.0467878646122
21.0139535010957
21.8578264006896
22.5618450260861
23.0737053712352
23.3745337678171
23.266056513148
22.384866243201
20.6649857564987
18.5808215687165
16.6081404728292
14.5670339978486
11.8446762354678
8.21988532004365
4.19641811932929
0.607863353780876
-1.88101429442747
-3.05099859486493
-3.22155754608474
-3.07526509064577
-3.28186781136484
-4.25961468165494
-6.14501307293203
-8.80454224127065
-11.9563318551099
-15.4422196273595
-19.3156857147721
-23.5604988346869
-27.7734317722936
-31.1612885336014
-32.8663006373615
-32.425574593073
-29.9861316356627
-26.0313477285816
-21.0718203811545
-15.8180807417535
-11.2745959618202
-8.05496135345692
-5.79118611288641
-3.82364677650458
-2.25616600779845
-1.64708045287107
-1.87108235515384
-2.10245214930509
-1.91730856718155
-1.66577634126715
-1.58001675842484
-1.07293055871918
0.796780852266361
4.41503803129106
9.30687916939782
14.5902865701366
19.6336884442872
24.2520709235585
28.309101449444
31.3886377994891
33.0706487125639
33.3334966018856
32.437691525273
30.5521179015288
27.6676890723395
23.7467099332623
18.8481701069899
13.2225315246037
7.37020160823496
1.98984103369346
-2.15409313099372
-4.42448886757972
-4.51878936729494
-2.47111636856786
1.50369153605843
6.83280365883174
12.1368993787427
15.4832140230842
15.6279003465871
12.9520796832663
8.9580581946848
4.92808775649743
1.09457303732763
-3.11345212392209
-8.13451815262146
-13.5776103958042
-18.541202774159
-22.5577963598092
-25.9006518755501
-28.9244684637844
-31.4928479953107
-33.1834075929552
-33.7201798191292
-33.0823751980383
-31.4927419214117
-29.3783350522455
-27.0279737350334
-24.2269374094255
-20.5192497278628
-15.8289860154761
-10.4991372497838
-4.67310652573211
2.06948881756036
10.2202728725577
19.3967764409728
27.9823879424965
33.9903017716678
36.3781127720334
35.3120649154908
31.2952061625614
24.6713978702769
16.1217177623747
6.93674281724929
-1.7158206241731
-9.52344678079959
-16.7475181937656
-23.4272171529878
-29.0762393561513
-33.0674577271695
-35.1926931080861
-35.8122349306189
-35.4355360772859
-34.2278506729488
-31.9973062433961
-28.5232425050287
-23.7654820220575
-17.8407848672732
-10.7921394912713
-2.27264544123433
8.225804199289
20.2794262033114
31.8060769003849
40.1707021981492
44.263441268109
45.139081475092
44.6830186824203
44.1714715919385
43.9919616183336
43.9315721763827
43.4295100791831
41.9567317354763
39.2975370145368
35.2879819385606
29.5511628337481
22.0256143697901
13.7478968026438
6.62335542755643
2.10183583704729
0.101955001838988
-0.685957730703636
-1.55595581898387
-3.04831024549678
-5.31333833435601
-8.63799601640919
-13.2336173177213
-18.7723786862178
-24.5005178819019
-29.6952454930994
-33.8378834474703
-36.5362439777383
-37.3999237776056
-35.848181777844
-31.2209623993382
-23.5387210919606
-14.0951255028118
-4.88295541530482
2.49054655403705
7.07700467827943
8.29713954016362
6.20630934995692
2.06133289034321
-2.0304839160961
-4.40414225223109
-4.80969767549476
-4.26141233550565
-4.05968997561623
-4.73069406113485
-5.64264345031187
-5.65894184921209
-4.22951325881259
-1.87578527835514
0.216840915018041
0.982584256390043
0.0979266072130691
-1.91519918566544
-4.18599883629806
-6.06588381826573
-7.20060815161607
-7.36802369104786
-6.63466554068997
-5.61791985490063
-5.28916442853827
-6.35917099826802
-8.74181012594368
-11.4936174092462
-13.3716231227951
-13.6313159393689
-12.2367587805667
-9.28153605171678
-4.53232266527937
2.19558309520197
10.3501442518715
18.4949726481299
24.8659365427156
28.2890798919813
28.8702951836096
27.7737575220542
26.1477357415539
24.2957783451148
21.8847816246254
18.6501772527845
14.6951447171003
10.3375017142185
5.95787097041997
1.95364819934771
-1.35927125874051
-3.92145009964998
-6.10132700484329
-8.65268464451117
-12.1809556124721
-16.4452631479506
-20.4259195116249
-23.2335290966905
-24.6454722636748
-24.6660428019158
-23.1133003852629
-20.0282562593596
-16.147388827329
-12.4987858357814
-9.48567367929643
-6.5040212519109
-2.50632341313749
3.05405507317059
9.81697785301249
16.9385011485716
23.7190760159934
29.8446267250301
35.3347837485274
40.2985855267642
44.3946121598442
46.5993383791061
46.0579624915246
43.1574023894403
39.1729225575271
34.8829720661439
30.1527020220403
24.8467543088737
19.4756826784585
14.7839867665227
11.0956861969063
8.1444604529034
5.33650460366505
2.22957237152545
-1.15835884796708
-4.73962287191133
-9.10392593394328
-15.3983690338831
-24.1225183782578
-34.2912994041523
-44.0115180515802
-51.6933490858921
-56.6918067859929
-59.2651625794391
-60.3336462939929
-61.1551392334766
-62.7477839507392
-65.17590828686
-67.2716974711345
-67.2678814425144
-63.9573354186006
-57.3665875185507
-48.4649650231513
-38.3539144963299
-27.5404524064437
-15.6731722870305
-2.07773393457707
13.0863080404194
28.1848528872561
40.8920642908685
49.6537777810962
54.3091697279863
55.5394749146964
54.1089379922377
50.6756003219323
45.9830280471098
40.7841274741244
35.3531501097521
29.3207183050862
22.4065459641003
15.248948334335
9.10514026270746
4.770618841084
2.17029914694519
0.858462985481595
0.367436942996711
0.170794661601553
0.0389578051507474
0.59820696662178
2.94693294005417
7.43892935063887
13.1068767480388
18.2838657956579
21.5425720417165
22.2510413681759
20.7436662154531
18.1145310687688
15.6708911611603
14.3348262367026
14.1971420611128
14.4078118943169
13.7421743798803
11.621065293861
8.56746501409551
5.594612656767
3.27087248709703
1.38077959757429
-0.649851613462511
-2.95087517339179
-4.76653214603077
-5.03228029929805
-3.47075695962049
-0.861565851612577
1.70690998484147
3.42150909254648
3.71779525288673
2.33780993189607
-0.462693204274192
-4.15622607216612
-8.33846371567506
-12.5715607474167
-16.1460782522652
-18.5638629434917
-20.1461406749661
-21.716547490376
-23.7545776774182
-26.1476542596
-28.585828201109
-30.8733055415274
-32.9550628886344
-34.8602591076535
-36.5607392671395
-37.7291765045509
-37.5483193854101
-34.7792841848543
-28.3595840111833
-18.4061160439717
-6.62671685715292
4.61900112498103
13.7387562147367
20.3525788235309
24.6948204471343
26.930376719837
26.8722945064868
24.1272471840617
18.6594472716714
11.2720919332771
3.31246312492463
-4.13642874551237
-10.7111189398585
-16.6795607526071
-22.5277836759262
-28.1927922962835
-32.4473524131972
-33.4560020040107
-30.170049917013
-22.8524052159096
-12.2985438637802
0.767983059326331
15.2991668168578
29.4528758483326
40.8843114478404
47.5033255076958
48.2737546707096
43.871850105024
36.6538786719151
29.5227465819335
24.415060973789
21.6144551561252
20.2343555222219
19.2682493046323
18.3268142671009
17.4899742380047
16.639712432283
15.2819511785146
13.0365938288316
9.92472667897052
6.14854552208389
2.02048337830348
-1.82264144701526
-4.5874497357082
-5.95373487282943
-6.37800912102306
-6.63526506882682
-7.08704666836501
-7.46037627825236
-7.39117848145335
-7.07250305325761
-7.08256786672575
-7.57425056677174
-8.06414105737208
-8.16656059287458
-8.07866310193871
-8.09478802249108
-8.04018822937291
-7.47630273138862
-6.22775625484601
-4.52724663772042
-2.80721966699113
-1.448710432267
-0.645108787920428
-0.450686741835274
-0.853143659780384
-1.61248093580192
-2.14265249891186
-1.95917608475214
-1.28187522526846
-0.787803453520922
-0.766484419457331
-1.0456919246694
-1.73360146167621
-3.24146979012842
-5.26817402430114
-6.47303460107126
-5.76471473433279
-3.64265750419345
-1.75060727683986
-1.14142881806875
-1.4054707025973
-1.56856173614251
-1.26927829686981
-0.643660481815115
0.319547625598185
1.37760848923017
1.25924420648586
-1.5923047332462
-7.28017656850955
-14.190423217299
-20.5854216031625
-25.828112581775
-30.0089992763835
-33.0693437484967
-34.5561030972155
-33.9306504427805
-30.9679717474872
-25.854338293443
-18.8730329389107
-10.3518206648242
-1.38474699995279
5.82435040617636
9.36692915226726
9.57880276919027
8.934553629488
9.85493580468384
13.0891536144252
18.0462734533471
23.7052352189575
28.8673665668583
32.3906930644384
34.0000906195776
34.6826551039077
35.6758465184984
37.0050544643344
37.5048280283471
36.4301799687896
34.4286875780884
32.4226361942633
30.0449010664109
25.9704808010032
19.6533153713355
12.0890909871092
4.88192735944496
-0.970700952046551
-5.40682136973909
-8.8666031586245
-11.6984831215493
-13.8962535522349
-15.3005357323688
-15.8192190438244
-15.2975534936623
-13.4880095397886
-10.5369836185115
-7.36933890764539
-5.30117128028718
-5.30999231607104
-7.64419300928408
-11.7671316749899
-16.5464250312483
-20.8208045863938
-24.0089768651186
-26.1573394964215
-27.5262170959552
-28.2810898620794
-28.3790115724154
-27.4487809136355
-24.8398752150713
-20.0485869192242
-13.2220369557442
-5.33621650349381
2.06038104961625
7.57590511000268
10.9101685745329
13.0415159041766
15.1241291773023
17.2590572928942
18.7315339026575
19.3261928627213
19.733289817355
20.3451775666729
20.1602567499356
17.5683601913558
12.2433167483695
5.7215569445389
-0.0626400629622393
-4.35067517801749
-7.51077127889729
-10.0578239315956
-12.187919755053
-13.8217809797282
-14.5564180407587
-13.7931495007763
-11.2826479192718
-7.41301098062014
-2.91428727587754
1.36790549013939
4.46427706792525
5.71541261910908
5.50086878873987
5.14103791207067
5.81270110857796
7.69159248163226
10.0735536366696
11.9245737025943
12.2177475630587
10.1778983109426
5.63710150808969
-0.813839712624547
-8.15963485419758
-15.4651847236665
-22.0374867417447
-27.193256299408
-30.0727171647671
-29.855415155436
-26.1574981869049
-19.1991278456687
-9.86757357315658
0.134487459453614
8.68074515243636
14.5407104511631
18.3134604814031
21.5393144341838
24.940921876987
27.9220316291917
29.5771435503283
29.7318256862087
29.0917753066359
28.6319446707507
28.6991449413148
28.6065578964008
27.274232595287
24.1994677609708
19.5814583131074
13.7732066191067
7.10951615288522
0.197707687971836
-6.06151184371917
-10.8450222757979
-13.6813553712991
-14.4557215093694
-13.3481113799721
-10.8158111340685
-7.55287255384263
-4.3161180792715
-1.68041776414453
-0.0968500119749257
-0.377311098645805
-3.78972456634456
-10.9512634234885
-20.5033853446386
-29.5476458251365
-35.7229049925306
-38.4835073953777
-38.433429230891
-36.3335184427876
-33.1355784182966
-30.1752567796084
-28.5347891935949
-28.2549534470607
-28.4153908236711
-27.9529443421568
-26.3869246435286
-23.8227324312626
-20.2266207682484
-14.7805828305895
-6.30276595743572
5.44087809343917
18.9391046763088
31.6144043077814
41.3227018100571
47.2218869867951
49.4395271178181
48.4172282351172
44.9657472708152
40.6312569504287
37.1671848851334
35.2901617567762
34.2895300007974
32.9718361534663
30.6405600869661
27.200549488907
22.8918035532047
18.1143987631728
13.1125638934668
7.69058558648883
1.57388473638816
-4.87201613534928
-10.6230217639064
-14.8482693502591
-17.6503010958112
-19.9570135517209
-22.7530834398828
-26.3044185992418
-29.9949460336312
-32.8441804726979
-34.0205080976834
-32.8408797350756
-28.7267325481312
-21.6726423473317
-12.7943736089644
-4.13641512280191
2.3488646628763
5.92064997123004
7.30529441191246
7.71975900866001
7.59802451573912
6.49756012599725
4.24756108560565
1.76693528133617
0.510187020885306
1.24346604500704
3.38379970722333
5.42289509829741
6.14150029641682
5.5591577229608
4.50576023763608
3.20794498129204
0.663141228130511
-4.41208596035166
-12.219966370129
-21.4423449691978
-29.8833461348796
-35.6530625267009
-38.140904892845
-37.9629897748469
-35.8523314987008
-31.7085610228337
-24.9044890072546
-15.359874984132
-4.04875022919975
7.51055071438836
18.1105856672294
27.2261916214308
34.6330006035967
39.8328007032792
42.2114679829841
41.8931928873493
40.0308219064436
37.8936785666333
35.8583885205492
33.5331761880356
30.6719820945369
27.6714206046337
25.1370149778105
23.0870518669781
20.7859925280981
17.5169424793996
13.3490472209618
8.91107452687792
4.69427526455837
0.987297144528436
-1.84872189494822
-3.69012684304102
-5.07773489186404
-6.74929601858261
-8.78621080917523
-10.5554288699808
-11.3386362747267
-10.8382724693635
-9.41288207354553
-8.072080590794
-7.94603019669838
-9.51248744347326
-12.4557823490499
-16.2235855541609
-20.4022795512293
-24.5702878917747
-28.1384339020735
-30.3648389777497
-30.3399257620576
-27.2859420171588
-21.5080712916863
-15.0402550185814
-10.6689286307215
-9.84391714703041
-11.5960021193502
-13.5483158580287
-13.7125277094339
-11.2069036762631
-5.95400761174294
1.23561629293258
8.19885402436162
12.1488779216663
11.6649271069956
7.70387286310086
2.41816302406436
-2.67512624555146
-7.47049050910509
-12.9929020795708
-20.3413365729189
-28.9829554495647
-35.891112208748
-37.2814907384912
-31.756363763101
-21.5114202804918
-10.4895076535048
-1.68794800081896
4.09396337061386
7.7954782688988
10.8348575283673
14.122554319401
18.0778481248856
23.3090916030625
30.7635390113041
40.8920703709524
52.780662540813
64.2807772878801
73.0263309449526
77.4279451328224
76.9117683618674
71.4926987481019
61.536536197961
48.168329518922
33.4562220619517
19.4870854090923
7.18514615837851
-3.69648255829033
-13.6377907259448
-22.7196517518157
-30.5776721769068
-36.4772708608022
-39.5210231685489
-39.1265507324263
-35.4172253072518
-29.2502684431503
-21.9907471577441
-14.9903328864588
-8.80720129908895
-2.9521090207762
3.12506880065216
8.60614270716133
11.1804683575417
8.74691098372481
1.3532155635616
-8.69809256855217
-18.714980074574
-27.3344153691084
-34.3742841502244
-39.7377942090547
-43.2182747481948
-45.0364430164626
-45.7092737881353
-45.3324532983818
-43.4469195792597
-39.5516913187416
-33.5448899591181
-26.03524901902
-18.4045556842653
-11.8391250402582
-5.82412549979335
1.65262981718393
11.6757934230665
22.6365910672504
31.4516595893395
36.2099763239696
37.2791445559312
36.2140930512365
34.0286224072751
30.4838626067653
24.8723751940795
17.3458753113972
9.31018176125047
2.56102643501485
-1.77455727576015
-3.58534681562246
-3.49465969405114
-2.35718168323187
-0.827892342633031
0.742085857927909
2.18896582313087
3.64142135840964
5.75939121426951
9.45872315540665
15.0954642418446
21.91466911852
28.2759221326645
32.4404935175846
33.4438907832146
31.4991266691383
27.5821541969142
22.6399191341168
17.2172754945606
11.5430923120758
5.58302033464667
-0.861001228735633
-7.63267568336877
-13.7713231414609
-18.0241193668708
-20.0436909561407
-20.9022434532819
-22.2077416003066
-24.5747327846872
-26.8725266960182
-27.1543000688848
-24.6042707704054
-20.383229060729
-16.1937841507019
-12.3195207275387
-7.67299501079676
-1.54630768373314
5.42571033643422
11.9823390840068
17.1054019686326
19.9082467996542
19.3514057937469
14.8349245327898
7.16689820386025
-1.45269477237548
-8.70333629157459
-13.3844446414542
-15.4835892945135
-15.5419041006564
-14.3607628086195
-12.8829967829793
-11.5508665063428
-9.74721676263136
-6.47106483288146
-1.69358374444676
3.4067614993941
7.73957200692953
11.5365359392381
16.027239695284
21.8601599973686
27.9340431683122
31.9685160740862
32.3971699788442
29.6269062055733
25.2432708533029
20.0886457915472
13.454929026651
4.1927682016286
-7.64107044725915
-20.2622833460573
-31.1097307901897
-38.411130466184
-42.1176319149092
-43.4690169815303
-43.6216555862861
-42.5633907180315
-39.2122474474965
-32.6248407350336
-23.3129426010354
-13.3411827994015
-4.88152794509365
1.3302232343196
5.90735310233016
9.30546509276836
10.8178389218267
9.263015879351
4.45392882559364
-2.33624924178029
-9.40929496957292
-15.7883475061513
-21.0507079171493
-24.452548990657
-24.9739495992972
-22.1267851424431
-15.9452611307607
-6.33016114856137
6.46591865588856
20.5063833997799
32.5406691660862
40.4844057232907
45.020323798362
48.3145206317968
51.6232603531054
54.4569019767586
55.5210339748876
53.9563816507056
49.8550387608373
43.9043233790003
36.6265621659343
28.1408820784839
18.8068486990097
9.80111989810072
2.63679429749736
-1.92541743147157
-4.35097504321378
-5.77426238139779
-7.08242595492959
-8.47925393374256
-9.69418930977588
-10.3709255766046
-10.2887817293163
-9.48882799670808
-8.27745257360601
-6.94863809919597
-5.57374182364129
-4.31672704217268
-3.77020989257975
-4.54467569805005
-6.64978624187841
-9.67241600929085
-13.2871210361775
-17.0993288295605
-20.3975226892184
-22.8349390706779
-25.170772692334
-28.5653661493802
-33.0612586632668
-37.2290019159349
-39.3510815442221
-38.6801748245
-35.7150022147881
-31.6971387913618
-27.7979636501149
-24.3904049466738
-21.0536082942731
-17.4174634274623
-13.6817917896811
-9.92294785585623
-5.29680226326315
1.2419730949401
9.29540075530486
16.7300261627893
21.4276171970578
22.98522247763
22.3136849375249
20.0601837851292
16.3549122347607
12.0920176377872
9.35389825363891
9.83686486333982
13.197661683309
17.3729000069441
20.3808883577671
21.7560155715387
22.5459168738616
24.016550604245
26.2257501007348
27.9453329016016
27.9374666538868
25.8081267137556
21.4989664379974
14.7225494556386
5.52045181511132
-4.91729544632199
-14.4640194855502
-21.1421575225566
-24.0766000828909
-23.7208495749931
-21.3739201529758
-18.3797064108402
-15.5289760711987
-12.9488138359102
-10.4172668035248
-7.81220259837749
-5.1491160738697
-1.88303911507669
3.58081551955004
12.6278889597358
24.0712808601158
33.7641611668637
37.4607671944881
33.9769056794327
25.3264981563283
14.3888935306205
3.0370160678361
-7.91149823292338
-17.8771592019724
-26.1464460117584
-32.1677025358644
-35.8139000183137
-37.1083103799859
-35.8456702051553
-31.780105112092
-25.1890648711783
-17.0706869558752
-8.78255571616663
-1.51786691163519
4.0985018791217
8.17681169853652
11.3287018416873
14.1254679347177
16.6747545745337
18.5684293389531
19.1251128175704
17.7738710099001
14.3312000751555
8.96881360716859
2.13914405676862
-5.20459953236503
-11.5035722291838
-15.1944481529425
-15.5625458985098
-12.8552494868135
-7.70956873313744
-0.862755511823759
6.60862488538494
13.3012356563821
18.1320888533072
20.9724586697283
22.5939677052061
24.0442175638462
25.9950011970164
28.396071554944
30.4509822734136
30.8726381526125
28.4084206807708
22.4165704379597
13.1131316134888
1.48859610625582
-10.8052648603241
-21.8147873017831
-30.2941866063055
-36.5758363014202
-41.8891536070057
-46.5557144931031
-49.335439968225
-48.8169448955822
-44.9855645034125
-39.0867634714749
-32.2931216548501
-24.8364504798403
-16.2465148131041
-6.1722076613694
4.98391037643648
16.0970877275914
25.9194243404677
33.6474092269943
38.989411737381
41.8024692142965
41.7282491668068
38.2975857592199
31.5848077518827
22.7843802312522
13.9343518466173
6.8860281000719
2.43468488303647
0.182685951049965
-1.10090027770227
-2.88738063686281
-6.0381094968267
-10.1615766144354
-14.0367294871101
-16.8875335277575
-19.0469141231616
-21.2477637194399
-23.5414895565786
-25.2246778101031
-25.8712452728462
-26.2404669197828
-27.7661758038777
-30.7745735555067
-33.288176044646
-32.0660904971932
-25.1671747247913
-13.5721872496869
-0.394752527344873
11.3974429251634
20.6427872596181
27.7932024406529
33.5593284981556
38.1219113247048
41.5155855695635
44.034022196596
45.8071265531029
46.3468301884211
44.8338837408112
40.5965115777029
33.3594084782915
23.7328956271032
13.618221404261
5.25686994475865
-0.686266411212492
-5.63000800080241
-11.3813857439038
-18.5227371935311
-26.7156792314593
-35.6198549516986
-44.5190960974229
-51.2999359594838
-52.78853651632
-46.7891828479258
-34.0375056544942
-18.1289184815554
-3.29107660707829
8.08275815490811
16.0508900870831
21.8199043513095
26.2837454677519
29.7177303757321
32.1925973334176
33.6565838526741
33.6735428622547
31.707424835188
28.0778317436535
24.3119652958657
22.0025466571209
21.3801702274513
21.3967991378465
20.8909042677919
18.9012393788584
14.1007632270523
5.26123981716203
-7.12259291887488
-20.4275671253824
-31.6813974511997
-39.3445579852166
-43.1992759332314
-43.3858139505187
-40.3754931130538
-35.5773581555317
-31.0816554874818
-28.4059501312584
-27.6460922488962
-27.9162481122767
-28.329258293666
-28.3413964503711
-27.4792232339849
-25.3620115034548
-22.194834433929
-18.8950832385601
-16.4697363663364
-15.2785853814754
-14.7414980370103
-13.4823405815038
-9.88956399585792
-2.95509597451102
7.17224328680753
19.2053979576048
31.0199619149852
40.2407499791913
45.3489235100839
46.6031390002346
45.5947260554356
43.6952352819514
41.0555637654927
37.0524123799988
31.3736705723182
24.5033668284508
17.2648178848949
10.0909157629584
2.92413618839108
-4.19801573045702
-10.8067650915563
-16.4308976405461
-21.0306964431001
-24.718151055285
-27.2555922312791
-28.0530672969741
-26.5794820125962
-22.8373179531419
-17.6577030849301
-12.3443306642417
-7.63590100968964
-3.19832718742945
1.4382666753385
5.81264923451587
9.18843526389742
12.0702478787797
15.9964202193251
21.4855014413992
26.9048170180966
29.8491433981328
29.4022720944481
26.9087815714632
24.7580311375587
24.4496948213351
25.573774806666
26.5015297982084
26.128667487116
25.0195656129601
24.7359062156736
25.842405138053
26.6896970272131
24.6434085690208
18.6830391223032
10.3885346281663
2.25819323504529
-4.34603452889257
-9.34720867846822
-12.8490235013914
-14.6953733875099
-15.1241909653924
-15.4745772469928
-17.7857794732704
-23.1081475594696
-30.2177991693516
-36.9286459805216
-43.0265572459932
-50.7433995048679
-61.4166722600776
-72.6056115334597
-79.7832764132087
-80.528419219683
-75.9873622541642
-68.4397759765955
-58.6602893321732
-46.089036631548
-30.7885752141808
-14.3771122500887
1.06852945484842
14.6311326834114
26.7795866195813
38.0817824197808
47.9471281873644
54.6796596063048
56.7310362502862
54.1033642013859
48.6699002511354
42.8396137846477
37.6093149913961
32.0167981104365
24.5519472361434
14.836679627746
3.94490256963968
-6.33943961182697
-14.1972701863935
-18.1285003341503
-17.4208125693701
-12.7232419250762
-5.99093566100438
0.722598840051595
6.75307407287155
12.8068786473787
19.2132884584161
24.7018234650327
27.4366350369958
26.8894661399874
24.1627144815604
20.7920369078571
17.7255135324742
15.1409540948422
12.6934949217835
10.0497200630187
7.4631729220237
5.56110030105836
4.29622540858535
2.48613794206412
-1.13459033212973
-6.45065549573108
-11.7411053885617
-14.9018295699105
-14.9936086882199
-12.8572488072705
-10.3260911596856
-8.8213130420306
-8.65865116889867
-9.38043714631629
-10.2704586864559
-10.547201480786
-9.60686106575279
-7.50769473988058
-5.17029979353378
-3.80523203864593
-3.88364276049393
-4.64080866365418
-4.76275524538675
-3.56951026406672
-1.32464375393034
1.43712949854887
4.27993835986304
6.52437922070168
7.34660314430292
6.72297516684785
5.83235894575915
6.00247582506328
7.33953378380006
8.61917433613592
8.49340986737014
6.73100640425208
4.28700117504541
2.2342440081939
0.852171558613676
-0.0861886997059593
-0.464719388788704
0.261542915003378
2.39816430996208
5.56840179051192
8.61927430501737
9.55509569023748
6.17272427665801
-2.20196861025969
-13.5200653824837
-24.0749629113593
-30.879909773063
-33.1109408155243
-31.9271039501568
-29.4026293067049
-27.2599304742407
-25.974614489329
-24.7280676348288
-22.011502946052
-16.4173429174886
-7.59297365394647
2.91425306677369
11.8947269291782
16.1225574702337
14.275946608056
7.81522406743049
0.352290947774757
-4.33973818818854
-4.69803010127908
-2.23834096886346
0.0330229754182829
0.158151190334298
-1.61336132740549
-3.59419650949215
-4.0742837998704
-2.15104073923087
2.10982578586009
7.70873694047875
12.9392458287737
16.1773170838669
16.9310894776961
16.1430659394898
15.4167779638836
16.0381148978956
18.522625427487
22.4280770683591
26.2358613136468
27.8914969078488
26.151884591148
21.5993791956887
16.2827645788105
12.3687030739695
10.8992338371141
11.3977956914089
12.5267774006864
13.1988048433967
12.9317874546565
11.2260522596179
7.3353934481388
1.22042690475954
-5.61238238210404
-10.7973416579965
-12.7483794920086
-11.7120590209042
-9.56261536806661
-8.61345962994677
-10.1815402073804
-13.8974786295177
-18.2222391401453
-21.5251441757466
-22.8093545127807
-21.7981426874902
-18.5808347830864
-13.3335411056965
-6.69512625794645
-0.435875991282363
2.88039218256467
1.53464966859356
-3.9350853418736
-10.9611013950557
-16.5565841422961
-19.1381683708301
-19.4325355065674
-19.6188393123782
-21.0697614919595
-22.8067818439313
-22.4082503551697
-18.3417169827172
-11.276918226097
-3.57666669029973
2.08265014826647
4.10115516550232
2.85103215458068
0.438165245199748
-0.678088082778826
0.873507242422129
4.87961103586437
10.0011089820712
14.6411275429173
17.7204876667969
19.0753208075752
19.4601965243243
20.1740917583203
22.2291936136555
25.4829176885566
28.7245732177848
30.8276720085112
31.5917593059619
31.3526003602885
30.2512450363448
28.1828126287948
25.0648084625896
20.9049453294371
15.9846426321981
11.1678341801792
7.65037019446249
6.18402531049965
6.66191459003534
8.20064474867102
9.0719178564978
6.75736976191416
-0.888651684577518
-13.87584498793
-29.6604836124677
-44.6711145721513
-56.1258770469012
-62.59541505042
-63.5757161607244
-59.1786345831678
-50.3260697387837
-38.799636880181
-26.4618573575961
-14.1869679577501
-1.90274666771453
10.0543834415774
19.9890250161693
25.758107772006
26.6668971671413
24.1546248437873
20.4167964140874
16.432805468147
11.5389644659556
4.96974016844944
-2.46204526804311
-8.5543089769806
-11.584584324066
-11.7410622366693
-10.6323262656095
-9.6325215839155
-8.9572205453193
-8.26065984886504
-7.64630057655758
-7.62470896226644
-8.15390031598078
-8.16826609926537
-6.21133957273442
-1.43973794119942
5.73666232189288
13.6083781932936
20.0305603166057
24.0607030948952
26.8555727657362
30.3914796801893
35.0783915622517
38.9892310388631
39.5240049154377
35.457966299846
27.3640176362503
16.6654307606608
4.78317989510417
-6.892679524911
-16.7720290639557
-23.5755484648709
-27.4278608117651
-29.8969144136991
-32.2861348547964
-34.1727491542272
-34.2005654878547
-31.8952372420108
-27.9128196047855
-22.7979748012956
-16.504978430885
-9.36104358374543
-2.72572069582295
2.02251787111608
5.09724561298321
8.23989519023295
12.5614532798323
16.8449000481636
18.7820702462976
17.7948674913059
15.7458116452565
14.7186442593314
14.9600657488251
15.3593014434502
15.1964362284844
14.7764922329654
14.6731163782213
14.990731156848
15.4806185527817
16.0218844447393
16.6678384458623
17.2110138357043
16.9492103613595
15.119462489395
11.5671773671542
6.90597671978886
2.1314124808986
-1.82799968579869
-4.46021678881275
-5.91473138702403
-6.81881803546523
-7.63273872717473
-8.30113937078089
-8.75730683289209
-9.62493728501602
-11.9229796649482
-15.6643051569263
-18.979387279935
-19.5094166499588
-17.1136760115209
-14.4001380994008
-13.7642871913221
-14.6625169260169
-15.0263033806872
-14.7639287888902
-16.1380464705607
-20.4830677124793
-25.8491004503603
-28.3898572880767
-25.5277622117129
-17.8157188767177
-8.41410408198561
-0.87226212418108
2.97825220719439
3.19258995304984
0.346268364533923
-4.91448686578379
-10.6966655772624
-13.6132293881861
-11.20240376055
-4.52032151491185
2.62361698737796
7.20523164709004
9.29625699173318
10.9798267576489
13.8446476378367
18.084691011231
23.4836948154066
30.0526174958131
37.0786118478206
42.1517925707522
42.1919099319992
35.9585568333477
25.4952416213899
14.8483081582336
7.04224625153494
2.11152029991188
-1.88974092888309
-6.18158521909287
-10.1071356101056
-12.5797080360558
-13.6026471622947
-13.6468052443418
-12.2142568176456
-8.08564262996589
-1.02799076779913
7.41547929748408
15.0584034684639
20.6128514172691
23.8874115086353
24.8853300144926
23.3693759020536
19.3464102816346
13.3375568504191
5.92853448073828
-2.40049246005924
-10.8173791215622
-18.2204463712153
-24.1114603276575
-28.732147951047
-32.06719733881
-33.5486813667602
-33.1830750992291
-32.0877202924116
-31.2044702343086
-30.0483869369018
-27.3228981540964
-22.4089270824051
-15.9132841076338
-9.11641373750551
-3.16277170607987
1.38169393027917
4.39643426343986
5.99134202078753
6.89391705119046
8.75336086317889
12.9614695083791
18.7568379926749
23.3257661687235
24.4540462544935
22.7039068176704
20.4992166393871
19.3695080460613
18.615473138565
16.5968388099357
12.7461793446975
7.97705335210812
3.5079847267201
-0.0259827077030134
-2.33011632682488
-3.13763354856904
-2.58221082271295
-1.47912018203318
-0.829344044340019
-1.0723520187141
-1.78766221122468
-1.97022715764856
-0.800729584518949
1.50390290088557
3.6874759854277
4.5833287632808
4.22871684436726
3.81950869032375
4.76400594187134
7.59674169087162
11.0642643870846
12.0973228209029
7.63712691951366
-2.65955405185527
-15.6549783499438
-26.9245434236242
-33.546744494832
-34.9348669671865
-31.960243218484
-26.1636158466103
-19.5887826756475
-14.2910862829202
-11.1744144469844
-9.34961855397117
-7.03270076542312
-3.14203585784994
1.97032636142917
6.86463304098492
9.67850338223748
8.9789237719907
4.82179879444459
-0.961839419020026
-5.96485790859027
-8.74359785107448
-9.17788702152932
-7.82017005798276
-5.23556756592582
-1.6154634351363
3.33947503435803
10.0563854129262
18.4632469630888
27.6509851588641
35.9602055061721
41.4429825660689
42.7505250646144
39.9383154112275
34.2955572605959
27.3327155341028
20.1031127608492
13.3262770172768
7.60416178906702
3.2868500527913
0.337730966826061
-1.60929396637509
-3.1446496305647
-4.86202518263549
-7.08752395837421
-9.96868162327806
-13.7151514551068
-18.2198021182182
-22.3754886374027
-24.4210452376184
-23.3938355319113
-20.0623591188402
-16.302750272894
-13.728330686967
-12.9397158071472
-13.8093206889667
-16.0547952331567
-19.1435365683141
-21.7767888736804
-22.3373615515768
-20.4694447164081
-17.7441119045815
-16.0779747869857
-15.6618573932277
-14.8216041941565
-11.6821714101207
-5.75734102152196
1.78530442172991
9.2403803927373
15.8488361453569
21.9983873764215
27.8627570633352
32.5560793568683
35.2382304947637
36.3229531969357
36.5407395179311
35.1913487162726
30.5376039474162
22.1494536574054
12.1204494865645
3.56745973539701
-1.92440335999032
-5.29932741649024
-8.62239546759593
-12.827583155063
-16.929064485146
-19.250247936701
-19.0540135588193
-16.9929716167993
-14.4044456542837
-12.3032461605227
-10.7730864823281
-9.22353940138251
-7.31264088054624
-5.42025360683351
-3.9937589902687
-2.66479680396618
-0.369426413400253
3.64315744936211
8.99125057329614
14.2655970786902
17.9439371580017
19.2662999297565
18.2701001146336
15.3660317223821
11.436732498449
8.05779056503006
6.49941375072822
6.08629125889167
4.38799621608376
-0.232621312258492
-6.59833196824724
-11.7823763032299
-14.0327266987558
-14.2143006337423
-14.3809309712352
-15.3581176552624
-16.141263785788
-15.6306565429341
-14.2776673233468
-13.3700601603793
-13.0609039363056
-12.0492171606604
-9.28625733714332
-5.23617107627728
-1.26343014257434
1.62223229216366
3.19536945382809
3.72216808792221
3.67214190523803
3.5913441982353
3.91304815864456
4.72431545264105
5.79233307727345
6.90586368456929
8.06347274120242
9.20409556932469
9.96782855023149
9.95371818829133
9.00865482666286
7.08255890930268
4.19666159197112
0.877584153626675
-1.8389274298803
-3.35199221494712
-4.19760980007338
-5.39531898848706
-7.19298574199987
-8.66593720264338
-8.53692286395246
-6.46358684824012
-3.63423358919905
-1.85833656522789
-1.78103340106988
-2.17949917207459
-1.26156341762397
1.63310418549853
5.85991376042434
10.4403118754457
14.5697024371024
17.4522025079391
18.4279381844694
17.5646376327944
15.896562652216
14.8076213004748
14.9694138169911
15.7398913967264
15.6219196894737
13.4235761792022
9.10415514373454
3.71248176070039
-1.32295218607895
-4.97502533195359
-7.01672259567878
-7.86128528973348
-8.14168579549472
-8.4726968356989
-9.30019888571708
-10.5809390250174
-11.7394793409215
-12.3179674970201
-12.5326998045827
-12.8561979079413
-13.273213175158
-13.3238799307517
-12.7312233017809
-11.7396404061569
-10.9360898141931
-10.7522872816006
-10.9657096678666
-10.8074888047779
-9.75281228457505
-7.92925803301392
-5.55913280805197
-2.60698711184275
0.454800463337196
2.08877848409637
0.827128823381338
-3.02225595480469
-7.2928454566069
-9.57162446784162
-8.71646609820823
-5.11836982161497
0.006633184086908
5.43155176978056
10.2640153978508
13.9650732675795
16.4394382975279
17.9622017338332
18.6027567769424
17.8977779746994
15.5951797555607
12.5019858774848
9.94336101346899
8.42381846563836
7.25753640847371
5.30520418598497
1.64995256306197
-4.05709420629753
-11.1812743840561
-17.9915040212369
-22.409012518251
-23.1750162700917
-20.5136667793016
-15.8436290602569
-10.7220523076305
-5.84059387536863
-1.04069255697168
3.80933336802678
8.35900741778249
12.2390852432279
15.4356187625451
17.9224441882514
19.3641199071496
19.5439420816475
18.766726555451
17.4771849125401
15.6755852573108
13.0426352824833
9.60434651926854
5.96299151122632
2.60940998876342
-0.837424335259842
-5.10658278278626
-9.77992437646542
-13.031712432518
-13.452256356063
-11.6129987708944
-9.18013358614477
-6.95940212035423
-4.6399794688878
-2.24122508497682
-0.844447585130381
-1.44981374808016
-3.49730615650273
-5.06670849038837
-4.64825318868739
-2.43484252590675
0.217053643489451
2.22782253410236
3.5161809363389
4.73859400624454
6.62437892829902
9.19799562738543
11.4426157152845
12.1712556505558
11.411028632566
10.4840240328523
10.6221073809393
11.9255569038327
13.6059805874477
14.6136525589939
13.9188107824588
10.753485380236
4.9548220675683
-2.87476312626905
-11.3120301681336
-18.1939304244893
-21.5599320313413
-21.3493763011418
-19.932037064909
-20.2283867265128
-23.2169132144422
-27.5814833585452
-31.5964815431433
-34.7543014150914
-37.325824687101
-38.8742486226828
-38.0725052821043
-34.1690529929723
-27.8715710279125
-20.3487240982594
-12.1208150206039
-3.54146494196138
4.49456663858291
11.360225573834
17.7818998017296
25.1945303163344
34.026995506902
42.8844201737871
49.1220626828161
50.2161271605234
45.2775814408251
35.6735878385843
24.1144762400069
13.2088858965767
4.78223654547631
-0.263429705983781
-2.14970663828018
-2.02615338427221
-1.08535643918669
0.117262793346545
1.51318863984609
3.16845081576191
5.27475755481116
8.06391025756264
11.3533694677671
14.227953807008
15.3052374982058
13.4657002263765
8.65947625771313
2.17122892581477
-4.12923371230078
-8.95614987143835
-12.0295160021898
-13.6745333301667
-14.4788605353164
-15.1859430007966
-16.3060202126716
-17.6010958720985
-18.1889831392672
-17.3399902175761
-15.1581713196436
-12.3974584327754
-9.59885777395981
-6.65360687253519
-3.4537909289698
-0.582931139846668
1.33220660189546
2.82959885916325
5.37427636442455
9.75118506471195
15.1355616500858
19.6039808847301
21.061750535959
18.1066678444679
10.9913382972854
1.84352137370104
-6.72446445753739
-13.4111982911456
-18.4092692476674
-22.0834232492241
-24.0805056310241
-23.7991080286662
-21.2314462967533
-16.9983280033969
-11.6841943004577
-5.58448464316857
0.535426522333432
4.82862613100273
5.59889007341702
3.61831015143889
2.39721370774549
5.21814318505713
11.9276787536088
19.0183441176541
22.7797286299844
22.2002036327322
19.081473911668
15.9139778062314
13.9644292035665
13.0148917181431
12.0377465620811
9.76363533112265
5.30570525268881
-0.989904600290614
-7.36917172310278
-11.683578996507
-12.6615959380213
-10.503789567396
-6.79491692622929
-3.70696676345621
-2.49688879347026
-2.43666744517099
-1.49561415887335
1.68751388100296
6.31388513738505
9.63269411400621
8.85708278379968
3.50041713634627
-4.07794130554917
-10.752831242805
-15.062918149047
-17.2800295051288
-17.8115663100514
-16.6970719507362
-14.5698176812394
-12.8752940134614
-12.4675658464421
-12.304673730464
-9.96943677944451
-3.86341919770503
4.67533464833912
11.5723901449002
13.1290691733473
9.34673234576694
3.87283042371583
0.566756840741936
0.39789203562095
1.55762578456294
1.92002201813397
0.988366192508464
-0.230393439881087
-0.533515105848638
0.646019438170541
3.17701178842419
6.19172699750566
8.19844199038637
8.06692751450837
6.18161707875044
4.22228937483321
3.79774691164771
5.54827828983691
9.08973391915214
13.0775668418609
15.5614104568721
15.0952587474647
11.7372746189133
6.82405089551752
1.88750365052839
-2.21455799807027
-5.55710596770376
-8.81006370204823
-12.4098698170326
-15.9366674938183
-18.4375927839903
-19.161927099494
-17.6104656786916
-13.2300361871366
-5.95246731337951
2.78841574287529
10.2804013129558
14.3419008193178
14.9474161886315
13.9828812267848
13.4474972140282
13.9822549678136
15.0179319987908
15.7775038823407
15.6338786241529
13.9261962521026
10.344510955865
5.54438413872673
0.687024289904828
-3.71371579253197
-7.95824892894358
-12.2262752236008
-16.0693280549602
-18.9520194216674
-20.9381758589388
-22.70745783055
-24.9644728739288
-27.777931599561
-30.3965447852694
-31.5783320120097
-30.0064052474896
-24.7920146757369
-16.3116870814418
-6.59404497989729
1.81835231563867
7.68266283305605
11.5167064369693
14.5385935307154
17.7212219774942
21.5074900128388
25.4307967081806
27.9869807974403
27.8433616886774
25.5057543450469
23.2262131199205
22.9909175692771
24.7380723677224
26.3733594585067
25.3321251060193
20.4711088195445
12.8241431018147
4.53396372592308
-2.88427735109836
-9.15660715110371
-14.6045997695254
-19.4945187221929
-23.9486837321521
-27.9242369193946
-30.9764682696914
-32.2100780517973
-30.784360314514
-26.6336235322851
-20.6122557620316
-13.8788366832865
-7.32126556160118
-1.53202785636198
3.25946312491344
7.50403707132974
11.9112345235993
16.2646018192211
19.2777494469685
20.004353131142
18.645222167732
15.6300658450238
10.9627686467487
5.20921119996762
0.208619046794346
-2.33943447109854
-2.77635994727105
-3.15818821277708
-4.97351237101514
-7.68117943055638
-9.65569642818945
-10.2168116932137
-10.2824567715659
-10.9644659918161
-12.0315594196944
-12.1848266310431
-10.4095089269738
-6.45446313184842
-0.49990216095409
6.65268240748906
13.2327855079915
17.3342843139189
18.3662435304924
17.3018535156138
15.5025928456119
13.5574575364405
11.164974691357
7.86507091145336
3.72410260321753
-0.774970793216619
-5.25002589641687
-9.2535415944201
-11.6583584666265
-11.1163145216389
-7.52827950072569
-2.43043153862857
2.41476969806829
6.28774907169146
9.21396614484853
11.1295624422429
11.8999757902186
11.8729125996509
11.7738838930085
11.7077304671934
10.4439218471183
6.25090016355995
-1.19232928901488
-9.90173951105813
-16.8514091614898
-19.9857909872707
-19.0562144502041
-15.3458682237113
-11.2650826897328
-9.51577438870861
-11.3442240467603
-15.3077394659959
-18.331811960906
-18.2877424131631
-15.4972205772901
-11.8945496211533
-9.05064917769763
-7.09386997765867
-5.22734217228438
-2.72625774119163
0.780602479872291
5.44210123211408
10.9713876256657
16.4959263347323
21.0906585964963
24.3296325735121
26.0612276474561
25.9873314760388
23.8384572537266
19.7750759362578
14.4382685088563
8.76061818986472
3.61888104430039
-0.686418117869671
-4.5171191283042
-8.14820839522355
-11.091212935725
-12.4462049632841
-11.7391931552152
-9.21493600285964
-5.57620152894095
-1.65895527712016
1.85238606122559
4.55621975289521
6.0782779640476
5.84207225862456
3.51791733049898
-0.338932238753574
-4.53957838724925
-8.15153617859269
-10.8130137130402
-12.335405137338
-12.486473207695
-11.2378575588799
-9.00191459569052
-6.50957018385022
-4.31233631416713
-2.28406049328144
0.179260138757699
3.26704664530953
6.27338501170648
8.17742188752571
8.51452738957546
7.64543637166016
6.4245333527758
5.57760374489231
5.17844346489796
4.84550951249547
4.5500203487877
4.83853127479105
5.9995867298982
7.3650635800716
7.71837993042713
6.22883886009346
2.95041806611498
-1.38269093906933
-6.01124107763997
-10.5766214571714
-14.7126079959287
-17.4620263339627
-17.8227489890524
-16.0152779304154
-13.5346093727114
-11.6903460192611
-10.6716515177853
-10.1366792048999
-9.74000987097397
-8.51320223154582
-4.61047529549009
3.157162766988
13.3783450162296
22.1803847404076
25.8221638588837
23.492258367331
17.745742824453
12.2925978647469
9.39559867527671
9.08427385256572
10.0962322235402
11.1153932372801
11.5359601003215
11.6671574223802
12.2782748519779
13.7448204530913
15.5315449675657
16.3597207146061
14.819748066164
10.1241235712552
2.53505924510975
-7.01933349124698
-17.6389964966391
-28.3665318021571
-37.595254007394
-43.3563336591703
-44.482953251951
-41.1963375383925
-34.7174904362671
-26.8237514538891
-19.4808613739272
-13.9070319085145
-9.62953202782555
-4.96677386283264
1.21764103169237
8.41284973302139
15.0847983180437
19.9761830785341
22.5993105986463
22.8209250353632
20.6059409043624
16.6076248272601
12.7494076780584
11.3118459562053
12.8783665328356
15.5679323457698
16.7526765334925
15.2796284082991
11.780111875944
7.36856674994278
2.71204477435386
-1.80047286167882
-5.74662133074985
-8.97036571521029
-11.9290745980723
-15.1913458269453
-18.3737938699782
-19.8468372850978
-17.8429380419161
-12.0092963297468
-3.99604864074151
3.42177807873723
8.13334964319361
10.0637940600084
10.7492778842922
11.4146134540067
11.8674229632978
11.5634161145385
11.0480907838294
11.4819936089167
12.9315079293114
13.8543333346103
12.4464430025617
8.29846599006097
2.76751331318596
-2.18299544209702
-5.59374135421985
-7.95536130188892
-10.0369265057858
-11.7174927838688
-12.4298576304933
-12.3079276037758
-12.0417080400025
-11.6247286972222
-10.0074629994278
-6.3386305045699
-1.25349796963873
3.4077696191592
6.18532308951405
7.04052855128983
6.66298335018731
5.20276007463152
2.36924567211706
-1.39853864198978
-4.81007577673437
-7.14476799467874
-9.27043451478835
-12.8394930510019
-18.5530907125948
-25.1948561942437
-30.2280146810663
-31.5420717431921
-28.9036514380198
-23.6479388737387
-16.9537500995665
-8.76835730488084
1.41077830002226
12.9590952571408
23.5953835470613
30.6227302154255
32.9694434243144
31.9920565848859
29.9262535519398
27.6205140445367
24.3326065639741
19.6501666878794
14.6455304606631
10.7594558946246
8.38861061194832
7.17764037942076
7.05142802555125
8.17205059711708
10.0739903919596
11.4615330262507
11.117344027671
8.99152122282215
6.2778201599769
4.25044003221686
3.04637697056273
1.73688942397695
-0.520763087825763
-3.64031459485614
-6.82574535183082
-9.41167506517128
-11.4469558441758
-13.3887779783112
-15.1753197562293
-15.9541444111647
-15.1372596810676
-13.5005998345301
-12.7389988976512
-13.851583615541
-16.026434744194
-17.1118972888369
-15.6298402904468
-12.7915553584897
-11.930588013419
-15.0726236725536
-20.5108072841347
-24.610644554775
-25.4084889635589
-23.4367757432322
-19.7393841850361
-14.6370862530685
-8.43442847575857
-1.98005659736019
4.06262668126332
9.87274994681163
15.8463842625943
21.4287927809766
24.9677478167556
25.1031484697469
22.388023465576
19.1733991278676
17.6009535760712
17.907400702125
18.8114612691957
19.1324527740626
18.6984141622494
17.9656390666692
17.2255365356424
16.3639597722842
15.2914216774612
14.2875302586793
13.6420778626175
13.1205916119351
12.0847186322096
9.92464924565522
6.09122533494124
0.219305231747717
-7.13031434677831
-14.2391939552166
-19.4749004086514
-22.591768473538
-24.3569504635589
-25.2869377897726
-25.2765362269078
-24.1013459961218
-21.6414004514739
-17.640188103686
-11.7296850838997
-4.03511870917214
4.25282588719574
11.2636375854036
15.8065880691957
18.2962483875037
19.9671499730388
21.2151308557654
21.1305273368487
18.6527120420687
13.7365522550622
7.33545144236087
0.607796617909236
-5.78840366092837
-11.8218366613161
-17.5793012852267
-22.7460675726449
-26.7681076320982
-29.249028694187
-29.7415280548846
-27.4605454878086
-21.976091293136
-14.2855587795182
-6.66402554342237
-1.16618606006888
1.72780027739454
3.14644771659125
4.67173083312468
7.05210615605415
9.90137120168776
12.4165840368531
13.9670541257106
13.9859058996784
12.0363589340077
8.52455992292838
4.97922181500232
3.10390651647086
3.4987723431041
5.2837615865357
6.79939910244526
6.81189093250185
5.38337402283411
3.64822469847843
2.69978549367698
2.78751404979057
3.45428702736868
3.98554969640305
3.69906814164424
2.43712159974715
1.05729927308221
0.899783639169963
2.40510925452684
4.5692050748895
5.89998135735234
5.56638776846297
3.59726766827682
0.483858791111272
-3.07523941180362
-6.22552710150644
-8.17163514396929
-8.66925761179768
-8.2898447538053
-7.88808202899478
-7.71099929142812
-7.27865840370704
-6.17631663198962
-4.66844005493428
-3.45576286680792
-2.98808495230307
-2.94713528628204
-2.29283006571368
-0.0595141802057752
3.68831608959981
7.82200887322905
11.0178524473994
12.4007302163024
11.6191324608452
8.96343070143946
5.43727361952999
2.19582192914043
-0.166230216024599
-1.56441313368387
-1.98280315299549
-1.57610154673705
-1.03740953836512
-1.3125418356106
-2.80163762585006
-4.95177038341467
-6.53948910309411
-6.37293659291746
-4.13592101764354
-0.793263241658076
2.04951776654117
3.34147295717514
3.1444844848821
2.27182602921806
1.63465688626891
1.69381111684484
2.17876547098528
2.33729080224174
1.5650532376891
-0.16217451689451
-2.27926085829968
-3.94308576317726
-4.63029114399961
-4.61690157933652
-4.65393195148555
-5.10234023842392
-5.63911968566917
-5.7590573110797
-5.24212319475057
-4.25393055255653
-3.34666395426605
-3.21376514796818
-4.10473343440929
-5.5483068885177
-6.73981217874616
-7.05269237023018
-6.34765944663023
-5.21185729336309
-4.75919001929256
-5.66563090745056
-7.38355299852759
-8.61557907802268
-8.39113204568389
-6.34771401708237
-2.32065038184645
3.60941238685763
10.5343716713377
16.65930572409
20.2462180586169
20.810470045061
19.4254825393981
17.7375375590572
16.636938976931
15.9463927261568
15.1082060756293
13.679858645104
11.329439590623
8.02971461975543
4.35747360108106
1.17112932045732
-1.01736844200815
-2.1185862552089
-2.20049954092338
-1.52251194733249
-0.60424945527769
0.0876172562020051
0.43095638698177
0.518252267279349
0.371239000372704
-0.193904005988024
-1.44244709921939
-3.28539929751257
-5.02882990471454
-5.97796569227806
-6.24141861809472
-6.34677140933843
-6.04687242306627
-4.23577255621513
-0.37928506034232
4.3774161425844
7.88741657006037
8.78665983781491
7.56124601337077
5.78974901031371
4.24479408999398
1.90487174109267
-2.8842726901932
-10.4457002088319
-19.3206372563171
-27.4764110566163
-33.4180390970493
-36.4422927802645
-36.6054358758172
-34.4591634399962
-30.3476464450755
-24.0725033444806
-15.6000621243532
-5.87849081339234
3.43966326575008
11.019958601585
16.3749358488805
19.4771092310679
20.2066027341216
18.5312154849144
15.2220647012018
11.8531907001141
9.62326326279243
8.4479640769446
7.66845518781509
7.32623104265052
8.08605163051277
10.015008841176
12.0488792432451
12.8272722340404
11.8658769629891
9.87563484409945
7.94647206783169
6.42827848946729
4.82697449088222
2.85270660378098
1.07665549112388
0.174936728513652
-0.0845376413292402
-0.603860222918014
-1.88318198260079
-3.51578860914617
-4.57599288347812
-4.32376327298752
-2.78597629582003
-0.779731088846552
0.86456178843373
2.05871838874979
3.17028541917719
4.21061210821957
4.7423337098568
4.45323359415298
3.46188143714202
2.14030829999799
0.840736070194996
-0.257227107510542
-1.07311547696213
-1.41252157191769
-1.0427967843978
-0.0730090105410673
1.02034234629524
1.86582737935482
2.44783271836168
2.86190412407374
3.06848338044474
2.83515066487954
1.77493038728607
-0.267024589694268
-2.66048690321159
-4.23813743118625
-4.40025258910388
-3.68595632035619
-3.13986586538527
-3.46050952354798
-4.75075790946454
-6.61491349588998
-8.38970244097999
-9.56870048161461
-9.98846339085237
-9.50175719568895
-7.90774577287507
-5.57587845440353
-3.60584236155415
-2.74336616224449
-2.50007722707888
-1.901788710655
-0.746889068576313
0.396585123625666
1.11487731076993
1.54184483089372
1.91587166879467
2.05021317822502
1.32405995532271
-0.795630883730996
-4.23555692160478
-8.34948269897162
-12.334524114879
-15.4532686731218
-17.020555720233
-16.5152292874785
-13.8253188121466
-9.39239782945843
-4.14881931345348
0.87225012880004
5.15237476467434
8.84939398969477
12.1673031323925
14.7947361805224
16.2133106428421
16.3188810747075
15.5330348574171
14.533168606495
13.9212534062046
13.793506283781
13.5486679095353
12.421028802116
10.2386507133753
7.44509818800361
4.51129419342019
1.67379359736201
-0.806178381593249
-2.47268868958652
-2.8638831437298
-1.83409953979344
0.198150693349122
2.3486488600874
3.86177298375815
4.60235769366775
4.80465265387354
4.59234407877589
4.04082338370569
3.39044678286512
2.8101213809235
2.17073988021845
1.31498437344609
0.351211097318712
-0.437970229439454
-0.785888157193541
-0.583185135892965
-0.0810215190405721
0.123898834675655
-0.453586778502016
-1.75325235778831
-3.2176258397407
-4.21410807958632
-4.60900388201301
-5.1128598554739
-6.74636881109319
-9.72645433459306
-13.2551038098643
-16.5454955728215
-19.4621434667488
-21.9368596691781
-23.423957645206
-23.3080740887338
-21.4390403563533
-18.0774258529836
-13.701330063245
-8.99445535102435
-4.66014119285621
-1.02400614114742
2.14915273479582
5.50354415857107
9.68720814197368
14.673224295253
19.2933281264623
21.8260337497491
21.3706437809773
18.5918428328182
15.1364437228772
12.4318133196818
10.8854668112552
10.0125472604314
9.2663211576143
8.57051441593531
7.91298083926012
6.81944794026753
4.70512467531421
1.56165832145042
-2.03475828590298
-5.35119208011274
-7.72415835220185
-8.77091729749853
-8.64555445049367
-7.77245936368974
-6.25825633830928
-3.93427359662723
-0.880472434423495
2.55524463951372
6.0758910314185
9.25255531237268
11.2140585207495
11.084831995761
8.7723368065169
5.12715890035344
1.43518046460344
-1.28637907114855
-2.9839412913062
-4.78096094790803
-8.04345271453215
-12.8668662583081
-17.6806301710899
-20.4967107866027
-20.3918057513593
-17.8649041776277
-14.1199499360941
-10.0666801928435
-5.84122017190994
-1.24402417548512
3.46907981546164
7.4525122925487
9.89397500380826
10.6233755199719
10.191558056458
9.42517723430739
8.77861135997347
8.11190931407316
7.14319251494234
5.86459473936401
4.37496160293077
2.69860849937768
1.02013629905291
-0.292946228047798
-1.15246127065131
-1.88313031392843
-2.71174102665374
-3.41025533264295
-3.52585915073205
-2.77885632920228
-1.30529812630322
0.384058266583643
1.85158902123122
3.10612598882973
4.24512104594347
4.90637338189119
4.57521229218619
3.35614672588316
1.97642852474354
1.07640825962241
0.827980046337644
1.06085572953696
1.39140546526459
1.42926846633141
1.18735088658936
1.07174162542571
1.2727020028637
1.48590255583689
1.32065625822339
0.577116523551092
-0.840184728651655
-2.76464017485861
-4.59086859034058
-5.79815932275896
-6.63224959862912
-7.8423027674084
-9.73003148552776
-11.6787538661795
-12.5550494095547
-11.4615587387767
-8.24674745182082
-3.52143341408445
1.64499716662479
6.05243050970264
8.78629190242825
9.75439025521007
9.74499269347481
9.69036981121817
10.0138675056325
10.7501288600651
11.7241195301672
12.2863182285323
11.493131979553
9.08362137236156
5.9517209949164
3.34887488503681
1.86430350841604
1.17712078668289
0.366187167983472
-1.49611265255367
-4.54203720913175
-7.93932386657093
-11.0100319178676
-14.3340019772043
-19.0562270079695
-25.1056087417033
-30.6562551648553
-33.3981649326897
-32.0533185611035
-26.8464653468631
-18.9764858541648
-9.80523969150739
-0.435892963534961
8.24295792999988
15.5000052579745
20.8126412038033
23.7900376544925
24.2062211114869
22.4289993448149
19.612401873258
17.0497894035714
15.3835654817081
14.5436923048299
14.0794512953421
13.3501788866665
11.8734549086458
9.87676695145494
8.25277779487192
7.66127081051919
7.68998746800081
6.95588778556372
4.16226039124712
-0.643103634456564
-5.84399229600904
-9.62462441710553
-11.5765610403033
-12.6237548096484
-13.4837890094194
-13.7079425081111
-12.2380969116074
-8.48826140632152
-2.94354000916822
2.83531113006165
6.80977182248574
7.53369056415494
4.90850143757483
0.0901385875960318
-5.0266967977774
-8.48766689583529
-9.36846741119207
-8.5945564230526
-8.20814168477006
-9.5110720584351
-12.0801700192255
-14.4673199682229
-15.4245625015658
-14.4326977362372
-11.5179203252758
-7.03770921546798
-1.80729833047048
2.90511411354533
6.1238053221021
8.04211758926564
9.75023760122198
12.076827645238
15.1273989626592
18.6938280289831
22.2581054257866
24.6573541490689
24.7005848231742
22.3581259733071
18.7684393735878
14.968319325701
11.0084042363716
6.31954267933003
0.678222129602608
-5.221097965869
-10.1528492455164
-13.4290729347244
-15.482337046045
-17.2403414017994
-19.1984658737822
-21.3668715534229
-23.6127554222946
-25.3620354453522
-25.3192543944123
-22.4814651675921
-17.6108310789621
-13.0521257830905
-10.7889783171319
-10.8872653642446
-11.7762002550446
-11.5930982431454
-9.07633530863841
-3.64204691921664
4.58296633915142
14.3933542417883
23.5507990894117
29.8354542038504
32.2926820315212
31.4565514751821
28.5508869970488
24.6133087026938
20.188131295235
15.605377510234
11.3676816049069
7.95271758648816
5.18948657065041
2.42020070434477
-0.37866273746773
-2.26308580770708
-2.57938380527828
-1.93227336288844
-1.33566959572489
-0.889682692192199
0.177995227879883
2.45758548144292
5.63072434159175
8.5008226249445
9.61939351326897
8.23823300028707
4.79092110637594
0.266082414876595
-4.74252078600693
-10.0735083378223
-15.3897239627406
-20.0303405118036
-23.3434946326507
-24.8372840348977
-24.1728953345353
-21.3102310097009
-16.701283157661
-11.3814203121886
-6.78049575580656
-3.95361248621469
-2.72715241435507
-1.97581436130471
-0.99374158068214
-0.292933206651734
-0.890729307606685
-3.04367792285401
-5.73705103249045
-7.26953695248687
-6.41762899188768
-3.22905402752147
1.13829830565744
5.02554222706844
6.74752492793871
5.39157205049986
1.92103046898744
-1.06616611401419
-1.48592461310996
0.602341401407427
3.81840374023733
7.08742477643377
9.80718117768241
11.2121630209712
10.6291436892444
8.3129324652475
5.54654074480331
3.90230511372234
4.42469997399977
7.17344816779748
11.2796809858665
15.4645122041606
18.5536763398147
19.737254052291
18.905818915727
16.9167200490223
15.0028473306124
13.5899404889332
11.9633752725104
9.15491439689866
4.81459276506266
-0.767639774880319
-7.0851549907459
-13.6838070467936
-20.0765835261622
-25.5095149880739
-29.1648152497195
-30.837391274085
-30.9775456613934
-29.65830422445
-26.0751319432973
-19.7664624222271
-11.8963831054928
-4.54514944465535
1.09366169985488
5.27609517669736
8.70730444034137
11.5464721772607
13.4615956203969
14.3236026689215
14.4827445790142
14.2192466066274
13.2655708432105
11.3719822748832
9.19172164247509
7.95884769764686
8.18159415760457
9.11795062015962
9.57218367106288
8.76727735892701
6.54704265514885
3.39211036723545
0.346409715400564
-1.64067916965645
-2.58513028153376
-3.53970643611519
-5.73516399583542
-9.52825097015128
-13.8507208363224
-16.6499768141111
-16.2899784978186
-12.8333185334206
-7.98380700338099
-3.79605321079789
-1.33544374330985
-0.22384743906635
0.774912801502894
2.62258637576339
5.15995777995829
7.06318843358901
6.51922421729203
2.39306655636022
-4.60751290830326
-11.9726841407624
-17.1695244593479
-19.4085056684851
-19.340367598269
-17.4630133661958
-13.5461608654832
-7.37010913459025
0.57835559031029
8.9378152332346
15.7305244254023
19.394203552435
20.0087330463202
18.9613549322411
17.070783124865
13.7434127548978
8.43486962697557
2.29818216003654
-2.20135719707457
-3.11923388028181
-0.467397562093657
3.7517070636968
7.01036418896983
8.22357140956356
8.28650001625573
8.58179275123838
9.31349266420894
9.44178786061468
7.82458826526209
4.27873785163345
-0.107748279402233
-3.58693319286747
-4.93590968988783
-4.22106953514437
-2.53346151087422
-1.16385478422985
-0.922285629259413
-1.87398174133804
-3.55659777901342
-5.4404635667497
-7.08994963012427
-8.04905713028007
-8.04679979131038
-7.37070830581264
-6.62949347072908
-6.12738944668923
-5.80215050970365
-5.64427669400986
-5.77074391084343
-6.1340170544039
-6.43757289869981
-6.4028699287622
-6.16190072842018
-6.35377608904287
-7.41387053441575
-8.52000698859928
-7.86743735646561
-4.71816842344313
-0.809918968126024
1.20717721682368
0.80791129466382
0.391859440132076
2.83336414433974
8.53480959666477
14.9404893876717
18.7392309179796
18.5317535938329
15.5140592568914
11.8857461376871
9.07649403488825
7.53958996780068
7.42819026835049
8.63347074615834
10.2278246511174
10.4652104326786
7.75238449161616
1.83615509926502
-5.88793753921162
-13.3336916603929
-19.0159305035833
-22.3685312229976
-23.1995427543175
-21.4785269498655
-17.6330014476032
-12.539071836967
-7.21261492921233
-2.6632639199573
0.522048882156596
2.90012134070259
5.75880469376696
9.30315146172726
11.8972271270537
11.8908007127048
9.73895486488153
7.61570591514777
7.31367882057099
9.16098847927668
12.605176192507
16.9365685195913
21.1905702318279
23.8391832565614
23.2614370567897
18.993691336318
12.4165163163067
5.70492936051069
0.0429384404448725
-4.79822131851654
-9.43085973027092
-14.1307490377558
-19.0195416098515
-24.1847502035512
-29.3534173618977
-33.6717451442732
-35.9190985672524
-35.1000770703445
-31.0973010352292
-24.7191150499347
-17.0637599504545
-9.17198597072474
-2.22101442265423
2.910868567039
6.74254888423606
10.9713979442148
16.4393569173145
21.8238631161477
24.7922139088985
23.9782867332894
19.614839222466
12.9363751857259
5.54040081106433
-0.904873255278426
-4.90583101261713
-5.61993469920838
-3.4416075153064
-0.0366977818426164
2.67477490511267
3.90918780344161
4.44680409916515
5.76657593549845
8.76130646420504
12.7950548668197
15.51417809285
14.0276877846458
7.23034553558903
-2.80442865336415
-12.1380068189666
-17.8121094714353
-19.3830308520947
-18.0798631051299
-15.1630366927064
-11.4231290728755
-7.77593872673809
-5.24449561401459
-3.77309947135703
-1.79162757385964
2.1134151026396
7.48401940990721
12.7717079878452
17.2576363710869
20.9855927177889
23.079727857091
21.5426164260784
15.23626478304
5.61505685478283
-3.72597055143107
-9.36307070079814
-10.4521099042215
-9.1442142823272
-8.40433768478288
-9.38457008345757
-10.9963933624842
-11.5118913189686
-9.98022389292979
-6.46248158360197
-1.79183634823311
2.66988442014275
5.50139810890631
5.85691468774592
3.8990901597812
0.801833402087758
-1.89693016211368
-3.38432733995256
-3.95583833421171
-4.05612546522414
-3.28920326021864
-0.881264224830033
3.053647176952
7.17013616379255
9.95607076704809
11.1148773784576
11.6593268321009
12.224309448878
11.5305618792137
7.46381640408037
-0.142983864525073
-8.6637370258522
-14.8464816354829
-17.1341117747166
-15.8670375603036
-12.1614073257025
-6.95255497468241
-0.723820622602216
5.96563936728318
11.7627852545141
14.951166509114
14.9815500317285
13.1631143028853
11.493887920783
10.9171512526471
10.6353704858828
8.88391832278682
4.55785464231915
-1.61083321811878
-7.55474315913487
-11.6394678616232
-13.8094055450464
-15.1686966402116
-16.964484401516
-19.9441054134706
-23.936298514732
-27.6360324282666
-29.1373750937995
-27.0818184457052
-21.5961750592809
-14.5198012526345
-8.59224249027263
-5.60250028088627
-5.02344678616039
-4.90060454707464
-3.93693254323688
-1.95062608412033
1.48569879513873
7.57783100327406
16.8898659596023
27.967749429321
37.9539835700262
44.5097477905691
46.9200065144717
45.514647398756
40.6749274251682
32.9119155880744
23.4980819030485
14.0995063192218
5.63201016938258
-2.01360469484642
-9.23815689336126
-16.2758163122489
-23.1305721754995
-29.2161144771947
-33.2999596309649
-34.5082070210342
-33.2145200331272
-30.4235129644305
-26.5558028547934
-21.3541848396591
-14.7711765701434
-7.51720446160517
-0.82293096913806
4.25297131484865
7.6637787799419
10.676848602265
14.8794555354606
20.5518334212179
26.150018246017
29.5072197103863
29.5778561440887
27.1205882692892
23.6657617940229
19.845902533124
15.1250815874714
9.22763347235099
3.09001224028759
-1.98406703102857
-5.45262661351919
-7.51633128135245
-8.77316624305094
-10.2819111432061
-13.1403615662751
-17.3634724843604
-21.5217084686775
-23.7774280876874
-23.0967792082782
-19.5643604086823
-13.9326089539352
-6.96317905799926
0.853630154108903
8.96742877086215
16.5288288708815
22.8231591955865
27.545157079546
30.1560268904929
29.342701503864
23.7169217717677
13.0125358602702
-1.52258826677941
-17.5752200466294
-32.5352323028844
-44.4232041462709
-52.4846997011576
-56.7750232366606
-57.3106749610615
-54.0422002671831
-47.4565800162476
-38.6474597210684
-28.8275320142577
-18.9216356782386
-9.13186568552511
1.35350687506155
13.465845381686
26.5204279608414
37.9503943095827
45.3765212003947
48.6140987361863
49.1850621784012
48.22291586132
45.5661149737959
40.9313339731685
35.1838044626142
29.7677224134838
25.1755812278855
20.7902036925445
16.2333814529663
11.9914247159763
8.4925167569506
5.43985511836155
2.44072400419055
-0.443860585164316
-3.15934837777071
-5.99119912801262
-8.91779639691814
-10.9660013546773
-10.7306612561606
-7.75974308083749
-3.41454502087732
-0.0476753765172208
1.08847417941181
1.07564420447115
2.08455299038456
4.87995710215643
7.8700628276241
8.52272333178345
5.40270603685327
-0.864300521643818
-8.05295793127918
-13.9378010236246
-17.9989877773939
-21.5385368321005
-25.9531428123293
-31.2173027037892
-36.2981156611791
-40.7486061652513
-45.4766077439737
-51.5645796914272
-58.0007030130518
-60.998840925437
-56.6725326331285
-44.6985746017412
-28.5842543475386
-12.1895158480761
3.08647967630474
17.4885625374441
30.5104409291382
40.3394311143592
45.537036137431
46.6362015608656
45.6548126061225
44.026429575904
41.4365456669395
36.969603013686
30.9475765285023
25.1492318771914
21.5330720609732
21.1264472090109
23.6603640410458
27.6121461434852
30.7822611614552
31.3400695132691
28.3668306608522
21.5722384496513
11.2708710651819
-1.04850345481626
-12.9184172871241
-22.2966242825008
-28.4781804892404
-31.459826466385
-31.1374738896486
-27.8362829525948
-23.3502460383599
-20.3951985653935
-20.109034526502
-20.214513342369
-16.7257328578405
-8.11803119739744
2.67756551022148
10.8400932205688
13.715440764879
12.0839020773794
8.33603177510622
4.34804044422426
0.901156414441506
-1.74126094239792
-3.30690959705972
-3.69886940514076
-3.44552056644356
-3.50034374946524
-4.45736327629751
-6.14423490519825
-7.86673952714299
-8.88586587613495
-9.08911730038399
-9.47733244232978
-11.3024944215874
-14.2257029875511
-16.0840707898949
-15.1714857732399
-12.0811475361737
-8.46992783901442
-4.46754786459831
1.74046176091447
11.6010614634363
23.7706029130892
34.1574272656005
38.6516276204051
36.0859348043068
28.4165543579738
18.2782515184318
7.34860731017078
-2.81544660952561
-9.97290424985516
-12.5340619109482
-11.1559745827344
-8.09314121873909
-5.18006974479563
-2.9577785449241
-1.36048840081592
-0.328238235395519
0.486810318399614
1.79382325155974
3.55189460097173
4.05209886430505
1.19050141793453
-5.05173257019744
-12.0704408848181
-16.6707537307286
-17.0873517722974
-13.4638818287696
-7.60734832797661
-2.23232055003267
0.822532900839391
2.03767555778427
3.33442231084248
5.77823692209929
8.53466670905258
9.77655397952369
8.21917340244105
4.18815960117344
-0.38261204160509
-3.32344561961367
-3.84386144855497
-2.56067281870029
-0.268777275245878
2.43003759142638
4.45031657127265
4.41860507180177
2.02273283319613
-1.37664308478191
-3.67372904292026
-3.35927367670591
-0.253790499044904
4.59902403931153
9.7617764155492
14.2802347288723
17.8113748584393
20.1321386326335
20.6978040983017
18.5924484061279
13.1145558037128
4.83494066980535
-4.20118526242894
-11.9795192340187
-18.0658454482273
-23.2409873663654
-28.2065900491858
-33.3411552415172
-38.9607657924314
-44.637920587794
-48.4175740317806
-47.6060058205518
-40.7617384220872
-29.0665443818041
-15.7987198360321
-4.05303564250054
5.38957974492346
13.760977033354
22.0568867867913
29.9339830680104
36.8121504076784
42.6369858735504
46.8348970740658
47.7253003805515
44.154236979403
37.2874099764976
30.0537713422552
24.9593572162186
22.536167938653
21.4213256400738
19.7339403226872
16.665003748716
12.8449479797632
9.20824000619536
5.85599529452088
2.20597339586125
-2.11412880702574
-6.89388656644541
-11.7942509476687
-16.9027033048669
-22.6290175909826
-29.0821544576158
-35.7958891298365
-41.9796811723047
-46.4762458574152
-47.5258671714728
-43.7148972328882
-35.7970599163958
-26.6997403965676
-18.9300295443545
-12.4491280730091
-5.47067989464742
3.26373879572028
13.1739840677035
21.9664879264831
26.8118888188853
26.2134471133226
21.2195608642981
14.6071210362005
8.91892687149103
5.4588623136062
4.56216218007515
5.9225091828603
8.66949834516299
11.7155013001484
14.1703726158367
15.4286748117038
15.2319856565547
13.7789741504531
11.4385320002307
8.29850603358683
4.23296964612406
-0.69553876207914
-6.12033976097736
-11.5188146411202
-16.3466783733529
-20.0957862690159
-22.1753470838087
-21.8573386634586
-18.9118921014467
-14.4572133539629
-10.4501689772271
-7.91631234237105
-6.23877030968132
-4.43151275652081
-2.31946540340708
0.0582098647052667
3.59577254094254
9.81536450464192
19.0845738143164
29.2156800749019
36.281838256637
37.4245306420258
33.0371087929442
26.1040848698055
19.6540293354908
14.9775450121573
11.5392935498335
7.658110627182
1.3995007318982
-8.22854830814838
-20.3163195142427
-32.2195950368632
-40.8406629355571
-44.2237090289124
-42.6153696911886
-38.1696166196002
-33.1289750145984
-27.9335983440735
-21.1722839166963
-11.41222974089
0.915022506203711
13.2273958121339
22.3495662482273
26.6412469013894
26.7525597670265
24.4427943351116
21.1154267765428
17.5934233366607
14.5366359655132
12.4164737180645
11.3645990183315
11.4012021677589
12.4662439723179
13.901441103709
14.1671869755275
11.4133473108586
4.5695784632884
-5.70227735574798
-16.9804428940803
-26.479521095691
-32.7732783403774
-35.9390097805613
-36.3036268282188
-33.8309561847895
-28.5926023951131
-20.8258030375501
-10.3577261187428
3.12867081861783
18.7804515720618
33.840736880555
44.4621744552986
47.4886877571073
42.223737623399
31.05219473109
17.9703723207735
6.0002107147702
-3.94041246830357
-11.8989399962339
-17.4562016660922
-19.7409298343258
-18.4519677583095
-14.5287428520779
-9.6838114136091
-5.15946065017985
-1.13209562125846
2.42559926561401
4.75296841203894
4.83012814265941
2.7215329244792
-0.200024426856864
-2.43080746451279
-3.55142333719745
-4.31652424721724
-5.48652814676076
-6.54363085288306
-6.0641032250535
-3.63960928942222
-0.695499570371952
1.12203369766131
1.67602392796183
2.05363631013917
3.43938935300249
6.63157381160032
11.4399089143845
15.6933805632943
15.7717591903598
9.3612763944749
-2.21947024001878
-14.7804880764689
-24.3060569785141
-29.3156653198869
-30.7100115498564
-29.7482261937666
-26.4120701814543
-19.8441963312915
-10.0249051309657
1.59745334724726
13.0115233111176
22.4681548837579
28.5434985681521
30.4755329736384
28.9825916170524
26.2020670726404
24.175890583121
23.29426824341
22.3670439015932
20.2423754346787
17.1662772968696
14.3651184616436
12.5345412646368
11.2293144949001
9.64483947829748
7.40480605712678
4.58174437874906
1.50904743067478
-1.4595222279864
-4.47957483354822
-8.27256805610235
-13.1353233471897
-18.2410210322439
-22.5160576574312
-25.9534730889834
-29.5680433357769
-34.1149908038238
-38.9417334250168
-42.0170926703528
-41.4693715019425
-37.5834217719728
-32.9037719571463
-29.7081345363802
-27.6765940717779
-24.6649997243293
-19.3168256489366
-12.0317176219541
-3.57943134771405
6.27213478420822
18.28918115332
32.0303241712968
44.8519741760903
53.1533791221746
54.9083207512744
50.7507070123856
42.6979089011888
32.6258956477274
22.1863156348003
13.1972293589238
7.20414615356464
4.63067918470389
4.50031005449491
5.04589074244968
4.95709789936475
4.30079678175484
3.95356818052635
4.02666286752729
3.27581885317465
0.219650689515187
-5.43679672732982
-12.4336565315071
-18.7839662388446
-23.206909852752
-25.8840880336745
-27.4658450699273
-27.5143056835749
-24.8218359577925
-19.4355194961985
-13.4367026921642
-9.11651964186853
-6.6998404909258
-4.16068135902138
0.86745838970005
8.97266492740115
18.4106621231842
26.4947006189915
31.4641882983617
32.8730823257651
30.6390502392076
24.783146204157
16.3473621969907
7.6310594849012
0.892870300115635
-2.94457661818737
-4.30393454811124
-4.19777525173487
-3.62913114113155
-3.391755694623
-4.07503401099172
-5.91025201820901
-8.41686664374488
-10.4710374509933
-11.1024852840957
-10.2287786378072
-8.60052485466677
-7.27185425995943
-7.02906654827181
-7.80062056355693
-8.46974821609659
-7.62644097425416
-4.73613064056499
-0.695803000090854
2.5053807932805
2.83409038573155
-0.414455029854901
-6.01939509947811
-11.7865926413476
-15.9415077828832
-17.5002290168891
-16.1388129607167
-12.601707247484
-8.75285831233489
-6.13761756511063
-4.54025390003071
-2.77599631046769
-0.796258498305665
0.0140258795282312
-1.00633001828804
-2.06985238297165
-0.174870297229645
5.70437686919987
12.92405036824
17.1624178008513
16.3363423981949
12.3185546167851
8.81119572762351
8.11649041153827
10.0989325147781
13.3474996357217
16.4499168962614
18.3121439521959
18.0668982178198
15.3888537741091
11.1484462166175
7.31218567760172
5.476948969166
5.45258488925941
5.70689365324361
4.96669095048107
2.87356527057744
-0.38377039940548
-4.15891030513991
-7.43078596857834
-9.75448887725664
-11.9834717634064
-15.2873467147079
-19.4663471070042
-22.6990335397842
-22.9464523419255
-19.4229360341335
-12.9206982741717
-5.09918028992393
2.42800234648209
8.60229336597095
13.1527135493812
16.7930662255829
20.7874726134724
25.4034722078748
28.7287793141578
27.8726304852729
21.6344397053562
11.5469395656342
0.448772463152438
-9.33847363780391
-16.7177015055801
-21.6757944461731
-24.739359210591
-26.3186291357548
-26.474044852421
-25.1073626385304
-22.0343711192107
-17.0162116212058
-10.1554554129959
-2.3038408365451
5.01961360514849
10.0803799215306
11.7078030290078
10.2676059870495
7.58924868525431
5.13920837771094
2.4971164433968
-1.52760115042808
-6.45745440602977
-9.64446179594719
-8.35766917696578
-2.30469274635165
5.59228181081304
11.0328665367671
11.6768201792853
8.84305950479616
5.58811270428112
3.5405362710137
2.28100166734862
1.03553172161986
-0.487722676010687
-2.6687117208425
-5.77577148199753
-8.91496599499217
-10.3761506591811
-9.42257901008604
-6.89838392688364
-3.73721489350068
0.337941823525358
5.91934239891461
12.0119596059672
15.9717359146802
15.8851433333342
12.5455071794642
8.44611687598874
5.22660496741977
2.8921842341103
1.09861615590245
-0.0666994054506391
-0.756485019037331
-1.71959663742591
-3.28056931730109
-4.35494484378922
-3.16533985153216
0.821696865248835
5.96812900351337
9.89628409245626
11.6629047302756
11.8030149909459
10.3259078465506
5.91719458611563
-2.20495612617478
-12.4269345277985
-21.5096780151861
-27.024989172375
-28.766284834245
-27.9958411594182
-25.5259087414268
-20.6362507950423
-12.1322480788195
-0.43490382830683
11.9548151896448
22.2304240216531
28.8836862768741
31.4966813654777
30.1001727601269
25.4436973703455
19.1418760004624
12.7629095163602
6.99959581918027
1.96941301021135
-2.14430376087752
-5.10919552366169
-6.99961159234691
-8.12442714193832
-8.60511245251914
-8.37414479175355
-7.73271471966211
-7.33205986889785
-6.95293113616325
-4.91959600193116
-0.107173261954827
5.50342181630708
7.80098991673226
4.60785345190755
-2.27427635263346
-9.39525363378674
-14.90666268505
-19.0044799698149
-22.1150858117368
-23.5268365094209
-21.8122127560773
-16.3682510576156
-8.31342081911034
0.411630395834884
8.63246704742984
16.0404757988552
21.842052290961
24.3408044296648
22.4186153957404
16.9018694863405
9.97441852602254
3.49322083212171
-1.89258665067413
-6.24955469016389
-9.3416174860566
-10.3123122712438
-8.52512387290274
-4.51305976604113
0.312905523027251
4.82320291709376
8.63318797498933
11.4535188687346
12.4354944988832
10.5033646446462
5.45517434556988
-1.42527046633102
-8.2962609474629
-14.4031810283629
-20.2603160954269
-25.9796986891232
-30.1197802389359
-30.6935882635245
-26.8468133978412
-19.1837725515546
-8.98933879179593
2.33254799958176
13.2338463053112
21.9069690519976
26.7670861240651
27.6827769753819
26.6175772633238
26.1317920019283
26.9203185003708
27.4492733775704
26.1239376255788
23.0226612531463
19.3048521828326
15.7538671834409
12.3387419809061
8.67649189040111
4.54506955098442
0.180504327406121
-3.81888950183073
-6.9967584682091
-9.30261808943346
-10.7925364637823
-11.4228985321882
-11.2515241363549
-10.5143581145358
-9.4877707684254
-8.52106942487509
-8.0158084412935
-8.12029889863183
-8.70759326523445
-9.7647876802668
-11.3490234989638
-13.0878731452589
-14.3485059449788
-15.1163309906632
-16.1811913566813
-18.1454104996743
-20.4415872518488
-21.5023826889007
-20.0309781883664
-16.2400787798566
-11.6200235177842
-7.26907053386156
-2.88041310159624
2.28831488661792
8.03188120921503
13.2639867137177
16.9444524466124
18.5327540715052
18.0298167938614
15.9613223661005
12.9913121431629
9.39490518224866
5.24550493452002
1.13946802176678
-1.64531294403345
-1.77174293053874
1.41251203972365
7.22628803085679
13.3455304810036
16.763367680288
15.8830073903895
11.6509190913454
6.40914131665644
1.88779337784284
-1.60175663446568
-4.49420905147699
-6.9361088767591
-8.50473324269162
-8.88881499660762
-8.5433406301543
-8.28991915738151
-8.35370721605525
-8.11680516783251
-6.7364123934405
-3.82930329634578
0.195056867963993
4.29073312890905
7.49403537649835
9.4984946541599
10.3387127833025
9.97896738805198
8.79138743845017
7.85785562898323
7.87555674104475
8.08157496641845
7.04088506531864
4.26476471307373
0.545555001949897
-2.95406047048871
-5.52439167124053
-7.13529247249697
-8.07303056211539
-8.12086977876222
-6.3243598120249
-2.24919196375919
2.64800414604907
5.77232095723197
5.71371496145287
3.34285680469467
0.683062017836886
-0.798666203460801
-0.941265953559616
-0.533037240610514
-0.390333947610541
-0.71313823666468
-1.29330997234367
-2.07717145053067
-3.25431139259224
-4.95588931883218
-7.04327000261103
-9.04904522913348
-10.3618125808624
-10.7345388578927
-10.4917424921137
-9.98162826308289
-9.09307186030583
-7.57130211752014
-5.46143245302191
-3.05504447435506
-0.749711918382431
1.12433382279679
2.82110617538819
5.16356254002305
8.29134507015773
10.9000369349744
11.6924944737212
11.2657991762968
11.5928897479087
13.7350785658986
16.7735083095093
18.8698680834675
18.7357703643034
16.1028278931117
11.3800890624478
5.17854951868307
-1.92123123130833
-9.29452246067821
-16.1626667034239
-21.7205930408806
-25.3730310807549
-26.9520448737234
-26.9654253223937
-26.4941661835432
-26.3665955036987
-26.3843531138636
-25.5970858649967
-23.1221842825209
-18.4433068441179
-11.3661983101917
-2.25150185104482
7.82493039233084
17.4755527612783
25.5949621239807
31.6133049251713
35.3333499311962
36.5148349025599
34.7236247162246
29.9633158828069
23.4102135720882
16.9662472123783
11.9766155276133
8.72408227724004
6.91173955553708
6.00930738995343
5.29264248131731
4.13581366543121
2.23695964746288
-0.571064000377322
-4.20197912546314
-7.71067241457037
-9.52839347405028
-8.99797291798922
-7.35352923860758
-6.63612044458119
-7.78090638749626
-9.98898649040129
-11.6681680554152
-11.7928995321983
-10.6345470087978
-9.3412471686378
-8.78300708661717
-8.98285823585045
-9.63071420162482
-10.5547570416547
-11.3894560321941
-11.2672130751328
-9.3214556536216
-5.50381740341562
-0.820713130648626
3.28828567049881
5.88412637662093
6.79249486394505
6.06409283747928
3.83586963118611
1.08028718081065
-0.296239470429724
1.05085575402466
4.57792785918491
8.42162952887757
10.8405137202264
10.9239135409892
8.75411524269821
5.45335338547841
2.59856286114352
1.15871345244525
1.04946719292717
1.50492587054791
1.59817667446506
0.753883525524735
-0.838577430952975
-2.55445862596113
-4.24016374121371
-6.34902892656578
-9.01537276605636
-11.5866270327459
-13.3857346208784
-14.4314146192779
-15.0322827877894
-14.9679728917002
-13.4124030131728
-9.72168705371372
-4.24377181238745
1.88377160531671
7.86680797309507
13.72182037421
19.2997238534129
23.5913410370297
25.7251661504255
26.0461828539053
25.4237546809486
24.0055864714505
21.4144030599921
17.7774676958975
13.84950738302
10.2360865533249
6.88436472782342
3.32561828865379
-0.655273763374356
-4.59410612713492
-7.76192451619921
-10.0360281949457
-12.0383444561317
-14.2947209978572
-16.5236455444277
-17.8518179969284
-17.599012082809
-15.8747748321461
-13.4811881926288
-11.2012502034906
-9.26337455450976
-7.56380898666222
-6.09373033658162
-4.84547477869303
-3.63337119975908
-2.46855492262816
-1.80112589077267
-1.83947663419207
-1.97358713889148
-1.53322148321447
-0.730195569108836
-0.0733592247712562
0.735100880742977
2.34327040227527
4.31031049921737
4.95766736197525
2.86329616564732
-1.7961647856286
-7.43429522932996
-12.3843636472819
-15.8690971463846
-17.6767964226204
-17.3841446988994
-14.51358115381
-9.30589093829864
-2.77771363733378
3.80088620099162
9.00772894214281
11.4006394960028
10.5750502416629
8.10967733785002
6.76299403670548
8.41859887516308
12.7543085312958
17.7089341218706
21.2184213013398
22.6363609905399
22.4662794480797
21.00825309528
17.980902575187
13.5386243453338
8.78690447140715
4.82972553584077
1.84295737174118
-0.595860937169709
-2.78230122807268
-4.74541716735657
-6.3112172648385
-7.07023678697941
-6.71486680863455
-5.54093419230932
-4.26752836777945
-3.35825142078272
-2.78421737011606
-2.33182149966786
-1.90597096808656
-1.62423962828401
-1.7262319088928
-2.38754190679646
-3.71619122599655
-5.82231106877819
-8.46980520286337
-10.6952477625234
-11.4011082888608
-10.5225330015315
-9.16241765952365
-8.42050145184871
-8.29955707022263
-7.65884224444282
-5.11690633379599
-0.351180701036453
5.31107747501378
9.91132116370829
12.4623649907547
13.2034886546793
12.6087690190378
10.8544117031239
8.13183943928577
4.85209663844294
1.52339899570663
-1.29550590745854
-3.12837251785165
-3.92540918633973
-4.07382684931793
-3.9743433581947
