8.89871090592363
9.99159219332891
6.30780598216205
-1.51936516588079
-9.32213519306706
-12.8124075283541
-11.6970308850022
-8.68252775223945
-4.73376714993819
-0.0132929008859545
2.99258264462347
2.80416130453588
0.858907362965687
-1.19525712939947
-1.82623826614089
-0.451470250414816
1.59412763219591
4.28776305746745
8.2007623729833
10.5086515120561
9.13111053214317
7.50518693575957
9.44039872377786
13.5728288155615
15.3661509261223
12.4815120662004
7.69189061153031
4.69068241879253
3.00741955369197
0.523557222598291
-3.156505375721
-7.13280873182453
-9.88812654984219
-10.6709716348608
-10.399318081413
-9.9344264389936
-9.02880420206195
-7.62668791890519
-6.70449439350555
-7.46835897227709
-10.0146007535618
-12.646268030399
-13.1415237402244
-10.7679465133418
-6.43253994918219
-1.84879674723276
1.5649931762572
4.24746636085577
7.64092058240123
11.7680499835387
15.6604964306953
18.7521468860283
20.00716764982
17.7422001899084
11.9207010168406
4.23127136307235
-3.7957270188343
-9.55152923491461
-10.3999063019931
-8.04717717683634
-5.81728493470691
-3.85981032055231
-2.35005715548096
-3.47776524428188
-7.0573215994097
-10.4380921158989
-12.4012698209311
-12.9069585223337
-11.8274908508418
-9.72246397055894
-7.8352632149301
-6.42958097243642
-3.78374613312778
0.93693087097035
4.98939947316714
6.39608017624774
7.55708963350894
10.0180924222514
11.986863222165
12.8926453267462
13.4669809290337
13.5597695039468
13.0844046221436
11.9413031253291
9.38123829251693
4.7712732615518
-0.262818083668528
-2.26894332807771
-1.3300442768977
-1.27068745043905
-2.46958401720445
-0.983105597218404
3.51970133887424
5.76978129339468
2.92988937056197
-2.61774654678376
-8.57852440720926
-13.9046080935708
-16.7036849015617
-15.5376682679069
-11.9536995288781
-9.02489100415815
-7.35199836520349
-5.81201376026826
-4.49613529650779
-3.7715235988137
-3.299386683143
-2.51765873203211
-0.38714099103207
2.8984556961054
4.16902849429409
1.89689529828141
-0.127276438026177
1.02722926837351
2.67620036044858
2.38351817344989
2.46525036511007
4.41573190382018
6.15447342732216
7.29547134389576
8.51653869702838
8.22568085286979
6.14603274000264
4.71507254876891
5.02819861353522
5.76744562085367
6.3133534093606
7.132774778642
7.09410174554051
4.33557559181479
-0.618106154130615
-4.85342426326667
-5.79214341528153
-3.02516159028695
2.34002419164334
7.89820430106919
9.84467718264089
6.86761107610378
2.45606704551069
-0.441930463187659
-2.23943787680654
-2.88385779737342
-1.70163748974522
0.0976860626791555
0.991173106666821
1.22530268824341
2.02571715412312
2.64886076747122
0.175795556556457
-5.13011636334227
-9.15610621151956
-10.2264976464979
-10.3067332311439
-11.3287570929151
-13.1241086482796
-13.4406769873535
-11.6051615735823
-10.6936645461224
-11.7631481000904
-10.6364874072163
-5.12169692373481
0.834389212365586
3.76702752564429
5.44971799006172
8.38039302014404
10.9210788388624
10.3083495222941
8.22839467287591
8.76776547155936
11.4263198498213
11.2022866513494
5.78103441882191
-1.35353724912179
-5.61832498236995
-6.99879921250698
-8.81135826730062
-11.784811634744
-12.9439446347237
-10.762021512798
-8.24410571881395
-8.21773662444067
-8.78439059148162
-7.10721307558286
-3.87115026575295
-1.23997256793253
0.545682474575209
2.97260578892111
6.65475545567813
9.80301982876149
10.3388401398312
8.17116182348875
4.7571440701525
2.34266768000655
1.83353251402143
1.23441616116113
-0.793837272528816
-2.14202635801852
-1.10586385919449
0.242334532492899
-0.118652645144783
-0.441208709525632
1.68199976612774
5.68769145421643
8.58342818127042
7.68745819605495
3.79609495126103
0.114103691658551
-1.88855259568346
-3.34832329379536
-5.62479081940329
-6.26130287020858
-1.33354640687884
5.60671527372422
6.92212084696937
3.41622949693335
2.44381265714822
6.82626970453896
13.8552806392397
20.5837956281075
25.345081556282
26.6889072527595
23.5328161895346
17.4455451719663
11.5050372735382
5.39026583967693
-2.06982353026795
-7.84866310760802
-9.77040650658576
-10.428335433346
-11.8117045312629
-13.4780917892587
-15.3094622825611
-16.3588956105616
-15.6552853033739
-14.7365838219233
-14.340217652967
-12.8410907196043
-10.049890787237
-7.44198151017627
-5.54242859787688
-4.31366435541703
-3.972398655898
-4.53923567475625
-5.13289809700771
-4.1897320309424
-2.39509700691306
-1.93420882991303
-1.74897912298432
0.187183940896112
2.91597404425731
5.73597347872042
9.03745987830935
10.5370907144567
8.1279043921838
4.94578581202114
3.99186753140162
2.31247413528683
-2.56761195297105
-7.6771136069959
-9.86371082504242
-9.17818643602171
-7.15550268476649
-5.53116933362717
-5.42292177793267
-6.33147096106133
-6.1716631011799
-3.74059305089394
-0.76495738166916
0.973945100117859
2.31380028819763
3.83686614680812
4.80120404129935
5.86376712755656
7.5605949694169
7.92597300475844
5.80726132252288
3.29784308504026
2.20165598518243
1.38648830171336
-0.616027626661394
-3.06618807401227
-4.43295875174837
-4.38105881477438
-3.44819176815666
-2.54307434222939
-2.23106406436562
-2.0287723567475
-1.67494138981728
-1.85117973806271
-2.78938830464694
-2.94028742961031
-0.972064353511892
1.06320851657248
0.581523874549418
-0.240440443556689
2.9424498077619
9.76906328654174
15.81815870258
18.3903324331154
18.0694089652303
16.7044935314043
15.979497520424
16.6679155142501
17.4303874577314
15.397450206089
9.94120343959858
4.08761443417456
0.847494278383287
0.52009060378385
1.33204935234546
0.839605451296258
-1.70738055635242
-4.58017382969803
-6.48554120926572
-7.79557517142011
-8.45938127403734
-7.98100794645271
-7.2816258825183
-7.23638700495554
-6.83918753001519
-5.49476059110451
-4.45264211149948
-5.3639608534109
-8.59611926231493
-11.92785785191
-12.1129636290399
-8.9688954306472
-5.71434735718544
-3.9492434591364
-2.28605440957582
-0.187323645781086
2.22203484186591
4.76096563842968
5.72001401104338
4.92897153276785
3.85494092464707
1.61075051822273
-1.95818854481125
-4.03087003918954
-3.92696328523579
-3.63883425804058
-4.05906967080794
-5.07523051012339
-6.45565216372507
-7.7997131019967
-8.52772483020652
-7.8713520514347
-6.16285344917693
-4.41589721776376
-2.18687880855141
0.638000158065119
1.98604363085764
1.15126651045112
0.231951333761181
0.155045911211283
-0.193915040651342
-1.27711534710404
-2.67905021680128
-3.57231069075503
-2.94500344167089
-1.53536513097283
-1.08347589012338
-1.01429247553781
0.501380928431032
2.89248159840431
3.23646803551927
0.0132501790933463
-4.07144677809121
-5.48415539946029
-4.60895744427042
-2.95315175225543
-0.0545671706073062
3.80794567661867
7.12928701773697
9.29994415204699
10.0609976612658
9.76750998315415
10.2140857077145
10.956250597938
9.17202162636356
5.97274350922229
4.32418821186701
2.20655538310419
-2.18040503107931
-3.97430164577945
0.679851982578888
7.49872502073509
10.8999424292627
11.6411377583177
12.9487394984356
14.0416747545737
12.6750238215314
9.44069073870618
5.57811334986342
1.45165026455723
-1.98337039698646
-3.70477218306072
-4.09935446110279
-4.40699550345963
-5.48690514755119
-7.65972236448828
-10.6348087612122
-13.2456252694749
-14.066532231263
-13.141449440057
-11.3159491644775
-8.13184439487924
-2.96555536261522
3.82298585062976
10.4936471003488
14.056107697976
13.6635315132217
12.138334753293
12.6247929187442
15.2214911399739
16.885300869644
14.7704567745204
8.91111950555913
0.213182777426473
-10.6064240090421
-20.0733377342066
-23.5292257332186
-21.080116716626
-17.3428697462198
-15.3589939993435
-14.0135703496758
-11.5781992253455
-8.92197854148841
-6.85840607854071
-4.2505288580909
-1.86303708652033
-1.7061735662009
-2.03910786724777
-0.279584845713846
1.89306828538962
1.37295845742245
-1.98075486263206
-5.74869257188758
-7.21521994974031
-6.02406668731901
-5.03963471224929
-5.59833784592548
-5.09453374793371
-2.03843824678224
1.63520046854124
3.92546401898146
4.99761237980833
6.56197435547325
9.35139547716941
11.3799248671443
11.3428039169027
11.4176000522872
12.7403177785917
13.4282080394032
13.1721657797419
12.4489438451711
9.48990671108347
4.92584242562056
2.75278338375432
3.4086636171021
3.43543066758842
0.871175231637052
-3.47507285543615
-7.52941112248885
-9.34871597816153
-8.28666165858789
-5.5655429608676
-3.52680633583012
-3.36899187093188
-4.39128253500819
-5.94395836799782
-7.76535864829417
-8.30433862606365
-6.55341593394923
-4.7741878220743
-5.32019568027112
-7.42364883479942
-9.40561060533162
-10.6813699278722
-10.9532324693328
-9.52387687931222
-6.65551620776393
-4.16312832992368
-2.93572466718888
-1.90754001397426
0.0321977361472389
2.77441832534518
5.41954473459467
7.4094801824049
8.37459268895848
8.0817962767265
7.76203570987079
8.28339667273608
8.64630514830385
8.7803055024286
9.00785242033592
8.86807281078415
9.56170050054539
11.6661891048001
12.706193587439
11.9040500995902
11.5722382922586
12.3421308984024
12.5380875975991
11.2600692115408
9.08971920740888
7.63621306935622
8.30832254454919
10.0661860046774
10.6705973549404
9.68223099934888
7.43390306077896
3.96076599979839
0.139997595839254
-2.911948659133
-4.20102891469625
-3.65613692994046
-3.96923832282347
-6.72427649442791
-9.2522206470775
-10.4146999180245
-13.3913279125817
-19.2361308531268
-23.8177176181557
-23.4989256026071
-18.9161189039394
-13.055319358461
-8.40588804001728
-5.32233519237473
-4.15696813501378
-6.1592003030194
-9.66977460088921
-11.0402227989072
-9.59793078829285
-7.31887379890663
-5.5380918022412
-3.77721486418469
-0.293118794078857
5.21312685166465
9.72999096893076
10.5717783346591
8.29888356442729
4.64941564181243
1.37514202876747
0.27533692849669
2.36105375843574
6.47745735445113
8.29263099393378
4.92531986372367
-0.0202509978043429
-2.0455527415852
-1.79705898443642
-1.42067440141264
-1.80386963712771
-3.73416736293206
-6.38759081362489
-7.64362861088597
-7.7638779388697
-8.26986338856415
-8.71936212105848
-8.37707582325483
-7.72785759451962
-6.94243505035859
-5.80339450672442
-4.6642257211578
-3.65015392111975
-1.3768908534749
3.70584477762754
10.2833071443953
15.063720969006
16.864687789433
17.1416607840766
17.2085684201753
17.1619770705506
16.8879059026386
16.2358324616717
14.8463823974521
12.8753746757893
10.6886723711211
8.86283793249212
8.52754457977903
8.75073841762503
6.6857607664441
3.0663669333751
2.06938715864583
4.88320472108101
8.0579202976587
7.51234097934384
3.20579414452149
-0.968652812289797
-3.98682566975408
-9.18982783079784
-16.5611332817584
-20.7872322380642
-18.7325310419576
-13.3609798281342
-9.65961792371668
-10.176883269486
-13.6580369640651
-16.9933253974992
-19.5838833468725
-21.893223520475
-20.8602897080193
-14.4232493161529
-6.10311834750565
-0.296967412837567
0.994929832307446
-1.88500255962105
-5.42817687617748
-5.4441595899174
-1.23247873041799
4.43999442674134
8.1684168530134
8.9768052177492
9.73494674436554
12.3874796618221
14.2098970526051
14.0242771535822
14.5417500349055
15.8670534397307
15.724628674161
14.057481364586
12.1126345152129
10.3492636905132
8.80841084443509
7.68406465967818
6.33059220152033
3.25388647396953
-1.21305360638783
-4.85486697329703
-7.14670718017183
-9.65660133915108
-12.6138273788864
-14.5388970786495
-15.9245780926037
-18.9545640225691
-22.8697321553482
-24.4389789118091
-22.2907933226218
-17.7181760440416
-13.3777027998446
-10.9537566040339
-9.29095984104419
-7.04754806841908
-4.46533788066811
-1.13452069555078
3.52694315575724
8.21486041069909
11.6702302654681
14.7753083361574
18.5861437504972
22.0173630396346
22.7964708667337
20.8398110982057
19.5331463821586
21.3586564903821
24.2320905181915
24.5330930777686
20.8598615436736
14.0139142249466
5.77136886689042
-1.35846014121645
-4.97889316992038
-5.66521380672401
-6.5620864008641
-9.32490251457181
-12.4859915068284
-12.5412743864118
-7.78159453005454
-1.87525885354123
0.610102406393601
0.312417988290913
-0.0020562921799317
-0.25520688016896
-2.21446312383685
-5.90666254407374
-8.32027446442282
-7.58910816593712
-5.27358983748643
-3.56367822850014
-3.42616194253352
-4.5014592262325
-6.20848775748955
-8.01714325828482
-8.5663690011433
-7.520709350205
-6.85102502199806
-7.47862481498493
-7.58522168175284
-5.52014163270774
-1.03521099557839
4.90129300447858
9.53420065295898
10.8421046698271
9.94066310994742
8.44401910213696
6.32741680689311
4.02089199345764
2.81163140611324
2.37239084704253
1.51345595508927
0.242246896015618
-0.746929579221862
-0.29763889058508
2.45945847369691
6.35656276989074
9.84129712934004
13.0741735003955
15.8470198282055
15.9220574983303
11.6131248556433
4.9463565837546
-0.29381069697847
-3.93282301253646
-9.23118109789068
-16.5924826952648
-22.0574737125939
-23.3475691591813
-22.1128426507155
-20.2613589055685
-18.7858998873374
-18.2370134319737
-18.3259713576257
-18.3140104302934
-17.4800533670554
-15.3953897443478
-11.9825888901056
-6.95395975252266
-0.205415302854547
6.74415995578755
11.877728881993
15.2626013470077
17.6907294627454
18.5416838358094
17.7169783959467
16.8268025657458
16.9650570343886
17.4267713160841
16.7011419193057
14.6376390324794
12.5442713869485
10.4283229548906
7.93098338423418
6.28522612904442
5.97824145389693
5.80137776593609
4.65592336731872
2.98150890028795
2.12107135988261
1.93280240418047
0.718635349535508
-2.47542913783121
-6.62820037006432
-10.0880414073183
-12.4196403901574
-13.8377920173499
-14.9400726702937
-17.1771488762399
-20.6294413905153
-22.7944745713559
-21.8532207288744
-19.4216221303584
-18.269696854499
-18.4902499052022
-17.4659384899851
-12.8845370933415
-5.22654092173816
3.07712266890764
10.7434400798189
17.708116866753
23.4720674211006
27.7192424449048
30.1502988162893
30.3308323683655
29.9103499278061
30.443397353732
28.8020897624879
21.5873805872723
11.4726057527154
3.68526180566292
0.361586381650485
0.360966988799935
0.904041531541445
-0.356721916993249
-2.88291811065454
-4.00277487670475
-2.66970044792077
-0.80868741517684
-0.114259864827811
0.25574915853205
0.971617255307025
0.473913247081001
-2.01831533628335
-5.09966066063385
-8.18243653448399
-12.0614201529501
-16.787383332912
-20.8650199374398
-22.408917274106
-21.4502784849922
-20.1486611232388
-20.6288662029503
-22.8199263654408
-23.9218610872339
-21.0481372524749
-14.6514405994213
-8.10542255456107
-3.33007010283638
0.918607562983739
5.69810113751155
10.5355131317222
14.950973556236
17.8685344957392
17.8524752656882
16.2227619551074
15.7054489909943
16.007907313206
15.5079942751284
13.8434291630371
11.3988618044314
9.71121837620261
8.92909634520331
6.60920714206884
3.45608373678805
3.59054843834527
7.27411623107644
10.266044700069
9.78222749407057
6.94032033650284
4.35072757714759
2.94313922815902
1.31192872584198
-2.43334558877563
-8.95288645796109
-17.2382021545211
-24.5353942079154
-27.682849384652
-26.5273269836699
-23.7529410424838
-21.3248861368577
-19.9684374255789
-20.0477191814714
-21.3967977347379
-22.5401632515201
-20.9207044920208
-15.9783353817561
-9.96810171905653
-3.99268234667499
2.69921902473611
9.21514936941534
14.7466276921333
21.0476832748857
27.8896490465615
32.426152212457
34.7482029464919
36.6943204005887
36.8416683626301
32.7474098126401
25.3669842217697
17.3306258354274
10.0137095607125
4.9252138512244
3.697840619456
4.76274239228314
5.08041585555074
4.26015251235629
3.66012230595888
4.05790684717596
4.4272917826352
2.38175263834986
-2.73514956428592
-8.32509394720588
-12.0529390597664
-14.7559019305148
-17.9863928401689
-21.6866724360046
-25.1984640163063
-27.9535097049781
-29.0229861111485
-28.2311484891168
-26.9642650030363
-25.9277564453542
-24.1789297999964
-21.5096724202643
-18.9245490438446
-15.8993871539176
-10.9582606873819
-4.44494949747418
2.83977215847573
10.5198405459003
17.7631498507952
23.7108222722079
27.0269139008297
27.3141984087323
26.7640210197977
26.6181663246937
25.4892703076269
22.6769762567524
18.9659377804477
14.8042719601206
10.5220302777438
7.41098977010767
6.32338424560364
6.42575217934894
7.05735690301651
8.5347461212995
10.6752780523156
12.6944500650481
14.4961054822998
15.4424350989442
12.2855957841714
3.53171408408512
-6.34836891903357
-13.5922204570136
-20.4156890830844
-28.0670848699445
-33.5666637048589
-36.2834276167767
-38.0420028929162
-37.9794957196945
-35.1629756267029
-31.8154568594297
-29.0530927109808
-24.8957630319586
-18.6568117952178
-11.8456299972587
-4.6669534708609
3.16242353451304
10.2253805030183
16.0921070664203
22.2629228298072
28.6657409677439
33.2791605833155
35.4667579137534
36.6670696205821
37.2428235782007
35.3545551968407
30.3402142886987
23.9048959352021
16.8850692144055
9.0262511501521
2.12683421854515
-1.23037355412137
-1.4553616546489
-0.798188998305082
-0.0797427192728796
0.944106466730638
1.87902466340464
2.41022804637714
2.30786441597815
-0.402996392135767
-6.72267860091439
-13.6214393764058
-18.7534926248944
-23.336009051424
-27.9163162948672
-31.3623440755121
-33.1717597087925
-32.8252257508448
-30.3531726449327
-28.0373760262353
-27.4154549439185
-26.6157832534225
-23.3412623354365
-17.7618404949064
-11.411905300802
-5.43356107592415
0.395325021590075
6.75031533706547
13.1752178251617
20.4793230636285
30.0572553663212
39.0127981917394
43.3063240462254
42.9610771652157
40.4628965565511
37.8877369200838
35.4608660051346
31.7345811865213
25.0622156585326
15.803097695203
6.76152510447549
-0.0695740911686246
-4.32456469665168
-5.89136262702868
-5.48863464825545
-4.26230702688738
-2.60300090277014
-0.407677078306785
0.871629100830624
-1.96609999289912
-9.40696179373684
-17.8455821065986
-24.5722915403388
-30.3810534315301
-36.0951059082366
-40.3753509326565
-42.5017385963191
-43.2363818226329
-42.3941285546933
-39.3316151455249
-34.9716039075436
-30.6768310639152
-26.6598004348296
-22.4441537087898
-16.8134104949726
-7.84361574129413
4.45359609883242
16.5252911148188
25.4456953121909
32.7608824224896
40.2684649607458
45.8165764166629
47.9197215475124
49.3203122533008
51.0940121927456
49.7433186540381
43.7826037062063
36.1767257146709
29.4463894694188
23.3658981693575
16.9387741381179
10.2131152759507
4.28520256010027
1.01517335611191
1.58450503634887
4.09956358876634
4.98522139291472
3.09886120984428
-0.69240893428614
-7.35315683372608
-17.4906270044241
-27.212163746227
-33.1196231030989
-37.1979008380839
-41.5902048707313
-44.8333623471393
-45.6851790211692
-44.7775013157627
-42.6912116852145
-40.3606618332789
-39.0528258613094
-37.8616633828876
-34.720409747708
-29.6719855801263
-23.4068773418151
-15.1098949050288
-4.28387865080888
7.71164337772523
18.902571384108
29.0050995748334
38.8742210607505
47.5365886303026
52.7567272270893
54.3043812304426
53.9410430096057
52.4022791854446
49.3911721145285
45.6860794423019
40.9888706060166
33.2353159287362
23.7901854080535
16.9228997524277
13.4274248336468
10.6103203275381
7.19855952153974
4.72821975586204
4.73795729186246
7.06714606621608
9.92594278791199
10.1821157862141
5.78871018766206
-2.51448662823479
-13.0137427151951
-24.6268851891594
-36.2416190072519
-46.6876345200619
-55.8565497987728
-63.0623732407928
-66.1432762293555
-65.4466293398947
-63.9070959083439
-61.273455459722
-54.3705899505615
-43.215168910757
-31.1957888328192
-19.5472237055517
-6.15414957942928
9.5028763564795
24.341627426189
36.5356508749656
47.2206572329836
55.4902392760192
58.5915239570432
57.9047490914351
56.5984357977316
53.1113905824694
45.4538644521408
36.6292337145524
29.7256834883171
24.2897283247793
18.737759157838
12.5585910461619
7.3933535782797
5.61832858515528
7.80153742429257
12.3781400372228
15.4976410347396
12.2662350134879
0.885045543556757
-16.2202791092285
-34.8235495144519
-49.8930261109254
-57.1409174761846
-56.8110427017648
-53.6175103464427
-51.3305576234045
-50.1977004213482
-49.4070679892479
-49.2546642349214
-51.1445308009407
-55.2996554084806
-58.6498120856878
-56.6278399240782
-47.4685664845289
-33.2801287976462
-16.1957067901134
2.69128129454797
20.4584378222878
34.4687170088357
46.9858246087418
61.6505324529448
76.0432888087569
83.5634282485943
81.5156812965167
72.717714352351
61.433812670597
51.0231911146478
43.1070172046493
36.5443831360935
28.8100197334243
19.7374567800819
12.1202370260826
7.8650101649162
6.08865676838068
6.20069378910367
9.66158941728756
16.3539013445287
22.1046627353687
22.4033633920807
17.2409686342342
9.55205421622623
0.0078022681534505
-12.3768946763171
-26.1055396272299
-37.3858583917841
-44.0908457948875
-48.2316584137295
-52.6317388692145
-56.8614513533484
-60.1791363880231
-64.1512628485134
-67.6103903143725
-65.3108145667206
-55.4579153241495
-42.2407404884448
-29.5117887760036
-16.4743155391929
-0.781242073195053
16.3702014093442
31.6669295360667
44.1578527684541
54.3947627949026
62.0459206481394
66.5896933464082
68.1130897113135
66.5192212555235
60.9184430041816
51.3327896698753
40.4559546170272
30.7868518624927
21.9562493031717
13.3403553297765
5.93892516441984
1.08232588365291
-0.663589020348606
0.378743668789712
3.01399205263395
4.74662050951829
2.45984753616088
-5.50237529156028
-17.7547036058302
-30.3664674766446
-40.9884154822832
-50.9675719058139
-60.5706995165476
-67.1027757068279
-69.2946021200983
-68.469334919329
-66.9087712345654
-67.2049454235509
-69.9899993453515
-72.5052477449704
-70.4043479324698
-60.1642305122435
-42.4642745058309
-22.3549261226532
-2.7990626807021
17.6220919590166
38.9562914592174
58.0639381158593
72.9330928013604
83.8009140812117
91.5058923604699
96.6212551433361
97.9569539597428
94.0197047688263
85.7161990846672
74.0684206714842
59.5297649449062
44.5821993575261
30.6319084505448
16.6521906199281
5.63863230627378
2.94747553348158
7.23633590967741
12.0002259299754
13.3491954323933
10.7850265508859
2.93197831040779
-12.4626578795462
-33.1172292485649
-51.9562168361993
-64.2649289028625
-71.0978804377685
-76.0181596612388
-81.5788612099951
-87.3695576062743
-90.0891389190832
-87.6123487539602
-82.2343968469922
-77.590834464352
-74.5799435366273
-70.9335163584183
-62.4540751415832
-46.6473014712347
-25.2428937723912
-1.58337638012653
21.5665671792049
42.6796836900406
62.4371903174185
81.0190806420108
95.277885694086
103.175394952938
106.705400162135
106.323032310763
100.03705377489
89.0470961419577
76.8774995386742
64.3249286624382
49.6810680763854
33.5575415296635
20.0688851786963
12.2492811277412
9.78553718121534
11.1897581683202
15.6395870197813
21.6117297172174
24.5675178509063
19.1066178848788
3.73946297026755
-17.4712868376852
-37.9467865014627
-54.0676799024228
-67.0721369701407
-78.5674468424294
-87.4579479879331
-92.7833276311574
-93.9999583299084
-89.9534610079108
-83.0916435951091
-78.9499488457652
-78.2742037543238
-74.983945250488
-63.1809115693202
-42.9417653469272
-17.9865038002856
9.40945820326383
38.114400020584
65.0201548040392
87.2410788141646
105.155513560732
118.258997952143
123.253000030254
120.563190503007
115.386576839544
110.005805836573
101.886603581994
89.3998115877935
74.636541004163
60.0222611876662
45.4079253653385
30.8838065683282
19.87954261056
16.2982130002083
19.5098129018297
25.2905479006197
30.5093446824454
32.7686081836285
28.2245509224542
13.963317209681
-8.6086159165576
-33.7136141760403
-55.629616975849
-73.7220412728358
-90.2405928697913
-104.979520638075
-116.401592680992
-123.829605715402
-127.565325646543
-130.318656933908
-133.900611527145
-135.000718933565
-129.408151392293
-116.811809639912
-99.5508423650325
-79.4533899165364
-56.6385555890571
-31.3152809142942
-5.51527129832683
18.0275606271572
37.2526898325014
50.3637913229463
56.3718928487119
56.3748619704478
52.2795545890521
46.1878954970158
40.9321184569731
36.8427556119791
30.7757425133947
20.4381390301378
6.2169779219715
-9.06462342630134
-21.4146490739461
-29.1073468978339
-33.0259354073847
-33.7502506070739
-31.104404458016
-26.8757586521229
-26.9361665828924
-39.125386242106
-65.5996689932863
-96.6791363087971
-117.591242761382
-121.682471369886
-112.466715354979
-96.8046180123391
-80.5818344642278
-66.3240685409348
-52.8057837326721
-39.8322873478962
-30.8398868544051
-26.7924763204176
-22.6117682579811
-13.2395429832849
1.32225761515067
18.376349007475
36.9743324235161
58.063324012456
81.7825350360255
106.554970601107
130.479174684631
153.839367186884
178.924156777403
205.344016417232
227.020863308654
236.891385723087
234.801982476751
228.479364852884
227.313366223481
235.545666568769
249.402871236067
262.229179645361
270.662822565528
271.960216682659
262.387377478117
242.965154430565
218.311959398393
187.05267842052
140.079292612536
69.4787546693492
-22.0390586467147
-118.65233599088
-198.657364689074
-247.615411715864
-268.891127293109
-280.782244668311
-298.219955249016
-319.197277791743
-332.486752982418
-334.352533116237
-332.935799059235
-334.355807342937
-329.412682594982
-303.774645902683
-258.159689320276
-206.750018835128
-160.435626192147
-123.214182558926
-96.2010238959629
-75.2303665788957
-54.7518557949238
-37.5800454115393
-31.0900694885257
-37.5272853530054
-57.1324609628558
-91.6210788190576
-136.345837932434
-178.369031869664
-205.166314249256
-207.720367007374
-177.44419962899
-108.731316861978
-6.4824158822088
110.41028763205
215.672129407452
291.269447367594
338.941786738949
373.969776289101
404.450334818816
419.569771049623
404.590040447191
360.721500932613
301.783345368363
239.128475869843
176.272772864744
112.640186765457
48.272524999599
-12.5207696487719
-61.1142553628623
-91.0470843023814
-104.627156691772
-111.672559550318
-121.48657170766
-135.64628937918
-147.963428770003
-148.145986292112
-124.472008358761
-71.5070335409389
-0.0733468143989794
67.391900652114
115.990187677674
151.781504546647
190.97530132744
231.560701319986
247.250697904065
219.057981640945
159.454790798694
98.181292676197
58.9371524825295
57.1947280883829
104.474378916882
195.957149770236
298.932718678693
372.053861995852
399.957740432731
400.406559285942
396.41965691001
391.957765177336
378.965570194337
353.823100097915
317.198681345303
266.086456190417
192.931570342731
97.0259793609683
-2.30798031487302
-80.8999480908242
-142.839767460301
-215.6928663101
-312.720445656202
-419.037666348834
-510.819722226813
-577.199669751625
-622.647512735195
-651.326971197964
-660.491259404441
-655.246640776443
-652.726308580998
-658.79152237788
-655.803387066945
-620.985232534703
-546.353647997435
-446.188482300531
-352.085100465366
-290.23516952872
-261.906899740347
-250.740837682803
-241.037924739997
-225.679802345593
-203.721802066197
-174.142685422538
-134.107253139455
-85.4759517644368
-37.3212313094421
6.48562839866399
53.1235229163626
101.000949099083
128.496965570876
116.343521723367
68.9703802917007
8.28779679649283
-40.1355941984695
-45.2132368902644
31.5627193140134
201.868553364898
407.586632051294
548.900533454915
568.082597618564
491.058425503049
401.171949771135
382.499927165594
462.639758571521
595.127982208069
703.139151439555
739.913961975384
708.556150227612
635.230422129185
537.474212557035
428.106613993981
334.098881033306
278.446050845172
244.543427608927
187.861599363205
86.2097560829529
-37.7987079487534
-148.6817812994
-240.324585302565
-331.976017011534
-432.887498442564
-529.687997124973
-602.950159057091
-642.318134695301
-642.701809754916
-596.110319883256
-502.228485645489
-384.632463521216
-281.308707814341
-218.080394174757
-196.546158132007
-198.00443983493
-193.767237468791
-167.680100868203
-138.023106705171
-145.884571930469
-218.11024116637
-347.680665343136
-493.590601043836
-583.278446266462
-543.635790876262
-358.664423020269
-79.9039136278228
221.952777743549
491.298709265939
695.282649582849
829.048718405555
905.139535523473
935.735664775808
928.436376990122
884.144302666262
792.307465009504
636.899998072245
416.616701808275
165.317512360242
-50.9784754567096
-173.175575939552
-192.6470631099
-142.242909559391
-46.156120140051
90.9953802939387
248.736315384978
384.099126138278
458.160207230689
442.752690234575
318.795083188969
96.7413381375184
-167.830468677623
-395.295346696076
-520.611744049512
-516.624249104034
-399.196979019662
-218.5500902756
-39.7178628206261
76.8060090739773
98.6156687696658
44.9592319535935
-30.4547508848147
-92.7028632901324
-139.453395511493
-170.417117659541
-185.475980282923
-194.515512450827
-187.876044869612
-123.455709879744
27.8105351761008
237.897696422905
430.761967261881
537.627030206653
549.785023898469
507.798229284772
445.149168677279
371.269372684147
294.096314969585
219.713050862269
144.030683960659
67.4063902331565
-2.27309498872406
-70.4251725869594
-163.547170661919
-308.606013225726
-505.886159966345
-724.80552401597
-921.581341133969
-1055.66588668094
-1111.36758320427
-1118.6770897624
-1131.27229076674
-1178.79978110342
-1248.46229323767
-1295.39125943738
-1270.72960808708
-1162.98771873477
-1006.19939561461
-843.935797092782
-704.176427726537
-593.320524893271
-491.736321102588
-369.142378488989
-205.588363302732
9.40211714928796
282.283000592224
616.252038551675
1003.27038492918
1403.61715198369
1752.15317218576
1996.92609491962
2119.29284147124
2128.44458297575
2051.70223859919
1918.67042804367
1746.72402762024
1541.51757690603
1300.23216858419
1012.04054477062
673.329395328496
305.872780066993
-55.2587212517884
-383.851475938944
-654.858260991679
-838.076326342015
-924.768669621572
-947.219774141342
-968.054305706188
-1049.84606088387
-1210.37103909156
-1398.9194946723
-1530.26511919885
-1552.47159937886
-1483.52932912876
-1378.95820206725
-1273.19064233781
-1161.85121560383
-1025.17871028839
-858.385095649692
-684.888850039142
-521.254561140762
-318.186152235009
13.5133847219477
480.755163022919
962.604233490058
1324.37531358618
1527.86107548672
1614.29149710856
1635.01098274369
1614.09158238447
1548.96840464514
1429.93499562115
1253.89748214968
1025.80313343288
756.91209803942
458.541214707218
143.629497171308
-143.665202249619
-310.790925959809
-274.553121742578
-45.0967585249259
274.184062221961
564.657127948145
751.13412102874
807.377038105359
753.551689503551
660.503861535676
610.768794641392
619.074568768519
614.47188463313
522.09473505133
335.169099949721
98.8626405022889
-134.96178344361
-319.361581553119
-406.893458253719
-368.769696881273
-231.790198182681
-69.1432428507641
54.5473813933363
105.432294261492
65.0710940428721
-72.3454422776462
-290.377454867558
-549.763199709813
-801.130682143937
-1008.03560191977
-1164.26519906959
-1285.84831846518
-1390.27262836228
-1479.86943198088
-1527.74777046665
-1490.02199240072
-1352.89105132649
-1155.91147262046
-957.333650266928
-791.073592503042
-665.88492842014
-587.763813694915
-558.48969326338
-559.591101768192
-563.270486803254
-550.053482877771
-501.100492302427
-400.50128639114
-261.475499811003
-128.103799890853
-41.0866077378638
-7.82446549318572
1.45717782452381
40.1689178887449
158.50769247149
362.609095832799
595.254161022378
781.603088894063
898.613851997451
977.859195637213
1041.44314763092
1064.39906570835
1012.45384939564
905.64463275922
824.6513418874
826.613817325954
869.707376376909
861.647944581552
757.301905161673
578.123151376669
369.371097548668
162.494991103271
-30.5687126826677
-203.472361747652
-351.069010045484
-464.897580840598
-521.990525189033
-504.766178157267
-429.073966913247
-322.152129464878
-197.059934186027
-80.1691157818983
-27.5490137384759
-77.5897576136993
-203.175504992678
-323.82341705756
-366.667269960902
-322.109316902718
-230.59818235039
-129.443621310704
-38.7075437027004
35.5643419020521
108.044944920883
188.805265475852
249.951921071787
248.221162007729
175.474010518164
72.3409642104181
9.88747582180877
64.4671264642438
265.719345543035
547.341402383814
784.54337391962
889.567858780539
858.836205284576
752.04842320506
647.235534179928
599.052012402686
610.571784914456
628.250864719561
575.144926448307
405.018870399469
131.157991978949
-176.66860741739
-423.359559657294
-543.819388136477
-533.494660234706
-440.799335189905
-345.046361534941
-306.275095688974
-322.704394898821
-361.563478727357
-415.407718530008
-498.105225097294
-596.441199140205
-650.830776704276
-608.756527166415
-508.238686805067
-469.623704258554
-581.000981648606
-816.528919471812
-1057.82321208253
-1172.31000423789
-1095.00875406066
-868.300079806522
-604.074181868335
-390.363498748568
-237.855448047313
-117.954672205641
-15.5228097297182
79.8642739416595
202.315299253121
394.611317053298
668.082994691038
975.912652756522
1226.13946531473
1358.18837180128
1408.92692812817
1461.85190782018
1552.15252629524
1654.80702371501
1726.38584332671
1738.33857748297
1695.7210657694
1616.58621883619
1483.71386194442
1249.73858077924
900.482682249085
488.773089907957
107.991149512697
-164.656331297122
-325.472802530192
-447.681932883563
-609.503743406898
-828.849681893243
-1073.18825407593
-1303.13198344149
-1496.35816642048
-1654.90468155949
-1790.0095317106
-1879.20870020419
-1867.76373469828
-1742.44168558912
-1543.14712746685
-1272.00293633581
-882.519671209913
-390.600726165471
88.9160180087681
436.301963044535
601.840804538409
604.439288558171
518.199999519192
441.833447854935
421.195170220249
407.130194943529
326.124583460205
175.70356412996
17.4542603075319
-99.5053814945633
-173.138057396117
-227.63596874752
-291.008864908547
-384.454805356584
-505.50096820773
-619.918661677794
-693.708007565563
-737.194798995757
-798.046388203642
-908.377950684673
-1048.38367792259
-1158.22019733163
-1178.81214449674
-1079.48939392175
-857.661102370479
-529.848967828739
-130.450322699027
283.362303954541
655.650099961954
980.939321640367
1295.2175332212
1603.46502414948
1852.89393247413
1992.73767402165
2025.87408731073
1983.25089071278
1884.40463787184
1739.74821106269
1563.13336829245
1371.4764716443
1176.8989535076
974.892184102216
745.562677009839
477.666296806206
176.06435236495
-165.513756617693
-565.819858356445
-1011.42171542888
-1440.68026597795
-1795.20600368177
-2068.16338274229
-2270.99992255612
-2366.43276097419
-2286.58663578149
-2029.87038011421
-1683.32020440855
-1303.6578703323
-832.841926702748
-204.381409026289
520.565021754485
1185.66083518221
1660.52229527231
1909.25322436123
1978.20601268358
1932.11544163346
1812.13079093348
1650.12716308528
1487.06256804762
1358.22579224866
1265.62519070849
1176.86056943854
1057.36194947846
898.729944373889
727.090252253439
591.403953046845
518.732888297113
476.483856360731
398.178096049972
238.453530589869
-7.87886239092701
-322.95335928564
-690.658079993766
-1110.8789030237
-1582.0760273259
-2061.41491933155
-2461.15845371458
-2708.35349799025
-2804.93211905027
-2818.10332553786
-2819.40566949409
-2831.50794177803
-2809.14283880205
-2657.83214488319
-2277.29101662581
-1617.78366121797
-745.900577415185
146.942013794403
854.614433929358
1292.99785930277
1522.89685233183
1648.38208617343
1713.09372288288
1713.1892962629
1685.60614717417
1716.21638891919
1827.40543769718
1914.71758163228
1854.14358824469
1630.62063040094
1330.36785333698
1058.30102637145
882.444939389683
813.50903021803
796.01291901106
732.20494867868
549.639082675418
242.277341472733
-147.680869987048
-559.574306637161
-942.981407529154
-1279.13863084301
-1547.58661756129
-1676.60607819123
-1593.27677492939
-1328.3966205555
-994.164593581572
-656.599186952093
-316.579290304368
4.82918341066362
269.272993296172
484.100386823211
674.882666835602
829.509914499751
926.025762029959
975.589946929827
1002.15338887114
1011.22839937548
999.211837908185
967.449820252368
912.683934148633
829.158173923039
724.970121324973
605.280497217107
443.477489920165
202.611401061203
-115.169685072745
-463.107634219886
-794.262834881463
-1086.23667594584
-1306.84502563664
-1394.18578926077
-1309.57658635301
-1073.93269054616
-738.210695150456
-369.69171390858
-48.138777061194
184.781482933084
354.460559400162
505.232718985332
646.884171140878
756.686310201029
813.903454272362
825.592322589397
813.80236642326
778.19832587744
697.453202212149
567.421318122848
406.275991966953
229.472964760747
50.6837629993919
-105.362517892207
-223.669700372761
-324.570120855959
-448.371326428757
-621.876408922019
-844.35377327265
-1097.61728031976
-1364.90170172687
-1637.20381850319
-1897.39829628987
-2097.86730554802
-2177.42161833167
-2118.60477481635
-1956.73456511598
-1726.60164002183
-1447.1669984024
-1148.73149389291
-866.706646832807
-603.105577932397
-297.219627479434
135.741744596138
686.494083984281
1211.58726647596
1564.64487328852
1722.15616270689
1761.00847493573
1772.40175238054
1806.92583199397
1866.33115713293
1941.4286465194
2036.51462800386
2136.78573623593
2194.9217834993
2174.58715663655
2071.70711050986
1886.95349660569
1615.51767424541
1272.60047572065
901.504587463769
543.219089605576
208.218676285794
-108.577997106912
-391.757257195697
-608.453784776647
-745.164964955643
-815.65138220817
-838.224871446017
-831.12704945391
-821.704436469562
-832.817368896837
-861.240589358865
-885.23399735692
-889.543531855026
-876.86282448637
-866.352932835416
-891.175324302028
-986.231472262732
-1153.20136027335
-1338.78370588917
-1479.36889905084
-1565.97400894211
-1631.17667977443
-1685.14784350291
-1703.96726173981
-1667.73223963083
-1578.45160381187
-1450.54366796501
-1306.23876528841
-1175.72160463012
-1085.74747960785
-1034.66972010744
-962.718599018889
-770.873096212868
-432.761376594992
-68.5999209070225
174.859681668582
296.097211987159
425.865777517654
684.084935019839
1099.12828562884
1623.02484477594
2169.69303230247
2637.22413800131
2932.35405083193
3018.67928320336
2943.39337272406
2793.39441196031
2626.61570190271
2457.65449619099
2298.7021553214
2175.76936144686
2082.9185529579
1957.74310415019
1736.57162900069
1410.37598398175
1014.85374896654
603.454839437764
241.761107547214
-19.678881219589
-193.110216062184
-339.027790544674
-499.449746482148
-681.218932760831
-885.419968723808
-1110.90695132189
-1342.58999076135
-1568.22119388377
-1796.04115642779
-2026.73690194116
-2221.44510176214
-2330.28720647358
-2339.66682686972
-2260.16336321547
-2087.1931602087
-1815.37602569968
-1478.0202677113
-1137.78027757597
-855.036874438091
-671.430502004058
-581.624707530172
-520.586570296349
-418.503948736934
-269.544092496886
-129.692222113204
-56.3421784049862
-62.3717553028347
-116.080496588614
-170.2415423373
-204.036265625779
-251.164147282137
-352.778136635955
-442.017631787205
-332.546344348969
86.3818107583334
684.117806260919
1197.28085539097
1461.83756580092
1498.90816049692
1438.14414925426
1404.98619515255
1436.44648303849
1461.36749884096
1383.43681877127
1186.59737152412
930.349929652619
670.005772538236
425.433193753883
203.92690388427
13.7695807153487
-142.022145572227
-262.674923395703
-338.719404590985
-366.95494603919
-364.655626303499
-326.936607346979
-195.856945749816
59.6101836685708
352.213648892252
536.962629615488
547.343127967637
420.554063310817
223.47549518807
1.46476443256685
-230.152366929513
-476.2803609099
-727.104454489539
-932.018139008191
-1022.01865519744
-947.942405688456
-715.350792809078
-415.712935463998
-193.332393117166
-143.010408464981
-256.359580272141
-468.073494974042
-696.156582834927
-812.372617257688
-662.848225963523
-215.479125472895
353.198049921898
800.487170636201
1017.08085447699
1044.77232350832
964.343742317169
830.587168054186
686.737254077769
573.702511769317
499.108962012443
435.997915928435
372.422163596662
318.950900057261
264.184493163012
185.887893543128
109.857739454415
92.0009419344114
135.016220848701
189.805460937359
244.40488181728
324.805904575628
396.145296044659
356.679651561345
150.291471325125
-174.022316327614
-517.742288948899
-813.801915627299
-1055.19888711945
-1260.30855233079
-1419.96016863653
-1496.67909727935
-1466.3229249741
-1330.07605321232
-1110.89197008797
-861.372061610225
-632.982696967139
-420.312147630728
-154.783071178316
231.991738960329
711.670972731548
1142.34435909086
1392.96355589278
1458.31756341949
1417.03688846962
1317.67782109334
1152.3917864957
910.805601648988
606.642107916256
268.356119133326
-62.7602311515188
-339.497050654178
-530.618519813267
-630.360094713746
-653.283416376706
-623.042569208015
-545.053725220803
-402.476986037863
-206.539437779907
-15.7443538583084
130.667479147224
253.249498614356
367.369188310454
426.180307659404
375.844964030027
234.577955330635
71.2761939433993
-70.4971538493872
-194.580247652071
-326.101667224036
-476.471304286826
-610.807171983906
-660.110222156188
-586.387003305202
-431.543493517751
-296.511764189118
-262.166418599851
-313.251117465278
-333.956780084593
-199.021578372302
94.3779774593714
394.870040149654
540.259382673501
508.699854950782
392.414878138803
281.822559504207
212.069878534087
160.012589525176
69.3215120922706
-73.794633617865
-191.122624677301
-182.073312323201
-30.0430592045029
192.735754373661
403.896183765063
565.82486967158
674.302477870813
728.791435111803
742.252607640613
752.263493826509
780.251910251371
801.819504377005
780.768810198172
708.660866686165
596.063657839852
442.090025583736
237.660945936559
-4.06572908166333
-241.071065580754
-423.353304494045
-516.867198437575
-523.545048165633
-493.059057773841
-501.265264633525
-580.383544276761
-683.779631635849
-754.863786452594
-790.540430473738
-813.667748845315
-840.827204224007
-891.064044296178
-985.892604873987
-1130.40548949755
-1299.98442274233
-1451.33793000529
-1554.55998209934
-1599.22284820259
-1560.14936850524
-1391.9783248813
-1081.83709995962
-671.349327078981
-199.627444105809
323.163815940155
855.699175618986
1313.55165437328
1651.44385121651
1883.68973908361
2012.01650358721
2012.38963708979
1893.38962139096
1705.67020243244
1501.15170421823
1311.86737578253
1147.12260732355
997.967103440282
861.677785932895
757.52429686032
702.591742646748
681.330310540574
653.104020305109
590.498105149443
508.927361795767
452.771349694978
438.162485137557
410.383240322317
282.571905576521
19.0238960240115
-343.483742858756
-745.293377498794
-1146.68021977154
-1526.90574916942
-1861.79963416067
-2122.82604516391
-2302.63736336671
-2416.61207473295
-2458.49555490079
-2359.25046980704
-2017.9968066382
-1408.08074509083
-640.160571378275
104.815050684049
680.004077767184
1022.17498966756
1164.49477128601
1199.93989860845
1192.07165971388
1133.32067817382
998.384499812004
799.570342381745
574.108218433607
351.774555440306
151.250685770744
-11.29280065485
-112.202934359953
-119.018952519696
-24.4713591118203
120.134630187343
232.752025632
261.813363556239
219.644055510285
165.573080307959
139.384439824455
111.399141913443
32.5301489695825
-90.4549580054424
-215.190383317747
-305.220331039477
-314.032287582639
-219.857962129248
-86.4457727147679
27.4062395359771
169.61349030819
391.132917357357
640.777700075777
839.215894218153
954.238383354829
979.365994156247
917.152526520271
792.883069013593
641.78408085162
472.301181911317
265.763180049514
19.5012674804729
-233.312724061744
-462.08336507779
-683.824909309231
-941.569028236
-1225.39560637023
-1440.50279779116
-1485.54533583649
-1351.67007619853
-1118.10520771088
-874.25056022046
-676.567214842686
-544.179730682594
-459.188103264013
-386.499009098472
-302.102960542171
-204.296749810395
-109.294126130595
-33.4595787313266
18.8573391068315
42.7420471550007
20.7332590165916
-59.0749542051754
-164.233905859155
-199.722220719731
-62.1431785654456
250.939994675586
606.677817566817
866.660300417651
1047.41439093911
1275.69747987501
1576.72872686167
1823.84679262281
1915.53773783186
1865.95821410887
1711.07178468487
1449.35556353351
1087.94102455701
675.665098355789
281.10945185019
-33.4465100272258
-223.862020835868
-278.694763884008
-227.235990265092
-130.976708383841
-66.9032934634153
-82.9375993324762
-137.674335449133
-132.090863590912
-44.0433561476729
25.2142334331643
-36.6028262103353
-258.618563722873
-596.890256724359
-976.259980287735
-1330.49935744567
-1619.58920957786
-1813.0384693506
-1890.34973568002
-1864.33062510109
-1774.97151545883
-1652.96622985463
-1492.98054182499
-1261.30610253787
-930.737952176454
-494.584933496764
47.9133281612051
664.800588235378
1244.45956219038
1641.98899640244
1787.85670974123
1719.51570615403
1520.71468844196
1258.78837280544
968.621008182969
668.754709654016
376.431851304731
108.160031028938
-120.228867466164
-288.669588493503
-382.700988378368
-417.98940625923
-441.529341911286
-495.509231183163
-571.332692746953
-588.909875754921
-450.881231520784
-167.28584875145
102.393230956183
197.409279485853
120.864874160812
18.2694538394604
29.4556772872386
165.994258840309
300.280505955992
290.126524802135
123.597073397352
-82.0197094156934
-207.943503060413
-221.358530220241
-155.212766884029
-47.51428701143
100.293962644165
320.288653286003
626.529684275657
961.220877055736
1208.15273691247
1280.39049644889
1176.11738678759
936.39022283773
600.580046763209
222.784951125351
-116.873727775709
-345.497307495038
-448.970427052602
-491.566990958883
-557.454891322401
-666.924173608717
-774.809706151888
-836.235729313816
-839.837524485455
-789.799789852741
-696.459708602231
-594.732658158684
-540.629397290574
-568.687173587884
-661.879146164733
-773.46657256924
-878.63581299808
-980.300785012546
-1054.39354328412
-1043.67634947628
-929.419624523795
-765.258482629499
-632.667767483095
-580.350542857911
-590.850526324276
-600.401347487847
-560.187823328469
-466.914857923631
-335.868419362245
-164.902268239438
68.0031289673021
361.954960049629
656.564852244843
879.96873845511
1031.02258163811
1161.12751103782
1288.80382273964
1410.85841584975
1568.8903240349
1800.95791062925
2058.7576625451
2248.7023490994
2312.79571811677
2244.66531051948
2078.58254251518
1864.5667164573
1631.19631518307
1393.49189076862
1180.92704457688
1004.79260204751
824.080378556156
594.859839192204
318.706522958814
11.3151127340741
-333.164025490188
-722.323435742706
-1137.71780284149
-1542.9433609037
-1898.15828482792
-2147.39486781213
-2226.67917432962
-2127.31311418659
-1924.31334752018
-1713.34602786403
-1564.28949837892
-1546.66870943869
-1701.14524087472
-1937.36459142802
-2038.50369923661
-1827.44418239257
-1329.22977596847
-755.502125369696
-305.504204668186
-9.38102469869541
203.715629083435
368.280123566737
481.96466272679
574.409626018429
701.878130186349
880.327034795685
1060.38087168495
1178.64001722569
1221.99923023982
1237.89733471642
1273.81026018227
1303.94978364024
1244.43133092802
1049.30461684702
756.400524335165
432.732291882892
107.366666527955
-238.006182862627
-624.137490060223
-995.786422653233
-1184.63787907837
-1018.7488078335
-503.234626854667
161.949462321229
757.62900885181
1178.4310185576
1409.02650618879
1475.33563021027
1440.119577982
1371.96983912691
1299.54905192657
1219.66620678974
1128.58860155153
1032.58399576936
941.340354930179
851.68834168139
754.550444003683
663.508096595284
599.995365787383
543.989200145705
433.140672879534
220.121405799337
-81.9693657442305
-414.903908679428
-725.905231975117
-994.474180311575
-1232.59147197267
-1482.09580289344
-1779.20123930654
-2094.3410991702
-2335.18192978302
-2420.89179155324
-2341.05998070773
-2155.22122656198
-1934.82482842298
-1685.0991012593
-1339.04775088997
-850.338070442425
-282.874931512786
209.145340407326
494.605917519136
549.630444259482
441.063248012936
261.280398182162
81.6684200948925
-64.6274703318295
-178.263728991749
-266.214912670956
-318.624416024955
-329.992260848117
-326.640609658876
-337.144852686543
-353.507926295966
-363.560950483873
-398.783228925781
-485.907220194481
-569.808256660447
-574.088268489398
-521.198195056722
-489.240589442433
-471.94744527738
-395.971122408047
-261.343067065835
-152.365047109107
-114.319493883716
-89.1666380896651
44.5226141941505
383.801709895008
907.141452001615
1458.61893424054
1861.89122544201
2052.4266089871
2090.80699866476
2077.76192038076
2067.26381891671
2045.69883443
1986.85509974887
1895.71757038541
1780.40848558832
1622.61541397481
1397.56992817085
1097.64495959834
741.917073875087
387.835584596283
101.069628292493
-115.092956983488
-309.821506357798
-493.92673053106
-617.217652357222
-626.066677547298
-512.14107289957
-332.733310755565
-192.630900110776
-173.037937090163
-268.806644490181
-422.914170322374
-611.006282498157
-841.519452691272
-1090.37816079447
-1295.9104698168
-1423.23219523578
-1497.53700042133
-1544.22075624312
-1519.79946040563
-1365.19922852839
-1105.27431573829
-818.710559811294
-547.62016471025
-309.87934613268
-150.827789760177
-100.358661139057
-82.7711313385405
56.8264023774776
389.37290021568
811.083597525532
1145.09565271842
1284.41298980487
1237.63448443946
1090.96095119462
935.901472508468
829.288026508511
794.596105090974
810.536963308105
820.273490775044
785.00728034616
713.755556922011
648.166579130996
624.156538087979
643.326126789142
687.045322247089
728.282420928803
721.610200133804
629.649026471242
458.396062041301
244.698106306987
33.0008644397708
-147.550627747541
-318.353987439902
-532.702215432538
-801.353204978921
-1080.59276473133
-1332.85030153767
-1543.90823430055
-1687.15321770668
-1724.13085407934
-1640.91802934704
-1455.4014795264
-1196.3478942957
-888.679855968091
-554.821511817242
-236.218415771055
-6.33203241801893
72.0915780847242
7.80437884548485
-126.349337638964
-255.3487015024
-336.652840917539
-359.911485070058
-342.119782214899
-310.043662731013
-281.202611504819
-268.911466668249
-286.741893014346
-337.230192739995
-415.584900277436
-517.624100452559
-616.325668995327
-636.98907964765
-491.563459726675
-166.920564001408
243.921360104485
627.996426354015
924.991412398275
1104.61316466762
1152.70373297637
1088.58521732178
941.084400686835
730.076945900254
506.290017800485
363.246543252484
360.457237357849
454.014898811496
528.277409147357
480.045721804933
281.124180302916
-7.67776502199413
-284.546378025795
-477.835095915186
-577.497998238945
-610.621791070066
-579.054622160048
-426.478924772195
-104.709527457671
329.913067186567
719.356594732846
904.038684107606
833.817606685053
613.192337019631
421.011930918742
358.448573130545
396.605320693661
472.648742611877
575.015733982239
718.03831088554
894.161659460627
1062.4705033408
1154.99778831126
1117.82952021509
956.753048575164
727.010181160929
498.070434653145
328.841494454843
238.824501800634
191.95563565403
124.726487015283
-10.1772914392884
-225.228937331973
-485.511157849097
-710.431049171712
-840.017059704021
-900.319636849582
-953.035566047155
-1001.91490368901
-1008.47971651687
-971.384539764778
-922.469678403532
-861.658568111439
-762.925133734038
-642.010154477176
-560.097310570955
-562.202918537411
-653.515326641608
-814.423784131139
-1000.67864559157
-1153.58616322672
-1232.55448042632
-1219.47879930728
-1098.68031889961
-868.037188503804
-567.431804507949
-263.637076200981
-5.93680621186001
185.632784846613
308.327556193573
381.165050247621
438.076173145762
493.182122640076
533.142975382519
547.548333824489
547.178565622
553.365695826081
576.975242942197
600.286377678961
576.135983612996
470.351707288127
315.547506377641
190.086934777479
136.791937444016
125.396158889768
90.6768562583477
6.79997348684531
-51.3697806536367
48.508696799769
328.763636394556
618.824734331384
706.167001466334
535.761146800629
243.944756530227
42.3083696182055
62.5736448588557
266.146338465065
490.99506340745
594.132438827145
560.688498390444
489.43406963414
469.23897252158
499.708389627098
561.102847287159
676.740170878372
845.72639897174
997.771723593179
1066.29020142002
1052.34625459282
995.165721457931
918.670631190266
816.238565910973
663.537771340899
440.091215885805
151.575411245026
-153.043854105739
-397.782992073514
-553.026376718906
-685.578852467526
-890.862100244577
-1192.44466384755
-1533.43719786473
-1817.4157084707
-1942.33850182827
-1852.64438526764
-1581.10710152244
-1226.72847465999
-894.661803728652
-652.449640694083
-513.363226497067
-442.158181089155
-391.814494541602
-340.790198636101
-288.36784418785
-234.907309209419
-181.2918023879
-132.822141561785
-93.0345034747135
-61.5672564896841
-48.9731708900604
-86.9548582726817
-203.485760272841
-369.931765229716
-481.3857611839
-415.895096837724
-117.963842882686
373.430673396424
960.380192811495
1520.42267583456
1902.40876880536
1975.11758600941
1743.0909685014
1359.49465515264
998.909104449322
744.75144360109
577.134488292332
436.888635907257
300.401296777884
193.731427506992
148.915612497982
168.86307332327
228.605718729567
287.977081054135
296.947498977476
208.30152315765
3.8514043299944
-289.733881387137
-594.739879679061
-796.964269811775
-840.628936570628
-820.065399744088
-889.152191511782
-1082.05590095301
-1286.45606419689
-1368.89942527535
-1288.08233760117
-1101.08764054313
-892.446695198397
-715.891173987335
-586.339603786309
-498.496986737443
-439.092654618239
-381.693309010007
-293.841324427416
-172.20512918419
-64.0502490517932
-37.5861803297821
-121.817471887202
-268.902417296888
-377.565773070714
-371.927990750602
-268.096781158402
-154.576076836127
-113.792931056103
-169.958202651067
-277.778021436982
-339.548470024994
-270.48571208224
-59.7544370999881
260.796074727727
674.440224975829
1150.57648864374
1589.70999793835
1862.21248730741
1913.65740306409
1807.7585083227
1653.52940765494
1510.18259871065
1380.67147089992
1263.84227085179
1166.67223194333
1074.59178528988
951.204657707098
789.640768458047
640.812745037211
555.04927145674
522.596559658474
505.349759883663
491.906880394151
490.242328704452
475.819960991789
363.576905254777
53.5144192503728
-471.947957026843
-1090.42526801699
-1598.3706890207
-1850.93725718793
-1856.42185086888
-1731.02414761919
-1568.54046447693
-1387.88425700536
-1197.51262435024
-1046.10156599712
-985.269836820275
-1009.81385142788
-1060.48413810835
-1088.47402757421
-1091.10806224094
-1070.31157919171
-996.638138630532
-840.220945939212
-600.182964770929
-287.313195084509
87.0461192993978
497.624526366056
907.67629243139
1285.08540276448
1605.87356067815
1852.83161359318
2011.21782803259
2060.07204685993
1993.28717880284
1855.20772300742
1707.87601558879
1557.12251684305
1362.49482125185
1120.19087708484
889.723264915634
727.062964679227
619.774859628908
511.451987755841
369.576411487815
203.492426184381
34.1137608390796
-132.641308585779
-312.492089751816
-538.441077171213
-845.993175470632
-1240.95886905708
-1666.06632757423
-2019.45870061202
-2237.56316622606
-2337.06870003895
-2341.03481847446
-2217.39519022161
-1945.51534594081
-1584.21603437822
-1221.83248208144
-902.129378500712
-626.502308031453
-395.540870567842
-221.917190414556
-110.406611143683
-47.2706895827877
-17.7492622433805
-18.3264801897887
-46.7116723269109
-101.50252979889
-192.670423012128
-327.164603031894
-482.270208257293
-608.143641508709
-663.647931144057
-648.471378874586
-571.244984625294
-389.740961087306
-58.18444033982
374.160842787045
806.796418829336
1211.06592593342
1619.56823604002
2017.56614338161
2329.35407220733
2497.19475073865
2514.11082293011
2394.38870550826
2152.49442316094
1816.22854913986
1448.95481012031
1140.37322803282
949.733417428801
852.621368696004
771.116424366688
658.194464460141
519.870321794144
353.489390726672
99.167077479594
-314.62069723049
-880.283093288175
-1497.78811602625
-2042.71792621793
-2413.11196129556
-2539.49771833111
-2410.11828502077
-2092.89163095113
-1708.45838553804
-1364.47522797718
-1096.05830410104
-849.648269201673
-527.416773825204
-86.7994077378394
389.36353309961
762.996910564259
981.432506952268
1099.67332395588
1179.81656687769
1232.19275941111
1244.69533905918
1214.60104902288
1150.49616546729
1066.63389063991
976.433510259271
885.19565427794
787.549406925491
667.755339596467
497.021808652097
238.321596048242
-132.740436235416
-607.253547678761
-1139.1203157954
-1651.59119468707
-2051.72531031329
-2270.4376878988
-2315.57957446725
-2273.33316323598
-2210.87040882085
-2063.26293561847
-1687.3816929959
-1066.45183822295
-370.817347947913
220.723956601089
665.393945648582
1014.71834869405
1315.74483144428
1569.94685851965
1754.63672642829
1861.71323474784
1902.65164993099
1877.88097315936
1768.22023816678
1577.26448288181
1353.70262357238
1148.93137128262
983.265115451137
858.184279424512
768.617616255109
708.202896784395
676.069194601699
663.643899356673
635.067047374628
521.895137207256
240.596119100984
-229.01077294468
-763.396590086099
-1158.31558255428
-1293.63935395814
-1203.68950136026
-1002.23880084295
-781.359153080841
-577.871624843098
-402.830828266365
-273.50249240471
-202.143552747047
-175.343163042237
-177.433614076308
-227.612742237736
-368.124913214811
-615.587476580168
-930.248575134758
-1234.84215787543
-1482.25323765575
-1690.08213930977
-1869.81637264222
-1957.2406103353
-1854.17482343826
-1506.18867425569
-936.980143100715
-255.502694104841
370.129431280347
792.764878955249
981.719593814468
1046.34550336957
1135.39913617526
1303.70734375005
1495.14194624192
1633.39014861767
1689.07266851569
1668.72168803216
1580.36559681638
1430.27244487192
1243.11235236071
1057.03838287485
874.735515366885
633.203391723866
260.401731293589
-232.107824519915
-743.962437454925
-1178.16739667174
-1494.47596271282
-1661.15670993272
-1623.11542625135
-1363.6800420032
-959.692386265018
-542.156016220544
-213.661316948354
1.22739832333628
142.755118548348
253.7914373221
339.474296805759
386.664751627699
394.40419630597
382.349277810794
383.084379259596
418.183656395512
475.324588304334
512.956974403897
484.194943485049
358.739981422967
135.937380087548
-159.302383650194
-489.05655614136
-807.847061665694
-1081.02477809035
-1319.32949024341
-1576.73159389
-1881.57547729384
-2171.87277196368
-2335.13073689478
-2312.66594642631
-2126.83806935287
-1820.04085707953
-1413.01694768264
-916.090548610202
-359.621611603668
196.596071273909
705.588765193703
1170.3668366193
1613.12525248171
2032.41738857776
2405.74719562629
2714.05287047411
2953.20477377226
3121.95771113498
3210.55598115627
3217.69927766195
3165.2140804606
3073.70545174768
2938.29235563552
2746.35760601171
2501.2348331385
2210.50375909966
1858.84208942589
1405.05473728491
810.374567023297
67.0353215036688
-798.695133822622
-1730.54132023553
-2634.38532444742
-3390.65413372716
-3906.94006405826
-4147.003577276
-4090.08810814083
-3712.06600805764
-3060.70318802567
-2300.27193329978
-1615.63354554034
-1094.12183217599
-724.893513880257
-474.467914191688
-328.911868389715
-272.861892855448
-257.821604102743
-215.748572951384
-111.475729075511
27.7828958847826
152.678693132209
252.864390387162
347.983121658605
434.066259628586
475.909099686445
445.443233650473
352.433066689764
235.433696414812
123.530468331563
27.7199399434653
-18.01656056878
51.9104896910835
266.948515311504
583.245427887608
944.841733104509
1334.72526046377
1739.64945564096
2104.80058246177
2344.17096619664
2383.61680787444
2198.11670279457
1821.55946404068
1327.45081528314
803.103559720743
334.277203287225
-7.50885139191271
-186.656802421223
-217.013779831898
-152.063856867219
-71.0241343999141
-54.9716568759457
-145.490084357205
-332.004113132724
-574.175866549683
-814.572954135319
-992.274401201679
-1078.24493395546
-1091.81080456705
-1072.22096030277
-1043.12858213261
-1019.11169754322
-1041.3427400419
-1172.57374154309
-1433.52528881785
-1757.49770389873
-2033.19380653581
-2188.71265493199
-2211.55850183231
-2108.35628874232
-1888.28314285002
-1575.9169724432
-1207.33966668144
-811.000084046657
-393.769958971392
53.647629144131
524.366345395585
978.775159037979
1378.57780388198
1720.44210472636
2021.08171181932
2284.24352078428
2492.88674149387
2625.20890532757
2672.48132172163
2638.78089700897
2520.79628246555
2297.13468824276
1942.73175088441
1448.53004047691
832.42933650416
139.242138194716
-561.696734869532
-1171.93928288503
-1592.06218817223
-1790.5360709514
-1815.58790815397
-1730.74560968963
-1579.3425287224
-1396.80215053187
-1210.69097071367
-1034.69295579749
-883.98858655396
-778.214831802101
-712.527845753374
-643.569476063693
-519.445219480755
-324.757719089909
-85.6698928672518
173.904799763426
453.799908839361
739.972577075673
971.490422729994
1071.60564446857
1013.21192929156
844.15369774309
647.650251250474
487.836869035772
389.357527452481
347.040409957036
346.725776949413
378.470418292507
427.133929795083
471.17518979842
506.806068526887
539.185868777542
531.160884183221
395.728405541743
70.0985277751535
-403.59608121367
-893.230991627552
-1277.56297516146
-1507.33162381617
-1580.93306236795
-1513.61179752201
-1332.48961603146
-1066.2952321596
-728.81938784425
-316.445573428508
168.027283729353
686.679556560045
1178.8086299164
1599.21607932376
1922.85907496541
2129.40205044065
2215.38831703058
2204.25825908914
2118.67681063819
1955.40583353001
1701.4560572529
1367.19111954121
985.102529453969
571.964007632236
120.129656453
-356.743805709779
-804.278435966654
-1184.00961502159
-1524.91500949391
-1890.10188226532
-2299.63468998774
-2699.71024704179
-2997.72099750481
-3113.30784886767
-3010.06202088248
-2702.75957578642
-2246.66317671039
-1719.38203180216
-1196.91336532042
-734.577883101069
-360.538839876535
-73.2530799630935
151.302431308556
336.376576636586
478.029136044739
542.955999600099
515.240973970705
449.605817983249
445.736172000658
554.326676502998
724.698352174079
855.519098298206
890.049927304564
854.315915479407
810.548197254065
787.969614135097
763.009231947753
702.313561389721
616.343093512702
567.611910811446
627.466146956815
809.822669305556
1046.12803442372
1250.36331469686
1393.22340063547
1487.72460229133
1530.28754418988
1474.99509889981
1273.62806490639
967.772829995331
704.013446949217
593.920194795624
602.010541643718
622.323727166586
599.72348504312
537.243403326587
451.058686150827
353.515206483535
242.425944086918
80.8770253382487
-189.475022875862
-588.687744990954
-1061.36002453477
-1517.33584199936
-1904.34306434673
-2212.31001277147
-2413.98761490443
-2459.87486596139
-2340.61387638399
-2102.99970456155
-1796.26506023903
-1449.46962070498
-1100.65347415231
-790.457390476833
-525.762924399215
-284.004041512708
-42.0179237713516
202.831469624415
425.350263976766
601.246170901941
741.252775128129
872.777029171764
1001.58510439131
1105.41244434669
1144.63440795143
1079.38271516929
903.240974925024
669.835866907226
467.394812045121
343.247851434991
268.311281425707
205.631304754209
179.417058550422
223.415593387443
295.111257418674
301.926965940705
200.265802800503
37.278267353141
-98.7716284318332
-158.949654791732
-167.328127409337
-178.672980209775
-213.196209903618
-249.353741883318
-278.335923842617
-336.374314592111
-468.457563142263
-683.555399608918
-954.265200398105
-1227.69100169235
-1425.34444643187
-1467.40079309791
-1320.70137860472
-1016.8199850852
-626.88061837918
-224.738398903772
143.798765991861
469.302181964611
757.444852595205
1009.37693645365
1223.27461136471
1401.81425025143
1552.22264581084
1674.77711849513
1753.77148315165
1770.90873797905
1724.39288272155
1630.26405311452
1510.29245361637
1369.68239519101
1173.60698674345
858.498257680072
393.288256449722
-173.024269011385
-750.116686827371
-1272.14425510549
-1686.0406694867
-1918.52136748388
-1919.65851207881
-1712.9185884894
-1371.39982515569
-975.993984943105
-590.882982776951
-239.724526154954
90.878599337186
413.993389280918
715.440652689957
962.163009925934
1130.20363364145
1215.98961964058
1221.35342154339
1142.66203953898
977.658306650128
737.505034505684
449.838681825237
138.657419195324
-202.76705635088
-600.061423997513
-1051.58910740751
-1514.8011337765
-1941.77182486043
-2299.91738818451
-2551.95232340312
-2643.66790093041
-2529.75526735073
-2216.75651892434
-1780.98557141255
-1328.75758893167
-929.619661039942
-594.356370614685
-305.562974819715
-46.5699319124184
193.038708115224
418.534979332414
630.150105485126
820.59755117608
975.203764647571
1082.47005848197
1141.84325669627
1160.14659726754
1145.95119936885
1105.32751354617
1042.86494072281
967.887771619895
888.168865697489
793.164264285262
661.032860701432
487.167824585985
290.203262738991
93.6736275066063
-85.901745844397
-236.784084239015
-336.102343359523
-336.986019575023
-195.468755525284
79.2368726152167
421.718514047694
759.918347635799
1050.14938078511
1275.5523677774
1434.10582833626
1529.7883964908
1565.44943494491
1532.08823450589
1407.38967617846
1182.10848256352
888.478239595515
587.539851045466
315.05069840416
30.89534820523
-358.140260165739
-884.996778452113
-1436.4579384456
-1814.38938254714
-1874.8502509878
-1609.90434895011
-1141.80992631358
-639.397856356781
-214.401800840474
99.4212449340507
303.226288338814
413.036390791529
454.345031750324
434.356570740033
324.446769977453
96.8175724317986
-227.019496354743
-586.749895636259
-929.437521665719
-1228.06052527221
-1473.84098640362
-1661.03578041045
-1759.72873193101
-1713.43409359741
-1487.76191138538
-1106.68045073319
-632.616586872929
-131.767194211005
335.644502694511
711.56625649961
946.591707689785
1017.1425568934
943.096200945472
792.994471199602
656.969566167275
583.311543958363
526.915493793847
380.667236390477
80.5577679700589
-315.41860967288
-655.693157708501
-812.109409306498
-768.916116187414
-597.323830425403
-376.441529565241
-156.367064265187
40.8829552636668
220.830865872301
403.005208008485
593.444483300192
788.945317067058
1000.07046341365
1236.4172558858
1476.46007863726
1674.86076439443
1791.30078445261
1801.48497267385
1695.54358258375
1484.32771012805
1201.78444843535
877.579478478165
501.284000508644
44.3604824261092
-462.446920071461
-900.179942185606
-1140.60660925055
-1155.33876204374
-1033.36806337715
-886.935312389502
-762.440130082726
-658.125170280414
-582.544415977107
-554.23967848146
-581.953273960543
-671.96084116072
-822.391876021934
-1004.29658652953
-1170.43968778514
-1283.83153921043
-1336.22708528619
-1340.03915736766
-1299.65132934426
-1198.89592798398
-1022.79789623576
-786.364556065131
-540.318126812119
-345.153719824743
-228.368772437252
-159.474530732507
-72.9964853074264
71.012857663581
256.121499120306
448.026177024322
633.984880784595
804.220428924632
932.187311487947
999.254914982629
1011.3083608725
981.836489587655
926.126931942917
864.942374405373
804.003277303787
719.243744393172
584.292778584026
402.396657120061
199.178464932114
4.15004554258316
-147.07673232575
-214.38478461036
-173.989264206715
-34.9301226561472
164.347849157184
380.454424539918
595.085500324511
813.83543042059
1035.97189986426
1242.6345066099
1410.70729759633
1516.65565852
1528.78684012673
1416.77453940556
1170.63677342956
795.904015309761
297.565689809404
-300.576644101432
-918.366460223829
-1440.43349997953
-1789.59353740906
-1959.37540866078
-1987.33030240577
-1923.92021907274
-1811.64693598627
-1669.51308035955
-1493.30000751976
-1269.84272884566
-995.993123967571
-690.127928076605
-381.850038978842
-91.0802842327062
176.256014492967
417.488742164052
628.883948788033
804.84950215369
931.861541131014
990.904098264639
970.714846535178
876.809935730582
735.364319125371
595.057828002931
510.360163599006
495.367866254512
492.099861047778
407.254947059388
188.662311756363
-127.610660162852
-430.196857517227
-609.068162238064
-640.911159720161
-580.516652672745
-476.224341919142
-337.657936052435
-173.163834294673
-12.5110616735455
109.496023507365
172.379846103776
169.266496974548
102.31629848082
-8.65875608068439
-128.637521551193
-236.074346602599
-342.301929687355
-470.874644384169
-619.751959244402
-750.077767819685
-814.13533680483
-793.978118494398
-703.933758162198
-557.731163460157
-356.848834058945
-107.300387658354
174.204243286719
465.74618664324
744.464723408666
991.153177926537
1196.59529919758
1365.27426918517
1503.99222030107
1597.0202888506
1597.22947698174
1452.68106358993
1147.15187689606
722.393463092513
269.99547895955
-116.558454447731
-404.968112076746
-622.109256965014
-789.774687575445
-898.593800130511
-929.903932521932
-867.654369447994
-705.691700570666
-468.302255676629
-217.001568297478
-19.3158820523359
92.9538850456464
131.306579056293
128.890696865508
117.969817016258
109.10023800335
81.9552352108511
7.89750764088085
-115.59684594446
-253.085580961768
-347.337126933495
-352.08445748501
-261.127428226517
-114.277887757067
28.511808419982
132.282092068442
202.406474779373
248.838145207468
257.66297640046
208.690381262062
97.609694524027
-67.9896296224165
-273.175351062091
-491.269841318762
-693.206351233573
-854.684200221777
-941.963788024584
-914.404705443062
-756.949468396786
-500.255994747493
-206.887654786503
62.6055680980206
276.870756847642
432.429606762019
535.236988072532
592.302969738428
613.062598040643
603.433824857981
556.335377237195
457.113183792589
302.104977141938
107.633494208516
-99.5481002232663
-299.235931551083
-486.60423038023
-657.529467659997
-783.446624531262
-814.87810387996
-720.005682178388
-521.379365724514
-289.930040892508
-93.5474564086572
50.6685973125799
171.230279443909
293.260273908942
405.98558551716
481.433742193526
505.506783054293
482.514524872387
428.183154657507
364.150392857196
307.715310740326
266.338887551756
242.52931144925
232.986544724893
224.414557199322
205.652244424319
179.890003283856
150.477339555682
103.245213683447
15.7344006389856
-122.339176791841
-297.346101629497
-462.418934601854
-546.328614294105
-499.482094334744
-325.787176305104
-63.6206016404208
238.041606764745
529.865146093634
777.431324259775
966.733396603616
1094.41629573275
1164.13376803935
1189.70904191998
1185.65437666294
1149.81367398405
1067.91795061904
931.572097245154
732.693037644097
450.766227384873
74.598951910533
-360.559089521923
-768.307478594085
-1053.41641543493
-1179.64242479988
-1192.60224118317
-1156.75319027901
-1089.55300719271
-977.845716553128
-835.672155505187
-712.423577557268
-640.973080126359
-607.653710287526
-585.79882818344
-571.008208523767
-571.79068410378
-586.538055133116
-597.041353903701
-578.883880095629
-520.321256563565
-429.809934621679
-324.859596856367
-219.009743798355
-116.242446758606
-14.9637158206614
79.2990495636411
152.489602381485
198.275872925775
224.627847087262
243.677939664155
266.359638979813
303.478337725944
357.209589367628
409.008971300187
429.64651613078
407.295555408416
361.310733104027
328.457296960592
334.979578363394
381.25664923063
452.267311554003
535.504551794674
625.137479606
713.220852697038
778.167172124553
779.393191554269
679.065674770473
490.190087386639
291.555756708547
170.057551141025
141.353732452037
140.364692538114
97.8927998102889
2.60848163479378
-119.181342837642
-247.320263660363
-379.110251790158
-518.907100573898
-660.631818931103
-776.354327138605
-831.538495130968
-817.100552489957
-759.268153558766
-693.915735032582
-637.956663456412
-586.614727947176
-526.367061789864
-444.5510210205
-337.02085761008
-219.031429337975
-123.779802100426
-75.8439853322975
-61.9005024662539
-34.6732236435273
43.96447710496
166.83963919556
297.50690580438
408.906813963867
495.4335937153
566.345668833526
633.716047014169
689.693444759845
704.754534297557
665.873962612375
598.426721905591
537.368269467723
488.048892319711
412.263734497155
250.565739477128
-22.3692688495555
-357.904447498984
-659.103411169701
-844.974729659832
-892.726863373107
-837.522561493583
-738.247532840151
-635.814980472107
-537.257414439675
-427.144377007984
-286.182725542332
-106.813006136684
99.740344938246
310.330847865924
505.272299992506
677.547461989293
827.286157456775
951.952454498164
1044.40725927571
1091.65436403107
1072.93435150965
974.97191981006
814.767697077855
631.041916099504
449.394477855642
269.590442427019
86.803230054232
-87.8967501668004
-231.535941850824
-327.918658241138
-378.750120319074
-402.021650183344
-424.462481708708
-459.825926974846
-489.720315350122
-489.104548512605
-468.893402163897
-470.301829820047
-522.229346112815
-615.455263503012
-709.75204476223
-763.445194496882
-760.878220816582
-712.370188670192
-634.154738198035
-536.96726254472
-432.66833054294
-333.609792513203
-235.154265343007
-115.622312345929
36.4342061471191
206.256608379399
367.557534502648
499.758199519633
588.901554419239
628.930764828622
625.378963739311
584.036773933306
499.829662076011
376.940954472208
256.97476096156
194.577500678717
193.590768965473
199.034567699539
168.050044689273
119.687251603496
96.8415874755916
101.431015571165
92.0370915678013
41.6272496102142
-25.8575021127565
-65.059252518501
-61.3299606394879
-43.1285500315185
-42.8427157631503
-58.2860886756028
-71.3555510367714
-88.5691532934291
-131.555356362598
-196.785058587003
-247.400742785176
-243.636738286984
-177.634376521005
-80.807196596505
0.228006761318329
34.2374020728953
21.1501404973862
-14.2840992682808
-47.1726209307028
-74.4468100645386
-109.402064131266
-153.637395370547
-187.085613089001
-194.834613169416
-191.407829238655
-206.324899307624
-252.045093092192
-315.590865593052
-376.598056673043
-417.870290943653
-415.911631588933
-344.239246293733
-200.701212276882
-17.7007979288751
160.98488970357
305.375973665731
409.052434581891
484.009050942593
538.366863021332
559.385772053236
531.740938042574
466.205340782611
392.761786949068
329.96966487846
270.945837821732
200.207298730374
124.804401562972
71.8107571501502
43.6308002602666
8.01829993642223
-50.3493583854454
-101.192866432325
-105.96616144593
-60.7221521372003
6.34299691017599
64.6845149404878
102.251275338493
122.772551004942
129.889334882248
120.190429717759
90.3118700933368
44.3803563689095
-10.0204116962998
-73.726832307744
-157.026617361463
-263.18218902175
-378.354917014393
-480.967256668424
-546.674807149715
-548.056274023311
-473.128330788016
-343.148669278895
-200.713531406367
-82.1670816200502
0.605459466970653
56.1488722518102
96.1867601790149
129.392607731838
162.983725322033
194.012774599052
202.391576322616
163.33677047554
68.8353603818339
-60.5187959621552
-181.493152953447
-252.785132946
-262.038477433508
-223.821046189232
-150.44275476031
-41.279182332123
94.7720163804188
227.033645937804
327.694677922002
397.501039043452
452.722922181557
497.125896260534
522.699429712633
526.218198001197
508.280788658917
457.535573936512
342.66138231284
142.328519391849
-97.8914304528011
-270.931035029168
-304.338746032855
-226.441079582367
-117.924975590427
-30.1132164480848
32.0036049913025
77.3827848871946
104.933946990715
101.489883927991
53.0543151226509
-31.5133167376881
-106.626910509787
-117.095144059077
-43.514180408358
83.0124526412367
203.823455819912
269.823364288216
265.829328127301
201.913363865743
82.1517957459495
-106.8892408946
-364.798862628432
-645.40168579941
-875.446206431735
-999.373065109541
-1001.35946779798
-902.835089796277
-745.679499941292
-569.724814888165
-399.766834694031
-245.458100835088
-110.989468479817
0.13692270616894
95.0616947668281
190.963160881876
293.753953386554
387.819897245971
453.407669221527
487.324180383278
499.614315194266
494.81638035886
470.934226960931
439.661607869327
428.411379493082
449.453891385803
474.170636913696
446.280235783047
330.466826962237
153.649953071229
-13.0350837038879
-116.251746783192
-156.545447580479
-172.067862113871
-196.274408844515
-226.430235551036
-233.234116517086
-198.958330740441
-131.792825561058
-42.7465813995264
68.5525191269165
196.224003385978
312.024959497908
376.880806911614
372.412067341229
321.704174642188
264.052161791547
208.11597183709
133.379231943474
33.0128025066025
-72.368528578911
-155.780202792709
-200.15480736784
-208.585904524368
-211.095355294378
-245.843623353069
-323.12717332286
-411.342280854556
-460.630561305813
-447.713122895315
-399.977032136334
-364.697423522876
-359.237911555627
-372.548952232222
-407.609512607521
-482.242495706046
-582.763568887435
-656.23883666046
-659.146839217931
-589.238558797766
-467.675351436237
-311.478634790302
-130.719265408328
59.4446039026081
238.096275720276
393.46661822408
528.503581558928
644.533856294272
728.963470550705
769.786518812172
780.195005182637
797.766083092558
848.868812090792
919.714377942717
971.108211895081
969.291355768493
899.110780998472
763.431975544483
575.294300747927
353.702300492769
126.495062366362
-82.1798902762887
-276.056739273043
-485.750239303358
-735.508348905312
-1006.9713137886
-1233.93067207936
-1341.79584540205
-1294.41593898806
-1101.03782341614
-799.876890856855
-449.425332464781
-114.737812456736
158.744071432001
362.754279784441
517.542666730203
644.9361100842
749.626238338863
821.289708162489
848.800837346489
830.124341891838
763.206032350448
626.935828189408
387.954298725753
43.3598841924396
-348.170911041253
-690.224377096134
-906.230197011237
-977.728598289215
-935.81392449225
-824.516702525805
-677.766869756259
-517.733607000484
-352.971199617678
-179.461084110601
4.87178635446601
189.707875218258
359.615132414883
503.749071312293
617.224217275268
702.409451450969
770.091052346811
832.135199183344
889.48581246805
925.203537057521
906.41482343276
796.558595061313
575.789981234797
263.748298065203
-74.0524791503651
-361.553577271127
-560.021826209965
-668.284883768934
-695.907009919312
-663.532341966687
-608.614290086533
-569.237051463426
-567.94855510999
-599.312847133959
-624.481323434363
-597.979035502677
-506.560966345473
-372.849472842826
-227.054701988938
-88.833414736801
26.3186717547245
101.785340948331
132.214755662086
137.024849568278
150.70027371034
193.296270672529
257.456273053043
325.672634679669
383.37600368179
414.104488859618
402.308384047904
347.496104808682
269.760539781706
195.887894658728
134.528925927433
70.0896144772757
-15.2428829198807
-121.865231717881
-229.641073597813
-303.841199984859
-317.656608232535
-276.703195294753
-208.000128826556
-131.768669014733
-58.5341790177995
3.15931017865591
51.7753216332832
97.1026687574212
154.694696523003
233.274495634711
320.365023224497
385.866145530409
404.919793458133
372.796268675946
304.97467303294
229.236886236409
164.400308155804
101.631367497766
20.3920973838726
-80.879651943831
-183.258378335658
-265.348701139417
-317.887425310361
-352.620686474635
-388.154861907726
-419.93796146978
-426.645839141968
-406.895675860915
-379.544020502469
-352.783867443352
-321.72788920067
-286.910945382241
-253.863825616557
-226.177763698933
-208.615279030201
-204.622330412623
-210.31540499378
-219.606748980623
-231.182971962524
-244.399015994752
-252.005242724284
-244.812676486003
-224.030383134447
-200.644493670118
-176.9944118142
-134.016691107196
-46.7387920529188
87.0168083555022
242.927288431726
395.255156062318
535.998044403873
669.006614121681
788.887820734456
868.664575742237
881.131726137622
838.242030967621
792.491456101589
784.498068351149
797.218177927254
772.058982396511
659.858059496562
448.053548256104
162.828839150985
-128.258191592204
-333.335258887897
-389.535063031838
-307.816933727006
-159.856040731983
-14.028004235876
114.300190205449
241.405989529145
360.16906777206
432.178229130154
430.060701721347
364.548328853181
261.27191056667
126.113062559878
-48.5953492716565
-253.798727200872
-463.977898852531
-665.719280024572
-860.23941841865
-1028.95619231417
-1122.03810597553
-1098.81706870585
-965.115574113707
-766.757343100432
-558.41532176067
-372.639493593491
-211.511579610166
-64.8356958082921
71.8952811675236
189.582770140138
265.374314677707
275.747327571184
213.903350677391
97.7011595490655
-37.7250291539948
-159.597275660681
-248.398408566351
-290.105424420488
-273.690602651085
-210.229626389993
-146.935216508616
-137.04434133761
-182.90818894259
-226.901874376178
-209.795043605228
-126.009352162983
-21.4600824969025
52.7366551035365
83.6089472535088
98.8224455389031
135.563885942089
213.389026930344
329.638214174124
467.132856578908
607.22653138795
745.820685176947
890.647423490935
1036.11665013534
1151.30698343191
1199.33661549166
1169.12397520732
1081.71687696479
948.692741414473
731.230727361096
369.838679257504
-141.168512782026
-723.812982562834
-1256.26823570814
-1629.29613481426
-1773.27763522832
-1665.29648229128
-1340.63311828725
-890.864088737402
-422.724858759311
-10.141733990798
313.722395778423
539.254825210883
672.507040320549
734.194664521266
754.140273232628
756.072492738524
739.994540761048
689.362182630058
595.839370729838
456.32342608722
251.443708661671
-33.4793658492803
-358.919559206474
-634.866111358195
-782.285163540846
-786.967423618602
-703.606422812079
-605.447667135729
-524.772290924761
-447.503200943605
-357.402647818936
-265.661405390868
-195.221871302002
-154.557265578394
-135.798282084107
-126.057926470821
-112.301339743814
-84.4179329412082
-40.2710275815101
15.3857718927835
72.1021989708778
110.39541646323
115.462800969836
103.083831124999
113.381582332686
172.919108651574
270.926501557895
367.171269347644
425.531702367406
448.385607017679
463.843889359073
478.503384466817
470.51744871135
427.777837098192
363.362996391367
292.219594164167
211.007949657571
100.967871186777
-56.2101020200907
-262.838356737577
-494.351795518168
-695.412885013322
-804.188918648586
-799.397168231085
-711.440242913175
-582.138269107037
-434.210138157098
-282.215563635304
-145.794354753495
-39.2300495671039
37.845796856281
90.7507106713601
119.490105328721
125.118796413836
119.843428185404
122.519952859999
141.615252688495
163.938785721298
172.389932047089
181.121377583487
229.19876751616
326.088837432186
425.596740833709
463.470243618054
414.96901780464
320.554229140271
253.095220990645
248.766717675387
270.017022249345
239.625418824685
111.950509171589
-85.2805440662422
-280.924674536928
-426.832463212289
-518.317779344231
-561.350330132024
-553.193107920661
-497.458665478525
-415.143177282213
-326.268899199084
-228.996966786947
-117.331502075245
-7.24003597887526
81.2882290281546
149.555936664364
205.183705252058
239.456328149559
230.514015388344
161.700075446527
41.0411851698161
-91.9515589251126
-180.36043649124
-178.20904400301
-79.4934265213453
78.3294386057693
245.141449135795
387.907016197735
491.927145073753
550.047377090376
562.932939022287
548.743063923078
539.486382913642
558.325100707264
609.423917873376
685.537174136989
763.822649022241
801.415363748473
755.881303992161
607.435630887798
362.051624103594
52.5606195950789
-265.270637135096
-547.372397521602
-791.618156254205
-1005.21331696761
-1162.21770485383
-1233.17312984004
-1229.37420219416
-1178.08997939156
-1081.02281760583
-930.818353804469
-744.154502892451
-553.703033416322
-384.385166247854
-247.033843522652
-142.72071471429
-65.3882789409917
-2.69177793269305
59.9562976027556
134.146521128225
225.765263503664
335.034340716479
457.759140673094
586.771123686763
716.241469872748
843.529218771077
961.0903919842
1048.80552627713
1079.87459648469
1035.58491463281
914.457281296985
725.012728439801
469.301415729707
147.505533601339
-210.809471830663
-539.486929978265
-780.288103897267
-916.228774690615
-943.61758665726
-853.547719548124
-673.0102663796
-480.323417599986
-347.93726235954
-288.847446472913
-266.573838698731
-246.686345735371
-228.234854177368
-222.487046323796
-220.928446130759
-202.266915846545
-159.485429247941
-106.070444536286
-59.0967437532296
-21.2603232938052
19.2511720246217
71.5191648985769
131.155253134665
188.131583308243
234.097996033379
262.348138516526
272.062900921614
270.310537944874
265.549503301049
264.990005399826
274.601583108311
288.767886966274
284.378451799823
237.831711361677
142.412885794985
5.30627860328163
-155.195526362757
-301.321096790947
-380.422998592229
-356.940921091561
-250.144124359054
-134.651638524781
-88.0831010112773
-131.74502441582
-221.772875013454
-289.157926326926
-285.319449464811
-208.015927491918
-95.2794252608166
18.2880096751089
137.337818910758
282.298007710513
447.420403669594
604.487039396097
722.515019281528
761.445738819882
683.906400246518
505.106191459269
297.58619658769
120.495031177168
-23.5808792941369
-153.255584762947
-269.911047957747
-356.853167638747
-389.956503264692
-356.893227282092
-276.7701673897
-186.585785448404
-105.881703072834
-31.4440513838273
31.231099269165
54.7812013378964
25.3800651788204
-22.9382407795546
-34.2129935418499
6.31081607347875
51.1629948697173
35.8816676097242
-66.3543350146052
-229.491764864426
-394.236965600664
-501.46548860536
-521.531756047366
-462.006239873868
-354.366025505275
-235.420565093271
-129.720028577847
-37.9302217272358
54.6529659968889
154.235835996869
251.6575979584
338.827331162593
412.358759456325
459.111062457165
464.0257765456
440.898428944228
437.088008646364
494.137431829424
599.609444466416
683.025864770418
675.160849629462
569.799249626974
406.934625231838
205.59806683143
-41.8277395295162
-305.694370967584
-504.249756235586
-572.292746460109
-513.92759980219
-385.588558667258
-254.011384264865
-167.537093475193
-140.287131992424
-159.572021798817
-210.656942990723
-272.469578154147
-299.309143959674
-246.886889192374
-114.092851895636
55.1084197338645
200.56218053151
279.538816971327
286.594176399735
237.660785773827
133.992346254508
-34.8572869942564
-242.413664826358
-406.17996264068
-444.260820248566
-351.367160035065
-199.618081429427
-65.0976223746151
21.9491286545191
63.227899030911
65.0751991018403
31.4325556956198
-31.6917993503817
-107.579818928746
-162.531041540404
-160.372253506838
-91.7464241735462
17.2387193297797
124.54004151234
196.825165546096
225.693853344311
225.579461497678
212.127381627185
187.705469057509
150.445815208582
103.476888872504
42.5190151896278
-54.8543514876201
-201.678794886841
-362.246271386091
-472.815322955968
-510.171716750934
-506.142362727843
-490.609180043026
-456.800640666228
-387.091185099597
-286.154989070643
-178.852005438329
-81.6782493692233
11.9873456793416
110.968813505646
206.688513910051
290.906557092944
376.977049400176
485.558542918797
617.433029746372
747.11159704352
840.77414897045
883.243946174311
885.826867942526
861.737255737271
798.750225456339
670.236028311077
479.953687577324
279.888646423288
121.42016580118
-4.04468553911692
-156.053356374198
-378.327235886222
-645.7869163473
-876.347531116236
-993.792764055932
-973.865731744682
-846.397189013766
-676.619449869854
-525.646584321668
-413.06448178912
-328.944060777601
-270.194481899293
-242.437171259677
-234.248459315983
-214.625130292014
-161.865910338384
-82.467575218536
0.0663019604509073
65.613075685743
107.975283471493
135.593436815431
162.615159623869
190.811524164603
203.155764439036
187.197818431033
160.55457814313
154.89564269837
174.784576504564
192.202603446932
179.843081886166
131.775327349576
58.8478902702931
-21.6086407211093
-90.3679798657072
-121.131046486102
-89.6264068490658
-8.47220163469876
67.2871033806913
91.4682878885178
69.1375822637099
36.0346744303991
9.95589254698575
-23.4854961452543
-82.914116724092
-157.702516584062
-199.736994245742
-151.918457600307
8.17745305276915
248.173402453005
495.541906232507
680.745328650307
781.25208401327
821.465928950939
839.726264845129
866.079363429457
907.289795079841
933.753869053294
892.807167159765
736.708650955888
433.116090028952
-20.7755417008038
-563.145711652533
-1071.09144786945
-1431.89270031445
-1601.10788923058
-1593.91028875768
-1453.43104749959
-1229.03644612601
-962.688531186099
-686.82755617187
-425.270461506514
-190.703532266822
8.86262793813102
161.901254023819
263.858708910204
330.371603496233
385.738690663414
441.03034146204
492.652684863083
540.572207723211
595.082034058224
659.21430863893
720.170906168936
763.619835590907
774.641465834494
723.443033106325
579.954034481121
355.528535316341
110.241913258032
-96.4860048464884
-245.589917398507
-342.519359777494
-390.15165147705
-387.862630880263
-343.16089433805
-286.11790132967
-269.082904104811
-318.390472240087
-386.7782709172
-402.362722345038
-357.765224561031
-298.794185838707
-247.341783704587
-193.53311769114
-140.981166853655
-107.943997787343
-98.9726318285818
-102.509884448553
-101.012782638222
-77.7430422835331
-30.4440757923113
22.3579821717709
55.7303827575547
56.4829786890192
29.9792158976338
-7.56695362889562
-43.7442617266079
-73.2595512298504
-90.095504560718
-85.5998612962631
-52.7863789554483
10.0236323395303
95.6674915832621
190.472228055411
284.350930345209
373.326225718558
450.399316786853
503.753217409356
525.38152927856
513.950781261227
470.745249317738
396.488780674351
288.808983128256
142.962298759742
-37.3009147006757
-231.099910256851
-412.410088802504
-563.621389135948
-667.111035969363
-704.502105493467
-686.525619379152
-659.119087098477
-649.464617164684
-628.043496401457
-553.729695672862
-435.045881873903
-319.551197066002
-238.493695396067
-180.165827208063
-106.537710617485
10.8731572675666
163.74702740068
314.779283590383
428.841990114849
492.209254646318
514.506817976799
516.415313176817
507.383102575698
479.141056899402
423.261377452455
352.384912658853
301.824068665488
297.538999393929
323.641441831354
338.892927216766
319.527408707885
271.828339296721
209.849612521326
133.424348275251
36.4327809818224
-64.9090999999007
-137.277228368377
-176.364491873538
-221.391819940624
-308.361546333246
-422.026008857125
-499.842530495118
-478.909594422346
-340.543534544024
-118.544542119896
123.960907608268
327.657653886644
467.129974810533
556.657200702383
620.471939159931
661.080531501653
656.348715506797
575.554915935588
398.129249310818
130.933586657711
-180.416273578243
-464.33783573038
-664.284879809852
-764.211984519314
-771.823722866278
-701.043895412263
-578.736071219253
-441.696371639438
-314.626495013043
-202.040454316049
-99.6647982080712
-5.84398117749067
75.0563235699209
138.291875298795
184.972033289648
214.079020648379
212.279579216519
169.141505936243
100.569493508015
44.1674664960739
33.6093759577956
68.3459082907567
98.639773262853
61.0479967974452
-61.183728197768
-224.665150436894
-365.609300397425
-435.398504632601
-407.301824667945
-285.789043649845
-118.012087556252
38.1949131469636
158.43909295975
242.032702881667
291.672447478568
325.674869444287
371.289383222223
429.952302035316
471.486411065682
466.202737450789
412.620464058628
337.001382067337
275.432024783159
250.464807636255
248.824204190685
225.626628187483
147.326551242076
25.6703939692415
-103.738709905713
-222.166307363437
-327.90960972939
-409.295725984152
-443.374445565798
-428.37515275363
-404.275633679098
-421.657997901109
-483.958101106479
-528.983056898387
-477.343906262961
-305.644158641612
-70.6542006754548
142.812223156771
292.015030605647
388.485027307332
454.528120129666
491.6041542656
491.350382596578
456.048139256247
397.736947826563
319.142671176056
200.044711011417
12.7996950496372
-239.266994410599
-504.83739713561
-720.111737332901
-855.506502171706
-908.171291044896
-863.285509805124
-701.61158000063
-444.705660961259
-162.239477670487
69.0779772461274
205.821703412637
250.80068626622
236.497338356269
196.023908727533
155.492042444297
142.390144142434
177.191516633238
257.913358277859
362.345256484745
462.273797407528
538.554007208259
589.197458683495
620.694676883439
632.630803976945
616.894973293003
567.322331503419
480.568033589975
349.216733640816
162.337025962478
-79.745010804935
-343.866788707469
-563.860898275123
-682.96427390903
-697.218939511494
-644.676137089555
-562.638457706732
-467.525555708118
-361.158915664433
-239.068433988549
-98.0024872308077
55.5309155475232
207.081370105122
341.933823634005
442.961979124832
489.631543045799
469.852926904539
386.166903667108
253.888818866523
103.869752247718
-29.8619876941997
-141.666279141474
-257.959953484864
-394.773928473251
-522.809636274648
-590.492077963519
-581.530273426362
-536.018483792927
-503.865719550754
-489.858010944372
-466.523228441359
-424.488301494111
-376.808623754242
-328.78618636828
-271.386771248283
-196.113264065749
-107.817719048505
-25.6552833395207
33.8113353217698
75.9214753449716
125.755939383696
207.746261336442
328.38597648214
469.719703422605
594.735683048183
674.23032676281
712.540460528764
733.520126731487
752.437679176533
776.819132780751
812.348483861949
848.883416129119
859.676482494315
824.751663663205
737.359842793079
588.435439569811
370.226615710669
105.592144219973
-137.906004857461
-282.377738668425
-301.510921156901
-243.027149278932
-180.891523406381
-151.912308433447
-146.330933812309
-145.668190462997
-146.069513351547
-145.040021954066
-130.382185077285
-99.7641227388616
-76.3284821081457
-83.5039245804988
-117.442343364247
-164.406184981675
-235.432869738755
-367.711710917541
-584.210627217274
-844.06681405346
-1042.64668828083
-1086.80051429843
-973.032189989038
-778.317322113966
-585.851729113503
-433.94971944793
-318.436527745927
-220.753276976873
-128.584667855691
-38.5658405048485
47.8302703880685
128.834902377825
202.4054226725
258.715071850513
281.463498389341
261.484598263812
201.599436797534
119.121118284763
55.6125716113186
55.9066118859756
116.261472875308
176.975555311118
179.753418435143
120.794900530319
50.8358397669642
31.806368568403
86.1007233843443
180.198578006362
254.913506389386
268.530058432132
219.333460556362
138.763736488635
63.7701872237643
15.6181607435407
-7.5311457997203
-29.5048048035211
-67.2912563137959
-103.23199540659
-116.634288208267
-127.134680802026
-166.318563910954
-221.10719704819
-246.405746771034
-228.477101406707
-193.450837839936
-141.96661212342
-19.6871215817702
210.880204923275
496.209564980444
729.301231498743
853.716294057
905.498093454045
954.111848327623
1024.3882134437
1087.81471768083
1110.42700730463
1082.06040106967
1002.18171766758
863.190413709033
655.731231759296
366.765993815034
-30.8051106630603
-538.903376600098
-1063.64267671537
-1434.8567113713
-1537.29570326069
-1403.70031850489
-1163.49315321801
-925.247384535007
-722.034280779461
-543.647245323155
-387.153232257656
-265.843144345421
-186.686002443807
-141.267985821063
-117.862930320267
-107.238114391198
-100.249994373931
-92.8763653400627
-88.7060285487598
-91.1647661098888
-98.2157511352903
-105.424524373301
-111.990675820988
-120.28963900141
-123.753312266624
-98.167566953119
-20.5401088729958
101.280222861163
233.37070817068
347.570758265145
437.471263025549
509.127971086813
562.748227111788
586.220357266205
569.434328782765
518.131733598258
447.15716695278
359.830252203332
238.048724830575
63.6563827895448
-151.278380736745
-362.175651487446
-514.831890599771
-574.10797846449
-541.551172372759
-445.959181508955
-320.053266208538
-193.571972921424
-92.540467409403
-24.5214967197725
23.690267250407
63.8293316516024
94.7583821062433
112.872247395942
119.711849352152
118.599322638154
110.989771311116
97.6993209380333
81.7610023792286
68.6045456267389
60.209587939044
48.3102195136852
19.8235309779983
-29.1305753863351
-88.5675907386434
-142.629657161165
-177.859737672535
-183.897808119213
-158.492658397073
-121.432887296074
-107.800004179746
-132.568048021596
-172.842242620693
-192.932423511476
-177.786178149626
-143.311622523462
-123.06060567156
-137.536848081022
-169.929988095624
-179.045139749935
-138.527572938995
-60.4923886971801
17.3704699596135
65.2904197111035
83.8308938655526
96.9649724758507
125.18769770783
165.084284676509
193.906936815443
191.868907624164
160.12952379292
120.533374281287
98.7646487859298
108.785366793945
150.962552816886
216.890625541947
296.509413268692
381.057331215542
455.942482523147
502.130624020655
510.105132570262
481.727785880191
427.026335489994
370.006445901179
336.674757418868
327.357350208839
316.428739358852
280.219394595314
215.629497179099
129.04165807643
18.2083248834176
-117.338914669625
-261.336911680713
-395.889782381584
-513.89351545872
-612.794355963004
-692.235956895286
-741.727340075277
-730.16989242976
-640.199681896107
-497.901206389409
-336.79743603248
-161.299116481809
28.6894523147493
210.163977066094
353.298120878026
439.98402093869
462.009021685012
425.133684675442
355.12387176455
276.390954008294
176.570648201582
11.5329486885117
-234.414801652633
-502.59560625486
-697.190430939758
-764.791725783097
-720.065679033021
-606.415995766721
-456.435771955694
-286.916732147902
-114.966523129195
32.2332103701456
130.038495803313
174.582197655394
181.565477769588
171.017288913467
160.6352292826
167.412715497309
198.911339393859
247.230922388639
303.533499678035
362.621814310487
411.60947999114
445.283936029641
488.104687217026
562.521766112474
643.599967890365
685.052440309232
680.457177984615
659.579320325672
623.552158005904
514.52734294422
272.582072514311
-84.4451322081539
-456.88196003401
-735.556671305563
-873.921262744283
-900.324676284309
-864.943880917617
-785.782620082897
-658.332380824509
-493.388456439203
-320.374741234955
-166.929256718925
-47.0797130965463
37.9683794348165
91.8875752960705
116.190997956553
110.75378399904
78.6936758008776
28.2518371641763
-30.5334060827596
-88.7353285697967
-139.328869106493
-177.040090754979
-193.496513733871
-176.579439258181
-123.281188125927
-48.9635732713018
23.0053653064661
80.7273788946792
130.475451886725
183.464708751429
238.475510700954
275.136102573841
267.791550032249
218.064694596695
161.660916265378
129.856530258688
124.243259805627
132.319797061885
142.796308818149
143.474461390687
118.790784576064
58.5816348848075
-24.0188072472436
-89.6545851818967
-102.708193439952
-67.4023402430607
-26.9762229721748
-20.1710850699595
-44.1565760489126
-72.3012854597272
-97.2669621731898
-135.804521000366
-197.081902993635
-265.211788801902
-316.002696982613
-337.283914595319
-325.060785301415
-275.644546855957
-195.377064201535
-104.383325873933
-15.61210161448
81.3497776960353
204.097613315448
349.025390424023
482.395242967274
558.09412149685
556.323138992543
512.029434698271
479.597694063051
460.778681522674
403.65562490401
278.705027778003
117.989049496712
-28.7270202399976
-146.818392441216
-252.883534428645
-357.723307045754
-445.871322557138
-484.246022908125
-453.211954595658
-376.003667272419
-306.947338456909
-280.18373882988
-281.127476948567
-278.477984764885
-263.08429604024
-238.033194292335
-194.240578351679
-114.465981174204
9.52130728339242
165.458889455504
321.991258728306
451.519350979486
554.119382352751
649.424877578925
746.422957766608
830.987156893188
882.906498985255
896.050395821038
873.826341546688
804.172823192029
649.760771519924
374.554874206849
-12.9371923544363
-432.151175146283
-749.088245328162
-862.830272418354
-809.526767906851
-746.586562928211
-787.442065346523
-885.698047239171
-916.637991726279
-825.167181766047
-659.661113284713
-498.626513660374
-381.929645465845
-307.831937871875
-262.283122210873
-229.225178861653
-191.655469401065
-140.235203531559
-75.0664512399342
-2.06020779809909
69.3329407757303
134.298746540859
198.137256697224
265.496838074214
329.706019913298
381.610194075324
423.525902664613
465.374614926147
504.836081043363
519.884206801401
491.472777361399
423.171592100889
328.082926173944
212.746750616454
86.3489500983901
-26.542557748962
-97.831173899535
-118.65168209666
-107.509299695944
-105.209408512841
-153.635318235546
-257.030281421637
-364.208782443178
-407.851835422
-370.482186775179
-298.71450091428
-245.210301627713
-211.801022526715
-156.013803452658
-45.1088195874838
104.527877652227
248.45820120237
362.660351585314
450.441370831153
516.156949936033
562.070083448553
599.987729448905
639.257798307396
669.572928219429
670.093361604132
629.109662562817
546.237524258052
425.862029172051
281.158154943614
135.303296271839
4.92204200457546
-118.211705711153
-261.597701176794
-437.404339916402
-614.379261535038
-741.882230242342
-804.99401699256
-834.35024074928
-855.877213120305
-852.843103266497
-790.271434633719
-664.984811233324
-515.33765977408
-384.528922468543
-288.827034481104
-218.375612827933
-156.794332048013
-97.4529792059894
-38.8412479005794
26.29224656996
101.466159516923
174.55031363911
226.9097881862
248.56912100733
244.420009187761
233.45617149026
236.829058606788
258.276057154975
283.659018726616
299.981076575704
300.392156663156
278.670457445688
235.430390945537
176.174541491685
94.8415411478311
-17.7035963200944
-143.460756532
-237.97501325293
-266.656793278129
-230.472858559981
-156.854940823732
-74.8291567254761
-1.48977781009216
58.6388333328319
113.28507700112
179.267251979903
270.612941347484
385.016507041395
502.580346573677
599.240826023983
660.340690754553
687.072860745208
696.66837507918
707.219685013096
711.511474571116
669.568024988311
536.230136630318
298.068333054806
-16.1398407873564
-350.585031318541
-649.097423225853
-880.789592578075
-1034.67122240744
-1092.55767651156
-1035.1724204405
-877.766204080034
-675.021617825185
-482.515623449146
-325.099966801715
-204.167771198039
-116.945121196023
-61.9793504250881
-40.1930830570579
-52.0809626729034
-86.9156456824488
-120.620970944356
-128.448444311115
-98.4617776673705
-38.7982411071062
21.6792933699455
52.1106500295498
54.2048416169616
66.7268404566885
125.555662184642
233.488537113349
371.71464215427
520.662369814755
661.057709296399
770.747286060262
836.104853289678
859.281780826547
845.104042894362
794.111785830681
713.853498616988
611.754305965285
465.152828314958
228.704054350903
-109.864944513185
-503.096049661568
-876.806234758505
-1166.66007188936
-1323.94483871769
-1314.67196527406
-1139.91832776084
-857.249748383139
-560.333579820047
-323.353715525622
-162.717214407569
-52.6213556100876
28.4056018988395
77.8907879614748
89.0410587535248
70.769541653906
46.0596650225429
37.232683669065
52.3330728894671
85.2393318124554
126.501582604491
166.510570441735
191.841172751345
191.989805346759
172.082736773591
149.50236621186
132.675102802033
110.634467148679
69.6098813343999
12.4713459576583
-40.2485916772579
-59.0275858830418
-19.4768869499318
78.6146762599298
209.618955090264
341.940997512976
450.146206781408
520.323634859201
564.990080389901
616.706375582735
686.712766155832
745.799334254898
756.653554901162
703.071173369709
577.245314294611
365.751173984747
70.6241634529523
-269.2960549039
-595.306067434283
-857.071995096711
-1016.55774438429
-1048.89501877164
-958.134728936539
-779.85797789562
-565.363214383002
-369.578597050117
-234.069644850416
-162.733588817893
-124.04652000391
-81.1973433771692
-14.0484303917002
74.470462991722
162.401311344977
230.107022452506
276.863203553876
305.885851596898
305.967215959019
262.275807025868
176.32864698185
66.7326294479639
-47.6847712023295
-160.945267181754
-272.990210732052
-375.528644345862
-452.30653935212
-490.900558324675
-488.724014008188
-447.157932259215
-368.367040250682
-266.36423042625
-171.102248529833
-108.071801165551
-77.416352777742
-56.0594764296001
-15.8588217444068
58.5910366597979
161.959787107334
271.337548844812
360.685079910927
420.60385424722
465.085044723433
517.38331780242
586.584705376049
651.678659808207
671.343868966194
620.18345426732
520.06122003672
427.705136784459
379.023037494937
350.539877174902
289.83354921344
179.117279672248
47.724507275416
-81.8755168281641
-228.840366742838
-412.747421714056
-601.994635943484
-728.57839273138
-745.411944990102
-661.294646324502
-526.467273354535
-385.389870657821
-246.682809467704
-102.75402246817
36.6760766993164
147.234174718809
217.740585346918
261.34920821697
301.579149500738
353.455223220751
410.417960774154
443.844745678716
429.038030768318
376.823068056338
321.291321477509
270.427349489938
193.191578841922
66.7273098591566
-88.3318336119498
-227.888917087996
-321.243200684941
-362.905770787804
-357.724406438736
-315.606197028541
-269.387330417001
-265.759454776844
-314.027444606602
-362.944704279103
-349.945743915081
-267.643376688842
-167.037637386158
-99.6436390288541
-74.0729488714516
-67.7173192586343
-61.8716764002895
-53.9746297386162
-41.6018491244908
-15.6817158143464
22.7735953471439
56.9597677205893
68.9138200326254
45.8458774803241
-18.7405827419071
-114.90946106932
-218.80158040422
-309.204510709946
-372.991872381872
-406.741969454941
-418.910577413846
-417.567205995975
-397.459582324568
-344.852582890783
-254.173368234994
-137.410378069226
-9.64373977707762
126.557639378363
268.654207777735
404.717774391619
531.702789183668
662.697101003759
807.289194613332
958.745000039716
1099.69882404074
1212.29310370696
1283.03826732822
1294.67362779159
1217.27050976563
1026.91225690746
737.401528415584
390.489037640893
10.8185324870421
-392.657336791163
-772.728466772638
-1039.82030759149
-1134.06241997683
-1075.25575624495
-935.728905701279
-786.757336601711
-667.376039645447
-577.995259476569
-497.541896715529
-410.542556383777
-315.158569935801
-213.526819662978
-104.714786685385
15.8943944853721
152.928965293262
304.213872802775
458.763123685071
602.496079482272
721.531479388257
802.852257625478
838.792023882895
824.558263097202
746.735460711778
584.015345085463
332.158160574737
35.8721144052483
-223.961411125191
-407.787371830929
-565.058545952893
-766.521028152233
-1001.59932542807
-1174.12194284678
-1195.82142423358
-1063.88048615637
-849.282559547908
-629.121910561995
-438.700249647519
-274.388437953022
-120.51304022349
25.5405790662004
145.095334538172
217.54572600471
242.525549283252
237.302133735789
221.50708072102
208.73844397685
204.088390349954
201.339933154863
185.050272404304
141.310920364434
65.27959487327
-39.840470895797
-158.758188998745
-255.722304047534
-289.832861977471
-252.740765111238
-177.497428124127
-104.296212529201
-51.6282373011591
-16.9226638953161
12.2914956195109
48.0063801092309
97.1838786797796
167.661605522442
269.317365437074
403.319539069337
556.593386502152
709.389691796642
848.219661144428
970.187880270823
1071.83276448888
1139.91783392707
1159.92311749548
1126.88028260278
1038.98966827425
884.792496668571
646.83854446049
316.414435370152
-98.4741704277828
-564.489208795792
-1014.00403853677
-1356.15750308043
-1511.60053361582
-1457.3445081617
-1246.77803633713
-978.357785409668
-738.214635579399
-560.382990628808
-430.745039199566
-324.084092828185
-233.324133512039
-169.629515731124
-144.757934721051
-154.805641248047
-178.288214623214
-187.915663911089
-163.690280789727
-100.719790912042
-13.4104197950277
73.9924459125025
150.320130309136
222.520359090479
296.605852814489
366.10436327746
418.420435671969
445.467187091709
448.998056808405
434.769681922589
398.290326434673
320.088915960332
184.606657171113
5.31185058558625
-174.829818792877
-306.508085516085
-362.177098483511
-354.378023149863
-320.673128272354
-282.165561633869
-230.182883000352
-153.805737351609
-57.860051938999
45.7332090375267
144.025449661209
224.607006627429
287.32064351758
344.977923313209
404.230856056697
462.434323022182
519.885934197145
572.518330765308
604.731867817201
610.894277510533
605.257780232451
592.002903537757
541.632578321964
410.426201984421
181.256399877647
-115.661960531417
-425.910387865293
-705.883580588261
-917.512425890151
-1014.53804671327
-978.122026052206
-853.333339676574
-716.934562662441
-613.914060585453
-537.13835275025
-456.909551887569
-357.589803568873
-248.669829084096
-148.870521701412
-64.4527926086915
19.4336617921742
128.175678582749
273.793640982858
444.138076691392
618.410022411727
781.375088986072
919.248529958473
1015.63440648709
1057.76209901869
1041.870602146
967.679098022154
829.937231983665
619.092923491097
328.328711812009
-29.1065866018822
-399.780783424652
-704.212573202121
-885.610057652004
-943.242997358638
-921.795000421182
-875.129936612163
-831.011937488329
-777.826471317955
-694.418580342815
-592.298986970558
-502.90126881057
-429.673028302342
-344.561096177139
-227.335193150796
-88.5952578435268
42.0119381983372
140.809480114394
203.178904998128
236.798563665678
248.959419812622
243.211230292114
224.67104248402
203.171404502476
187.615457660882
176.306820976731
155.673222046681
113.35568087512
53.802184728399
-3.51704888767089
-43.3649629237625
-64.6122042404882
-65.9697218375898
-35.1380468909543
32.1115170239316
115.018014073022
191.073143623361
264.0132257984
348.295284768448
433.820097339955
483.271439334675
464.661190542173
379.330177104089
260.825211779567
155.459678761945
99.3097034133094
91.0364265884553
81.6538303201089
15.2319323815133
-110.192415010851
-230.936511234342
-269.913290962575
-205.805800083445
-92.3964842080607
-6.53048896033109
18.3186436704068
10.8465163258341
25.5996397038702
87.782832544406
171.420074374128
227.882108588027
228.985808155382
181.890934773786
106.806580493614
12.9142799060091
-95.0760265113952
-201.594144116274
-280.980891113105
-309.256707375314
-288.22548082278
-256.900504646218
-248.864147986035
-245.650596427089
-206.57643804542
-127.336753156005
-36.5448019962423
39.6675720476295
80.7851462205229
68.575519374273
8.00585133495758
-62.9417702135461
-101.899496408274
-96.666823764796
-63.1926965180364
-18.2891910020826
35.0582965717148
100.339743488963
172.074254094113
231.598319540245
259.0763215456
248.125966971167
209.759895462328
160.338793408841
106.875410064688
44.447818368509
-37.0964906162488
-136.861720162178
-231.531556892812
-297.252280163013
-339.827065773395
-379.848609399202
-410.55859468041
-398.028830191759
-329.557821953599
-237.707044391697
-165.616322060851
-126.282503668737
-103.932389485312
-82.5066479703209
-62.9715674483913
-55.0086300489758
-58.6758202801445
-57.8068332568479
-34.3722929268818
11.1950507372591
61.5342980248781
102.007612680545
128.137034400199
138.272928653547
136.174882816159
142.306481412521
183.737689631458
262.371906943031
344.425861393403
391.133337318428
391.425470842623
359.037064288083
308.634463707997
243.577134202749
164.926983483198
85.0001075798426
22.466256103101
-15.8230865406574
-34.0182260170086
-28.7701020384467
8.8292594487631
73.0108838111468
139.612212552214
181.93856171442
188.203067399169
167.247155296678
135.004796783362
92.6838003170243
24.0467839218898
-80.433364463302
-203.208774140042
-310.174554488524
-378.586656799398
-410.171641146848
-416.137186056476
-399.664739891141
-360.742680176309
-304.237885574031
-236.755329527579
-166.686448767363
-105.935248787911
-63.7646684155503
-40.2466637928203
-26.8661725366642
-12.3001787182122
11.9707559430298
50.0918556960042
103.085071272638
166.272285583487
226.801158749271
275.950682271396
323.278815534306
383.371408645228
447.807181969045
487.169858087896
489.406599999512
478.634688399851
477.760412035322
466.855347432609
398.755226984407
248.511197379503
34.001213964806
-205.727361590448
-432.441048817491
-606.866332257123
-695.622276892178
-698.834757641384
-649.518003450575
-576.231390112863
-487.950524872926
-393.158277572529
-305.010384117861
-227.930291175167
-158.348749790703
-92.9569528212494
-28.9658154080575
31.4838702264764
77.324430257145
99.6316102217841
101.474081145872
92.3395389827391
81.8869490703373
80.6448774504112
97.6547918904456
131.695881528487
168.118093732129
191.596590040313
198.420972495407
191.139543190709
168.185532040042
124.317529997551
63.091753713425
4.70490981192681
-26.8982699686579
-21.0758157531506
13.4702177446631
50.4276627194918
64.4004679001782
60.5443961054805
74.7449481821186
129.101032471967
196.256163797495
222.822395263903
178.858166453443
76.2299726633408
-45.7208159684593
-140.074640862724
-172.151008944863
-145.388565501253
-108.170277179831
-110.24895092553
-148.264812062904
-170.816950957422
-133.52857019845
-35.2564544016344
92.9236997179734
215.346287156468
303.330327505179
335.727634253035
302.386548457197
205.616160092377
61.2710487786792
-96.7592247108949
-225.378271393444
-295.129443173941
-303.746724557724
-274.944101675666
-242.941180944607
-225.151224845606
-213.940473988161
-201.974522697166
-202.958294139232
-236.284483816991
-300.844144999604
-373.916730918821
-426.543946421442
-436.554233243706
-396.137928516291
-308.055735487327
-180.147100547399
-29.3209738335416
125.663623501231
283.668376938391
456.028072053123
639.458933520641
811.123024640503
951.001856244473
1057.38598432371
1139.16958845692
1198.63853592147
1225.04318777781
1201.99684765482
1110.69883954959
918.672092427898
585.168352199014
111.472110181614
-425.216353326175
-919.549730093425
-1295.36130900256
-1496.25681234354
-1481.17074516395
-1275.27396477268
-982.002795645467
-708.608460004071
-502.766967078206
-363.555185919864
-273.944044683476
-214.549597042701
-171.105095308565
-135.913516218578
-104.62561645514
-78.2352652916075
-61.2534081913572
-53.9696857416212
-50.2614291602371
-41.8186567655326
-24.5806536263352
-2.82358699090058
15.2361000171551
26.5477244762064
33.6139568019968
36.4861200784776
35.9073827902786
42.54553906677
65.0723275620231
94.9964248850611
121.984907071821
154.963160314882
209.107788526396
280.061504851489
348.636155630047
402.066296039401
438.757865485757
463.736648269834
485.99900360296
509.844551403397
525.602943318543
517.098409511841
480.85245321079
428.889362971664
364.861357720129
267.514037877908
113.104470551231
-90.0944500791344
-298.671573441063
-459.716863600471
-542.049196050303
-556.623852792771
-544.621925527254
-536.651611131498
-527.11955597527
-491.87943902186
-422.789340263945
-335.171695782185
-249.039986788072
-176.879780013052
-122.273713902542
-78.5556190960833
-34.5005801267545
12.317389961568
51.1631947445035
68.4967044253956
60.6772209059523
35.8861976333347
3.73904881577853
-34.0413863750585
-77.9729853809024
-117.66915083684
-134.499427433222
-120.35195821367
-86.4500060024164
-53.4159801269693
-35.2313536928944
-26.83984032291
-4.57289053780339
56.6904498004878
165.092013241818
303.535143800836
430.994667953599
505.094373219086
521.115840006462
520.133800182419
543.148843030469
584.727405021266
604.27677165561
571.019772834713
482.926421564102
351.481417501754
183.587862124209
-21.945160004556
-267.681003454804
-539.19493782747
-777.926665763332
-892.356140053603
-832.968875130731
-647.313727390891
-433.627324542382
-255.07148136932
-118.549171228574
-12.1495537200397
66.5479338413193
114.174454817106
134.900086287274
144.224161333921
160.902190738844
192.930489332611
230.99223175771
259.029345153883
270.317640589761
269.809818506722
262.280346711347
241.439878349182
191.213812432187
100.939658460592
-14.5145178942313
-113.701566075952
-159.424200394179
-153.734467570621
-139.066408982997
-163.393044518529
-243.385000876436
-356.334061911617
-456.543456648765
-497.789813354285
-454.986264736959
-337.358158175153
-183.053989131936
-39.1668835972185
58.1299087779595
95.990135838397
88.7039223605639
68.0172330767781
61.4984531653749
75.1295630997886
96.6052987774044
116.060961266641
139.31281787409
177.055112129215
227.752246133473
278.090436928062
314.21770059984
326.107438159943
306.770727113732
254.097296517355
175.122120907154
85.8304755267655
-4.35354581194601
-108.315719834339
-242.394771004625
-389.888655928884
-505.290659273321
-556.134696768334
-541.706405772652
-476.76788798709
-379.175350978027
-270.774428628024
-172.908096725048
-96.4832132837406
-41.6937000513457
-6.69184845028182
11.7349513820883
25.9250025048386
56.7176549019702
120.812900175214
215.895927580639
319.088081800351
407.242682335489
474.732794707032
527.242525105581
570.095312149452
603.987024501249
622.515849428685
615.035239517202
571.555623440474
482.10681528082
339.601948303769
149.480261015129
-70.2334325983092
-298.978854060823
-512.012442341088
-673.89874412378
-752.790364309583
-744.046683888384
-674.233773190161
-582.812391678259
-501.658354090219
-444.044049920747
-401.962161998848
-353.378333450306
-273.109039885416
-145.20272725655
21.1986473630841
193.280746506156
340.345645865528
454.631363927284
547.632442979888
634.182816585449
720.451979727869
798.446020827061
849.482661906437
856.931888794677
814.183889018626
717.334238638842
555.761780594423
319.482695454413
18.880844619919
-306.653060847518
-600.80197993893
-807.428135640714
-884.566487898974
-824.814616218684
-672.583711333769
-505.07633431781
-378.521595672055
-299.250806240907
-248.403686914223
-211.87794903297
-182.69097497017
-153.942215084798
-118.205473065468
-74.6857208083412
-32.2531070531598
0.829999664314372
24.8308740542126
43.4784405327967
57.3032609265074
65.5723579922782
72.1464543158508
82.3842493994224
94.6447185114007
102.699720390838
104.048259282558
101.291932552627
100.200918256468
105.949431620859
115.925380723282
120.369103952414
113.630092252999
97.518744784113
72.9991451295533
38.2334859417628
-4.94725465721983
-49.4925975974795
-89.2353615403096
-126.389745493775
-172.95532615292
-237.562639659033
-304.961377142247
-338.672078685334
-313.099470153055
-235.701797749149
-136.323212834617
-44.1001021078071
23.7647525996035
61.0307996944779
74.7637503925549
88.7074096102865
129.01598778462
202.097455688122
293.049258936867
379.070782381323
439.757493682516
468.086955631135
474.057339286789
469.96367425449
456.750361754754
425.967014816497
366.759966309776
269.928699497524
132.00190576634
-39.7391735209291
-225.343811948063
-394.667253110744
-515.997710941412
-573.635824596132
-579.890164752858
-560.05620263161
-524.041341581207
-464.322282470414
-382.698784983511
-300.566518178498
-233.201023945414
-169.008517774334
-85.5096589718544
22.6176675452508
138.726543937697
242.820183525075
327.31935755006
394.075873279854
443.993968095308
473.518839833903
477.297825247487
450.364294950781
388.523808539515
295.353484042251
189.985548152256
93.4236977058944
10.2285165951218
-60.9839275251275
-110.934437541219
-127.003528850502
-108.753358743083
-76.3739517287932
-65.9611507615802
-101.829268363749
-168.991237326017
-227.431172648201
-257.207124495107
-275.965585769944
-309.620194954661
-359.845117707793
-403.109365775767
-411.135491143425
-372.445096286657
-299.836917348457
-215.130453456921
-131.424806449888
-56.3555342642156
0.228132180973564
34.5491332324619
57.0420411908531
82.0789844169889
115.730127295313
158.880540151054
211.311634032859
267.069917567928
311.458756856946
328.655968747893
318.244961640472
298.459621575263
281.601251223614
251.933844324657
183.384494776687
78.5833501318475
-24.3066504516639
-84.2385825964199
-88.1429326244758
-54.6623078573291
-13.2565132536697
20.6666117809909
47.8586059597891
69.7314909593999
83.9634719503187
97.8102836472588
131.555513994403
192.774300286417
258.28971425175
296.667501613242
293.252699624057
247.482827325255
166.490207542697
64.2429091914656
-45.1328917950734
-153.42610694514
-259.409093451077
-367.236216843747
-476.914872224704
-572.729169548935
-623.599558688513
-600.817779733441
-505.531533580863
-375.249757969596
-250.352878030507
-139.138552694679
-28.32533106517
82.2059209562743
174.138149425648
235.671592757313
274.658612687234
303.248553542214
319.696273328289
316.830085341141
304.266483635818
303.600972843918
320.857623061049
338.534146176704
331.424993555783
279.727559295312
176.086696863285
33.0826507766783
-124.230072659607
-279.290657903713
-421.937665764601
-526.122020415891
-555.202146121511
-494.738246795552
-365.606155366639
-206.921750338456
-58.3192401018955
49.1567466588312
105.932891363043
128.88443179427
143.013635947778
164.231332440667
202.662071521763
263.23275398848
333.875538930001
388.773831341624
409.074953939629
393.827455083888
356.316494690275
311.653485326851
258.738760457412
178.864522166299
62.3795425947894
-70.1339968468054
-182.971171834023
-258.535702515941
-311.13279609158
-367.286593167396
-435.033568885773
-495.332487754948
-518.283675841756
-486.613630604618
-409.322664762542
-311.691377508056
-214.681437413836
-128.656855869262
-59.0448051596056
-9.0675215262428
22.6719921974145
43.6476010469157
64.2551617819723
90.9372160779888
122.020929507255
151.365675443644
171.962681371984
177.86542743868
171.663611481962
164.957423173096
165.670310543883
172.604911538366
181.395481257801
187.395833264012
185.589696758232
171.98665313161
142.721500520607
95.0387513304948
35.2143240862531
-18.9787781951654
-50.9978970956763
-60.5321646939841
-63.5298424106914
-78.9081216574048
-116.815427134711
-175.261026107833
-241.468854903429
-294.251153255813
-309.224104126217
-271.910561410522
-190.858963617651
-92.2684122047359
0.0390425629277745
73.1129423670917
118.36189452788
131.878297279342
121.852776746306
104.832863707841
94.9711277447259
101.177710163779
128.305495250357
174.86057747373
228.763750025224
263.77109692001
246.625381922526
160.235624528165
22.0109469920067
-120.549571357191
-209.809523047293
-210.208793769753
-143.416450953008
-79.9871112167087
-73.3491000116412
-111.173916149793
-143.273534033683
-141.463190683072
-117.965466502036
-93.8093686946766
-69.9853876327688
-37.5897189544643
-0.169495749185907
29.5865757130406
51.0744858169199
82.4626666842615
142.729796826311
228.784528784711
315.375414303507
378.209371702886
406.804235623943
398.589652995175
357.722365619106
298.98706726058
242.70626793598
199.457802048006
159.386141987223
99.1728116881224
-7.21991882676173
-176.178926801808
-390.02890672371
-592.285116324387
-719.557372530948
-731.009196503942
-621.194232344762
-430.505916994484
-231.153254735038
-78.8536064135932
15.7670275102906
68.575797207579
97.7514391415589
117.140715705468
132.194654183908
135.225811858975
111.479900986562
57.3137088527165
-10.6434548006139
-67.9077240637003
-96.1746066239328
-86.4610878596536
-39.2673752025595
36.5228125449169
122.973096893052
190.616379685259
212.295394820815
190.089085823388
158.843307499713
158.527593901248
204.328320633132
276.155019789397
337.302892893499
368.343776071956
374.456701593974
351.415036798702
259.87394297852
65.3296229026712
-197.666102346749
-433.020287314517
-554.060988681215
-535.78397673676
-416.407615333496
-265.415825674829
