1.5648327285876
5.63551813471544
9.82578069443556
11.3025793671468
11.4735284565418
14.7150934737809
20.7760527165684
26.096309432513
30.1499383974933
34.4153338609987
37.9867985597851
39.1092944739069
39.5090355757508
41.1048945728956
41.3596755258298
38.5130582767273
34.2981883261492
28.73812498131
21.0501767375657
11.9693596647313
0.428397585396423
-14.9304940213977
-31.2697113646744
-43.0726911333513
-46.5534344267253
-41.3795258705664
-29.2983998433693
-13.2501662038826
3.62099143931992
20.4153087449754
37.6575469868386
52.8216504487398
60.6792487387245
61.4706622443875
61.0436997719699
59.2776533548626
51.958104356063
41.984213627103
34.1986902445483
28.2629119272087
22.6715951118649
15.7280125550287
5.58353347188699
-6.76705272906039
-17.9413243057587
-24.2322347442717
-23.4988619547325
-16.7899860029205
-8.2360097605859
-2.82001913057278
-2.83110635956235
-6.04141523435088
-9.63233569914694
-16.2097060310467
-28.9824266126513
-42.9766506480726
-52.2962884479905
-59.695993427473
-68.8396288640991
-76.8499109944567
-79.2690733042898
-74.9293414725335
-67.3651307765268
-62.814898944229
-62.8612981462362
-62.0076244694488
-55.7585749893766
-46.2547941801322
-36.3153752710708
-23.2529869455593
-2.53336568303933
24.637399022011
49.7713996184257
66.0939910786574
74.1904248013617
76.0105006206868
74.4342777249298
75.4466056418797
80.3212245861399
84.152298541386
84.0632494773218
80.412135214395
74.8514929606791
70.5344651511703
68.3712708429102
65.553763182496
60.4436747816244
54.2895882149012
47.9829112067243
41.4598310964087
36.7897227889658
37.5652711850746
42.5452705048208
42.5337153475836
28.5612046199425
1.13096838989607
-33.1388875186872
-65.0705798423164
-82.9781005627031
-84.1239604879603
-79.1772453524627
-75.8301710848448
-71.6714922112996
-65.3273494113369
-61.4832898991624
-63.7781111553809
-69.3258184121347
-72.6841560836455
-72.7586612896253
-72.0537303441692
-70.5027528366809
-65.8722257938782
-59.0775535824687
-52.3896160716458
-46.2703084868792
-41.0235922282787
-34.4975793566382
-22.800488433129
-8.33857128918061
3.05732804090703
10.8900837756668
16.873436391059
20.9706682357813
24.6834165495989
30.8265561687844
38.8162683669393
45.2933727924253
49.7751614141545
54.5428481641175
60.0200203445795
64.0557550101777
65.1746249904752
64.3112522030056
60.8815686580356
53.2918141167206
44.2824216029008
35.76857960775
25.8720572894076
16.6662010656662
11.2157855711197
6.74264730425032
0.899771315073912
-4.31550528659847
-6.96539785076323
-7.78965356666214
-10.1316435905458
-15.8990649541662
-22.3516546536528
-27.4957619248701
-33.9383910748513
-43.4031420404241
-53.0819441500219
-58.8470820212248
-58.2075864701193
-51.7223685944903
-42.8136832975717
-33.3252827238412
-22.4075184164721
-12.4605305208557
-8.12231644537259
-8.14141478990677
-6.93529439512149
-2.12683244364828
5.12526414511773
13.2636407729659
20.4759182058714
24.6382641249159
25.7194688821931
26.0998764209688
26.2964801310685
23.4091752494188
16.5359666495587
9.17167983920703
2.78295548530429
-4.94995413118636
-14.0886129634292
-22.8241287598429
-30.8783696428269
-38.0663531801641
-44.365410012865
-49.5477602967243
-51.7269830184015
-51.2050606502719
-51.5373355377328
-54.453024642598
-58.1378644421488
-59.5220628527309
-57.0218697968127
-51.8926024141868
-46.5726973408615
-39.4430304748622
-24.103218116569
-0.0187000661232241
25.1422796099088
46.5532104184996
63.734006988635
77.942194864945
93.2655090572291
111.602004641295
131.002130035565
148.926686940067
160.21204336478
159.767677506882
150.328702736065
140.110522255793
133.872755647322
130.488666312475
127.413182648827
123.165472099514
116.222268514315
105.978143971022
94.2452028905801
81.9193971086541
64.6193748190883
38.9765604517558
11.8084779041245
-8.47298728139056
-22.6188535319727
-33.4384553994448
-41.6103770130376
-50.675400662979
-63.0380282999592
-76.7157863952741
-92.3118489607852
-112.018847577721
-131.026497991235
-140.976006159582
-140.494154355574
-136.48738030667
-135.940150091684
-137.239005734876
-132.984811281875
-120.454919011301
-102.907685421248
-86.6279704821976
-77.9954004722975
-75.582350098372
-72.1910315080287
-65.2763376876207
-55.983698996998
-45.8794145498329
-38.9850945478403
-38.084197505359
-40.9556541495266
-44.1727979774553
-46.4213910046264
-48.3505549018967
-51.376299971978
-55.4586815106057
-57.6800601588273
-53.9197365035523
-43.137405701246
-30.29025525893
-23.4272865405017
-25.1426320943559
-28.2320598298288
-23.6905209375959
-8.52792840299256
16.1667987387229
45.8276007525692
71.8048986389308
87.3076128473933
91.4746131712888
86.6053609775983
75.2084060564112
61.456227655444
52.320745067653
51.2263961011769
53.2981068174091
52.3378657231867
48.7879226697704
46.8410081434275
48.0065458355364
51.4436555616529
54.6918895247032
52.4333604212259
42.4591153915065
30.1467610865871
22.5455805560578
26.202870701524
46.279142798283
76.4389993487366
100.750152771582
112.292304611255
118.100276993449
125.007953463466
130.675042817206
130.027371855542
121.955562680858
106.512344985581
84.365851838238
63.0333332461508
54.7364052869621
62.6592989475389
77.0705753344002
87.3471577474145
89.6292596707804
84.4056060975053
72.1654925878946
50.7070727967951
20.6948279063329
-8.24748292232175
-27.4294466391382
-40.1160796444038
-55.5368694079349
-77.9968549449863
-103.730365437489
-125.978646194074
-142.275743852172
-154.194404192127
-160.174949919918
-155.336371691827
-140.385643658231
-122.680384050048
-109.215017027713
-102.242539805909
-97.0396562726724
-88.9901873088426
-83.7911898092705
-88.1060056095744
-96.5948634655457
-100.220184829717
-95.907283598714
-82.5366715323183
-60.7380067039893
-37.0991885367488
-18.6737873160572
-6.47478502418889
2.47659139311054
11.5369247505953
22.0012361481803
33.4793824360911
46.1906539868352
58.2433647998162
65.5899829791183
67.9974206696565
67.0936811063611
62.4512687598497
55.5902329180537
49.2209121545602
43.2548391533583
37.8486804734301
33.9861857770921
29.284860015537
19.2362195829998
3.41529348071292
-12.5326135826842
-23.0493983683924
-27.8534680212689
-29.2691479135195
-28.7216347686254
-27.6667317365479
-27.5036926181035
-26.1077171729815
-20.9281083853356
-15.4483554637464
-12.8421166359493
-8.73397024835238
1.15437488823254
15.2554750469596
30.9688034312487
45.9856856829757
56.1339497037809
58.7985258947182
56.810372152747
54.827186994848
53.0680885196655
48.292714142204
39.4384088693572
28.3558536182269
16.8496148880835
6.63451526606816
-0.917242764283181
-8.52526890782636
-20.1549744409972
-34.0668049324514
-46.1403694650735
-55.1636931988101
-62.2144450046145
-69.8703623901428
-78.5532856910692
-84.3962481321253
-85.5629991375028
-85.2917674154094
-87.6336008517144
-95.0004906322457
-106.659122598347
-117.609318170935
-121.176969672832
-112.022001518659
-88.2660999378974
-55.6617913144692
-26.6591535026801
-8.40123231830153
2.53971521404408
11.3123325196548
20.3865570668519
30.5234049100481
40.0589090565051
48.1361590511323
56.4967509120688
65.2652361417157
73.8913362431168
85.4462831537109
102.273052713877
119.932532123961
132.07721124338
137.603300372644
138.349049942033
137.015487533304
139.461026549869
150.4308515227
166.478664123285
178.210228258256
180.254637656667
174.918133110671
164.354897491172
147.894673896945
128.294113472733
109.886240800625
92.9617817303069
74.361555898017
46.3185028528622
0.162840310444133
-59.0998719209096
-111.655601205499
-142.564223943598
-153.414179052865
-151.73276231556
-139.909985280732
-121.569182714826
-106.736293663944
-100.430289476413
-96.2097115787176
-87.2376214017792
-73.8401611644042
-58.424988493317
-43.6494057320101
-34.3435722376248
-32.98530200616
-38.1342305648939
-49.4594410095639
-66.0512551649962
-82.7276098676601
-94.3404080647134
-98.8038515696561
-96.0311225920521
-88.7652639154024
-81.2289517271264
-75.2788115111978
-70.4176984760917
-65.14867234991
-57.800806257373
-49.6499593833191
-44.4731112497914
-43.6027500980668
-45.9681136205285
-50.3747876581141
-53.7537086619028
-52.9942769208074
-50.7139874880476
-52.7112750795292
-59.1932705092507
-62.920748753946
-56.0714739936474
-35.2770187381013
0.121344669552267
47.2568484423541
95.9355829984165
133.596388187395
155.255720782731
164.465206547788
167.060816009793
168.239231454721
170.145413938094
169.705827450321
165.009307253541
158.032513958137
148.176056743124
133.979882967388
116.58991333818
96.2059824894389
74.7444950220857
59.1979527553941
55.5004045703037
61.4240845363023
65.8434029264472
57.3502615020875
35.4954415126252
11.2554344506443
-3.4964906274264
-5.89223162745034
-2.90475087857289
-5.57989134109475
-20.0125691519116
-42.1454818816917
-65.3910472257041
-86.2202695869376
-99.3802859029747
-101.3968485015
-98.5597532818948
-102.203266864362
-118.288357997465
-141.904506125012
-159.30972359335
-158.671895712869
-140.639409180959
-116.32956263775
-95.6882058052218
-80.0679399075014
-65.2072659496801
-49.3416534185734
-35.4212338616361
-24.6654054870797
-15.5285793063562
-7.26477413475341
4.24656445792071
23.0937691016112
43.5630079335582
58.975500916177
69.4203910196942
72.4731639212874
65.3285333590563
56.1517514322537
59.2899300985378
80.1914388556181
108.450435027777
127.296280950922
129.189740285706
118.681448844434
104.089595463148
91.1952634761603
80.6805926451893
68.2351812523422
51.7845545581091
36.6386056017686
25.799672824855
14.2484599885847
0.584691719853966
-8.17974489055179
-5.64864058240507
8.4660750331327
26.2171818503481
32.6960817724962
17.4923005781913
-15.2728499372555
-51.0419410140613
-77.8556864534084
-95.0440862008455
-108.035324133465
-116.884591399407
-116.405233676929
-105.155641800932
-86.8588525970376
-67.159855281685
-52.1684082220765
-43.6752930328823
-38.2374654851072
-35.4766125584743
-39.304481268559
-49.7480414802026
-61.6026735179944
-68.2388480401106
-62.9634242440775
-43.5676806920489
-17.8265578477758
2.11387322991102
12.0012317159566
16.1148180864014
17.5242388358774
17.5169787286677
23.1858282343073
41.0636661949655
61.973678310849
67.646950108711
51.4273216899193
20.5873376294027
-13.2160614675189
-38.2517154592173
-49.4401567174923
-55.5037636702188
-73.2998682140529
-111.429192570419
-159.866612403775
-198.944547523471
-215.826824941158
-208.78846206747
-183.405529081748
-151.217472793587
-124.751080923087
-107.636444943645
-96.0066203304951
-85.5475630440856
-64.005945458234
-10.7819365450362
80.0537157198918
188.228634062737
281.363424793067
337.155832229391
360.041030100747
369.181272739442
368.45581727075
347.470503060004
306.596597073549
260.433422533796
221.224174948381
190.427564005942
161.934031979951
128.694884281049
91.3057328502146
60.206518411485
46.6833370397599
53.3825447063254
73.6773726149506
98.8844272419653
120.822201450224
129.376102386438
119.719344514049
93.9334796520191
47.1439757755503
-27.2741014481085
-115.381334080051
-187.184100154675
-221.514969873601
-219.100772388604
-204.33083164673
-212.70620277038
-261.270045197254
-334.196004475455
-396.527266383021
-415.121750039173
-379.837277792276
-309.437466119496
-228.785339345254
-149.972525347305
-76.4241489864266
-9.43402327346347
47.8437540457184
87.8297287142915
105.48865828707
102.502736262775
82.0603052508224
52.1766412488603
28.0806125419824
16.0817510961332
6.64153561771436
-6.33414602204786
-16.2016404111772
-22.8042416645994
-41.0354777948357
-78.4387814987449
-123.425007912797
-165.071691691228
-206.253655819755
-251.856047694483
-299.711219061755
-342.024267536876
-363.651059961327
-347.873892830953
-289.673386965754
-194.002613965111
-67.0260222249519
82.7524955119446
239.002549455659
377.007923812775
473.583829318147
520.03944111052
528.186513464419
526.144334724025
537.648876438614
561.664185421126
578.921393594724
573.939228463164
545.749537636153
500.525031387235
442.44753575013
376.468202263309
310.889822386747
254.10941075431
210.137444056505
170.627135500143
119.275152299175
55.0529655163063
-1.14444755559815
-32.7839482527823
-49.9007099366645
-75.7086038472528
-122.661440657676
-189.056124401773
-265.093746482007
-342.958328883088
-422.897711494994
-492.574072905632
-513.449631244735
-458.619508349147
-358.738691157769
-281.438658281882
-259.227349219193
-265.242814680805
-267.637339463276
-271.379607247174
-294.147511387051
-333.615706252365
-368.377782252556
-371.383713556984
-328.894600427037
-263.580575984979
-223.147685232017
-236.601583165909
-296.591793704166
-375.951274312808
-442.909060676585
-467.475669831071
-436.437752271022
-373.877594185108
-323.381159808674
-294.541706656896
-255.494639936675
-186.220822327745
-109.717551019355
-66.9293833783953
-79.7859878024177
-135.31641421749
-190.58808187564
-196.053053962585
-123.850771628709
27.2561505608238
252.248597362027
549.232334402789
891.26297067058
1202.91142310142
1406.09564552006
1488.10758693491
1489.43694077052
1440.69281965851
1346.06209709357
1206.43010158207
1033.14465404076
854.12241689879
708.927831965542
619.641932465731
565.323923471611
495.617151375709
374.26169884356
206.998588734586
23.9101060785628
-150.273108449995
-293.61182492024
-381.093719773703
-410.432223212172
-415.470767631152
-432.138614002812
-469.078117386509
-519.720979178224
-576.812155816218
-633.114087727439
-690.68956515497
-756.107523987306
-806.882162123076
-795.052146704537
-704.543359147339
-574.573362068148
-456.68714089244
-368.859150764699
-296.277533733772
-226.165837022502
-168.602137343176
-138.940441402295
-132.233652134111
-130.026717273918
-128.899538522285
-141.849659785567
-174.787172310496
-223.880141411892
-277.486906886409
-299.980763675745
-246.904677254284
-120.189451839785
21.1368237579969
129.388475128992
211.714200822095
280.937999262134
318.867018151236
311.660690397218
265.027301078376
177.799472067653
46.9272758542734
-102.795898493169
-225.938135069793
-291.032789173018
-288.866274790783
-219.183886569636
-95.4822675721395
42.1351348525967
140.683548868389
170.855197776737
149.487307382609
117.24454604151
93.6251424676324
69.4743719068836
42.2168102899377
27.9549381280382
26.4942744501463
11.0545318344187
-20.9377716620736
-26.1996724625634
23.8348637399004
105.721447054651
194.55727721578
303.131191292342
444.288630704697
585.791590516001
672.822869816113
691.348784569915
677.447662567349
657.189639163641
614.991144060501
532.890466206121
427.227905314243
336.154181140778
282.038182127103
238.69122023552
143.461019351288
-34.4339808087591
-248.836303064966
-421.470327545976
-519.02315465098
-568.836709907324
-610.093106640888
-650.300903707979
-674.310760417445
-682.932430650486
-701.290461058202
-738.285652820217
-759.508691478801
-727.349133937628
-651.21068264364
-570.555641608513
-500.478825637932
-418.534665653545
-301.578027610967
-148.303627138718
33.6563058405874
228.000463312687
401.781871277065
523.427356926363
577.735824334565
560.596475741579
476.391858209325
340.747016943568
182.513996615103
39.7997505063038
-55.891256925422
-93.8934827261504
-84.7511163838375
-58.7361514307158
-60.1391996025515
-123.729599700789
-254.646794547305
-428.292762402
-601.156279131449
-727.423353939664
-764.169288616127
-665.636978614234
-403.494465604811
-4.07996429341376
441.60801030833
808.183137661413
1003.14640700045
1019.00829847639
910.220204981386
749.339956623944
615.543986750152
560.717423378687
562.2465255917
555.460921622874
510.568036019172
441.850603635416
370.943385663658
319.0778361531
308.972247344418
348.739921490858
422.330152775771
496.844408637426
542.481761212242
555.0474643554
545.828185902221
509.76208269935
426.416352819537
282.084403893653
80.6485274372566
-149.026050639187
-362.706017325708
-538.415824379037
-690.499338255172
-821.850226194323
-882.280926550748
-818.354122618352
-661.290273520468
-513.985125054015
-442.108636321928
-427.554863933002
-420.295226729379
-384.62040956947
-317.297624998618
-250.268235230748
-209.89475825986
-179.069614052265
-126.085096317758
-51.116345230329
18.9464712121047
67.7060960575867
98.5459642219951
108.765352257701
84.2839260874412
29.9995522342978
-32.7631527619468
-110.283220916251
-233.646912710844
-404.889823508151
-580.375257719314
-704.939667216311
-742.939914553411
-693.801185966132
-594.875859782101
-489.106858980144
-391.710498760641
-312.66981170843
-279.257406142782
-298.321842605698
-329.626838422194
-325.139090876285
-268.943309449569
-169.070747676015
-35.8949862745925
119.526358876362
279.244965776388
428.833201764285
564.246876853628
676.282380248477
759.381185761345
838.045592124931
936.409376920529
1028.24860657511
1060.52578534622
1012.10673795384
900.550864761153
746.492998164455
552.90393716883
323.924559486344
90.0652519297514
-109.8254410845
-263.164972977265
-383.016077654885
-491.740854519966
-604.284636571543
-697.14842315426
-700.541189819083
-553.476777251516
-271.639994644356
59.3724074163598
351.507459094512
548.807056513072
628.15233675038
612.803276792409
558.458880950885
501.063831248042
440.423946586601
367.691937242763
277.714375764984
164.687237799512
35.434702424228
-74.9373204306963
-126.614456720397
-121.238932515066
-101.278491160789
-99.6917293619639
-110.779984338793
-107.245183136678
-72.1022825615971
-13.491618998471
48.7479241809573
103.128436380239
144.536920055148
163.241083588941
156.096800009911
133.498131558851
97.454097790607
44.6239183725896
-4.23702712809667
-23.8363464419941
-33.3664354772611
-86.6195190188664
-206.284419465807
-348.044650281515
-440.612152999524
-459.158315824073
-452.230379716922
-484.455436653017
-558.286099521417
-617.460346642343
-625.520495389285
-612.504179740585
-637.365943239523
-721.416708746122
-830.476642068348
-916.044749227468
-953.294539512577
-935.308986005792
-862.454520504054
-747.571496639515
-608.202068280618
-456.704776138863
-302.36359863718
-152.410282049637
-15.3226668585792
102.715578423503
211.422754240991
328.679322936345
455.121284481864
575.220693008485
678.340800856391
758.91594661871
813.088490493312
849.380541401877
883.461819911412
925.738827732442
983.452408208204
1053.89213990883
1110.68484314222
1118.69057154613
1064.36833480392
962.554283379369
845.620021825072
746.429925207951
673.001718478149
602.44113181029
512.101671037777
405.829166851511
294.259202243443
169.440498474518
24.5107344458386
-120.407724127336
-241.621255676988
-355.586112137975
-510.158349227088
-712.883433641614
-883.068174721031
-920.940621448059
-829.74703160064
-716.030211374404
-672.432142314012
-702.571590207877
-742.257406011367
-737.536005952063
-701.874835250744
-680.002697277292
-679.711735860916
-673.501076259606
-641.322357786726
-570.298155555821
-424.207992219381
-165.413493829783
176.738267271076
500.561872972961
716.690202078453
809.212781402215
811.676978303027
763.241183865157
685.084067743021
563.668474183997
365.818225044271
91.9204821948263
-206.502143137655
-472.470654262833
-672.376849955089
-770.2433374963
-721.754242790668
-531.153965348071
-279.246318709401
-54.19294687112
111.072689477222
211.110302690451
230.055259757975
161.118459967004
46.0485965419552
-19.3394837080272
53.7736839316664
259.391428724357
499.011006376568
683.18476031279
798.535063502342
873.922897537978
918.152171050866
916.25084012996
870.653244165048
809.026659701958
752.005079013567
696.463125137214
625.26261346305
525.816836368464
404.143337113788
267.038219061229
88.869887613931
-162.57702207764
-453.84625564242
-692.73862643476
-830.472986103229
-901.733301255861
-948.290474944913
-975.198031557615
-986.174496407218
-979.219453857593
-923.39474659403
-806.719940429969
-665.962317288039
-540.290898218605
-448.734276130048
-396.563524725494
-358.201334524236
-295.229959792314
-206.905826204164
-124.855385529252
-73.4456478554778
-64.1893447067435
-106.887811498011
-202.828733725304
-335.586265967841
-477.150307054788
-591.938179363636
-626.65950200675
-520.001366718087
-251.828221281018
122.311769166424
506.463598338406
834.226273649295
1076.96851221621
1195.39688223502
1156.75714724706
999.803375368034
800.884280452641
579.897984887185
317.973146525503
58.6031867380122
-96.7389505355726
-99.6880165302829
12.4568999682006
190.798272288118
413.867096035823
662.924493692679
904.118063009619
1087.15066131299
1161.04977287254
1110.21170150183
963.013627534454
759.562875952713
523.888674876759
258.51091307267
-45.4114474860709
-383.1380771209
-716.468458975843
-978.699549056388
-1102.69954471465
-1068.84546163383
-931.197857681623
-775.481416045136
-657.488727712873
-585.032847029724
-534.430531805372
-475.844671480381
-390.093619935101
-282.833456171986
-196.789820836984
-176.105302691045
-208.64984156505
-240.828855024518
-235.547757028506
-188.25539800487
-124.315119731277
-94.0902886823068
-129.118858971475
-203.729164421661
-264.22560900296
-282.904896027576
-271.501727456905
-254.800894515514
-240.977337477314
-214.019752657873
-147.134144734958
-26.7086718434204
126.059413866877
264.900657066162
361.396246128019
423.440930082412
462.149265060316
469.424155078937
443.92865438355
406.525797715274
372.823663507541
333.17210868155
267.55563762734
168.258143776732
46.5964487406129
-71.7845602015414
-153.935918989978
-178.063721115087
-159.97048843756
-154.417393994828
-208.424644889643
-284.104812112501
-242.79490407749
21.539238762787
439.832632476478
837.735824093234
1099.36757672126
1185.89747719429
1092.81587598179
875.183305239405
634.040187180877
424.839047916548
221.830040600542
-20.6299964402786
-300.157952990419
-560.23248027376
-739.129503985997
-812.995227308649
-786.11133309201
-659.348614744624
-438.278365447673
-166.580239792036
84.3390803180555
261.983892947671
348.114580878829
338.269566482931
239.304610902892
86.2116115602805
-95.8819359677886
-352.174181949999
-730.885946999598
-1148.60779487836
-1427.37773941968
-1474.52553387131
-1330.68535736326
-1054.63756872034
-684.787886135787
-298.803776326937
12.9127953027833
221.933898847342
348.681227136287
400.400200372887
351.37386551081
174.341049635125
-125.59482390486
-495.239143297011
-834.467509300117
-1030.92757439309
-1000.87957439263
-711.258714080094
-218.053166683622
326.325566554723
773.647189016511
1079.09434376209
1271.99367834556
1373.5790978461
1378.35228000182
1295.31967480409
1174.1039446284
1071.26437671598
1004.03928766108
965.080694193548
966.102468475409
1023.67814080592
1115.38924371568
1188.9093823704
1209.24873758956
1184.41166774094
1142.10698806458
1083.52445587267
979.964548111714
805.530292772296
548.73071152355
229.371711262372
-73.5241081730146
-280.236436487055
-418.894087276609
-587.201998305106
-797.080560000014
-955.987662717307
-997.899020977112
-949.48074510747
-875.190507558198
-815.505594318529
-784.263699997226
-781.247725958149
-789.237967603695
-797.108582588296
-832.431691571214
-934.06022557532
-1095.81650128002
-1263.08702759587
-1376.40006825019
-1408.38050732565
-1377.2949455953
-1327.28083894705
-1273.46292911093
-1179.80234826171
-1016.7822030148
-816.771965382141
-641.133127599985
-502.54977093083
-351.116000373872
-145.471070613741
98.3783302531277
332.705520011786
509.419491511789
600.30731067633
622.70012108978
625.270445933011
638.427982426356
666.43263414075
718.686329352714
799.546753003199
868.283344071982
863.72576075991
778.944025933352
671.718400051352
594.019953211814
545.380582471033
501.190572830264
445.50199248348
364.410786969216
243.251762107898
84.0430950035707
-85.0058733963279
-225.24048060437
-321.696895777742
-391.476948504117
-450.859813892189
-498.776172276397
-528.487324784331
-520.871327117251
-435.488079424018
-229.405713939261
121.892338833454
599.522094241749
1111.38371794985
1524.03674532076
1748.9293216967
1779.38815088564
1658.90535006108
1440.37093714121
1165.49985752194
868.840328565943
588.390248550986
354.93195040645
175.762734137096
33.7111985561474
-105.826453813861
-271.356856391487
-451.554706067352
-603.882202390918
-714.289325666245
-815.694475662251
-923.639465960711
-1018.65512153781
-1118.58866408287
-1272.96152247665
-1463.30832311359
-1592.8312450453
-1585.34419252703
-1447.52066308902
-1244.8340890271
-1057.94160452404
-941.550264129299
-876.627929966534
-775.841407271837
-560.744891297154
-229.580340665495
135.558211411671
423.348135211122
571.304521338924
595.553507441995
570.455590594679
583.558684286589
664.178557926194
766.199407728441
853.289696464695
942.15664230378
1035.52629328309
1106.10819766373
1168.556548667
1281.24705081607
1465.65614500911
1663.3775676928
1771.11855830251
1713.52422092603
1487.6922790849
1151.3670920141
783.482471721077
449.28715505818
188.604627945995
18.7612135019087
-69.3373093900812
-113.316063849002
-153.705201832972
-189.70841213592
-187.850872627031
-170.972710754012
-253.047795736743
-524.787441666179
-942.900851629634
-1369.3409961616
-1679.35529803793
-1816.57651716421
-1786.24014842689
-1631.06663609947
-1412.74648158496
-1188.28771804826
-975.692325233569
-751.639627847323
-503.145074380235
-258.587136608889
-59.4154492728286
66.1125096138944
105.660631309659
66.6496058923261
-26.0042232066032
-146.933358709084
-282.695670869723
-424.518554357131
-557.192633846435
-661.127531641212
-722.75913776947
-749.094953295462
-772.314840333463
-815.263845248044
-840.890558443392
-763.886169979985
-538.076357537754
-220.05684768202
75.6094936427327
268.910857675768
338.935566647994
290.672537411897
146.58638340698
-28.2550994841875
-118.312931609958
-5.78482799260668
345.465921964143
837.890076228446
1285.67191521129
1547.84908447263
1618.90865165679
1587.94612672708
1533.07881528002
1455.74393222789
1313.53501536469
1120.36895055048
989.570279139109
1032.2183084693
1207.00882348982
1342.97891178774
1335.07415069947
1230.24587773574
1104.17573006492
947.248254933666
713.694391579782
429.740548229702
181.596706996773
-6.65452156421456
-211.046927000376
-497.99866101198
-832.518972310227
-1110.06091591443
-1238.36927318281
-1193.14784242085
-1028.21168989972
-831.775950700716
-668.887568228803
-579.43049412442
-609.781123109128
-782.8943479364
-1028.86792816657
-1201.8387518826
-1186.12017803422
-975.314180626961
-664.892184941353
-383.897891964092
-210.370680629418
-128.944089974696
-77.6505317481566
-25.9586514270904
13.0962751243742
27.2852325690799
31.1065875752622
43.1677966917023
63.4832939836329
94.6647352810041
149.185451836522
207.255501368543
218.006908093298
166.615587598918
90.0474916866781
10.2907357860619
-107.484378175456
-308.747584786015
-582.00152033347
-857.490912817484
-1061.86412242128
-1152.51427608391
-1113.61454701691
-951.137435849703
-682.155206714296
-317.798991392624
133.607271603321
653.889662123105
1192.91022089689
1651.11052167713
1929.95848500498
2007.62385083274
1928.84762249198
1740.58565080731
1468.83248939612
1131.81392859052
743.965466284884
310.916626123664
-151.557552653042
-571.450556884206
-820.870564124235
-812.506912636522
-594.676564089438
-321.116798303847
-120.193630583636
-5.85512555210459
65.5743838172235
80.4775563531614
-24.9036881150153
-263.368136543487
-580.833309690475
-918.764106396684
-1213.54419552079
-1367.88311985231
-1313.67101223461
-1083.69841250785
-756.102880376988
-370.717436518202
39.3381034066813
390.435334026178
594.934705288609
653.623589630292
644.87218237438
610.308125775443
522.153431523321
371.844595007396
208.461545223861
84.1621814600307
19.7852863265911
29.7954118194905
131.664656850618
300.639506958699
466.252472316959
587.017343273402
672.444124277026
736.064711542967
796.45398132849
889.851643918973
1015.13595914277
1102.78884693243
1072.79550825283
894.980344617242
604.282614331914
288.786881223059
36.563043893555
-124.190244723673
-217.202762320579
-272.245998360242
-315.626537629701
-383.370643020235
-512.542449528336
-706.121795997517
-907.775756340979
-1047.29554292669
-1123.98829312057
-1208.80926916538
-1368.24044824565
-1615.12123791682
-1891.5769747975
-2053.85581962956
-1940.29929025148
-1522.58161172303
-950.185733145173
-410.198049387838
22.7226052369962
375.724814263913
673.95623623669
901.665216786649
1027.55094132268
1033.10055176569
940.145016282775
807.400364822502
681.990729879144
574.902959991111
486.131980272015
421.730807161969
386.223214964384
377.71500615155
384.356593971566
378.055342713957
324.26871870003
212.785387745219
77.9400967855429
-30.0746252519372
-100.898251816847
-164.458366944244
-218.796547578181
-180.900849860888
50.3783178771286
464.07063743575
904.458407824679
1199.78877027467
1287.6224921428
1201.39355592356
1002.98371188216
758.900100618534
530.320497198817
347.179267242833
195.373512241776
33.0360089961436
-182.545440318519
-466.313649880523
-783.71834838368
-1071.15677667157
-1290.82770337264
-1451.48146445022
-1579.76927969559
-1689.0277049662
-1763.37884636418
-1760.73522239822
-1645.17862507697
-1406.67555875927
-1037.9268226325
-547.419708235926
-17.6034045121934
424.967665510516
716.737894777864
887.238320950653
996.061243561202
1076.8325840186
1133.21607077057
1164.22945129787
1184.88711779396
1213.25975542427
1230.17081176761
1180.84048076786
1034.41717852705
805.916145619961
514.388111834961
163.916519654622
-223.738104160181
-586.775945088547
-858.31859519941
-1025.7212749929
-1140.95660413958
-1262.40463612887
-1387.38534278288
-1446.97788973537
-1364.5555384501
-1118.61209065151
-760.423567367235
-375.320342065352
-32.5844308617339
225.394963303136
380.333440895578
449.055960076021
478.12222954109
515.642234165216
591.163527199558
711.740634858901
865.535202836633
1028.77747418973
1162.32894113461
1212.26088310459
1170.08164830845
1134.74408621925
1218.0262374995
1376.57598977912
1443.15496553542
1316.37406452583
1030.64413287831
680.957985806168
350.328548330456
77.0041179929065
-142.201803086296
-319.976751765456
-469.259486632123
-615.7366084893
-781.61019384987
-963.710060149725
-1148.97318938461
-1322.41817403588
-1442.11286283028
-1442.15805134144
-1291.6113181919
-1046.76853367079
-807.896779932045
-609.696752673397
-406.784925862599
-174.799642194654
48.6097265737782
224.114292484435
335.374704982751
364.050650949409
311.462535938175
229.798120251198
176.79520649154
159.91809205845
155.338026308734
149.804404194368
144.490687256532
138.722180775038
121.441515689459
75.2987893775219
-9.40295548407946
-115.618321470104
-200.294086988901
-225.734835384077
-185.103040723551
-99.7622162514492
-4.47767585253771
66.164386931744
91.0142309031106
72.6911844391783
47.5313801083157
84.3365889295061
228.021858788653
431.589359795825
587.97700390312
625.003353742302
545.349287591935
409.427016072987
295.041776431454
234.140943708421
187.12356233766
99.2249141503615
-43.157518062654
-219.370301416014
-401.934503015751
-568.257692198267
-700.323215259435
-777.598633103521
-786.619912001002
-748.503455934531
-698.156822707607
-629.849928802053
-517.413078808475
-369.436271959991
-215.536505405755
-73.6039660412234
43.8839356932281
116.298287371464
120.394926863582
54.1077174762884
-51.1594487612929
-152.646265976026
-223.523903034433
-259.334624923388
-271.903592353587
-278.375077042212
-294.206491545372
-332.830599103978
-386.366976998871
-408.069107940421
-354.610338912062
-233.041908829379
-77.4204886218635
78.7942827831636
193.207611100722
226.783645716695
173.961622971177
70.305833407853
-9.85978349965454
19.2563312877688
179.370858872817
396.944680526175
590.353921932777
748.032943330828
888.149139600667
996.195990500077
1026.85102592674
936.721905860362
728.584451933008
491.188606875771
358.658121687312
394.511705323869
549.377772008812
743.622590484997
929.264086453519
1061.01044573524
1090.66494175098
1025.1167376241
935.382956578672
881.19895250463
850.380535437399
782.096034279321
622.01492054781
343.132345085361
-30.7298287393862
-400.563257665872
-656.615240960642
-778.774870905737
-823.872152658381
-836.292392554058
-836.90075713095
-877.112225279739
-1022.30410244284
-1268.94179841716
-1516.72793298608
-1633.42268416048
-1545.03244793721
-1277.60076072775
-926.361916913096
-583.910587468851
-295.803310888931
-71.8537799876148
96.6759780811831
230.855142998617
340.188535307512
412.944325136236
444.511548256135
452.135510660581
450.840329775435
430.804670027013
369.221479006555
256.296501245953
101.888593726341
-73.4181406127192
-251.572007194479
-425.072298536476
-582.852402085187
-703.607925678585
-778.609970080283
-814.163178355991
-810.9665274242
-767.366589988952
-688.33605829131
-574.375083229694
-420.318397345359
-236.094680392767
-48.8081749555627
124.716241272848
289.473783068938
455.8608128883
630.054844258533
811.738064253476
978.622035329561
1088.73006339671
1121.09681689318
1100.04588784608
1067.65071691157
1040.66591908283
993.205516773462
879.523446796786
686.765485857155
466.432998847986
297.162683119488
215.918254847884
189.833266161415
141.089711498001
-1.71373323502435
-246.074295741864
-511.56574722871
-690.152862599538
-738.782776188658
-687.134693619641
-583.354348816675
-472.023560393534
-388.955105320209
-333.532625650284
-256.738378184247
-107.455500487126
109.573072181691
337.119580254547
512.328370427073
599.711985395298
590.827380764406
489.770864172441
320.001264493159
132.964583579271
-29.2949499972099
-175.841118223021
-341.638314699396
-534.279264778307
-729.425069866142
-893.002312254004
-990.641822305711
-1007.27809410703
-956.538329441926
-849.658120579056
-684.82777514077
-477.626609355402
-264.078141116022
-70.6533549588454
90.2263138611736
202.948797858717
252.258891174697
236.812117526648
175.690226179714
112.257915618875
90.1662367733337
109.7786146112
130.630427388346
123.428023444272
98.203931958465
75.3364606028874
58.4177154775367
51.9839133555351
67.9302334605175
101.67448223238
143.793280482727
204.738877135665
293.540337460183
404.207564573824
534.889939383493
686.293292823946
849.232724405471
1010.10357344815
1152.56858680898
1248.09149661726
1262.02101105466
1183.03704836728
1031.95167839996
815.280314566178
488.054825774045
20.5108437107519
-497.955269983507
-891.212630736727
-1048.85263776558
-1018.04489425477
-953.649456881336
-978.033878109784
-1085.41084933767
-1188.75882002599
-1215.74702196397
-1134.47112960533
-946.498543145676
-695.042927309723
-452.164427678204
-279.38237053252
-201.799388822012
-197.622010859091
-204.000621715469
-165.87513776516
-89.9657368704317
-30.6729237289731
-16.2662590557609
3.31252838002053
111.576908146566
313.416802282223
510.597561626005
622.479482983596
673.705583567346
722.34360680679
766.442786623405
763.576334105519
691.406260506373
559.074256027137
394.135191216541
236.428421875897
126.29224172869
84.6217263862713
97.3721052952751
117.495514879085
96.1399352661481
31.0250564077865
-29.7316013782484
-61.0185932075985
-97.9459490477465
-151.376416169328
-152.536884684669
-43.1863300387003
136.433334399145
289.278317847748
346.240705059686
297.007111713982
176.290305791524
23.1146892385615
-157.620002233453
-369.268609295768
-568.108531158943
-687.98633023647
-713.239301526696
-675.295976326896
-593.986312351734
-470.096511875287
-324.498076533836
-212.90792256043
-193.877954875483
-276.131197190203
-398.52451037619
-481.587861751481
-497.659148912932
-466.863197170589
-402.999212412677
-301.638246331669
-166.59203535352
-18.7786862688569
113.848404915423
205.335709222678
241.978352825518
239.262326652654
247.423520157794
311.427803426846
416.124188367559
501.37685230024
524.29031771507
481.830355791955
410.601583556675
381.664161574016
444.495708763122
570.508644093486
689.270067761329
760.247280892715
771.328606864618
694.725767464086
493.487564074153
169.599467950397
-220.104603096882
-586.99038805088
-838.994959147942
-915.663910897379
-820.370968726808
-613.923018763902
-368.443721015556
-134.366530755728
51.6347831887067
170.884155398475
251.47447576695
348.747858642336
476.572551816936
586.671114620141
633.875511767037
633.765000310478
631.869347503673
643.174991230688
644.086781223387
606.422447700515
520.722029859434
386.224058064863
202.027837738361
-12.3369765461215
-216.213095372228
-393.648554357031
-564.992821297653
-732.668392129975
-864.542054884556
-946.949759705331
-1003.6032937042
-1057.1353962139
-1108.33837779029
-1147.63475180612
-1165.88447847328
-1144.20679895569
-1037.6005862627
-805.401734379301
-470.988253320874
-116.92413327494
187.942206254345
431.217876120797
626.464141771404
774.426301853731
872.943960558675
938.647097865083
986.498848551365
993.368882580215
917.839588303017
766.565710227877
601.891107271519
469.739917371804
350.632993719465
179.237945813604
-90.0300974875931
-411.730962043862
-675.951440760766
-822.072862943414
-863.788938637924
-812.663009658434
-660.056101876227
-435.04811226013
-218.920497996593
-86.3114823734555
-45.1341926240517
-29.3261900462967
38.7468875807431
174.947283438478
342.055653706065
501.160495234388
626.431601246618
704.823691127911
737.879704030454
734.710752971396
705.631799809985
651.498057415221
560.090118696133
435.390543605881
316.11153445543
235.349874466061
177.766198269791
102.053631932998
-10.5970235317637
-141.255712789652
-242.787142012461
-270.412194062258
-232.82149271316
-199.239287178103
-226.996385921311
-294.728984487267
-335.209805609085
-324.056353391557
-296.489451297101
-281.673063534955
-272.485449053813
-263.458798198146
-274.390385980669
-325.72228917874
-406.948386976789
-481.777387731555
-526.426240788113
-538.96575148981
-507.1261002704
-412.745778306084
-274.587065849515
-140.041633645888
-32.5315686675126
60.2688322632607
149.712346956048
224.027925628658
267.570498269806
280.643337128612
273.109582203614
254.59305435166
225.823979942254
162.985667666796
23.6262971908724
-205.70512490761
-465.378881326128
-645.032018814511
-660.501263374126
-508.408155785116
-254.065251978569
20.1649418674443
262.372821902309
470.922952625031
667.923821087942
845.572438646663
956.802965495233
964.483829435616
875.364614219603
725.998251708601
554.644784254541
379.739095037371
199.121216526107
15.28245237757
-152.832640436712
-294.728858620227
-431.204985522756
-592.270007931962
-767.624657852243
-901.382498969261
-947.873675207598
-905.944443551327
-790.622764876374
-600.738166639317
-329.752774484604
0.501477647604482
332.264513928291
603.072212771355
778.794412345541
860.237230769013
869.066267852974
834.839780927863
791.770524107352
765.532704393061
753.774726614055
735.945064973127
701.60952608107
650.7197349065
560.498000126115
373.321242451737
61.5813847638799
-297.320676947065
-571.641682904619
-702.932434984567
-726.786305957937
-687.644342539503
-599.048572745574
-474.304969427318
-351.51971984733
-282.255090066816
-296.985634095764
-379.997737774162
-480.806578639347
-555.018059887256
-593.937805676918
-614.503734560306
-630.009533841275
-632.763355620436
-604.537109004717
-548.358421662877
-498.699084700938
-484.483102990193
-494.573362628119
-497.894217349123
-480.416301467042
-442.485623260787
-377.831449020957
-274.557444691276
-121.715564551421
96.1414112471831
386.805902355965
724.318825635426
1062.69366912089
1377.17659885032
1662.30753494359
1893.91918401655
2025.56633010341
2029.82724633412
1936.8198488182
1817.72904492621
1706.67305528623
1545.09587376219
1225.04530950394
700.423813587588
56.618243002576
-552.616531251528
-1035.55327147987
-1403.61188388742
-1692.63369608945
-1877.0316895941
-1897.79885906993
-1768.93546385345
-1584.8780554383
-1412.16103510166
-1244.11596910872
-1060.58837141544
-872.74818644617
-708.640938042719
-581.205848426358
-473.578447643345
-355.550995043747
-210.852263321594
-41.0975683037264
145.127265793662
329.776518238083
489.40079656457
621.38075334536
743.067646405896
857.743752106151
945.754047236786
984.198706817865
960.173908768911
871.302901736163
725.70410766127
545.569480448339
363.902904029694
216.815557763734
132.869140690405
107.356179213266
92.3135739478446
36.6031884932741
-66.8050591243604
-178.014927238704
-246.453119700703
-257.17425080193
-249.868405932133
-280.735787395369
-361.581777971239
-453.067017194711
-511.081452309817
-518.253773297434
-485.010441911545
-435.894995580526
-390.508552725245
-359.33410922377
-342.653307690555
-319.126617854386
-258.614650735863
-160.281098781136
-60.8407995522034
8.0991739500593
59.5882446572532
129.357659433018
226.980419676126
332.803906897743
428.876200900165
507.101168994086
554.117209312789
547.231829102145
466.101648482319
314.458126768052
140.443333177634
12.6133153792882
-39.7998071595316
-41.8900373034442
-34.0635998628913
-43.7062101685376
-81.0906919018952
-136.236897580665
-184.931543601958
-212.964542408587
-228.914473827016
-253.739382021101
-302.375697650814
-352.716464724638
-348.629395222711
-273.172645412287
-182.133767642398
-134.587538796592
-128.512462252335
-118.643924907373
-70.6031184817396
15.7731633914711
120.952429303091
227.673100062536
336.939788499822
463.193040170874
604.705254862007
735.980300021942
840.379196532405
923.631293167503
985.131148495779
1010.26805783511
998.105951353927
958.969549469433
881.08534223381
725.591166064169
463.565138347009
120.873257217809
-221.784489053488
-482.62116522667
-629.645384663481
-698.327794532293
-771.50662807933
-907.813091351832
-1079.49984558554
-1204.67138016684
-1230.19663205138
-1163.98518975313
-1043.84063608599
-895.523267000303
-722.007399272055
-526.794833181273
-334.442642018936
-181.067437226605
-91.112705019597
-60.2662279307609
-55.6646073812303
-41.77284781747
-5.3614466477923
49.2148871078835
112.586493900055
171.721770978081
218.429856524162
264.332910836175
330.807468328494
412.643993570661
467.029556705343
458.07398060411
402.042949796913
348.616113120157
327.231298728239
330.331029387154
330.852415115562
294.331989411551
203.303363901796
89.8507579458359
10.1076542099518
-20.6412714748014
-37.2758346591556
-71.3737703347214
-108.405986910884
-103.94493590524
-44.2824701432233
23.5371802281948
50.0002673746417
58.0919996535417
114.048015335773
233.321709784255
368.687566386654
477.117908093485
539.262313446112
524.854328882716
395.668648437834
146.45180879686
-171.102174594031
-447.307545452835
-562.70733069444
-490.497467486347
-333.399036859378
-229.52677708017
-238.383629406508
-317.711524830067
-389.848508241785
-424.293090229076
-450.894441826334
-504.108960619982
-580.242901485937
-643.785804232572
-658.806224559984
-615.516028234076
-532.115788432242
-438.235284992164
-353.922882998971
-272.85487271448
-170.160516998767
-31.610604953807
138.588926404699
334.567723024042
543.090687969911
726.286242834839
844.836112928953
894.210692960007
897.210693844837
874.145315648678
833.375918580628
781.22715019658
735.731573900341
720.276825124474
726.457043479506
696.545731018834
570.823598537683
345.309246564138
66.2396985640635
-207.965282748468
-418.100328415236
-514.079295931367
-493.795418503359
-417.316377056049
-353.383961418779
-324.297031491298
-323.065955244284
-354.918793539029
-426.437876859884
-515.236011041593
-582.954803616874
-613.311517838471
-621.04099845295
-619.722098946783
-593.381818184363
-514.089064977553
-383.432564109874
-241.405995082897
-127.142629407394
-38.2039276829441
62.6458123725668
199.038568049423
350.462528614633
483.605036669652
590.949340866991
673.755010165243
720.018233515368
727.946887867355
724.17862191503
728.705344129551
710.68635107952
608.030619721003
398.722231300892
133.633857745028
-110.520609226861
-294.49195889401
-426.66566987097
-527.949401240607
-597.214046233891
-613.5170018535
-570.37737846447
-490.429743705068
-400.241561082975
-308.285273026938
-211.345634235561
-105.939583421901
10.1711318374471
135.749973415113
261.99472009382
378.024289344372
482.075701623464
579.847276189407
670.293873364256
740.13470401988
771.797020701871
746.297316293675
637.83080923688
430.329421741091
161.509347064669
-75.5167253565417
-216.49318612561
-297.475960273628
-398.530855439334
-530.512442102824
-630.41037675638
-657.252553861222
-634.624319020875
-600.842781870453
-565.620641944608
-524.09041528824
-480.028411576972
-439.37654521586
-396.882960266028
-340.066640848218
-261.276866026384
-163.684579651847
-59.8586405252376
34.500918979782
111.141473092866
174.246994971945
227.856462631258
264.136930176607
272.170793203625
248.764577969489
202.189022538359
156.537830344043
136.940647598063
136.359521547404
119.386802771713
73.0139150637513
25.6063508173475
5.35868572674157
13.9619074267633
38.6473619393744
55.3686499244111
39.556293621743
1.79676597398167
-11.4597333606864
33.5220282794051
127.55590021643
232.354686730109
306.439060928508
327.99715753546
299.938204779383
223.611911000985
89.5270804710753
-87.207891333967
-259.432995484425
-391.119586323612
-473.285109932688
-502.557044269434
-483.454406356018
-444.966604963529
-415.94871132347
-385.010622972062
-310.696474418446
-166.792477121386
30.5555763462578
233.904637016443
401.734731243867
519.85833084881
590.383145618284
618.372252380974
610.55270658811
577.857209980874
532.030440431412
476.417935994471
405.878480439689
311.398321943735
180.960301733306
10.9892816806579
-172.548012600064
-305.469726266809
-317.968314340532
-199.680194308893
-18.3492419748518
134.634628767659
202.145645437444
179.898219169781
103.031514542374
19.1672645157416
-36.9441894550464
-61.7633723927509
-82.4515412626466
-139.757846263785
-266.664300900241
-460.218843998398
-666.668341604634
-806.963262950578
-824.584788364539
-717.344654918912
-534.358315600549
-345.089399106335
-202.700467193406
-124.562747275091
-94.7239315427484
-79.1839423299978
-50.1896412516488
-5.44499615848653
38.8720674457365
72.3287270631194
102.198851056066
140.450408141643
184.477180134594
220.68484918606
243.466529524112
257.572163255338
267.966118613988
278.077716527218
288.913175547742
294.586065891757
288.997154587514
274.784464063589
253.218770513756
215.923939565562
163.374356352438
120.895238217878
119.817070686337
164.923542358634
230.90365054693
289.847025493377
326.642489969008
325.230781211062
264.587713734319
144.105880088482
-4.06003529421607
-143.827000721987
-259.847631049937
-343.286563177001
-379.722362584803
-366.219305538503
-323.091674518609
-278.624054158422
-250.218805166096
-242.284410907552
-249.267079405285
-258.106832461611
-258.181953764029
-243.633808148922
-206.312280933258
-147.392698520032
-90.7660908351704
-61.0705283391646
-55.1402116328715
-49.3147612465355
-25.5656057216394
18.231689996916
74.7912468207941
131.757725564353
173.726970719431
191.306716182791
187.867204161954
177.233232910303
174.510155235419
183.231138877443
193.662561266151
195.045473374916
185.36686345293
168.389452834775
138.462962028602
73.9553274889673
-40.0319404115758
-178.931810548435
-277.669560956807
-281.024184323348
-200.736442873222
-104.999080518282
-50.6972909243072
-42.5069507834332
-52.6413403690269
-59.6543414191041
-63.4906652796867
-78.0555928202252
-116.172098174505
-171.198718734489
-214.996135411146
-223.732506412007
-197.752793865338
-151.805511591681
-100.958080074823
-59.495271265695
-31.6466714503031
3.16154951969164
71.1625904233173
167.474465351589
262.226379496146
336.847394318459
393.526399242217
441.810740707552
493.368926570599
558.361458524914
632.935989716388
691.875986600687
700.265532309478
635.39263655242
498.198673544935
317.577502433196
145.580663820053
16.7367854252253
-90.5949493667043
-218.096955638814
-359.964002565461
-469.301777112411
-522.270242037166
-535.092071584358
-521.967490328657
-476.241347084773
-395.933760946965
-295.896564487429
-190.008988303531
-80.9626159892231
27.7242763703619
120.450058957402
180.653683769056
209.727019945413
224.434549942009
235.252112567104
231.829240060826
190.258292658564
94.6239181771948
-40.7041378134654
-165.563747043174
-226.704066473445
-215.615515611201
-171.878922210619
-140.668130320443
-140.205079719119
-163.866355050757
-194.722110358059
-214.329603331023
-212.598701199333
-195.663096637855
-177.55528556136
-166.51524281788
-161.667678419526
-157.480172190937
-149.775554938903
-138.297298281986
-124.18752916186
-106.404431170186
-83.746983935408
-61.7457569164891
-50.0013696532885
-48.753677076182
-47.1968622023032
-37.286333013901
-22.0922008878862
-10.6031719086624
-7.01609708853002
-7.02396845878823
-5.13726194657408
-1.90060319002652
-1.63251376625001
-2.9807644504034
3.7472671423036
24.98857408769
54.2062095354099
79.9620176418846
101.701933365294
127.204868768003
153.911232616962
167.936983458101
162.504350621228
145.784687557231
132.56308248366
134.367495381401
154.690566523188
187.256570598597
216.078026597401
221.193225593768
192.569535343183
143.789545585778
107.286594621867
105.449006148055
129.487539321002
155.178672069717
162.707939873647
128.21774614984
24.806033287845
-139.094681279237
-296.481165209002
-368.227035712969
-331.87792690158
-224.557191427324
-96.6322217087953
10.0089636549786
60.7965233080059
38.149015258034
-42.4961527272333
-125.675468141364
-138.916579601734
-50.3859650147683
96.8974106164239
219.644904659227
258.191317460385
212.574091885681
128.831245877112
52.9281588401199
1.05337426545709
-33.205717448977
-57.0198984479161
-63.8525405759859
-45.1408805860664
-15.9742453419992
-4.92151274756046
-16.5588433396606
-27.8502274097071
-17.4730237237021
19.6811796353383
78.8195541790453
144.123084932972
185.118075352286
175.855746114612
115.862717248745
25.2032534237173
-64.138097032497
-111.903366463961
-99.3383483406687
-62.2185186466447
-60.6502946972693
-113.425402807174
-184.028816988005
-221.357005813837
-200.768226738411
-137.606228381198
-67.6504095424268
-12.5611533758414
23.6883807783479
26.068576978652
-31.2167300040235
-142.781757589422
-256.745636245697
-317.212163497245
-310.150344175662
-264.754707182623
-216.254197401374
-168.998672308198
-104.549672601825
-21.9792893565191
50.1080107964666
83.7217657277533
81.8957266488666
73.3015869127537
84.658671324901
129.499618105768
209.473382506554
308.019271575629
390.93267871461
424.471553906171
396.032355983149
317.422250029822
208.066700504106
88.8285630745094
-4.7384813595137
-35.9658138226684
-11.2988670808158
11.5743125701021
-28.7739314837798
-145.2887743356
-287.221365992998
-378.291265197672
-384.873136213433
-335.850637659182
-269.794162600756
-198.794694299751
-133.902282965323
-101.737790135913
-117.42637137651
-161.09766083626
-185.554747547752
-142.773777528653
-17.2590198750736
158.743502165921
333.032637466625
474.730899823999
583.608066008383
667.904608738733
726.504765891358
759.066706960659
775.565896151328
781.045054425393
761.336857218161
680.796375333828
492.973401599168
183.756127972459
-187.126659908001
-508.549125569525
-688.87705535397
-710.351821924506
-622.030770748621
-486.999961670808
-352.788596516861
-256.723406004126
-217.701692161152
-220.854403755859
-230.795061494845
-219.60246968557
-180.431469211598
-124.314404863835
-69.5271000362319
-32.5986065802158
-24.5106030368721
-46.4315521674917
-92.1694534530078
-160.856317355656
-242.482892254542
-287.344137963016
-243.478701881284
-132.746492810151
-35.8479158865277
0.663219955273223
-1.92085845222677
-7.7298199284925
-5.8909909136444
0.781512692294406
4.77802527282072
-6.96054957000508
-37.6479045020385
-66.1308685457591
-62.3236215055128
-18.4029941438069
46.7841807771149
109.748812607168
155.231856552265
177.935671260762
183.763388545308
186.736432214034
202.357301003172
234.71871666376
268.672378591273
286.632789467396
290.262175142161
297.702201692632
316.065958304769
318.417925359174
262.30376775699
135.019600602534
-24.0690052071488
-145.963330031715
-184.868564121447
-151.321322934743
-92.766965037272
-49.7711028024175
-24.9353545977483
13.3225999721597
90.9728535839645
195.433249648745
285.885142434812
324.304252451837
291.315450424904
186.038847264567
24.5464448777426
-160.73708336016
-332.547037042799
-470.558907671518
-572.325524630558
-627.953122101695
-619.866376105451
-555.904437205561
-473.754498039558
-407.3317790061
-363.307798444349
-325.471567589644
-276.070355101139
-214.063663902657
-153.8634413483
-110.095325122097
-83.9877552576404
-65.1907169879302
-47.2275641256094
-33.5248348768314
-24.6086964025346
-11.119777853126
11.4508641642865
33.3053609862671
46.5142659876376
61.5773941850826
100.186821825691
173.451288239186
269.356506075704
362.146554754236
426.747811972039
440.676263855736
388.834674579954
277.157299281464
136.058268070754
10.694940568029
-61.8158926514479
-79.6774534268191
-69.7377158699308
-48.1344732598968
-6.14440292941261
63.6467191612213
149.075403925624
228.0537426957
281.080797906961
298.224126472761
288.346037413557
280.955262245448
297.431543054746
311.511951511998
265.019635000483
130.885967719551
-57.4595140563821
-229.264165305233
-319.703258253578
-315.621250826766
-267.76198232839
-237.843561221743
-235.081478900823
-225.321692094285
-188.023193379667
-132.156003291839
-73.3155385425008
-27.1480059415133
-9.30942780319232
-18.2749644036608
-28.3170768988461
-15.2180645177515
17.4109677747776
49.6622440423877
72.9595464503092
91.5594956327699
107.401939363907
114.119389363128
102.149311249916
73.2449861895679
48.4211396684547
46.5869633209153
55.9977561633219
46.5612443673845
11.180207885016
-28.3730082111166
-53.9811642497885
-59.3747657065798
-31.9211637353064
34.9284071005094
114.103182476302
162.936620934317
162.209698857848
124.511903832053
80.705481419993
57.4353228557838
56.8040435698433
64.2360286897398
69.2925056651081
68.276519277383
59.517311703791
42.5017888884757
15.7685570752323
-20.5221943490776
-57.333504965887
-76.6775568318108
-64.1796325993591
-21.8926232092504
34.533797990318
86.6179660956029
117.833827902981
117.412416648961
89.6490825556829
52.7759359697191
16.6024729046405
-29.1153389028751
-91.2777314814345
-152.773482258892
-191.009930125301
-204.666463420725
-207.630177958641
-206.916150952612
-198.942742085519
-178.910986805785
-145.874492132216
-105.687955039597
-69.9472540215825
-46.351998337025
-32.0691540964069
-21.1536892076169
-13.5165011768944
-8.01677699778489
0.0538064845662771
3.22453498249016
-14.3131317381629
-50.0119764071875
-82.6777965223905
-98.2268170364966
-100.417194151409
-100.162466484967
-102.472334869852
-103.070334507716
-93.969530554985
-73.591095548539
-53.0868154627023
-45.9659704255879
-52.5190569009629
-59.308431032422
-47.3810337348342
-3.13339476033497
68.0512130867491
140.131342921626
184.253589392549
189.667117176385
168.937578403737
148.403762295528
152.842213153949
187.867408509157
238.427930486106
290.361597762836
339.495963845249
377.134490130004
382.873734742819
332.302712159785
208.651735867538
20.6072195544692
-183.225325643699
-331.869732220434
-381.229689036651
-347.974134478784
-288.726720503749
-248.285749583783
-234.679406586612
-230.056314928364
-206.485267659749
-148.509134472144
-76.9320815149278
-29.4271063263474
-18.0469963881921
-30.2996247275314
-57.4701132380149
-96.6173923310293
-136.043463297829
-158.191354388748
-156.09223318583
-140.022086076375
-125.307774957138
-111.817153627741
-80.8425183338442
-15.9034974995232
79.5497861015454
185.475238351005
282.747702407308
361.226765351006
409.096103389415
416.493482545904
394.710468730865
366.993510516387
343.786268111068
320.978565720768
292.877707616213
261.326510832246
226.989732830208
170.771778635491
62.8419006163235
-103.924475732162
-297.555587574173
-460.479150027472
-538.854197231072
-512.726855899472
-408.53717597307
-279.700990716604
-174.877768563021
-122.688998376124
-124.135702415125
-148.431770186854
-154.835628828285
-126.13261218729
-74.0119289786004
-21.4093429653384
12.7596772247236
24.0470085388795
24.3273119774958
27.7172554998342
37.3077078537653
49.8984519087678
62.5651804369855
67.6849286374033
54.5602799591058
25.5174026023807
0.610186576068066
-6.14185821693226
-4.26693862475748
-6.49885682992572
-6.87649260256477
9.58898247358087
44.3102022708896
73.9616855483974
72.0145056565418
44.2672367530314
16.5161065970337
-5.38755232251147
-29.384606224649
-47.6011921391868
-43.4319827435724
-18.1283526909503
9.15199718582306
23.1420257204071
24.0323281725985
21.379087794837
20.9315143420179
18.4268389327392
6.21826672796392
-15.4622339431327
-31.7331257322963
-24.6180920550536
2.79654469603898
28.1747695411406
36.6886436473219
29.4610571380976
14.8422470046724
4.59365164045422
5.95933320818089
12.8164546310112
14.1706302109104
8.70292538221326
3.14522004275541
2.18661523264978
7.90359603811334
24.1867255194371
53.7854207638892
90.2631333488978
121.09402908292
140.257529898161
146.883793570508
135.190905077875
99.5893756627492
48.497787397963
3.99506867931067
-17.1556677848474
-19.9430479815915
-22.8508434312417
-36.4355896066491
-58.0768771406632
-80.1867532430728
-90.4273500456841
-73.2770540924695
-28.257179650922
18.9116047558794
34.5423340640423
7.86337017865
-33.8596954944305
-48.1296889047766
-19.9154282717122
31.0372599813378
77.5608062828761
103.078902480735
107.894047448206
108.4152637643
118.041513556459
130.794068850773
132.219002272445
118.806447627893
99.5242975518962
82.0703966169222
63.2992815571141
33.760933424649
-11.7281448129249
-69.8855705702908
-132.246283819165
-190.256798891107
-237.848330010922
-266.971763075052
-267.35684256171
-241.833873336979
-209.612325898345
-183.812876746588
-160.948573203922
-134.470506347242
-104.01343079752
-73.3625449834356
-47.5403023811984
-28.4555771751478
-10.1863652972973
15.9060831549182
50.4806277701001
86.580233668979
117.594019568978
139.092430539507
147.079917085228
141.524744431029
131.717543357289
129.653020713982
136.645850752831
145.74120214687
151.700310551818
149.201684866539
133.376961766129
107.066575047666
75.9712051626399
38.6317174968452
-9.68345975881062
-64.0759380486751
-106.515039898555
-118.774929023075
-99.3148601569691
-66.7207844440641
-44.2303757039794
-39.4099100898956
-40.3740420798989
-31.5141083239917
-10.6774988099858
11.5208639298918
24.7519918417327
23.4922363576922
7.96135403844503
-11.1611704917785
-22.0387757485473
-27.171970340192
-37.3062221705426
-54.7993305426762
-71.4845497993944
-78.8534340782436
-74.5781633182265
-60.1991993946644
-38.0237377714886
-10.414821794392
18.8523708986547
42.9966820595602
56.0752810332705
58.7404041058529
58.4226743652633
60.8577725852965
63.0291333407064
61.4531881601251
59.5887960519834
60.1122297457544
61.6097430505709
62.9721068039189
60.6494587072537
49.3047667162895
32.4831268257985
21.6432247725685
19.6327301227168
16.8758274012397
7.29476788987781
-4.53299946402883
-11.8892012142723
-12.4410944828069
-8.99026263807078
-5.69146595058977
-3.78575188969772
-2.23063094164226
-0.520964611829552
-1.82948827745866
-11.118861879771
-28.0232141042558
-49.2073972854027
-76.3778181880854
-110.842754906593
-143.14419447895
-157.426315114359
-146.516485328221
-117.591220817651
-81.4169340745017
-42.6302902471387
-2.48374029151086
34.9378084299947
61.8655596164687
71.7986164315136
66.3618362446176
56.7701720492695
52.7958133719769
52.7938826608518
53.3493071846066
58.3428490729416
69.1696536958926
79.6283323218453
86.4289593481693
94.4500835627844
108.467697868003
125.92525040238
138.339713275543
134.943146949092
111.451937532694
81.0660060321896
65.0444170434721
67.4071026118889
67.6199904069297
43.4343688898332
-3.36923336870635
-53.3365367177016
-93.173649539821
-120.110445613237
-133.256832684398
-128.592812677458
-99.2635070803049
-47.9266520883143
1.8452265221377
22.6024858348181
14.5805382368438
8.18961990295266
31.035884171749
82.6911565289008
145.187184808788
199.580966483818
222.713601372415
189.564843966708
99.4687267878937
-6.58452722398733
-72.773177076379
-77.2631441828458
-50.0025780437406
-44.2134432909921
-92.2983579731656
-182.149712665464
-270.017297319932
-319.612851752402
-329.321416524165
-320.04968872199
-304.801339761351
-279.863760509666
-241.842343072418
-199.891382798622
-167.754663191338
-150.1258436801
-140.879678330311
-131.325226217745
-113.699491038559
-78.8855160215219
-20.295597631319
57.8689747205948
144.496211387378
231.228739820993
310.032414641912
371.929839183
411.938687061683
427.262723025673
421.89859961314
413.500472770933
415.994203168354
420.445785305231
401.473113814961
332.752533448689
207.053703117384
51.0375046849023
-94.9046659675087
-206.670720336402
-277.872889346995
-312.581937578271
-322.600166052928
-317.504292392535
-300.232246216654
-273.332208253506
-239.264996105613
-201.361341775311
-168.758081153234
-147.617846811618
-131.773729414841
-112.52848053413
-89.1624434478007
-66.4211861291013
-48.2332195343278
-34.3624880093642
-22.0676163844992
-10.3192290388612
-1.6142806848811
1.19687120295853
-0.316392543357266
-1.21349945914092
2.16104629308653
8.80741244739993
12.8507833632009
7.48722787461647
-11.2230621030858
-39.3416080769133
-63.2559777668626
-72.3874971566251
-70.4855331381811
-68.7686129589698
-73.5823855553167
-80.1556456343718
-76.8011018407651
-57.6939366582355
-27.228694491459
8.03483234302186
44.378831819985
77.9198222133671
102.675993194788
113.515049878067
109.343281601103
93.8385675051192
71.535325478191
46.2346682528911
28.1295886708843
29.3960231406208
46.762764002909
63.1377534377916
66.7155424740705
59.8424199033546
51.7683320869191
46.9034030522924
43.1478036838831
39.1141018347948
35.7551370182506
33.6166217373512
33.0460866385033
33.9954732494077
34.3604050762398
32.0597530588879
29.1792592169315
28.4036270929051
26.6749759669166
16.820015971168
-7.81851286968723
-46.1638072355805
-84.5151653311044
-107.719005811502
-110.647253188681
-93.9253387177775
-61.1859935475622
-23.3285406490761
5.03210978526521
16.1755705535997
12.7502554353141
1.83795778240375
-9.70619626507582
-15.1651218157268
-7.76828267566788
12.235857111109
31.3233812212838
37.2716481159274
33.1188143619229
25.9508558066557
17.5008683915784
8.08005245481876
-2.66704081251319
-15.6014168925144
-29.3050631128253
-41.0202706535844
-50.8846818734672
-62.3092722769599
-75.5767693909345
-84.3637516568997
-81.7615515264564
-67.525534034328
-48.2170776842739
-30.0617658140405
-13.0089247302279
5.86817546996622
26.2718635996272
44.3755754494372
58.0440419369733
69.2592678693238
76.9517549972432
76.3310338649139
66.9037826093321
48.7379655832642
22.7052226346938
1.89681868705992
2.25694423215768
22.4892801636788
48.2461660826409
70.9267641847623
92.7501457846561
116.25769358596
138.837653369481
157.275555617258
165.872028538434
148.567371959598
88.1898920087214
-4.98184636974524
-85.1890442459038
-106.374388283817
-63.3647984657996
5.95222451062624
58.9381783852074
82.8466149872508
86.8669359779523
76.894185916094
53.1053255824006
19.8918323817772
-13.8484313804659
-43.6298171694546
-71.364597165199
-93.6943755057306
-101.908130200315
-97.1805711221507
-91.9946103841548
-96.5669402690525
-107.940482691899
-113.015373659996
-103.258631588879
-83.8927869099381
-68.8036584056933
-63.4273268819885
-54.9156916312374
-29.3130850765128
10.2118742827092
50.5170595108611
82.4085103091038
104.178917869431
116.811011936272
119.159134312073
112.237777031311
105.558806410164
108.655097473024
113.55701773664
100.325496222519
65.4546150784342
26.2097413032719
-7.11323983275536
-43.1583819296826
-83.6620392175482
-102.934279228332
-77.6608873003847
-23.9933594558124
21.5761506838143
41.974318403657
43.6016846679268
39.3449685524453
36.0715029269174
28.9632938215594
8.39774741558901
-23.9864684757472
-52.1487437785905
-61.3803809811707
-51.6839415725284
-34.0271820660308
-18.4937535422631
-11.4790478000637
-18.3563932815284
-35.1298906307199
-45.2787918753946
-38.4140633041559
-19.7949111593209
2.58575560738885
25.5072676451095
45.9264141050035
53.1886193344945
26.9327588091272
-42.7984791315757
-129.647303086392
-181.314429156369
-165.122718539282
-99.081940147574
-30.4593331582083
13.3539298880014
41.554709866011
71.5714997568932
103.656223897912
128.68531265907
142.06988582191
141.845986494232
124.943320642363
88.5355343939296
37.200226734241
-12.1272475293182
-48.2893937905165
-78.5069841475332
-105.014464081728
-114.690804251648
-103.955710856354
-87.5584083500935
-80.0291770593864
-85.2663334801296
-96.9524939880061
-99.5249207812095
-80.331023434343
-43.139989425407
-2.2908093284672
30.3929166604613
51.8707363225781
67.0533088053891
81.1520760592391
96.8215283827963
114.91029776457
128.897919185317
130.306671234514
123.199355379997
117.723576918922
112.753940788126
98.0125722959579
70.1645947110533
37.8790670874936
9.92938359170482
-12.9310724716077
-30.1389892712936
-36.2804034829242
-31.2933187063019
-24.9455198832451
-23.8151285195056
-26.5281287786691
-33.2041132857692
-44.5504225608931
-56.161579491481
-63.2522715185633
-65.0572955672372
-64.2498363676233
-65.0555921010533
-67.7969704673109
-66.9320458568249
-58.6497790511102
-46.5332810553802
-36.1311933686331
-28.3314967984578
-22.4576327497261
-20.9339025571263
-25.2698279793747
-30.3358943840826
-28.3644428337978
-20.2849898479316
-16.9902375220193
-25.9494904071893
-42.7863937550413
-56.855496523376
-62.0011036526653
-60.8177843894653
-56.6967135383858
-48.1405727046118
-34.6780012015275
-20.1872893878252
-7.92827432769964
3.81787049089277
19.6911339402532
39.7804956018428
56.5913953146354
64.1390644984041
66.6512313994085
71.9899291622093
81.9921795759832
94.2955172863958
104.695546217697
107.711476134891
103.536758783493
95.9443315836031
82.5282911073313
60.2189190578256
30.7635851663816
-6.55489091658274
-52.3642176933883
-96.9350647963597
-124.134739072511
-125.554260084333
-107.331457557824
-84.7050128447621
-70.8422113605694
-68.2725340038517
-68.96306298277
-62.6565523347684
-46.2040602196627
-25.5217053279934
-7.25273254514454
7.90642515703273
20.1137089282085
27.0113648325986
26.1115314820319
14.3530929250223
-5.72601044556327
-19.1861174328293
-12.0062637436197
11.8363504113636
35.0125568250639
44.2455713508326
40.468050777606
34.0525588256361
33.8528716115244
43.0289373006818
58.4577177310567
70.0377889254292
67.8218348539881
53.7449965373573
40.8946941754642
38.5610359066381
39.8841840162393
25.0367605514426
-16.7058128056871
-67.4066683240734
-96.7242327019733
-96.6663979569492
-86.2948301857808
-85.1939881035632
-93.7868391837189
-99.3094756275442
-92.0467498576372
-72.2382989681364
-48.2874243531691
-30.510134836984
-21.8719600804926
-17.019984743803
-12.6328294466864
-13.9315434293466
-26.102569029514
-43.394103953212
-52.4478411986122
-40.9413708399825
-4.13901060429188
48.1710532807419
95.9012108866928
124.253849543713
132.98955956962
134.914529523533
145.442134602371
168.052065917493
191.062267231323
197.046685229519
172.537154240152
117.063276560419
46.3801230883873
-20.1334115043594
-71.2370098701046
-100.40734823343
-102.996704698107
-79.3002473125866
-36.9340856196904
6.21799292478685
32.1562610414188
44.289267700904
61.4980243448546
87.4669468407958
104.066679916981
99.0353887647833
87.9326874162723
96.9353317829184
127.742974569649
153.052444215611
149.293780125521
125.939120076809
114.035785717214
122.104047932606
112.801732774257
42.3169602846126
-77.0392847978101
-179.878501890763
-220.015562470729
-213.458747969606
-206.924542131367
-226.426152513256
-256.548126688867
-262.654287277526
-232.58824976582
-187.129939782275
-151.556740934964
-132.754366093088
-123.093009342534
-112.373572324042
-94.2181657371702
-67.618629191854
-34.8810498069867
-1.01589645645317
26.5911234142109
41.9060393560443
40.1906803487779
21.6638703441637
2.74687313616744
5.78243974751887
33.01987564276
68.6828982321419
100.254164027721
124.243014554203
141.315572972159
152.943575093383
160.050558661198
164.311778653751
167.338267156214
168.480234544105
166.081117812908
156.467567106151
130.520536358822
79.5061017133119
7.26697081337565
-66.0195338227576
-111.600516974709
-113.986092275135
-92.0659455733741
-79.4027311272518
-84.3845676754723
-92.7102619467229
-94.6135402560233
-89.9508740426575
-81.5862037877808
-72.6460949329105
-64.1279072477318
-55.524092697961
-49.3397443282029
-50.7639146285679
-58.7211815185033
-62.0979268391341
-50.4067945208078
-25.4275448939259
1.10272714091812
20.2939787275539
30.8869721102235
34.9654323659674
38.6577624601884
49.4637824607776
67.5858281103867
87.1905703449237
104.315410138446
118.598472476429
128.847941516187
130.382956583019
118.103557532426
89.8443048540743
44.8115827515837
-18.6662218996903
-95.681594052631
-165.372065483684
-202.882709216187
-201.147712622589
-173.049244391455
-138.584830021081
-112.152277017328
-96.6638262477901
-89.0876496724326
-85.3770050120832
-78.5589745636922
-61.9513421092749
-33.8593502968089
0.112302729086669
26.6823371239021
38.5498443366773
44.5269687580616
52.8034930818343
56.9788026565881
48.9755572129357
34.5574916666627
28.6452358512595
37.2665850449475
49.6014455927763
52.9449302791202
49.3026976066078
47.9814245082965
49.3663636819428
45.0645231699009
29.5524445863788
9.94691910081461
1.93197935708781
11.2063060239533
27.1565328107946
37.2775993138242
35.7456290688588
17.4881232645475
-23.3215526974244
-78.7941240931121
-118.636490271065
-115.607292025974
-76.0295573603954
-27.1554966171636
17.945866998971
67.4058487245435
129.937552070529
200.845582055593
263.643612989016
296.510416370787
285.858043079586
240.888375451821
190.196543940056
163.368698355622
172.057205020942
198.755095744864
205.635270644997
167.893552006066
100.593325114217
38.5373622915589
-9.23980429119294
-67.522972765121
-155.817218426629
-252.337943349397
-308.473592203962
-300.700754330531
-254.872494059386
-214.767400927699
-197.730870544252
-188.095352242163
-167.061561501426
-134.435841758909
-101.684616790154
-79.7606259243137
-74.1592021609498
-80.2980273872718
-85.9453621258196
-83.826087796535
-77.6267114500115
-72.5237601290098
-66.2036733416945
-55.8614687913833
-48.6073308347725
-55.3253410995055
-74.0088707275747
-88.9262377491695
-88.5411464824451
-72.3985850676101
-44.8221049170316
-14.66373569807
9.69019992179909
29.3434571923804
47.6995680636727
61.6731949625708
68.1745876776118
69.9510454772555
73.0132624251013
83.499180437561
103.596390470876
127.987082600382
146.877767613982
152.196948084884
140.94634359957
115.001531984797
80.2906074569628
47.3843939216217
26.8276254046969
19.613739089598
21.084194859031
34.04252480501
62.1343907120009
96.693401242457
127.329633557422
148.845698444921
146.69693958075
105.166829741366
38.3124276524764
-15.8495090019688
-35.5088115166149
-30.0024446407394
-17.9333642396963
-8.44433376162038
-6.44843676581936
-19.4380700865408
-45.4722604200753
-66.9946146391344
-72.7112036934279
-72.7519581025264
-81.0807264613265
-95.6325362240699
-104.264967161359
-106.124480865745
-114.05559761107
-130.048967076556
-135.314986457388
-113.087977410619
-71.2123274389098
-36.1431799910189
-26.2309678155974
-36.6412061741323
-48.3206237026251
-43.4098588420093
-13.9622139014205
33.1424116915261
77.0523676941395
101.524855243078
113.701702200681
130.572730875466
153.485160931341
168.822190740045
163.474224001108
132.398808576731
78.9896643967807
12.5294374712415
-53.128096577582
-101.081638730903
-120.581945624944
-115.198876912189
-96.608230012123
-76.1895355926172
-63.2482756567327
-55.0557863018458
-31.3826686499048
23.2811194115874
98.6368091072159
167.062943131241
200.67727123269
181.460842361566
112.218923742103
23.4696687916321
-39.1222298459596
-49.1787108566214
-25.1648231353675
-8.64872704321098
-18.9995555589026
-44.8068084626344
-72.5537194649271
-103.926278396322
-143.445258312875
-180.403834473858
-194.437256014492
-183.341614188321
-169.982658365422
-170.622440408003
-174.679136151371
-163.757953947461
-134.021992883601
-96.0609530064429
-60.4723146152976
-26.9624631312856
11.1329772970181
58.4322671476327
114.473032305918
170.491099789949
213.307467804208
235.437140719049
238.367824321415
228.743381976968
212.737369798643
194.580197333949
174.364572833618
140.754455153934
79.7465510528161
0.20030256571493
-65.5638526632278
-92.9428745912269
-82.4009120250286
-49.0600228113099
-12.6421318543434
10.0892148482096
20.0401722753627
31.4116849996351
43.3837009596716
34.185153389914
-11.0562633559723
-78.7548903535983
-134.829857914174
-150.38321133971
-121.277948725588
-66.4996124442578
-7.6569013975389
49.0158551461102
106.279854844154
156.604585038466
181.737562046839
175.482493446047
154.870280048459
137.07214973248
118.296041824049
88.543273113978
50.6001208733043
12.4960882442277
-24.2718043851382
-59.4952273191751
-88.1408605684475
-107.54541793794
-121.732848999913
-135.021357280451
-148.674675483853
-158.49122131354
-154.06137627792
-132.710708447071
-108.340686850653
-95.229086863544
-94.4991143953026
-104.90179851707
-131.181108312368
-172.526051318679
-215.025926236156
-236.736455868175
-216.933791545135
-154.262522293704
-74.6444043785882
-8.17318159602246
34.731932071531
63.1348865726906
93.4845311649689
134.90206844102
183.356876062962
229.409009546897
264.179588166083
282.836614775154
287.952569066183
284.702811297552
276.788607558204
267.735246394983
255.430459337746
228.182198778449
176.764773909995
105.106528847541
24.9382468164351
-47.1921257110377
-90.3118295387962
-97.2491299666247
-87.6270007650649
-88.8658334883782
-111.569702327736
-145.380857053805
-168.766859383854
-162.035476115649
-120.977012406126
-63.432298595033
-15.4494185141866
12.8493159213984
30.9791074242062
47.4824034282593
56.5558760398625
48.1959826171378
21.3651986437182
-14.8299930160489
-47.3176071616566
-68.6066643361267
-77.9028292300411
-71.0848710989618
-44.556771868301
-10.7828896432058
7.248736767999
-3.94073952164368
-44.0768891294997
-105.468067345799
-168.805672550395
-200.328299788951
-176.881102349942
-119.184201014114
-78.3584744512073
-77.145620746943
-86.2205804260886
-69.5855640767607
-22.9004741680782
38.4558245462125
95.9447695306169
133.993113888952
148.738388883847
147.278013534571
141.306873310615
145.499176567116
171.296389353838
214.535814290858
249.490824090069
245.367236910292
197.732820828195
135.56465410283
87.7483926513986
47.2272299373032
-21.0934377537362
-137.492482966459
-274.910826347128
-368.267732321171
-369.94241674424
-296.996535157398
-207.46078922406
-141.181952662472
-98.5915944119333
-63.1405400553082
-27.3073404183396
6.16358416657523
38.338202757173
75.4111561060071
115.510424124485
142.896875587722
137.977172550334
94.7747922349901
30.0621695955331
-30.1301093084823
-71.4914504086671
-94.3788238150998
-106.319294233871
-116.050904153275
-122.462616261771
-112.308977331766
-83.1379792174802
-55.4390552811577
-47.2094576569209
-52.4590978563071
-53.688259624163
-43.9377212203208
-30.2176678168416
-21.819524926105
-25.6229637909304
-44.1815471961279
-64.5957958486967
-62.0472877839461
-29.2112323381987
10.8009533086571
35.0760499781192
49.5568185748864
76.1276936376197
125.360569400716
185.66141510556
232.197859175639
247.756487823878
231.716164307785
186.253939267118
107.325333287628
0.0315383404711165
-104.836972245703
-163.904532655431
-156.270546639532
-98.3984950173561
-20.3320550258648
60.5198956089799
132.114805534219
172.679635630192
166.784541357363
128.259228101397
91.1435344726459
82.296303922656
106.269546973777
146.901219795621
173.693264022118
154.343748601742
80.7072887901112
-17.6246944326983
-97.3835826592599
-133.979089156647
-128.726915193803
-97.9350988927289
-58.9294030608998
-21.2527118551497
12.3023591204108
37.0084329275711
42.4783932152559
25.7067668914796
0.15300765895232
-24.1468088278343
-60.7977446881089
-127.42481176348
-209.699284002456
-263.852657978509
-255.233077239151
-183.310852872251
-76.8336365912863
25.8334619006263
99.8231865147272
141.736426800211
154.00639331971
132.726199244283
79.585818210948
12.8664243314595
-45.8464257388061
-86.7158501526143
-107.551720204583
-107.899882653433
-95.920534943109
-87.4636465043041
-83.5369792569179
-64.4156525087942
-20.2981232808434
35.5330956142897
88.6964465532063
132.912174208719
163.952872832969
180.396015518462
182.636095709765
173.247010085366
163.437178781259
168.884564297315
195.050951371936
230.115383331252
249.925793089217
233.4648508041
183.897067389914
128.13396149133
90.2274470906413
76.1768506003133
75.9421232186955
67.9570419113788
37.8165566766933
-6.47798202842865
-49.763346592922
-84.7473445179275
-108.678594653891
-126.103841014254
-150.346176194612
-186.124077516854
-219.736001130847
-234.334900296351
-224.007496538827
-195.031844743951
-165.571913460569
-156.191330695702
-170.630253273765
-193.233533836179
-211.284228909161
-228.570003917451
-246.422405228275
-248.352805704485
-219.278275364587
-166.607110305682
-111.653350464561
-64.1003786849634
-12.2090953642119
54.6236058206952
124.439388024983
177.564943109785
207.752032937746
216.761405421577
205.191430309166
177.948060174479
147.883316321637
129.044056576711
129.907899348721
145.397051731775
150.786739642999
123.82175606163
74.7489442831679
30.8836101658764
-1.37850362354191
-36.9098228034993
-78.6239649744865
-107.003189670817
-116.455087238589
-135.596422082494
-180.900433010905
-216.673896625944
-197.698040825043
-134.207275941645
-82.0189608980597
-79.4612787596162
-120.37657376196
-171.619493478722
-193.02231030795
-160.161821491966
-84.3194866273904
1.26661934089964
73.1991814360141
121.570351864449
137.617723017062
127.966365913949
123.108382218851
139.327282552516
155.165828859353
143.394940233278
98.9925963657598
37.9391454795835
-9.10099659927245
-18.4817192842276
-2.26853146146569
1.47374963550081
-31.581565969728
-94.8480635050204
-161.301590103883
-194.220947057401
-161.92380042262
-59.608138578112
84.4157370583381
228.950063069642
349.768298474012
448.321923044846
533.901709981161
604.501023161203
641.246633933786
620.12971929353
532.53846417559
389.983142505783
211.141576687319
14.4288429829511
-172.660394197691
-311.394732332956
-385.44765618409
-422.90288495242
-448.810846697441
-441.653020609006
-376.574538034886
-278.492032400625
-194.776842827097
-144.099533494546
-113.713009206145
-80.1705136498886
-29.2750058982608
24.9912526924145
52.5575683679491
41.7681325850546
5.86165072915731
-34.196701039026
-58.4689238594962
-54.201921552944
-30.5452611884358
-17.5944215410166
-33.8056264536126
-63.5251569874774
-78.1048703136145
-64.8007420442113
-30.3759385923795
8.08257992607846
35.1916762678018
46.8265940684675
45.9628521162726
34.7939874952147
19.2423592329663
11.1035062681387
11.8187756664883
5.70493363023429
-16.1059919250127
-38.2275296934137
-41.0476060451161
-28.7615371285218
-24.6771627151871
-43.1784613051008
-79.3306845788855
-121.899198330136
-163.10496343986
-197.722519025845
-221.51825458971
-230.461879992609
-219.979851991565
-192.1805111338
-163.889483027044
-153.858236077888
-163.834452537045
-182.325667244306
-193.451395019172
-176.981483060746
-121.893699933392
-43.0350437010965
31.1560961636679
86.3976888833453
130.309004812474
176.407155766737
227.122912760111
272.469534205797
304.681460366968
332.003645815599
374.233077726549
442.587044366463
524.05054596066
593.588090148081
634.154547820396
622.906206510896
520.430478528884
316.259763973752
73.6300598905931
-106.729707366611
-171.363469913341
-149.851163049519
-109.260995158452
-89.0473606822853
-82.7773349314108
-67.7708019570287
-37.141417492699
-1.59358900772578
26.2890162793661
39.5282895664027
32.8121062850663
3.37515010867907
-35.5802085969636
-59.9547588670525
-70.8068203449628
-103.076389147678
-180.184576252879
-279.281575082932
-353.360835104971
-372.906211288145
-343.197027184358
-298.01148947199
-277.472046875278
-299.532242729037
-351.338380809169
-403.907474566726
-429.789064233306
-418.807369124955
-383.49029333193
-345.04780925783
-318.982263739789
-311.949160998866
-318.267795689171
-317.920918523046
-289.210831829698
-226.27270652466
-140.412140014251
-48.0454114739809
40.7681941696184
125.796754427173
209.293827031076
288.910603158244
363.618872900426
441.12356252666
529.505851443751
620.467288030397
687.556556095215
711.734515988117
709.173950581437
715.075271309254
730.735595985107
706.672961208678
592.364035478948
389.41339460749
152.233105321027
-56.8206975560987
-219.254104612387
-355.529551986873
-463.682030105853
-507.294259106991
-473.502420012777
-394.313682362649
-305.893007305943
-222.077986401482
-148.647225882807
-94.9877288217686
-61.1510573979514
-30.9696782615268
12.6089703320873
71.5262367467438
132.268115327019
179.285598894712
205.364374431534
212.210979747186
213.119724150933
226.194708931022
250.06751439764
258.552073044529
224.558833322638
136.520350442487
0.439137864882479
-156.529051048055
-292.716701206539
-380.25474160394
-423.254429670542
-432.912548301506
-400.128236212832
-318.65316692206
-217.766252365453
-143.608346364228
-116.500091687082
-117.763075497537
-111.267687110498
-77.5830824359003
-21.2946617777136
59.3237101770472
178.352593623943
326.698429116659
466.737720680127
566.874325444485
614.272753449103
602.105900328607
528.673015430575
406.748757922639
266.792773342927
148.890844782192
74.1377081432421
16.1820645714472
-77.2782557511288
-224.033638258283
-381.878866637234
-491.019856668674
-531.892461791103
-527.478846954381
-504.163737453831
-477.700356643099
-457.057779562826
-433.392714826088
-385.542397797963
-308.491321289321
-217.529967161959
-127.68696361477
-45.036608775771
26.7584978007524
82.466259140625
118.411180089238
133.124237583412
124.256179489727
90.0660124788794
38.109068003134
-6.78962890322048
-14.9616120228994
20.8480624444784
78.6664317177103
127.335158773535
149.969533624247
147.998841002334
127.867134056464
99.2160145964432
79.318236398496
79.4829588902474
95.6907580929256
118.393583629467
139.43669765549
154.33516447178
165.900564614714
180.619960636656
200.89593172624
219.702769545594
219.303626866558
183.259111694432
115.441471960187
43.3262141237083
1.50489648243513
5.41477806102908
32.9821983333088
36.1096113098128
-16.7798856080375
-99.7178333624044
-146.940537841944
-129.156673679253
-92.1353049201484
-105.372930876555
-187.072276085809
-287.767549300737
-342.792766391218
-329.263997949907
-270.561993630377
-204.370362636885
-156.324443289813
-137.480183437812
-150.315433927242
-180.530040751867
-198.857974208028
-189.617385507043
-161.944922703489
-133.963316184516
-121.6380727807
-128.469408870892
-140.570031546819
-147.078983899765
-154.084525753355
-162.029813103301
-147.275810348433
-85.8464421920925
16.4237014453484
133.504392616257
247.698322422718
354.141652371674
448.900212433953
531.079192178608
609.945123657482
687.710651745527
739.166443531063
733.283206282834
673.419352818591
594.245235446452
517.09991345396
432.660202232863
339.594328466526
264.68509031726
218.956491918146
168.028887124805
67.0291983407474
-88.4315225724279
-243.160268360011
-318.738399513275
-288.065115509705
-207.849044348315
-163.832362913992
-192.229822890954
-260.495670404211
-314.452977669162
-339.595905057698
-368.003748556432
-419.397152844573
-463.413115282415
-454.576200439672
-381.13964317719
-275.135378475503
-185.528664644822
-138.132873528639
-119.386634917916
-101.260317661539
-75.0483969707806
-48.5722061836714
-18.8694197149096
27.1672475079624
86.094184054207
131.474162308396
140.399566234162
121.355544235602
105.358333591684
109.282217688847
113.835011914261
78.2790106690318
-10.7904903119024
-112.867330498283
-178.219377137607
-192.339214991883
-163.106700088179
-106.842865400809
-49.3524021791211
-9.34312225566925
15.8594993057895
42.3506298911524
85.1103393056092
145.10616669899
205.173760262192
248.852169802286
280.750807466791
312.633296844305
335.77015160439
321.670638618581
254.627849464745
157.914138278676
64.3761154976832
-32.0798726997786
-153.218467349269
-278.277703902524
-357.022572424088
-370.312262614847
-341.783379056642
-298.410325200305
-253.643198949036
-223.6729582477
-221.639338312243
-234.286101669377
-232.650882886777
-206.497276484252
-170.275482317198
-140.840478487657
-127.060940054885
-130.067576591835
-137.719797329109
-130.856539490829
-99.1700199241663
-45.2578228465378
16.0471599130469
63.0472202908606
86.2455288090423
98.0864820188961
113.810963675244
130.845784893617
139.505361213273
142.684120977549
150.181340950299
165.633840050788
189.434913414973
223.39312420639
264.977707831686
305.10992737275
337.386584963919
364.229346606431
394.470193715509
436.656902772314
488.651584208813
537.786935289445
571.55421387119
574.509431110682
524.79686707094
417.645859123345
284.112342909121
166.211993429146
79.3077317275198
12.4280568029636
-45.5235505189122
-96.3857228229629
-138.93651483877
-175.727075673471
-223.882953764328
-311.819329843845
-448.525947874195
-596.942744871175
-692.306571144153
-698.633553664042
-633.794774602548
-537.581361895972
-444.614224648486
-379.530996662162
-346.287459741017
-328.627448677664
-309.773927887462
-282.458523551414
-244.631138133567
-197.737315714732
-149.813937247943
-112.150940768955
-87.9385235409489
-69.5165128231926
-51.7610002530295
-39.6736459146634
-34.9052693027279
-27.8928036246373
-9.60769869408123
23.2805304103908
72.256867799985
138.971487186399
227.290503517641
332.562572970308
430.503788962804
495.262983408155
521.455057176654
518.704212912744
496.030689787098
457.683603851819
408.035522625978
355.712397969184
311.784991745444
281.885409035579
258.985330108444
225.814017406988
166.701503598501
79.0086587167364
-29.6863317519333
-157.781760104006
-309.429812401985
-466.372279640058
-574.602506415505
-578.842983238518
-472.111316588532
-304.307509007234
-141.848399231693
-23.5032732219642
49.2456572494698
89.5310829710583
102.8730634543
90.4779574583922
59.8721451138281
22.0579170146129
-12.8516816641804
-33.8306640944835
-31.208130590685
-6.07296730562872
26.1637496897321
47.743401020488
50.2300519325164
30.4667738054467
-13.9682029028486
-79.5464492895129
-153.99391598832
-219.794029819881
-259.386959898043
-261.521937106238
-227.129627054937
-168.926957916996
-104.247424424113
-48.5837796633507
-9.1752541820536
19.0064576774745
43.8775486243298
65.4915622814163
80.2577754065346
90.0468770935039
102.731884889215
125.354561431053
161.136780501206
208.72277507897
253.892488446426
270.908348637664
243.205999549591
177.198811102678
97.2719220688832
33.5749916605536
5.55605904667098
7.15674026679504
14.4192946587479
12.5469709809252
4.23097569496274
-8.43942837510597
-31.3364875961281
-65.7734522766496
-102.931611085556
-134.944490428518
-162.994425650036
-188.570851658765
-207.288284751912
-213.601863452561
-197.118268578078
-143.226995373554
-53.0395764174081
49.582904694834
134.878922385806
181.984542790454
187.614151297451
172.28323210691
172.581250968955
214.199794337854
284.598902237535
341.315117534
355.372672747094
332.846068852749
293.715355971521
255.531645460055
231.450088023241
213.693610009095
169.154420898598
72.760721387288
-65.7208378643995
-212.158512514282
-327.797079855968
-380.137119403546
-359.348791749404
-292.01818549495
-225.79764089842
-195.53477424263
-202.04578657945
-217.949658938626
-217.556293187501
-202.266124285467
-191.264356970857
-192.23361715732
-189.358062104191
-162.218533811969
-111.037975242337
-54.0735870675365
-7.035570719978
25.4444715989236
44.3856194571715
49.2722987205275
40.6003260030216
25.9981666502307
13.7973616602157
6.40658335727615
3.58909816368757
0.161744678293237
-18.0773602666837
-63.2424719695076
-128.675903754409
-191.596234014615
-234.159910931388
-255.934644460758
-266.941624941218
-270.60192004029
-257.081439886071
-220.039574045349
-165.993206544801
-98.5332928666542
-12.7552727774047
92.3974603124822
212.134260962284
340.829544478506
465.291271498655
559.601285693263
603.139112478087
602.277368983774
581.798796901647
557.702441093194
527.417232263394
482.203354461983
420.174182595812
349.026432568351
277.28159459689
198.097468706655
94.4995070119372
-29.8922594832477
-147.984099608883
-245.795366420974
-337.67029630777
-437.390980270315
-529.46507395
-571.873252848487
-528.153608426214
-408.065937645177
-271.485824294629
-176.37029872758
-130.200940956922
-108.354171277294
-99.9593057686537
-104.808728754248
-104.981763504395
-79.0575105320029
-32.8197447368777
16.406106005131
70.2425267028288
137.522430763602
209.465118035945
262.558713502336
274.664895144304
238.560830229233
165.276013562779
70.5758690357114
-33.6354550325154
-130.996661605547
-199.607636363871
-224.66232151815
-205.049090556493
-150.436802969532
-76.2111768544348
3.48537324673767
75.508371306897
119.85223503093
117.309611101738
68.9971683665944
0.154485624122918
-55.6058956247388
-78.8442467229629
-71.9944034909799
-44.6548734878145
-3.46356344073953
41.9233834991814
74.3030870001209
76.0770217169
42.78176488449
-12.9444967239519
-70.4922026792794
-111.222475188588
-132.416944923599
-157.51299432359
-209.365787323731
-272.642580279076
-312.647054981458
-320.147719034303
-308.114244569798
-284.375644165575
-245.498861455387
-180.461997005014
-83.1848065670413
28.4610664043173
121.413107834863
181.639337891268
228.161484366263
288.223864808375
366.95376636322
450.992979809417
532.601258891504
612.154337363098
682.932247555088
732.261315634075
750.887066136089
727.819835473273
652.743497935205
537.719153861731
418.975514335636
324.150188140907
242.990769093398
132.174749177143
-51.0243179888098
-310.952075242294
-592.983859902401
-803.076314546101
-872.258841328919
-804.343678077171
-654.995034950022
-485.507133683322
-341.017047128209
-243.98892080014
-189.987942656143
-152.953475436129
-106.989948584681
-49.4559861319289
1.31296535422702
28.389486589947
33.2998153569319
35.0777550099487
55.548927456265
106.456995197992
180.771471616176
253.354212475152
303.676448638162
327.358140775363
315.621620454715
254.928383063539
159.937050709628
74.0254588898308
20.5049525123215
-26.3324817030973
-109.139749143237
-234.013990648325
-354.465811075829
-415.118184836322
-402.463371070352
-336.05839702964
-239.074442021873
-142.146569448504
-81.053104366534
-70.6292163825725
-98.0947551929987
-140.673092283357
-179.684380551536
-201.700974243819
-196.91858855817
-164.356387521049
-112.020362313684
-48.1557438205514
18.5275029821235
74.1301274229041
108.871222607918
131.332164847627
164.189238792548
221.181539530696
292.494296453857
353.828215907202
380.933642595074
358.11383793301
290.992612134304
210.026166590904
142.439256313381
87.4829988476229
34.3935410199219
-13.5357936804524
-47.058956864763
-65.0260358301428
-72.5669193196127
-77.9959264242544
-89.1565815718579
-102.929379199721
-104.190850664418
-82.9097018972195
-49.4329186624176
-23.3626851701187
-7.66627142362155
11.1011190100588
37.5384483341844
61.8833450891324
77.7081612124683
83.7930485528078
75.2864367325577
52.8129002906166
27.4404193161111
7.89053846774296
-5.92961405085351
-24.3069475579628
-66.554231562041
-144.503873366536
-241.808922832951
-319.499634884229
-357.336077189022
-379.883783251894
-421.508257416422
-479.741899920859
-518.796137057502
-504.866340708139
-433.013486990166
-332.776223616827
-245.792267164391
-186.369197886866
-131.448762359709
-61.2246885550895
7.11603691174072
44.9978861443589
53.2194661597472
55.7483476992986
70.6742251515893
107.363038480571
172.138237930233
256.676943361248
334.865508410929
384.029351156308
404.092588639254
409.989482385138
410.153574153726
400.780171211394
376.082103462483
338.637831974302
301.014769846338
272.369414647903
248.75730807504
219.2320736552
167.370513825302
84.9442968631906
9.09117493330187
12.7412844271045
128.281629786824
308.402949296512
477.031652169758
590.481374142978
641.135209089983
634.573200592883
585.767386197842
519.526720751949
452.110479909171
379.74386183087
296.135437274501
205.078497999636
107.733508692162
2.35916010614151
-101.295746121604
-191.172242344732
-269.46215338077
-346.578295895798
-427.344382612236
-504.515290668124
-564.859509833645
-606.643708093982
-642.634719772312
-681.562101054399
-714.551329298325
-715.920735353292
-659.741306510086
-544.811092205735
-393.109955413245
-229.566262364404
-81.8196563707667
24.7716879430173
92.9154378021602
147.537962407069
202.024154019605
253.530834804668
294.069741670107
308.132296820515
277.218317673984
198.841152172794
98.8273186855353
17.0703652359244
-28.4706462359469
-56.4812683004573
-94.6637845734106
-150.129349050553
-208.739222863186
-250.472311438503
-260.420815049459
-230.022924197665
-158.834016032555
-62.9754016306444
22.8769799881617
65.1306457564209
57.888782048262
28.6666342761899
19.3641550212752
53.9694644515572
119.025739813113
180.680550242648
214.76552484154
214.600223233836
182.639242853606
124.811686777202
50.05948717403
-30.376175719372
-108.367895992726
-180.713101080156
-238.996810904938
-267.982492821657
-262.616891544712
-229.783921541887
-171.446944319072
-90.0395928160628
-4.72957302873948
59.2095362868055
89.6203374103355
89.9136427682351
67.5279676090347
21.6838712758609
-49.403832964964
-132.7636084596
-205.973762710946
-255.136617471909
-278.807897799279
-278.592628438571
-255.720146591392
-215.03666636877
-166.415297765208
-122.008030669103
-89.0159605596809
-67.9657701503601
-59.9570189702872
-64.950140596846
-81.401863163673
-114.788826131041
-162.726076191096
-193.26898471933
-160.777871990602
-44.4095052778853
125.146233266409
281.262749870942
377.019637022112
414.371738824457
420.044581487025
415.361344456269
405.849182577195
384.092738644424
342.232998944887
281.757574734414
208.599026348243
130.425070557352
66.8363613200071
42.8998686256442
59.5613181773348
89.8404940630223
113.740772470523
137.648268562273
174.493340400315
220.263296343582
257.723070513301
281.88260351993
311.200615391786
364.56076424877
435.396732683929
493.545591636989
508.071871402637
473.065565470539
411.793454447309
350.480843508573
301.086403290433
271.222848097859
266.725694937257
283.00257779329
304.529648750727
308.881294468058
273.169721924591
181.082169869121
31.3779840327498
-153.989770783379
-344.465427194836
-522.035585572661
-672.171373175117
-777.181407533752
-837.243710067171
-872.532792637057
-895.303952606671
-897.821508740337
-870.078733101988
-820.465617472413
-771.857114377041
-734.072784130778
-687.786097273737
-600.109193858872
-454.760480656778
-271.503844522586
-95.1342262168694
39.2333063804697
128.194102399457
186.522318473184
219.314426981903
221.062415472945
201.159411183861
189.016491276586
202.332287448723
226.015197077382
235.904867808476
232.827392072574
244.625812796135
294.299398691507
364.158419991045
401.856670850645
369.092799493563
274.93752224705
163.316015887963
79.8615570299181
49.6201038963146
69.3036989397292
108.698902292843
131.736603028826
126.400081834258
106.256039339302
83.1742771291155
50.4232308260076
-1.535263974787
-58.6466401674412
-88.1323939847145
-73.5046520473728
-32.1184516736666
0.378375031653506
-2.13660774055028
-31.9170313734752
-54.2386674483963
-43.1093773429494
10.5990787687434
109.183643254234
227.662616946493
310.965390093981
323.676614282481
280.958989038673
220.837425012423
160.735729865099
83.6139343022157
-31.6177754507578
-161.924334607149
-240.466409797416
-224.487102125007
-146.727238820276
-82.8252740216133
-81.9445749221173
-133.971838965258
-190.803214025174
-213.478444179554
-197.795896100371
-165.058051534382
-140.008185713877
-129.405443193933
-116.603775703943
-82.5252085822204
-31.3149492924521
7.99790710717354
6.97668986613265
-37.7935841771533
-113.189221278464
-214.967650104762
-343.499123649973
-477.081446240969
-570.446581016229
-577.765837771943
-478.885253452577
-303.022542671448
-114.505731346459
36.9418698126778
133.903595369481
180.097255724305
201.983789369661
235.055453830833
285.610702459895
325.760402666254
331.130095278963
302.362660842096
255.628114622457
213.885827054168
199.920166802253
221.74210537591
263.318299732668
298.343178313474
316.281353129706
321.982262900499
315.835600698732
294.841926465571
261.430941302775
217.727324427185
167.283877552059
124.521523716467
102.798087079447
96.5547772648336
91.5841259778219
83.3910396946394
73.4158372053867
61.13310940387
47.6540695564631
34.1680657598
12.7441958936861
-31.2400371241408
-102.769705729086
-194.775227521562
-305.204605806591
-431.603126639487
-545.835144592652
-605.815698703306
-593.521208237802
-518.076480299424
-388.8849135408
-211.701810909964
-12.4691640056393
156.915945045986
250.632998352676
265.097434025412
235.83850342315
198.80054524776
170.614687528346
164.288968742181
191.550965887198
242.855227042779
290.007919329337
313.89854731867
313.646704134003
288.892916803258
233.764467447232
151.256157868427
55.0592295336804
-43.3807205907084
-136.273509061238
-211.414180142313
-255.476125240529
-269.715670503846
-273.850554379763
-286.78638796726
-307.892669203995
-319.126962934573
-304.33211663362
-265.330706070118
-217.910397461981
-176.116290930502
-137.977001414078
-85.4215788055996
-7.17918403318707
85.3522356654691
172.499566816865
240.549022354444
281.933763682546
295.493829299389
283.722536200968
253.874667256819
222.956621942977
204.687868049841
196.734106366471
195.179287072938
204.453633447465
220.532438999045
226.41656363094
214.322364134357
191.683729053863
159.033953424408
99.7701298368445
0.274479311627944
-126.98976850645
-245.875269834489
-319.880033895135
-334.928828903257
-305.424027765811
-256.700993002762
-206.350211671909
-170.296047310766
-167.678036247006
-203.34729632399
-260.556362533804
-314.534952331751
-340.718049546829
-319.164497743682
-249.166095815306
-156.859506374394
-76.6292182978889
-25.5616633045077
-1.1069567013964
1.75171362699305
-19.4034964959912
-64.7276162335779
-121.421716744441
-171.429113181215
-203.809224905428
-216.580788469879
-214.031998908074
-199.234911344186
-167.285267610109
-117.713913879003
-68.3957344479306
-40.9004166696654
-41.5641651658382
-67.2757072310965
-114.691231551075
-173.637124337518
-217.58988152798
-213.427583216654
-153.710405521105
-67.0137609788729
23.329252486232
131.419137945699
274.320221478243
425.16239187192
532.691974810592
575.462511170161
570.760047542733
542.659354578877
503.764831172042
460.207469105647
413.471785101557
359.13523320679
296.093316388388
232.099718667957
176.576293979308
134.865306219468
111.532677048944
111.643221711237
133.865272679152
168.897765863052
202.822635204078
218.164445913641
202.037223514439
157.267625069829
99.8769473759305
43.0528316059238
-10.5563287920515
-53.8021290773163
-64.3768299507557
-26.2696132657952
45.4722498629854
115.532514369396
157.973700347457
169.634713627309
163.75580638899
150.457620996483
119.794352669019
57.8354119897559
-23.4667670282443
-97.2463163447876
-155.494907030045
-207.922156947314
-255.721517170618
-286.108840890553
-291.690057289477
-282.344578158713
-272.483557420962
-266.458600870402
-263.949839002548
-269.683477559095
-289.031788248171
-316.725093361203
-333.03499998532
-316.686744205223
-269.657929013769
-220.228946385416
-189.608502553276
-172.253603575572
-152.855234341649
-119.055149937256
-65.1643282331286
1.53379973768398
66.9738876286455
120.217989522641
156.945159744108
179.300235920913
186.870603428489
174.451962723529
144.938908514593
110.999758953171
82.2803202637859
63.6773667886948
60.8772788408853
72.2087646183083
81.0848820523638
68.1280571646269
25.9914815687034
-38.6574614079113
-111.27767722494
-178.771246905927
-236.064102571031
-285.316328035074
-325.97119876826
-345.515686013875
-332.737781480492
-295.35368513537
-249.006741232197
-203.606119787468
-169.118356648897
-154.682146940977
-157.291787533283
-159.891495909458
-140.859362485211
-87.1072975810655
0.174270278626056
109.71954483759
222.464539325945
314.254239392331
369.224706647078
387.490609702761
378.680754632667
364.160355190958
372.682888611502
406.674156038972
433.636832724182
425.018928954557
379.534871888182
314.361553045875
255.61544766122
230.557907243173
250.810112563176
295.902255049583
324.529859793969
308.36765977314
249.316562496142
172.375162375381
107.927792678154
70.4674358613886
51.11178440706
31.6839690340831
-1.8647007341853
-58.115014619885
-136.46190960347
-224.516105001607
-309.536876943527
-384.493954154422
-436.87341517175
-447.519721415367
-407.874152865753
-330.101330669869
-242.115050448099
-173.583768631356
-133.903238513715
-106.824450604435
-79.1728665049508
-59.1030492056913
-52.9466129003626
-47.69240835792
-32.4017008559675
-17.5778116610413
-18.5549889779189
-32.8801198078077
-48.5152290935438
-64.1646113354035
-84.8169963839471
-107.295858243478
-125.143240716204
-140.223005381794
-163.739528238319
-207.592218904856
-272.687648485692
-346.680720504704
-411.904384306916
-453.140172150437
-464.503466545691
-451.507422408449
-417.939724487605
-354.469115464283
-258.494760307453
-156.379417370462
-78.7548742149446
-24.3832030136757
32.4608766194242
113.052085591733
217.688965112303
329.579018676918
439.050566625641
549.8043839107
650.653035949149
715.806019271626
742.442638564638
750.261999450913
744.543050892733
710.081084492655
639.309992043235
546.846942896967
452.113386451953
360.524790746224
272.95236910795
198.845399535356
143.239738467564
96.809050777153
49.0038558334396
-3.50046644600824
-61.4804816270493
-131.298873452302
-231.0202109425
-373.744014526707
-536.351905584801
-665.525874939772
-724.835286589778
-722.088891193471
-685.468961531497
-624.307869193899
-524.979359134377
-386.621516763938
-244.479256411433
-139.069826408804
-71.0338989678549
-6.55903876287318
74.0071047551377
149.196311391153
186.760859722086
185.065717000955
167.974829124992
155.915001176652
156.717952143688
171.825920822567
199.830381130337
233.824746674979
265.973763300951
300.351674246649
344.263950561672
384.750823835417
394.479714629261
358.998642207101
282.970909701394
180.680953433965
81.0410464043526
23.9597809248387
19.4025759812995
28.2560487218307
9.28029082244418
-35.7331298976172
-70.7165579081455
-61.7148823617421
-7.74123676070555
62.0445248356156
118.127176338139
142.857630364641
126.87721931655
75.8581633807142
14.3198001311509
-29.8082929251389
-48.0232614980422
-57.0639851594996
-80.2941803362609
-124.137710401809
-168.964707323771
-184.331812828964
-163.441901588204
-137.210037913029
-143.089586218744
-191.940377368542
-270.303488649718
-352.08050640409
-406.164352067964
-417.674930433322
-399.228272411785
-369.77908275952
-336.710912156385
-299.753270781793
-259.092261129639
-220.770933273972
-192.206538748482
-169.961621356492
-141.511507901869
-99.3212253721528
-45.0261051026511
15.2790963119103
75.0353405010074
134.523242995246
200.233793291981
267.914023179651
318.904553503221
339.001736974758
329.363054217295
301.05917782141
266.185694801272
232.802089684087
205.171515278181
182.5463342672
155.941881315572
112.831856884897
52.931306299486
3.21737865935522
5.71211912107122
74.3971472813832
171.280071694922
240.235444791917
255.843661862474
228.495489363613
181.602356480397
137.615521175946
110.597144080582
104.026409744662
112.754118921154
118.520349844334
94.7117260164563
27.7367442390549
-74.0379840780956
-189.845657668674
-296.326253667905
-377.650925169399
-432.220180987802
-464.939369068947
-479.992823733823
-483.62126562971
-478.012874981595
-453.827299823384
-404.675981171872
-343.477069574132
-296.035396280499
-279.351923129524
-282.166737989969
-275.084192344384
-246.087736384812
-205.005251545151
-155.653553684266
-93.7420655411859
-25.3438377134181
34.6362209392298
76.4921853802736
102.552860656478
126.07854410862
158.159949416116
192.008949896752
209.452263313163
196.978081752842
150.740746750045
84.7839395065098
33.7178082943101
27.3089726614018
64.5761150626592
125.738769482526
205.581858991899
315.024352140692
444.524910670623
555.478014139277
626.631566671084
677.149150342439
724.241075947227
756.024467221807
758.998581344057
735.683603071631
693.072295932933
638.421205518111
583.93528468971
540.958260194178
503.717560828462
449.251905845728
366.318361443776
270.298740325339
178.660885250703
91.8904173293636
1.8132269835962
-102.079671966027
-232.222104122156
-392.817277722664
-567.180311503927
-719.25510802132
-812.910905895036
-836.35079181094
-810.500737829975
-769.345217709539
-732.419327877762
-699.026010592207
-662.695828653229
-626.274272282595
-600.741713907747
-590.770917289052
-588.37681449907
-577.870412309
-543.275800240779
-478.563855350049
-392.755088468551
-303.458159791338
-229.744695671234
-184.052464552753
-161.74584004615
-146.721486745465
-129.128925925006
-107.842390280026
-75.0482729417191
-9.29967328511706
103.507863506583
246.393069021802
384.056423854261
493.853195496765
568.136486393343
599.098057136784
586.28014640115
549.673019008361
517.465533533881
509.320611536896
528.574320504665
557.393889105137
571.96681682388
566.041147355836
544.712368181736
502.819910698345
427.290100253292
320.020204040609
207.571928463361
122.703552416758
76.1487174250044
47.5791784029913
5.15174249405374
-66.3155756579952
-151.634676813796
-218.969858589339
-251.79005970638
-256.088993537446
-239.795285853501
-211.86896667043
-194.009889730386
-209.883028497731
-267.118914165972
-350.845437348689
-428.991090873511
-475.060514829218
-486.210013641984
-466.6885147372
-411.853203200058
-328.394967641753
-246.258456830823
-188.43965602255
-144.013654266843
-88.0540273922606
-20.6079616689102
31.8098891188348
52.1464917024272
49.4913233204426
38.9566702158963
30.017009041126
35.8213791960494
68.1663654598565
121.525963601099
177.293886654525
219.251973480953
237.025330812307
225.242221816784
194.043438611184
173.957897228911
188.775661963459
223.044953330138
235.08998057963
202.618345497015
142.276991110797
87.4879901761093
54.0705138236402
27.6496211372365
-9.44114272666274
-49.8912162834216
-78.3770437283551
-99.1917312781705
-125.723238593457
-154.259438514406
-164.505287820984
-145.432090037964
-111.102980251752
-84.0096192328416
-63.4954834522661
-19.6913447709489
68.0179991860995
176.475337794548
267.092515839608
329.872258937535
371.251428861485
383.785670059829
355.007984572029
290.810601743139
211.366950217572
134.209051312696
72.6806593172861
34.5906812212985
14.3673885171454
0.247675350649083
-13.1906010256388
-27.6112239497445
-45.4123532920616
-66.5480747965573
-91.805640352174
-127.876517453074
-178.610048589111
-240.394382044969
-315.180990648498
-411.789391633647
-520.365166840818
-598.117435921477
-600.867187399907
-528.695039713423
-425.636408976043
-337.412092059806
-281.651904554112
-249.44387525918
-224.82272327986
-203.642795704916
-183.542340925367
-139.497269285147
-44.007606574672
85.2326128156456
192.635413831222
239.739785701969
230.500843520714
190.671745976052
144.956216446426
114.299696926241
112.864535978442
143.41848630151
211.519993324372
326.457323572852
469.251809181393
594.131166300045
674.014211748959
712.647846495769
719.077091831644
692.981043258871
627.088381089532
521.332974401903
396.626491334194
284.196507636971
202.55969340516
151.126890531807
116.95763457858
85.1784168850399
52.3965970906605
27.0413225498961
13.7428587041895
7.66154121458862
-2.43635798206204
-38.0064194103508
-120.069146190302
-245.194026755877
-389.484547117463
-530.121148770355
-648.873191586587
-730.771051570754
-770.362826958027
-773.008661690891
-747.397859646341
-699.070684160362
-635.362042745613
-569.021482710527
-506.590445222815
-442.363335790353
-371.13275774121
-298.843127777827
-239.47251272023
-206.490102231324
-202.434762188708
-211.416952388074
-209.127233166498
-186.271874032033
-156.000766320784
-137.411557865222
-137.891931004348
-147.456556087745
-145.313910294567
-114.731456376181
-49.7558861902094
52.9415851721912
196.721907512271
367.75660030063
522.870113383922
614.447605247561
628.681396028831
588.726601620243
528.521580573152
477.634148546587
459.23183571859
476.495314226404
503.224051012726
503.009058531068
459.078130204969
395.708649252826
370.534632872693
421.898435743817
525.081528709616
620.244187843682
672.367820767063
680.957475069154
647.683664159505
564.88284435233
426.126604651229
234.535640749161
17.2550124182412
-172.353026067503
-294.252067249003
-355.755538923986
-386.430254077439
-394.859869134217
-370.051645112702
-315.404722567852
-259.887294090858
-234.736875090342
-249.509687565241
-288.368953306306
-328.196566241535
-361.688937376818
-394.071087907237
-423.008453759931
-440.002828125872
-446.459248229718
-451.687070749217
-455.457963103763
-445.325503907415
-413.121830342089
-365.525115449809
-319.76767844238
-292.673907699785
-287.566626435005
-280.694523342784
-225.210353366118
-93.1589823355062
87.8805048340137
257.053769086114
368.527886691117
414.864750327058
418.327972987038
403.403511427715
378.86803215494
346.896691667776
318.930189513748
311.149338051543
326.573954287953
351.376134565721
368.050836532633
368.227784105644
357.342752064856
349.854521103215
356.866277604804
374.550062338622
385.79765197645
371.83297407634
317.271292131803
218.868777026572
98.4825362034444
-14.7769178484762
-115.138381926227
-210.547869881615
-292.911962220034
-339.395453370622
-339.077222498463
-306.242968212753
-269.163597622688
-254.614268214191
-277.691845093938
-331.523528444399
-388.282340368842
-423.232562463263
-438.197481501516
-451.637053688157
-469.260897090679
-476.80314398154
-458.815809137774
-418.730563964016
-380.16260073925
-361.705879715696
-353.308919760366
-331.075967914719
-289.887506181776
-244.857120850205
-206.914160320291
-174.280810815546
-144.275639809225
-122.930585854558
-121.381341200363
-137.256423344206
-143.933698436994
-114.897654581587
-48.9656026586552
43.8620393856961
159.486968396839
285.960484186754
391.740181889713
444.678207370768
440.704775112922
406.787433400058
371.461589476875
336.138454623675
282.296149428585
202.947529930148
116.916585830162
50.7951497444067
15.8110671309443
9.89628027982196
35.2532384939386
99.3500450356118
198.782608568888
316.595005812301
436.262658243537
542.999408227306
608.84496176788
597.6945247047
506.187209926057
381.90087078813
277.622673035881
210.581608126793
175.465381937194
164.326343792037
169.023193695285
183.633837649532
203.488479538201
219.164107728996
219.682502816369
204.654253541398
186.349225915829
170.66461228053
138.706067850992
59.0719322606328
-81.8194924936293
-270.385851130292
-474.747303035506
-650.267861478281
-758.366021847653
-791.25816079734
-767.078989825251
-712.147214069761
-645.059456997162
-553.00262046379
-405.441958322979
-214.836907355949
-42.611872465319
68.8236973855632
128.255646841635
169.202759054819
219.288007195985
275.683878296748
303.386609636672
272.857813372991
197.473304761521
128.131809651508
108.265340974174
136.535362333111
182.775757209353
225.941780322444
256.721745456377
264.554108441581
245.615681280327
210.782054912686
173.444502707947
134.682971672117
80.3634815400835
-8.80408663394472
-135.811369411422
-277.624092819391
-404.522260839884
-494.472640445614
-527.872019671474
-500.274060065092
-437.74986049341
-376.784576192229
-339.654250910183
-329.275160497953
-329.874127475149
-315.01409838408
-264.734623461974
-174.825182273352
-52.8011644525461
81.9720655647514
197.612047774893
267.160751021937
288.872184965577
282.840273278987
270.879886226155
265.874726759366
270.496474629532
273.706273235756
261.483715499652
237.550927060242
215.982100637384
198.110983430907
175.281518094024
143.940348875182
105.673139665933
61.6652438190659
15.4122901999873
-21.3368152791969
-34.4647281644448
-20.8585105708476
12.9547005295475
57.9791434076764
100.398912071335
130.214679411311
154.737851894868
181.030385149527
193.854151569659
175.451503848546
132.591454908867
84.5887890629765
38.5924139028755
-12.8046160370712
-73.9993752501062
-125.0054212391
-124.615100423394
-48.1561056312244
76.5194198235387
180.414468754889
210.70851589247
168.164765804664
82.1918083727263
-33.7813788542892
-184.517659057903
-344.530920214859
-438.181549022118
-411.051069880197
-298.892415015966
-188.798777632519
-136.19416449029
-142.134014882883
-182.598142139581
-230.727250642124
-265.254981119614
-279.957801855011
-280.803716608026
-274.08557354762
-262.389484608746
-242.267508990064
-205.907182278075
-157.277009639795
-121.765445780293
-123.546290646981
-157.576018468164
-193.610422025176
-201.606587611711
-175.299849150492
-137.703175143234
-124.092734621578
-158.608197967777
-233.249561542929
-303.210155018542
-321.847006583156
-280.823336423411
-196.89412837146
-81.2354930577277
51.633375915393
173.846991847309
260.294929596101
299.881098934234
301.262547804371
292.089022485697
296.155574726539
316.059720726209
343.756727219573
375.720881112975
419.007174946757
487.128398955795
583.942569004489
700.527656903589
829.790741326818
963.527815828525
1078.52418678794
1144.96830106776
1147.79177952373
1092.14991345951
985.729687807474
829.434369768002
637.402554789313
439.179502316364
243.837970403059
29.747931841344
-213.053621315618
-448.76878377467
-619.097237385102
-692.205365506315
-682.241869647455
-629.441098011105
-568.581253097631
-520.178484343617
-500.79551874392
-522.279084764253
-585.308151057493
-677.473919683815
-774.051728970948
-854.098666439937
-909.647687447764
-926.090847867747
-882.512296874169
-784.897123664235
-669.431383242907
-565.026498215121
-469.508703833403
-368.647522607137
-268.274010740586
-187.937775057119
-120.60732884661
-27.2209962089708
110.196953788498
255.613816912894
358.165489699413
400.668513775294
403.338285096897
397.378139505137
394.97139654053
385.971846012108
362.345147346646
332.075588124952
310.227052394488
304.599552327264
310.556339473197
320.51795519606
336.149099052304
364.676579102777
402.732067427288
431.510659338729
431.392493527672
400.266028978056
357.807409554658
326.19374543722
306.848052023221
280.469697938774
220.389532939626
111.7260473121
-28.8280980862977
-169.513778223264
-299.908933402058
-421.168271345593
-510.685357146358
-533.246082007218
-486.515473799675
-408.652314881763
-337.345402835814
-282.616114271598
-241.368157626148
-216.608916724283
-214.248275332967
-231.182112198876
-256.662205492405
-283.488368700302
-309.499280529387
-329.760993267658
-335.387799376568
-321.842493069027
-293.38010402536
-256.592327552552
-211.397648341938
-147.422871741012
-52.9574905929292
66.4809490951086
182.006962147718
257.529799213919
275.222017700456
246.453838411609
197.773903976301
154.827115073365
140.958787811416
177.503651278455
273.36775732389
410.846375280272
547.07084152877
640.236477820067
678.140510480685
676.376986541827
651.663334991916
604.703256062757
528.691327749297
426.270155309065
310.010223129687
191.088333121938
75.0611018138443
-34.2127988716828
-131.94137518545
-217.539878611704
-298.227605724523
-379.593000642439
-458.987437905281
-534.091963173299
-600.410037407241
-633.576844243399
-603.966097203333
-514.023556237779
-388.260846524576
-237.62467658274
-68.8992757919306
92.9061568634426
217.312551043341
286.951700267411
302.130077931218
279.912679052368
243.445218372704
206.392730904707
172.210006454373
146.514377437162
137.602335262444
144.400531608165
156.058572488706
164.925368245384
173.242403516179
184.696975774058
194.060807727187
189.557144005056
160.982061598866
104.140235623318
17.9766170738744
-102.170327081962
-250.256715503791
-384.978960607846
-449.045514202452
-420.504920036071
-328.451459778993
-222.300759043905
-137.851137768171
-84.5885518836247
-51.7420109555895
-26.2992584945061
-7.84480029142736
-4.18862098639201
-14.8576834689797
-24.3418276207378
-11.4094470602178
36.1356958324141
109.167435922317
176.742150148823
207.066799155929
191.241807887107
139.551096592513
64.621930922048
-20.1126589943892
-99.8094915716563
-166.219956611671
-220.436393012683
-265.435631564387
-296.811906400355
-307.451514353375
-303.82469827032
-306.442277723882
-328.057733205336
-358.947991824048
-377.741152616852
-367.693824378203
-321.211336543276
-239.194746921499
-130.178050407882
-14.3346437850995
79.7480403870756
143.721188595661
199.624708295486
261.475674304088
314.403470071136
341.721273371368
345.893030286034
339.885340672754
330.713986977412
316.342676941293
297.521545564329
282.589104318649
275.199570563236
263.985537635232
230.319147630347
163.098552307938
65.9050573409365
-39.9009273743497
-125.030762340277
-181.141417447316
-229.314220583473
-285.772662068971
-327.253777543204
-303.622731033557
-195.303472505826
-47.5832795230499
73.9784099926358
145.580814619644
182.593944826347
200.229268637255
199.431080794276
179.91361436538
151.220184738582
128.124167322482
118.907394971934
125.67261084455
148.697934873664
176.98209636708
191.71730694389
187.564038210762
171.409626296099
148.512949391849
124.32598919127
103.533130975862
80.2871810573639
42.1686621130129
-15.9482163329233
-85.4400198510571
-144.135141090564
-171.662462870032
-173.099155202205
-171.747066891135
-180.999950287197
-195.834096622072
-205.422806732451
-212.420587297011
-235.332530357403
-284.21139539912
-346.807639985007
-402.439934686274
-433.622938940747
-430.353208160302
-402.476454962312
-380.782316138558
-387.908123428706
-408.419578904265
-397.852319540003
-325.730184404043
-204.947202142011
-68.3378598723146
76.8985022802154
245.0552893405
429.320106396098
594.916510778528
710.449499229726
770.558660095413
788.790049520838
774.985932184417
736.018914341712
690.459214664945
651.15706650929
606.993737941817
545.85026734483
473.995478814409
402.379571872471
332.333929835002
257.456215190132
172.46276886294
80.8229259965933
-7.38207967894812
-86.5981797219405
-159.483523906312
-227.319763081826
-282.144082328252
-316.969592835489
-349.029105515222
-416.187868599372
-535.881568920644
-687.673624633271
-837.13459696365
-948.390023052369
-984.344403000215
-927.361928681811
-801.318387185309
-657.282238494196
-531.365026437716
-424.99814735212
-327.242839633311
-237.708791154306
-159.767335466124
-89.780403907658
-25.2677131730158
31.055908986431
82.6348167259243
140.863571397134
219.840160908521
330.681122657177
457.861836054479
556.819142310762
605.1452060114
628.813850595894
659.929358187979
699.363933123183
726.836785427579
725.602988281545
695.562518393731
651.006760427812
606.731772579061
567.170019094625
526.81020271535
474.426508600321
398.21271531843
294.420630607995
174.371951437155
59.7128308516244
-33.8614765728957
-106.421174248906
-169.244195907274
-241.506567041395
-345.366527268531
-480.664114177371
-611.684808026289
-701.875644173399
-744.226549063224
-747.517305207552
-723.861519043399
-691.424679881411
-661.855223492656
-627.095331836327
-571.681822639859
-495.186200045266
-416.110795499513
-350.315725074463
-294.99248628134
-242.737116488572
-195.632215362207
-155.525172414511
-111.744725232257
-46.7879660011421
42.1399069932865
134.905485089629
211.721922991254
270.417078929308
314.936349523736
349.932452731434
387.031186109801
431.294653047456
466.665150517404
473.990021941431
452.400852244235
411.883262041003
358.287458225319
292.318209875234
219.640938208398
159.466388384023
129.70900791575
125.992823092695
131.826515720219
133.93553885155
122.039045237835
94.4936336640085
58.4857857667871
20.5381220802247
-13.3985255205003
-39.8635762943675
-66.2225094233076
-105.847926022676
-164.32677147876
-234.575639393017
-297.141028046476
-323.755280800892
-295.764704323342
-224.061385217589
-145.083586440212
-94.1150799378871
-81.6383290464395
-98.584754674471
-134.709247675044
-174.351669658969
-190.967007659233
-174.521663772505
-149.188852473476
-143.563879902996
-158.348240094164
-170.062913167594
-155.379760495934
-110.870560087998
-52.5777223278427
1.73973188833724
47.0722956612778
91.6701116230113
147.448345614872
214.213247654675
278.881888001719
338.90943032799
402.635429732424
461.250623656187
496.32675696158
508.926538840097
516.196360801278
539.276483033175
592.843358587163
659.610159358422
695.708884437862
679.229321337911
628.839267898551
573.289643275374
521.947019061501
456.886569573661
349.021054117213
194.623675535301
27.7740572976503
-113.673593787382
-220.582459499382
-304.214789039027
-373.678883329146
-440.489128760367
-527.730504026208
-643.898098772274
-764.622153668498
-858.760961543108
-909.18986949622
-912.06025358459
-878.714341515911
-827.436837061008
-765.45444423897
-684.270678415175
-574.656103111035
-449.529785111766
-343.641732740922
-280.343333373763
-248.507673998392
-225.928482359126
-213.341974188804
-219.964473602636
-223.941108262803
-179.970792368842
-71.0247786219843
67.2763818822777
181.733317006241
247.983741443961
270.225957508677
254.499183095965
213.723515389108
182.666079203284
185.417651968512
201.171958861716
197.591633005081
175.664165058385
154.717011046974
139.433047801488
121.988897398569
102.946578639538
94.9596490246515
102.242550533631
111.613853870335
114.689061448475
121.989594216221
151.506944142247
214.765210873739
304.944808057017
399.237315024059
480.331145828814
541.332920389384
578.003682440217
595.614459282323
603.040769850178
590.679903362046
540.992086128261
460.720593488823
380.096641161713
324.405383558963
297.618437560801
285.477570038972
266.430629404457
229.153011832281
186.044548048912
158.489799464312
148.715006944564
137.814969986188
104.724263834905
39.2143779055492
-57.7251472629772
-180.273313837144
