-12.6628111182544
-13.457817437716
-12.9134319754483
-12.7705708500701
-13.1653666114174
-12.044546292826
-8.68841049530039
-4.21521430131239
0.25139054878477
3.88212237665472
5.20530168788224
4.22863412695242
3.8411119959637
5.32706573202084
5.69690296478999
3.69177581540861
3.24137865684787
6.03916101100674
8.84502585459002
10.373877466187
10.734457722371
8.84992708010053
7.16919180307271
8.4412715977369
9.39238802996151
7.34621772679859
5.23042937966666
4.82660832694381
3.79413672635889
0.633575210823662
-3.03490478183943
-5.09471557130626
-6.38602923999325
-9.14506899200375
-11.9159277802841
-12.0739033036716
-11.2418798884114
-11.1063740678209
-10.1475879943704
-8.59765615637067
-8.02148530344763
-7.77933761475987
-7.34113971880899
-6.34357225302478
-3.67689683986137
-0.763351372142772
-0.464312322385293
-1.71999659263476
-0.151904391335366
4.99326118816781
8.85633260199969
7.97919123603352
4.68585304857259
2.92025768383073
2.99639264155304
3.31998978744668
4.59092325580954
6.62061571444706
6.57315532709897
4.49133353531412
3.0730224385665
3.04781646543624
3.84550065088834
5.19312247129706
6.5155665517812
7.48584603947911
8.36029272767256
8.5935724567389
7.15895464456293
3.95695158193471
0.0417325915552054
-2.95364477690082
-4.74771702366396
-5.90453970949216
-5.70971456752869
-5.04477128481538
-6.38173564530222
-8.32446851545315
-8.72629612450236
-9.88863599186616
-12.4965592271602
-13.2215975169524
-12.153825943918
-11.7588596075346
-10.7965309108498
-7.69117913309749
-4.24081561511338
-2.06362008866666
0.0366640065392189
3.087562334126
5.45269526657937
5.93977136686946
5.80626764133727
5.79435536336834
5.55110922587817
6.23769086623909
8.84928014233422
11.2104830890678
11.8049393235868
12.4930205134501
13.2150844011442
11.5037345303199
8.08751818310922
4.78481186589074
1.45773049337456
-0.532918480794407
0.345978686683841
2.34877454934644
3.04973419844737
1.07777693568937
-3.14437600291086
-6.17725738849727
-6.3979036738593
-6.84028432236686
-9.06119476043669
-11.5716020399431
-14.121817582184
-16.0570361509322
-15.4813757129151
-13.9902453431281
-13.9767351755005
-13.5411027685327
-11.6252111187591
-10.2957432545936
-9.56914859521932
-7.6266773209817
-4.10148814984031
-0.358071225812247
2.14936701181104
3.56875556024383
5.10844188529804
7.46504603824379
9.75426935752315
10.0702417280229
8.10314027758922
6.27420693842986
7.27680057054347
10.1804527800699
12.1324183089205
13.805925315657
16.1523113398902
17.054868389642
16.6075090810412
16.3386404456128
14.9645697813505
12.1849128345373
10.7285300460057
11.6039143997619
12.5390740773584
11.4660757003456
8.23922974256199
3.7692859636009
-1.04290856840478
-5.42893455089774
-8.21321100688933
-9.54632264071931
-11.4979194333938
-13.7696040042219
-14.5824191620531
-15.9056637848804
-18.6325297175582
-19.347541953571
-18.0160772759161
-16.9925664129263
-14.9122593646412
-11.6276325078792
-10.4004483239582
-10.3904808120119
-7.03475305673987
-1.16333456087552
1.93151171096204
1.90350782391035
3.13542197880071
6.40666708973747
8.21584815548634
8.19655051243884
9.54558581927601
11.7436128901161
11.7748861034961
10.6335084303943
9.96993079752926
8.16926597737965
5.33022199426226
4.01168426023568
4.52053654533796
5.64501788829499
6.87499165587095
7.82915359954461
8.08483093902993
6.99638010515754
3.92725596402058
-0.306859273828843
-4.65408813108226
-9.40383250662183
-13.1491737532088
-13.4399903787495
-11.5748727376404
-9.91028897062068
-8.79889892559924
-9.03388617627699
-9.63595154788389
-7.04860720467781
-2.20401163715512
0.396607075686253
0.891219452462102
2.3210323020732
4.8921929252956
7.13381387458707
8.64646412681064
9.86117312534934
10.6524428013729
10.4036606558719
8.96119564268557
6.15628705448585
1.45175156133339
-3.67109645813731
-5.58909269966743
-4.11336026335649
-2.07746827711677
1.05016340214211
5.27404565535131
6.28029370505532
3.39527539171282
0.898725556145146
1.09581400740471
3.18786830246875
5.08933118973768
5.51064695140291
4.83767507877302
2.57972178701217
-1.1187765549036
-3.55010615562017
-4.16375248563843
-4.6653011590439
-4.2475955326328
-2.1811259275927
-0.904270507315171
-1.41548316951787
-2.37091215628962
-3.96114462174758
-4.99883277689514
-3.10337522887357
-1.12733323460096
-2.10383855987235
-3.65732738004083
-5.1091729842258
-8.64963786408859
-13.3392422413127
-16.8817511606583
-19.4238994078804
-22.0253763383503
-23.9101448291324
-22.7387075471259
-18.2690302307974
-12.6837140317516
-6.15838523272141
2.25177090697469
10.0168199886144
14.3777905790272
17.2659604391471
20.4131828573406
21.8224118153589
21.7711593234117
23.0557457994026
24.6759269273505
24.4133791965879
24.2540692404021
26.7600836542822
29.8077656445406
29.166547563826
24.5209894508378
18.4573658399912
11.3442780738867
3.11057311979234
-4.05349814306791
-9.88186101498709
-16.6789059336008
-23.1755781008956
-26.3671648246991
-28.6977134228302
-32.2860642774832
-33.1884014690871
-30.5747579493956
-28.6498297069025
-27.7043648471139
-25.1239102979003
-21.0520103843087
-16.9115697249991
-12.8418091857608
-8.98474022080816
-6.53584542331348
-4.98521984926609
-1.54776531061972
3.37235901147954
6.39407012517219
8.05691822206943
11.0743109982158
13.9968756861946
14.7732372110042
15.966874981121
19.050961272017
21.0860607977415
21.7457951244074
22.889365230578
22.8080627021222
20.5114298589365
18.7567901337935
18.3486370972422
16.9944698592746
14.0067984163121
10.6387599543878
7.03368907486448
2.33999870652269
-2.86191991921065
-6.48441077797873
-8.63623901208337
-12.2729536181204
-16.6098906414267
-17.8422297337455
-18.3547803914473
-21.8912278961981
-24.4555829062518
-22.6946854460613
-19.695833477934
-17.5568707356574
-15.8458857177802
-14.0935887805685
-11.2976062146756
-7.7145665441632
-5.32052177936967
-5.03258637624588
-5.05491690741767
-3.12126327320905
-0.0628223546059294
2.38997062902186
5.21737896858183
9.89740411573802
14.8897186564463
18.0093927790533
21.0403302658934
24.9922885991269
25.3524603641796
20.2764854339506
15.1789980070194
14.9041549316582
17.9076995296157
19.7201279023532
18.8399923810286
16.3122767418113
12.4775155458793
7.71918714258345
2.92303176545865
-1.75934603199586
-6.1365255813603
-9.73872106762512
-13.0016005714671
-16.6125651909829
-19.8927054219048
-22.426561336645
-25.7605939671236
-28.924634162296
-28.1992167674862
-24.7892358383285
-22.7679820408545
-21.5225328314855
-18.6971829423754
-14.6779384217134
-10.8900100642051
-7.37887193733775
-3.48817071147211
-0.718723053792737
0.199356272779972
2.53705087496671
7.21753731409435
11.4115546119605
15.4895135329439
21.5503878200293
27.4125809397595
30.4469222053649
32.471945914602
33.845023869633
31.3120214668093
25.745417899476
21.4583280998027
19.1254661535367
17.5004109387224
16.8774513149711
17.0697838707714
16.3961032638902
13.4252673567574
8.5166621015941
2.77885554832326
-4.0983776783186
-11.9130314920268
-18.0161904430534
-21.7315612054469
-25.8756032603055
-30.7608704464706
-34.2936837309049
-36.8976478278858
-38.4495199847187
-36.6412962607054
-32.6446076943521
-29.6531426061308
-26.821533529407
-22.2188092826825
-17.253533167434
-13.5010871045817
-10.0659533553964
-6.65382475891154
-5.16896821732724
-5.49528201691213
-3.45213835864581
2.86924118630964
8.78781317818767
10.9016315274621
13.3089194717382
19.1876392310089
25.5060013188251
29.9041868098095
32.3317886642429
32.5521700288082
31.8205281705537
31.2713482070363
30.7317381824321
30.9676810672602
32.1296148105057
32.7993618678413
30.9958171694606
24.7182786969159
15.2270597287025
6.49192243538569
-0.17275854063003
-5.62738707474758
-9.56948325110971
-13.1251243411814
-19.7207681285928
-27.7475430514414
-31.85450187713
-33.4281704783014
-36.492851642225
-39.1978556370129
-38.9217077717826
-36.2192107230648
-31.9560114205034
-26.5416750649306
-20.4967122078467
-14.064655069936
-7.50083398104237
-2.24402058553264
0.207421276460376
1.32007877286589
4.55735670959472
10.4290659188725
15.4597508418401
18.069320419278
21.1285328850687
25.6141709505215
29.9953550212241
35.3360756422315
40.4936983820214
41.0036325244999
38.1622992791296
36.5064132051532
35.8082242147652
34.8050324737302
34.8954291614026
36.2926957101873
36.6531437855369
33.6840773517204
27.0225129655542
18.4423271103837
9.36988934389623
0.130610212431854
-7.15408672012432
-11.5703477581513
-16.9265152043365
-24.4753637675927
-30.2818941330801
-33.4135664253916
-36.05459946955
-37.7638846264734
-37.190963068321
-34.6103861750803
-30.1748033761751
-23.9584293857184
-18.1713375653282
-15.1078024641466
-13.3211846189203
-10.4471771228096
-6.81985607887854
-2.97177692510165
1.63275341618294
6.38793620799335
10.1673115030416
13.8737726478684
18.8969483390201
23.4442733029397
25.7811956746882
28.2518357111241
30.5892832922262
28.181262739784
21.7031877832704
15.9923590951331
11.5152288452191
6.7264867565873
2.60874059722308
-0.60568497054985
-5.64530058901114
-14.1062842100604
-24.3304928271001
-34.8745337778449
-45.5936520749766
-55.2229367294764
-62.77089621951
-70.5287062425196
-80.6290396932269
-89.6860501682028
-93.7212865646026
-95.6894297991366
-99.5095285487397
-102.774357186639
-103.018125151235
-102.576881556051
-102.323534955107
-99.0485281921386
-91.6303716738976
-83.3663221848206
-76.953341485377
-71.8999863261905
-67.133708723158
-62.2192611328274
-56.7382376306998
-51.207048600786
-46.6020622165356
-41.1932548622893
-32.6548417545667
-23.7749847898853
-17.263083465991
-8.48039443046808
7.42802132329854
31.026213145372
63.3891915481354
101.039772823071
133.239367059825
153.654118722449
163.652394953668
166.211369901784
165.140416175022
165.75649635445
173.035880044124
186.241183142589
195.924021400332
194.579260194766
187.085968263076
180.777280723228
173.361956166191
160.639988620148
144.497474790749
127.7832635669
113.814297197
107.732665555369
109.695161930237
114.644338843353
118.910653746084
120.568121901108
117.638026969219
109.053660682282
96.1727248830182
82.0530588294932
67.3364395800259
49.1392996497832
25.5572116779406
-2.45588862920892
-33.2241344223198
-63.5451589156591
-88.7981980945617
-108.463989127606
-124.247011521479
-132.899457048412
-131.914314222511
-124.345941438337
-112.281026282712
-98.8945673377915
-91.3342774355134
-91.29412135621
-93.8336712316502
-97.6014890446144
-106.455167631367
-121.236410891013
-135.782386936152
-143.63652705122
-145.029822711387
-142.674855479573
-137.281723371495
-132.135706180173
-132.41556741397
-136.288394347757
-137.051524522456
-134.398802301047
-131.423144185601
-126.697828909702
-119.639006704319
-111.567394624183
-100.418732870392
-85.6787260430759
-71.656782272192
-60.7324473885982
-50.3364050161202
-37.5648388089656
-22.9062422909372
-7.69451501758364
8.26163022165011
23.2875619053927
34.7540089206499
44.8761554807841
57.2205307854645
70.4650427370646
82.7688321337595
94.1141509182231
101.457627479887
102.278747947883
100.37916632366
100.948762955083
105.756163581163
113.559900057201
120.474295470556
123.618274523329
123.183513245539
118.200635767728
108.158104255728
96.6227598862964
85.0361490343716
71.1119840427493
56.3578795192198
44.0785179779924
32.2164875047177
17.7112677833272
0.795780277035589
-18.7682858136767
-38.120259309146
-49.4938161280444
-51.9820753972231
-51.6980484002892
-49.2505060830197
-42.07215464383
-33.0126700888351
-26.4865690160243
-23.2578708526583
-23.0837500290018
-26.1749381914043
-30.7911298096952
-33.3960073042891
-31.4707863921695
-25.7156058522696
-18.0832578309689
-7.54138121478609
6.89925783919462
22.3755124652188
36.2611265011571
46.8006982335472
52.0534027214933
53.6845990671702
54.4863675279049
53.8041931495934
51.0874169600971
48.2910903672142
46.8583153765406
44.9542088085171
38.5844927132969
26.9660203834109
13.1730372582445
-1.54185263910975
-17.2204679373444
-31.5927524611938
-44.6540618498396
-59.8654048011497
-75.2570082771411
-85.0003534932843
-89.9453150640205
-93.1406099747862
-92.1731961172833
-85.7750064531905
-76.8600864543245
-66.8638831363249
-55.6948571388861
-43.9667639539254
-32.072625619254
-20.4928778153935
-10.9439132179751
-4.72278441039348
-0.01813772917394
6.72133950501388
16.1537544581533
25.9522222107671
36.0193816726357
47.2917985078662
56.2252439134959
60.685787873662
64.8870247404532
69.1248712267343
68.5163395784884
64.2055199169664
60.5432929677242
58.3594163300198
58.5463424431515
61.4325373135203
63.8474152760257
62.0680689482138
54.4695807383189
42.3449025309226
28.559882485429
14.5093089803051
0.621839246721443
-11.5316661459989
-21.9539814308718
-33.8159572062179
-47.5277697999269
-60.1689078765636
-71.2792513746517
-80.1282896365422
-83.2389257184244
-79.7096506232394
-71.7900689312691
-61.9689819350076
-52.5504176215767
-44.3722486937367
-36.9273725605252
-30.7739231101257
-27.5879422809825
-27.0637215712262
-25.9525767328974
-22.6002223120851
-19.1005167099881
-15.7991938686804
-7.62712954557229
8.68910110941208
26.931204239124
40.0311106373751
50.3231383843956
60.3504671135445
65.9823977061746
66.1798278755472
65.5294673550805
66.8811840520993
70.3462072175088
74.9027932066393
77.2909817460594
73.216442589707
61.7191079374134
46.3708483055751
30.5362974675817
14.0326649812606
-3.53738110488205
-19.4756013860663
-32.2119183501417
-45.1918820244813
-60.8668539535791
-76.2156656038644
-87.764131535094
-93.3865554045518
-91.0396752678248
-82.8545101233495
-74.459826654135
-68.1151480943398
-62.1543445189219
-54.7168772579313
-45.0685495476243
-34.5625100569104
-26.9343039666301
-23.8527541050904
-21.2585568594507
-14.5730117744419
-4.40597317677166
5.80824420373863
14.8689715885348
25.4937929597732
39.6060266286674
55.0981291090434
69.687954197554
80.2731357800688
83.2417541794265
82.113292212688
83.4517692389549
87.0492411577318
90.1325443624559
92.5643084661993
93.5387923552094
89.550030526534
76.9342897305351
56.8316521076645
35.0977279934125
14.9999473171299
-4.00576403071275
-21.2224841617981
-36.4557090174346
-52.1568839840294
-68.3320863091005
-82.3167840590494
-93.4917853571175
-100.828435398308
-101.560206933436
-96.9270176701181
-90.3565379266727
-81.8157955275402
-71.2462193361798
-60.3928300387327
-49.3572101156866
-38.2611750553068
-29.5506062846361
-24.4588497647273
-20.6356343249213
-15.1052930689592
-6.95007124499506
3.49478730355106
16.4872739581515
32.0666914193944
47.4269111682459
60.2541406561301
72.4130733348045
83.1489859435871
87.6934977402397
87.0849438994216
87.4270807563742
91.1160732231824
96.1387863019306
99.480990401139
99.0622214825242
93.0385953512959
79.4867877904532
60.0471706850338
38.8003419075468
17.2305543303395
-3.74883298564299
-21.6197019411227
-37.2599737590697
-55.7617777653315
-78.1646097886556
-99.6302585970374
-116.39670533586
-126.629390185714
-129.024428554119
-124.374348489405
-113.751158855517
-99.1593618500642
-85.3138113529678
-73.8512717390904
-61.4936445819986
-47.1005250183852
-34.3342057595687
-26.2990522200711
-21.0854369123398
-15.1707085507788
-7.73966812208643
2.05508511137904
16.8348466710038
36.3790130765472
55.7977286473459
71.9469213925678
86.2449424330002
97.3581001609384
101.531119787724
101.455260025584
103.108087487345
107.3220194198
111.570236857676
114.646622054656
115.152089528804
108.897275883146
92.8748058744969
70.1488884351182
46.193273341218
22.72686630564
-0.447115876951965
-21.9202310585756
-42.3171134220754
-65.1859008386577
-89.8563790243415
-111.884086114516
-130.182076030504
-143.978148612107
-149.26320141666
-144.718264166826
-133.141727922488
-117.794040112226
-101.793824789147
-86.2467339847247
-70.1394354469879
-55.2287913411662
-45.3848644903991
-40.2545168177954
-35.157621985842
-26.9364027871801
-16.2240531339585
-4.7717173228368
7.66287525136996
22.7078864802615
39.5107814871803
56.3368466344164
73.6654497605806
88.7748126017269
96.0409133957611
97.1964680566509
99.2307457687542
103.697482364245
108.709691306462
115.020324857366
122.605262464402
125.702573279767
116.789741179174
96.0160553776969
70.514645241904
44.072710574455
16.4371861585088
-9.98102132812539
-33.6783758360915
-58.2536535094407
-84.0961338529291
-106.299254444921
-123.073091180635
-134.764338318031
-138.353023825236
-129.740356946202
-109.335842392104
-84.3664322536238
-62.2237889364808
-41.9989622702194
-20.1604775142996
-0.695141990937518
10.1686209218759
14.8890046218737
22.0839052968864
35.2024574584503
49.5941658918986
61.2397122154662
72.1490509393863
84.3896542126772
96.387160511033
109.386879942033
127.219534210854
144.573968641391
149.204077106363
139.255885838065
124.710668282061
114.388849020855
112.427977894697
119.281247655649
128.377241825412
129.725453190208
119.559473513106
100.590334005806
74.6766864694921
40.9812223634707
1.83868701284455
-34.4295851234836
-63.3670080790213
-91.9748595226325
-127.338332749504
-167.334072500691
-206.661474462398
-238.735759406216
-255.239538913692
-252.623786468356
-233.810500439612
-203.812056366034
-167.860472638489
-132.079867417501
-103.576115050413
-87.79536025868
-84.1520271467476
-85.668104794935
-85.4012262308974
-83.0222271035708
-82.5693056915439
-84.5233217429713
-84.2734122053399
-79.0537461522927
-72.1143055508014
-64.9868967891538
-51.5347300177687
-29.2005425258151
-6.62614672726522
7.04241174294485
10.2861449856955
7.39161557580447
4.4507800723266
2.45777647591956
-5.39694805407607
-23.5236179433909
-43.7949136534341
-53.7526619957145
-52.5482744734988
-50.2375139912474
-54.3398395021543
-65.8385280481844
-86.2152515776664
-117.02366965441
-150.00985098051
-169.0995932607
-163.268687349646
-126.605722276876
-55.7037867464079
38.4010053358648
129.759193538209
201.807210665849
261.673363954598
323.142293284684
385.626876266814
437.777567667325
473.510817504584
495.563633131449
507.197253369326
507.530612835673
494.735968152536
470.574468973635
441.91723746395
416.186614214217
394.292715018286
374.918792664827
362.407798549986
359.041442173823
358.362078128951
354.513230336625
346.03803842385
326.896125872164
285.428362917403
217.162716615902
132.350281967238
44.954395108193
-40.6122933250126
-125.451258148356
-207.179655711079
-282.386139483649
-349.156775675153
-405.526015617793
-458.123668916735
-525.298338395954
-615.04538784004
-709.204372124317
-777.842505154513
-801.94561106824
-785.799148965806
-749.188039743814
-704.399528453093
-650.848619137121
-590.42963923292
-532.46561233865
-487.787947890312
-466.409541045128
-471.637575288195
-493.482705420363
-517.160366274909
-537.286265842959
-555.442300386255
-564.779720106325
-549.94271309099
-509.958435794358
-466.410304575365
-435.990838233483
-410.35463074869
-369.951474757587
-297.053583965112
-181.777082957358
-41.7793314903033
78.7839450956457
152.159196716353
199.477228781949
270.857839490019
399.860103954389
587.867790557242
817.788433028543
1056.31234617971
1257.68859725793
1389.02878063747
1444.67065701223
1433.49865785396
1365.46385328951
1255.08956842916
1125.01843541305
994.826514813703
871.988917693941
756.207432545836
649.008187403245
558.875465373771
492.665083014096
441.45607773144
381.224610614179
289.709047682049
168.876283705752
54.8267571005277
-11.7939840426591
-28.9551230149138
-23.8179701564835
-14.1271201914407
-11.9582906867957
-39.6387913234626
-109.250103938897
-210.266478625287
-332.146458880092
-478.472367554686
-650.450035452614
-821.632927101821
-940.429037782251
-968.437494847426
-906.932297999318
-779.453025326425
-596.228424074591
-346.04519451502
-38.715289763682
259.778530942123
470.080345905323
565.884995863811
576.285573139049
540.125385682266
472.487488898507
368.109101046662
226.144747991739
60.2129470282331
-115.901925573755
-295.857105935224
-466.810342945102
-603.101998362498
-686.253116902534
-723.214657851528
-736.723908792942
-743.186542552739
-746.045096577672
-750.022554936441
-767.224509094318
-795.707937327152
-812.814369678815
-808.406322897231
-799.204614884554
-792.7133316681
-769.336481268724
-724.772872557458
-691.117662196811
-682.707944806899
-658.074295278101
-561.001545530595
-374.676083700312
-135.015484204551
91.0699726830135
251.334480669978
343.534053686451
408.798899866184
499.067641738807
636.841611641031
787.793012445028
886.229035621343
900.235147138482
858.622625895695
805.452324015056
753.116499950064
698.501365387521
656.969258869509
662.765856392529
740.922981775085
871.365992955475
1004.46575396328
1118.31991583629
1207.84612497661
1242.89199400443
1200.91791372221
1098.17461342536
956.525815758059
785.437407355313
595.416277090397
391.335818817993
167.996334998438
-60.3837352485426
-250.173187467367
-373.444947650134
-446.955982624143
-497.868298346242
-530.025004948997
-532.237536123736
-490.618803676464
-396.207749199699
-271.744623359066
-179.197808586908
-166.511361778432
-222.916056177275
-311.206904388672
-415.919163670061
-544.785355657946
-713.391196581453
-932.883573974844
-1184.40040073923
-1409.12236871779
-1545.80232609939
-1562.32505722838
-1453.07545922895
-1257.52290589694
-1058.48096096369
-889.496082108668
-694.748862038131
-448.125446322128
-225.558013976481
-102.323862141717
-66.7394384195979
-63.7385358099161
-54.8659891881689
-21.7995832209111
45.921828112417
140.780849910929
232.920268990216
311.993771829519
423.830961516515
615.991233493092
857.839228599576
1072.48503603893
1219.2303654914
1294.99185531807
1300.81909202212
1244.46080721242
1154.77013401986
1080.31664377205
1057.17338951127
1070.2099477813
1078.17166489853
1070.67522291368
1051.95574596536
992.630857553695
858.138937572875
669.136741632144
484.459528298423
332.047829424239
192.249785913833
40.936365779358
-118.132047528683
-261.370010576833
-370.00251386312
-441.292492085635
-479.818168155789
-489.024134884607
-480.378833023715
-475.615307827802
-486.100068833116
-510.352649922283
-556.104072991712
-633.52028958485
-726.331023368566
-804.980816020879
-865.833820786454
-924.433620168846
-980.762723672294
-1022.17880679157
-1051.91731531586
-1093.69829075923
-1158.18564368282
-1205.91213889456
-1172.71753738294
-1038.67948092608
-833.523557028222
-587.908587120091
-331.070632262286
-109.660169802887
37.6480822555066
102.793719853119
98.5465804107082
53.7586698973359
5.14856282402463
-21.3107576654569
-12.2782214430988
30.6878647196779
84.0619666257453
121.735439622068
141.905143500654
163.389488152669
197.880479335899
234.619794359297
260.141987989003
291.714866056416
379.684819374852
570.113778511483
864.656467572172
1195.2844592937
1437.28020590473
1503.09955276311
1423.08284833191
1282.26847370229
1125.55095346949
976.65976907328
870.347648896482
815.976771507655
789.894255362149
772.394446769776
748.49928475021
695.739915048059
610.435585952454
519.850246846995
437.280250230834
337.797749310207
201.881109987424
43.69493785406
-117.299847888098
-279.083724064793
-442.207947236647
-585.28054013005
-667.424829434927
-667.642115071953
-614.308855409075
-561.782798246633
-546.702039584861
-576.153789981156
-646.486983348997
-750.723770061095
-857.575522316904
-909.675761406972
-880.598438701262
-819.32821670735
-793.685101816364
-808.310403910496
-824.398281032226
-831.447061752744
-848.949733412739
-881.077453854532
-912.703876786445
-928.087377160525
-912.810132776479
-868.836926196652
-816.840071245415
-747.379913365984
-606.741987566791
-359.376817365388
-17.3542075988681
401.242440262951
870.751011892838
1300.47751303932
1568.60969709575
1634.4807513863
1550.74205746172
1382.61926965456
1173.77782517858
961.195674622884
769.167642510134
591.863431910116
407.52614165852
212.028825980839
29.7702413634804
-110.848812652933
-210.404572355069
-283.753566940192
-298.969541340707
-186.446313545325
46.8180276792065
274.150694186157
370.468079977626
328.175436449702
228.230526710784
135.353309345432
42.8303904081189
-88.9611299363439
-261.197524936964
-427.178965123357
-548.981630746153
-625.468586025688
-659.649164120584
-640.499229601367
-573.095221952822
-503.041828423526
-477.210522683178
-487.708557144649
-501.278284023313
-521.38681420086
-566.729981565769
-610.265387309589
-578.291361978773
-417.768393421328
-159.21309751576
102.173542477515
288.523853592549
396.461500035417
476.220052931169
558.755440017112
619.726548385646
623.602363552958
580.25397352038
537.827725165689
534.988391246309
582.177510324536
664.436150750918
731.009331586641
714.655194457427
591.975349273388
402.857792237364
212.991607542154
88.5557764220037
80.1257146441741
176.409427260831
299.131806837852
388.820651641604
451.326232702893
493.128584197665
479.40632013198
382.781433214004
229.677816939075
81.6267740355796
-23.869254965887
-100.817313186343
-173.52204238502
-241.216206094441
-302.74023491242
-374.266720987207
-458.644728402859
-530.371917932414
-566.46592257489
-566.864675539106
-545.829738657408
-519.567414587464
-477.337427783381
-362.083491846755
-139.37210134678
113.961308921565
270.568753892632
301.324372398395
290.021097823041
311.788416111207
356.136633361451
366.931405489773
316.615702099605
213.975813445068
62.960974825915
-135.103601977033
-343.437357540209
-494.188747898488
-536.493898253565
-469.080736688428
-330.999562286979
-173.262397357441
-40.9171368778134
28.8077708203746
12.8134466522163
-77.6048543811594
-201.533975949045
-328.094162564933
-450.678095847895
-561.399402581173
-635.285632285715
-647.828511323516
-606.102457747925
-549.652875327348
-513.143896925448
-501.931831346571
-502.303238052056
-491.520190479352
-428.153358098394
-263.645593527973
2.15800131649567
300.485832497152
547.804456261567
694.9491585397
734.939551302891
694.306916324206
605.474973474938
480.611134972905
327.662465256296
178.780867936534
76.6276933140117
44.0977109879844
87.7680275121941
211.009803160267
395.180807016681
583.410389951008
711.956830600361
748.389322883927
688.219118749005
540.499163370717
328.742752111778
84.4015991228756
-163.024227636491
-378.498871431175
-524.497935538845
-596.123849988188
-626.067043529602
-630.202737448336
-595.289540395377
-532.08323906712
-472.327104517968
-411.56792958398
-314.927224411812
-170.865951793293
-1.79245165006888
160.461356060144
287.622815801774
362.89797636473
386.020042603345
360.052136895463
281.283491945309
154.111237722537
5.35972218630232
-130.590221363802
-233.525323457513
-288.674381525834
-266.624655274158
-137.904701726601
82.5707880591756
322.550666705258
508.237937466748
616.727866245092
649.551638835728
594.532051032084
459.647980873691
317.251537667282
249.241329849469
245.64031171076
219.366883696772
117.997048907164
-34.3258964300057
-187.067633192577
-308.151339959483
-390.976609790133
-444.975288458102
-481.653220336169
-509.426461471499
-531.167570598331
-513.444106243057
-370.657813060822
-54.4755270007759
335.024007872717
609.118251863507
667.188788058576
552.492037842538
355.09695364421
127.549363027446
-107.864590761579
-323.113116618177
-488.779816030893
-600.950633618931
-676.564689340304
-727.601612457666
-752.307495233716
-734.394744073138
-646.642061201784
-471.32071095586
-210.981192105865
108.175966496519
421.025238742468
646.5645537523
749.31577643017
752.535441586764
699.722261784168
632.916437447363
581.110275035427
530.651615739468
430.166074473937
249.312566015408
20.6024348964025
-177.053675583077
-274.688784147558
-258.187819407644
-158.458728537228
-21.1098123439664
117.064771717349
262.576113933052
453.651148177697
679.854028817847
855.86906910618
900.46150593274
809.547734981499
642.398518606751
462.442427268064
301.408258843382
160.519983384952
31.5627314266109
-84.8800574444693
-186.980734751914
-283.965070191209
-376.314246869876
-438.060123897188
-448.151412491617
-421.498571690746
-381.912680786161
-333.443654328869
-287.584397581116
-283.50802023344
-348.480659459928
-464.846707109503
-598.627771950563
-733.194259549329
-854.785226545884
-932.172374539473
-939.902999804401
-899.656695982518
-875.048239901377
-906.610869527416
-966.834396496501
-993.010077762123
-947.376170423088
-840.952428544091
-709.479663748538
-573.164959193669
-428.979859661217
-275.229400465006
-116.817369220992
69.0558022853131
328.825750799152
641.886293387415
902.768932912787
1058.76565498022
1167.40680109068
1273.59934192334
1341.73995495403
1337.1481950598
1286.96766083477
1242.747696092
1228.82379601557
1232.63136149166
1227.02792433896
1194.48225734266
1128.05636237087
1022.86463500999
883.38363734424
728.278908071432
568.747962568936
389.028731786054
160.559677269784
-128.169978721508
-454.580926552524
-769.960673538584
-1032.51657805387
-1235.73621658304
-1397.28291994363
-1533.13947356946
-1651.89740053176
-1742.9915194922
-1759.46753282612
-1650.58716961811
-1429.69407984686
-1179.68012488496
-956.245054102148
-705.766249826268
-340.511364941937
113.551489509955
523.839130614141
797.812536803789
940.812713987806
991.485307207332
980.362681677114
936.43167351045
883.664279594483
832.766908926141
785.24436553018
737.087753444509
681.176386650322
614.995456217175
547.558774084356
497.992414596422
481.40069480486
489.999027715624
488.439479692081
436.071896053116
320.720391032992
163.431106327633
1.94753325137846
-117.394845230073
-168.996569158839
-186.107841721172
-238.219387321305
-369.94832755482
-573.441404876726
-805.675411620917
-1024.27307051814
-1201.79139724271
-1302.50460481032
-1275.50520930584
-1107.54258262581
-870.681913483681
-672.194205448145
-554.222505667725
-480.331227329268
-405.87964855261
-315.027259603163
-208.39421922034
-96.438656592161
-4.70180196907927
28.0252663971125
-15.9989933806182
-79.7200811677067
-48.9211347717743
135.176500240462
411.255954627041
676.121572884757
881.863036617619
1037.87690766923
1169.47487444868
1278.96845339294
1326.0653754404
1271.32680924134
1138.94684004253
1003.74323639667
917.979613791608
872.775326581366
826.97352812714
745.484655498394
602.604330284456
376.22621881332
60.7841543938314
-311.067847326266
-664.539948617354
-927.879342142943
-1096.41112879741
-1216.77967293609
-1306.12704432009
-1336.51128325149
-1291.82830045583
-1187.57032484946
-1031.5630847211
-814.985058798674
-558.854150263555
-316.715316847051
-113.860961781962
69.3723608432415
247.259209479609
394.69947818921
474.646660157971
494.378479345221
517.476377488519
600.870291781458
737.682777574957
876.807411929068
968.942452744201
991.291209398233
955.342883915082
882.931719478124
770.275470809418
601.462903486785
394.003098830969
195.104294375536
24.4194230391981
-153.751157048602
-386.258063423335
-669.712667069906
-941.420074991237
-1130.51293810728
-1214.508598997
-1212.19741425197
-1135.9781197194
-991.814408473057
-808.342744860684
-618.436922522427
-421.525252697448
-193.00089487319
74.7513828881067
351.526806043173
583.742246988629
735.525692963119
827.644456509653
918.14992282271
1032.67923575446
1141.06730653889
1203.71384534638
1203.62453484698
1136.96227989692
1008.81517440724
837.186958570774
639.188691898245
419.241273034106
183.111825223695
-51.0986488052774
-268.4040808593
-466.688274299141
-638.761163299732
-762.6154881517
-829.897656608599
-878.5004913533
-976.010469937472
-1164.18254649202
-1422.9698477668
-1674.68149000841
-1820.13065194191
-1806.0119584097
-1670.87676781149
-1499.76185873004
-1342.39075943616
-1203.42421093832
-1077.93820147724
-948.817566524391
-778.696739419871
-549.816322388139
-293.860111450788
-59.0675600795432
134.766294458024
296.93821480334
437.696414728066
558.198179612034
662.540250271397
757.723543552319
840.716263089827
900.364062577618
935.653062175159
973.260336055765
1065.09252027081
1242.71574109448
1474.46685468029
1706.31118591936
1915.2888405333
2072.36903270052
2105.81635841386
1957.89642955527
1652.48194826227
1286.5368376107
965.132004714439
731.132543805934
537.395987562442
297.976508320386
-15.4387667554481
-337.142998528969
-577.396865182514
-702.868232047338
-731.111424294142
-684.75391349615
-593.459692316486
-516.411692076967
-514.339270511609
-607.107755985214
-769.171419312862
-933.313807226351
-1016.7387839798
-1000.17001257456
-946.164889899154
-887.890092633908
-764.372894079794
-523.090294779897
-215.511603544577
66.7591514607119
291.734280041948
478.173080485077
631.037305215754
729.035546184462
757.395179188215
721.673339329126
642.573630102542
551.355115911927
472.12794049351
407.841754287866
352.347793606094
296.562118221971
221.477288576225
112.061558821627
-20.4535275827963
-145.648371339797
-249.588171964969
-355.354875775704
-491.967772578048
-653.667400326034
-810.166824415659
-943.703072892337
-1057.41037195565
-1154.26774601641
-1223.87520584498
-1252.95481790911
-1239.28751554894
-1190.90931605343
-1117.53639485053
-1025.48545379354
-917.295557008165
-798.645419587676
-689.498076763186
-617.674141576207
-586.10849878967
-554.787295281121
-477.687528433352
-353.526265120762
-218.874171386037
-97.0618841065998
17.8502023667299
122.277692105511
184.264252029187
187.064924084704
162.518823883436
152.302643161232
166.456156361966
211.330299465972
314.739005335702
488.366637470961
708.256935904529
942.722370891796
1162.8487156811
1336.43876474256
1438.95505935538
1476.53417689665
1486.19707339169
1498.87225877445
1514.78875625549
1514.27276509133
1473.87283045839
1378.54367621263
1232.17583369947
1058.85664191107
887.530658023486
728.968583915148
577.136708346022
431.032125034858
282.761883003005
99.0968020169836
-128.407902092904
-345.555744305425
-501.251322149753
-597.538578184693
-650.458253843339
-679.282661421679
-722.388846492953
-796.494074295538
-882.746706616557
-952.953325528217
-955.933246205679
-843.047591023247
-642.427576072805
-447.030497919331
-333.245074522772
-322.702781622682
-397.833893073689
-526.50926435503
-676.235590314635
-812.335826784999
-888.706229222037
-852.116240551075
-672.306287089931
-381.411997228626
-60.7345048109216
220.50280923217
418.564602775886
503.667562810257
492.527569267598
442.954478421217
386.107071876274
320.883941381321
270.501420403734
274.827923405169
327.515142900266
376.829475362297
391.359282628964
391.483479749917
418.67265538212
493.088710971081
602.726556226008
718.677531888608
806.811414799252
840.85361020728
823.744100423992
780.776452712677
719.603772669119
615.970728389567
451.398515889636
242.138973970862
10.2134081569888
-249.927017248409
-553.970751199473
-891.733049208152
-1216.32061602652
-1464.2699950409
-1585.50320782803
-1559.30689373
-1397.67462929662
-1144.49068879329
-869.339069104906
-640.325715034865
-477.242933353153
-350.507078359213
-237.148812435166
-135.30170501787
-41.5035859040461
32.6312944624666
68.2636160849416
90.8225205697538
144.31451820002
224.483934966712
301.651464154504
367.88954425043
414.590649622532
417.785507227307
376.64361162684
320.622167765299
265.875492178117
198.77131280259
105.972915062072
-0.817013479273214
-90.6101977425832
-128.700426384544
-94.4547952344263
-8.33385610541185
73.3377792764512
109.155831923105
93.4896056125214
32.0064618614971
-76.2499286448711
-235.245304393293
-420.35754001763
-553.440136715966
-558.901945230285
-454.203683316493
-338.194211932856
-286.041347305808
-294.915890674108
-324.340471479424
-340.20934974086
-307.19858783083
-178.423645564783
56.9858355431431
320.093553073433
500.772212437834
575.343141485967
603.961439955492
633.80564922336
671.470475436931
721.211678293493
793.533284785086
886.184524026305
975.541611290643
1023.29886589138
1002.71437918308
928.60648089981
849.268561665482
798.873479014198
766.245018683023
717.78474831678
640.697694908261
551.412159897928
462.534007609591
344.393094133811
129.624616741275
-212.900198620538
-615.466565606863
-974.978473849579
-1256.59765262769
-1471.3728599986
-1598.12089124011
-1599.10922778338
-1473.44889018546
-1255.61196216197
-999.228538361775
-764.978765277859
-592.523578741358
-489.674480255828
-439.862174078164
-404.244388432089
-342.163428426987
-238.262829914655
-101.059778455084
44.1229077613498
159.587627840404
216.472025664594
207.856318031661
145.438776901587
69.1180672802287
41.0019384924702
93.3910406052437
196.872489933953
296.432157082016
355.316748492346
356.019490137041
288.565060649755
150.559364715244
-48.2822433966477
-265.188761179802
-413.667742969047
-421.259993915923
-292.059881434888
-74.7215812267823
199.318360534116
502.509560347629
769.178904760105
930.697763458951
993.293544855718
1026.51638376643
1075.49278775314
1130.79686651937
1168.48992987535
1178.73119856543
1161.54957357666
1112.21166161091
1018.50552747625
872.369974394135
677.408933537667
451.791037003235
224.88542155941
20.0173694226724
-153.981394667032
-296.753523746421
-422.573369844356
-561.950865373913
-723.711422296114
-865.334221977442
-934.633653884145
-918.347079502926
-825.820408056217
-678.0522573124
-528.135435889505
-426.938733494554
-371.032238332634
-331.763884377188
-307.096441878008
-311.834517679507
-343.052972663564
-376.644083039148
-385.784714298359
-355.307271939909
-292.546828813699
-222.340402174742
-151.52872345625
-58.0637133706064
59.1741661656452
157.445947202475
203.547768745625
205.308537400587
167.963374974509
64.3026886044668
-127.011449254859
-378.588700764678
-627.571138440087
-821.03483825768
-936.236044272285
-978.634282612234
-981.66295188578
-981.05965755852
-982.249043820781
-976.023875767436
-962.553815675904
-937.021140254488
-882.71758215609
-794.636521965168
-687.059386508547
-572.179635962497
-446.275381513697
-302.322886170504
-151.824136235314
-21.8794707431381
77.884415314167
171.815802731825
289.547485161387
433.213834242972
590.955016109558
791.397347831284
1114.65070792755
1593.76280052206
2125.44229563987
2537.9205521525
2727.14203404872
2702.04502562786
2536.72822908637
2300.16973070713
2022.59870542598
1718.0535537345
1409.45363860491
1117.85057710157
851.940351314464
624.306674749851
466.337494764644
398.632556800656
382.407100410919
343.473939157888
241.097260948206
59.8021710641822
-239.637365482852
-688.409697042992
-1236.1672894433
-1762.94849669936
-2160.75937699114
-2369.93059346143
-2366.775326601
-2171.97260557805
-1864.34766780319
-1540.75069901659
-1249.84823782533
-984.315179707564
-731.545052037677
-512.990207612472
-371.171969566257
-318.071385238522
-306.129628138076
-266.107653053047
-176.971481474077
-82.8297243495196
-33.9249517089491
-34.7374183383195
-48.4349264364198
-31.7298999151817
17.4886976351987
52.9851019231173
49.2900028081499
49.9887033245972
121.745948507714
289.673843381209
527.235519513112
776.630046960963
974.594029599007
1083.36067142238
1098.38192065111
1028.43552271443
885.999314134155
696.594216299087
501.117383145917
337.022736718861
215.47815188878
117.523383269676
12.5267086913719
-115.901070702181
-257.088855542693
-385.515056717926
-490.412238287909
-587.537722915379
-689.066502965292
-775.765605102262
-827.291343128765
-863.939839974893
-918.845369380003
-987.356238126311
-1041.15318306583
-1068.43914714718
-1062.59098637302
-987.571670730365
-799.72454921567
-512.405906049544
-206.327578088626
37.2745699978495
191.287379041257
271.914346224634
314.234217263504
371.96847290569
495.096324988409
679.002422722072
876.237018799573
1063.10868278281
1244.29105529769
1409.54335836277
1523.22264932241
1541.94740979937
1446.58229939793
1269.80217059758
1071.4851767913
875.599025964158
653.467666722878
380.946840773071
96.2856567000507
-114.047603850117
-192.155543419282
-156.085453158884
-68.3431599725366
3.8020547409937
4.055975555196
-75.3036399590918
-178.293822037398
-254.607698149302
-323.089738456128
-433.722151917974
-589.138494064067
-729.314156079873
-784.834584959457
-717.839299709441
-524.34008098993
-254.55988124758
-11.9909232392716
137.523884780289
226.074941328011
304.689125493569
359.173849908979
352.168886999086
297.1088929177
245.885325453534
229.856568843273
232.611593638678
211.643756231958
138.955246177762
22.7340163659539
-85.9754419986808
-110.487574617076
-17.981105487101
133.179072546409
248.918167541104
273.872808518264
197.06436472088
34.4774021370544
-179.601617289752
-409.98705037458
-626.196908782774
-792.665052249027
-880.458180567864
-888.820644950009
-839.247878787065
-757.421198906888
-664.256279525709
-568.500408493928
-468.745821395767
-368.444860691869
-282.060584625663
-227.939192872569
-220.7086265129
-263.295669977551
-337.323102732127
-408.377925377773
-453.092471266457
-479.433409455701
-515.453823573309
-575.528750835384
-628.86087180914
-602.778752501524
-443.730223374351
-189.782126643607
49.975572286183
208.441933079919
312.181883564261
402.852022365343
464.314882915898
460.559867586971
397.810654076076
311.150886349487
216.522009326842
110.492453810884
7.42686015032749
-55.5537815574709
-48.2808114729754
35.8541437794162
177.45129985679
334.385258176876
465.943415158255
559.410525937234
622.740872273187
653.52798615367
631.247968564801
542.132706622375
399.815659696543
247.904412529016
148.484047308522
151.662735130965
260.343469050607
425.050791293147
582.062541601919
693.965652216626
750.274847996398
748.133596384525
686.199781254188
568.699746205068
417.351626585636
287.959084579833
247.618874997264
301.099288173166
364.191485893464
341.445804105362
203.766764285826
-15.324295938729
-252.603113106516
-439.1318088191
-541.233646271884
-601.320052463403
-695.615488810122
-831.430344039483
-939.967001196978
-968.79050433701
-923.658654188437
-838.603849588424
-743.960578979029
-640.540621008886
-484.402157339261
-214.527628046674
177.696964412577
592.388567932211
862.44311276669
886.207284180654
698.281766747821
401.601692486534
78.1162396161321
-218.60736080771
-435.291058166917
-541.044840960277
-566.461225046933
-570.460274517731
-573.437622176502
-552.456961484691
-483.573968044886
-364.614406503097
-208.313350549753
-39.2188061961677
92.8820031072657
123.900865840889
37.4556030551346
-81.2883700474391
-80.3809334192028
143.235476831917
555.003200751776
1010.17259023056
1358.02848946728
1529.51874142238
1561.12284651111
1541.87376956655
1521.83658186387
1479.76510543418
1385.84674597396
1261.8605966003
1151.07320703034
1055.22300634712
940.187067744524
795.316945562501
647.606120686462
511.611092216551
358.115713741919
135.994223574717
-197.829023443276
-648.799786689367
-1150.01609482035
-1577.83490719569
-1837.11130746953
-1933.07636886287
-1952.49753320661
-1978.58675924162
-2030.05849704863
-2073.54649812469
-2072.70122716114
-2009.87009566418
-1871.19282679437
-1643.50257749711
-1337.90448961229
-1002.59718289963
-707.397413633059
-510.390893994231
-426.073922344764
-419.480713965322
-432.078661709951
-421.025461369309
-379.463460608969
-316.831412666151
-229.956838937608
-106.298890707348
60.0452088469761
267.329570297323
498.36102074467
706.114579875995
841.404966720437
906.514615298125
947.905355811824
985.479240230006
982.718532546681
908.114503438811
790.764957113283
681.719009878898
602.679499899991
563.58943913452
585.31154677228
678.664541156713
823.592558709254
984.146112795096
1139.13225485505
1282.59042967299
1390.3421869052
1414.75700366623
1334.36358693593
1183.58669553986
1017.42963826936
870.76232425932
746.546953771672
617.89042972272
455.891021905572
268.762019862201
99.5873742005631
-18.600160392662
-96.3046868763261
-175.176465890107
-292.03865713868
-459.924925342871
-678.868912456208
-949.563382998841
-1266.92200923519
-1601.43997591787
-1874.77338549139
-1980.0177672446
-1878.42738101566
-1640.98910710267
-1359.79000979888
-1079.5822831436
-822.112687155955
-594.847698997038
-366.530870882296
-92.8336400770563
216.034618454823
477.558299040369
614.021505069569
634.369833304211
609.22836841654
592.322030552867
596.434177061603
612.901443853682
627.213416648136
629.918823407879
621.163526150243
607.11580085493
599.741745529212
607.336356226641
614.805723450651
595.977161123043
554.238549978675
515.736702904952
462.975064561361
319.246013761896
37.2258672968737
-324.838058844586
-646.159004129961
-848.805164900761
-932.388607663161
-914.259294423731
-794.358747836883
-599.658509052172
-406.581095413562
-280.847243085883
-218.872304470624
-169.102725570629
-97.649780312231
-24.4390791559179
-3.10258610590224
-68.7737988974866
-203.260851679594
-344.651326437415
-422.067602669082
-390.285764648244
-261.532968157824
-108.366552681202
-4.7194519005976
32.7411654767781
27.2062460543824
-2.6371110209261
-42.8197135711619
-59.6567468242735
-6.4170962616948
126.677747747107
291.319268946148
433.825003534578
534.915870024449
591.182518081033
599.68646776845
559.539327525939
475.726744082126
374.68160362828
302.509122779566
289.166345823471
329.547514966643
392.276957009214
423.649975234467
371.545446679862
235.667133904299
69.3516763720007
-82.2817417230803
-222.920836774068
-376.573119870696
-525.598030229782
-598.911333009188
-549.778027931279
-418.447952678721
-288.285572667007
-207.722522557114
-159.483032892371
-88.6321502014342
23.751575245156
124.507706586465
151.584769142839
107.240615140292
51.5200564886128
52.5645180236227
140.143429454951
273.945825505975
371.635197982813
391.415642577054
360.178735345242
314.867403430785
251.382618598621
134.090810928349
-61.3767906224724
-304.961740941309
-505.797252900882
-578.643552043022
-538.964453082427
-500.367770965836
-550.029833063977
-668.31635847167
-781.264049232849
-823.743692667189
-753.141347008641
-567.64394691802
-310.892496853451
-40.0331199665741
198.382678512373
381.314865509295
517.863792917113
614.087277469966
637.407231511992
564.956017471621
445.729292728562
365.452667140686
357.314356650032
367.460411557287
312.753660183705
175.626086992192
29.4973686321303
-36.1508433964105
4.48999105503506
111.996701848037
238.200683577076
367.051188328891
491.331853461307
571.475622836652
559.590705276505
456.774664216747
314.075493717691
188.886544889178
114.590548512367
94.1894501310686
110.565572326327
137.722069824153
141.758864510409
96.9126352054815
14.5196786020784
-68.3902877478999
-130.388411735187
-166.467170014995
-161.738564910749
-110.16475662739
-62.5304547333611
-108.803515696252
-270.324038664215
-440.610868957986
-497.819915929646
-438.349966447224
-329.601469907905
-193.989691520296
-23.5648719190401
140.447542823963
217.473416004043
159.4841773656
-16.017041437427
-243.011849492951
-441.659611112901
-553.520769648091
-569.042832453854
-529.659123442676
-491.422594383872
-490.445226052538
-542.919930758872
-636.623536539713
-713.162980592573
-707.477317952562
-610.202554431453
-461.796606321436
-300.882733783909
-140.747118453476
18.1322765217488
179.170757995982
349.559251228282
521.492181876245
664.01453991581
755.406224397859
801.779181267211
809.651360652098
758.975779165372
617.196344737229
385.411819312118
126.587810521196
-68.8354786667408
-153.534290592568
-152.851718590539
-124.538308483994
-111.057081498013
-129.912893197521
-164.597756785619
-164.29999532204
-98.6897832591693
-3.41568767628344
56.0369519938995
49.3289244613046
1.08528000548885
-39.8938621774502
-43.0501902863681
-12.8440733761292
22.1296603090236
25.4712480133075
-31.1250931590909
-148.505677302517
-295.560408896215
-419.078107949579
-443.537056300886
-293.325368892376
35.1438528710529
441.939819202296
794.72808002354
1004.50583144981
1033.7473959801
895.474170532089
670.238546669887
477.175114281969
386.691963843944
373.452980827234
366.926915737033
328.560988833352
276.864056066435
249.658834971395
239.776609734323
176.035696985454
-13.0521434697496
-318.206212207773
-641.842384821771
-883.351798849545
-1032.27847664281
-1140.24062074525
-1202.88430250037
-1137.60135548576
-895.993792400877
-546.006857804839
-214.60818249178
24.9608494433853
184.57962283187
300.910677121597
379.691034645493
404.117702367771
371.648127582271
303.23132586728
225.150406802397
143.684947685398
32.0949340975698
-134.810893944072
-336.280598302505
-529.889173864706
-698.861417104505
-838.69980085755
-916.760091043101
-875.874174029539
-686.313260840001
-392.248085453588
-95.1269505743387
115.943923021679
217.646607709094
248.502649111844
262.191846105793
289.034408435056
343.09312399457
445.325328042691
618.253062031763
862.245524873208
1146.12361948569
1415.16571669188
1609.79502167097
1691.6086462265
1647.06924632003
1468.65003413439
1162.52526096319
777.470751802802
396.130549270293
80.4244068481334
-158.156022076417
-323.083783621683
-403.751680516881
-403.319845472963
-368.240641795306
-373.583393987423
-476.351591817532
-677.503071937285
-933.822033915515
-1195.56076636374
-1409.91787141723
-1512.29654444381
-1466.38385294547
-1306.79332169011
-1099.89056233693
-878.125998647165
-651.95240977612
-453.739054978724
-309.391031485994
-185.295685089444
-25.9345629573131
166.157321351027
339.64720417656
465.948040137925
553.110421487043
606.744746555847
621.472080850363
605.302656631444
585.448118537097
584.747354947619
601.25090106478
613.705783493929
597.925806969137
532.593007049841
400.527030056875
206.024266489734
-6.6748904953296
-178.001308098505
-282.739304834131
-344.429410885259
-410.34605575611
-503.480137690827
-577.393484040655
-543.082566466128
-365.439985297894
-113.508571340576
104.470045028152
251.981574608447
389.286547960717
575.900597102454
787.22848130483
951.675985783642
1015.76680440041
954.328507913342
770.401351753195
493.978771890058
168.242235567304
-138.052467574918
-332.664951891811
-372.527527732686
-312.704258947605
-253.731130202441
-261.845302462095
-341.30014989449
-458.111213762907
-584.286154851649
-713.668507782727
-819.249881012584
-830.391192440153
-705.991137943264
-498.791185087013
-305.407056601169
-186.627083908291
-146.832195884942
-151.393063600648
-158.747697411997
-151.534187070798
-136.726015809315
-119.345566641388
-82.9624299891456
2.68136202593005
149.996271438342
327.912621071705
475.427914973984
544.891367046348
529.54405187523
448.999470579184
322.295806452096
172.952271199682
43.8277105908115
-30.0472618627863
-62.3825063089104
-102.778307371273
-179.292854585374
-268.06847553977
-327.263915051117
-340.749557582809
-308.303952472517
-227.176225596693
-104.332450971003
51.5689155600363
239.908822857241
430.918633933285
561.001100069672
602.645008590875
599.157749945994
604.101023938975
613.520016757607
579.039068238609
472.76807737718
319.398268900755
159.9266133181
-7.65245117849648
-221.13055963259
-468.443213827621
-654.218606088671
-700.924411589784
-643.673204138648
-568.729309868978
-500.990430571711
-418.537126726733
-338.903938729814
-312.201440466598
-338.598551223893
-348.770079501751
-276.319562977627
-123.497969759894
55.2516586863482
206.567158263095
293.782735953053
295.185560243329
222.120346262869
125.516099814106
73.7790216341373
120.939033236109
265.445856126659
428.889082716276
511.474629987002
479.110376828068
371.098288892735
240.843973429766
124.498299478988
45.5718472084132
9.34736784461463
-8.77412538431589
-45.9033224155745
-111.722719171617
-175.735694898177
-199.330739636203
-169.075902521561
-98.0804931994728
-12.4160873358404
64.3703246494041
129.222701111614
191.649144801428
242.862346593702
264.423889558993
266.201969027042
273.745507169297
280.904411807746
254.030341307203
179.992814947183
82.523140408736
-2.32894030877556
-55.307576448785
-92.0255860364841
-157.212207165768
-281.325947544464
-430.538414767965
-521.858586321715
-503.16135324939
-404.8053428835
-315.351262480692
-311.699188729174
-400.207506359206
-529.575325100299
-651.035445028962
-734.976340701696
-758.334554487692
-726.075265782017
-676.41342905944
-631.515458971971
-568.830279826811
-442.619098983519
-214.601226857122
113.186700667259
480.903111651081
800.092938887346
1009.40429776738
1113.07106980372
1158.79648191061
1179.1654091452
1182.70240396461
1172.7310731933
1133.57633451953
1037.69938135009
887.050057924864
719.071186855954
580.937503497506
498.234488370933
444.231753418514
357.529218354986
204.049005114768
4.69119817983371
-191.115456573836
-343.948633450272
-439.710428508306
-479.64118756339
-477.960999545823
-465.359067037218
-464.512026599704
-469.324682434289
-476.788453990123
-523.538753560429
-650.382732006506
-833.514441004211
-983.990591367501
-1020.19575966739
-932.129999491853
-780.250415229853
-636.849691282254
-526.901404719651
-426.397638682094
-310.736525334899
-180.226442097497
-40.5234138315191
108.390930505193
255.706194040951
364.493554781967
382.076783093057
276.823452632057
76.0952428972711
-130.438416519107
-253.458322849352
-291.937908791086
-323.915418768871
-392.845548276629
-455.52100913663
-458.335482970644
-408.127321906632
-343.973417572582
-278.984561072978
-200.165768618936
-104.57257919955
-6.42017392012928
83.7114827073537
175.628364104187
300.647832695349
486.041711902204
729.98337189394
1017.17022236118
1323.23219415717
1585.94774900887
1736.57672902271
1777.71938628294
1769.84415512405
1734.14270902582
1626.70915453642
1417.18354689029
1148.95127682809
909.715318260804
753.038426361188
647.614365548109
502.418606996106
239.116603450557
-164.05149588543
-693.728191113283
-1329.83017039565
-1994.66791076016
-2492.58274963443
-2611.53480022172
-2322.68979304028
-1808.37216729502
-1281.80793859811
-840.616807561269
-484.138820134997
-194.030966109194
30.3759331173211
185.907065502125
288.238957333013
365.087757484593
423.578830434618
441.232882273593
394.357543875594
284.769307372323
137.778172562939
-19.556324700816
-177.130208283538
-345.373795262611
-535.351176081388
-716.784057445477
-806.543511635119
-735.686299678761
-527.239589297037
-278.108014317615
-73.9961254457764
54.0150382578275
116.874402484425
148.944860691955
193.065305719376
279.115930013206
403.761843160399
529.509149787955
610.824566496817
629.737322425487
607.613053770671
573.257664098829
519.857904221666
413.36894391806
250.002957938035
82.367867167731
-28.1379120426413
-72.6019700508475
-92.1639375139796
-114.588715693823
-108.51008150105
-25.3892501207264
109.8508832064
187.063886933171
115.449721524044
-80.3210004454706
-288.917717767657
-419.18518891895
-454.825567189527
-426.696838365106
-370.658825151537
-306.333468121114
-232.990631257947
-143.859795988415
-48.8206759043022
24.241389057856
58.1936676480573
60.9152158470447
46.9907000318663
34.2139927291579
50.3968971625342
105.971520390331
163.355118889042
159.979514778735
75.958511756104
-32.8860328691406
-93.1936512176204
-80.5555387965431
0.973994068411985
147.542806521388
319.013074719537
438.427483555058
473.093776333976
473.151042096193
504.850322097175
574.044955458011
630.602276372744
627.983747626131
561.838526636528
456.08073842112
332.389813576248
208.333481020944
99.99450490934
4.63987352629628
-92.1810823798892
-184.338618088636
-244.546050127797
-249.922718960507
-199.872824140395
-129.382950499938
-95.3677569524346
-126.099030227743
-195.431608386558
-244.278411363547
-222.272543322377
-133.727734752083
-40.0094205432765
1.54036758133408
-10.2977840969606
-38.809643336208
-65.4137812330009
-98.5304942746359
-127.789886660344
-123.518684801786
-96.3440623346811
-102.82032022912
-179.703730726764
-312.681718710741
-467.542077469997
-619.259979991651
-751.994018620656
-848.510557375354
-887.833238342059
-862.50732374346
-790.291168322166
-691.796199092083
-574.983493063685
-452.347670381835
-342.651385312276
-251.538551608137
-172.933722891929
-107.702917715398
-65.2430458789667
-39.383558079006
0.0385774537427329
73.9343865253597
170.498304386626
264.387703520112
340.114431156395
404.801016079449
495.315149176651
648.275339860128
845.301699994112
1012.4204774321
1089.10719604403
1081.4385488437
1038.44470976712
995.898398820525
954.013264006972
891.909048375328
793.518098739931
665.140920742589
524.967141056743
377.939974150638
210.021919722107
0.135602805232604
-259.2510566379
-535.372579120834
-761.182556777721
-888.164883903611
-920.236003438643
-889.089807836927
-813.392166497217
-689.016105138779
-512.967181289848
-305.885274972933
-101.234461406795
80.8053455054676
229.791364067056
329.418147498543
385.134640324258
443.430029749879
524.695073778644
556.751146594237
431.722948655151
129.547319306739
-241.152266758196
-522.846259486876
-619.571829721133
-547.138364744731
-396.507114418228
-256.616266968701
-177.914727441683
-182.388960485059
-266.935234968454
-398.583457536516
-533.318164724302
-648.982212659756
-737.394053893761
-760.1555030745
-666.21001875636
-460.370950417928
-190.84274483671
112.278901749517
424.554717157438
698.033874281944
895.404011466254
1020.69571086723
1096.9509497335
1137.87034131105
1147.71314155461
1128.76644843078
1084.90753582656
1018.71938928834
906.274936749361
693.456612103724
357.217656296877
-49.7612700812365
-433.539821095829
-714.147825311668
-870.675975312748
-964.677535604102
-1071.27556978583
-1165.04945790534
-1146.46661564815
-987.762787137463
-759.579167192992
-525.385133531217
-306.291079669388
-122.170059785346
15.3139835431098
129.281741509807
247.636719361636
358.517539268867
418.746466605295
400.451655655689
321.857814796527
234.135893562416
178.740516488315
160.290165633221
150.432198638378
95.8969621296753
-56.7187154408008
-296.125748523911
-513.69616817978
-582.847769351271
-481.297605447375
-307.509715685983
-169.922694686873
-93.2137181334829
-43.0055595851779
10.1221989911612
81.9350439779725
184.039664756334
306.406412907271
411.38817969486
460.397489234571
439.443861285176
361.433999417263
251.770396549432
139.2956669495
58.7710887723762
41.6786055157234
94.0313225750058
184.642495047537
258.995597690722
276.029750636453
231.272043114136
141.102725096425
26.3352524367741
-76.2506493407782
-119.839538670295
-93.5490802447954
-40.5512220301207
-11.4973433610345
-15.2888895389764
-24.8562354245292
-20.4051512331762
-15.7120643890638
-41.9994234217179
-114.34793640069
-216.000224993629
-308.459580655987
-359.915770102844
-368.465998300392
-349.129793032317
-306.760401303151
-239.929707189613
-158.578666519619
-76.1960434826621
10.8160807991572
119.071687023109
246.622570739815
355.642732927245
405.981674199179
402.250731403511
384.468944207259
375.816829723153
362.110214789417
324.026650146242
266.547438550531
201.557662599213
120.102194534297
3.28508951513589
-144.005897714691
-284.085927656438
-383.663481910908
-451.755415302299
-512.663917714897
-557.432581651266
-562.383237695205
-529.790314702681
-471.532364536842
-386.475930278861
-282.111914546097
-182.693735410132
-101.634780283805
-34.6226380658402
21.408932807474
61.2624281631043
79.6999532463823
87.8343960647889
117.650475730025
187.43708898219
267.948037851727
306.269546093838
278.222929596042
206.101915514475
132.806052367739
92.4527423126766
104.576581454473
173.093132639458
276.273021825143
370.097125080897
414.414036882844
397.590887035241
336.553939027875
253.683025822187
157.096913355407
48.9161163969375
-62.6245438290858
-182.332819454929
-329.63512388116
-480.536768275387
-555.039801062102
-513.35828991548
-414.661149322591
-341.191306677142
-311.007607513497
-289.783388015534
-246.449960876828
-170.724684814424
-60.5828796401584
78.8227499663276
230.163212279603
371.971627079009
481.518902964463
530.778167941181
509.668146131356
454.839809126396
417.430384631907
396.818179072925
336.854986141641
183.762616079398
-65.0659775920304
-339.433824944809
-524.992805309038
-558.422805514946
-481.283959277221
-375.239046651552
-283.81431366714
-210.34611208973
-144.289549789099
-75.5875749823927
-4.58272884223897
65.6373506342168
147.441221756822
262.475313742432
413.696753799137
564.007735954467
652.393719825219
650.490542833762
593.108513391793
539.206932110673
518.425353591819
518.870301626071
503.850273560056
428.416240270756
260.671520901529
18.2370928074791
-225.038096715584
-401.101097831519
-507.435953007043
-582.575472407182
-649.802026653995
-714.717957127205
-783.943245774253
-845.42285560516
-855.21429956367
-780.474472508017
-639.753159443157
-479.014699749312
-328.510873797072
-200.692147632573
-105.252454233593
-47.4009402416832
-26.1770599165136
-36.952151268745
-65.9585860076112
-91.0169043383826
-93.2801427462568
-66.4976370453021
-23.584196968717
6.97513060166417
4.97487371553363
-21.5953597758737
-40.1337462750134
-11.5554265101826
77.7108999093607
195.810493724044
298.373294604492
372.925253121215
433.215790403885
489.192558566132
536.887856749162
567.517771156658
580.828323252518
584.806543741104
579.646060138087
554.264891017968
502.423239726472
424.023382000112
306.866923584557
135.374518975579
-71.4277412059453
-255.709587649466
-364.727804119497
-384.861722809319
-332.003146286306
-229.795570760598
-114.503842224408
-39.6055234474525
-39.5971482648032
-98.8091591953302
-179.023818473711
-261.859150842453
-344.271657629645
-405.637732928971
-410.761107411771
-358.879037891778
-304.224589797594
-300.826680624752
-337.019235206891
-346.018083864972
-279.5325908992
-155.819304291421
-32.2310399670763
56.5086497301674
118.304480503599
168.082281710125
200.749338811809
208.683462592741
202.94564037653
202.430819638414
211.310429748796
224.42565135751
250.031686997186
302.656810426641
378.221615688276
456.602184166733
518.136744726016
546.18437789589
528.781270936586
468.313684314785
384.598190405132
306.48079717985
254.935040484828
220.736040987513
165.214829246041
59.6433370393246
-81.4964770247213
-209.464130074665
-281.010102012939
-298.732606987913
-301.799459806434
-307.468970085664
-288.540333964639
-214.650372265626
-96.1522801147424
12.360661534128
51.0230744192701
3.04890689941349
-94.9967792352731
-187.906868708508
-240.641109250434
-243.456774957131
-200.474355704163
-133.479071702744
-85.1725478618547
-91.1427305460078
-134.482982659032
-148.777415688737
-90.9147272808499
8.24229551837552
81.9646653968863
88.4025563130072
22.8313876783313
-98.5468932121102
-249.867719135635
-402.695320478883
-529.808497391198
-601.152992370995
-579.772728371892
-441.907784966526
-219.426196708266
-2.10655934398866
128.329907156907
161.007293470947
153.778686980757
177.000904757887
251.134007677601
340.748005888044
405.620113573705
435.351604125412
444.370042549965
452.731067620473
458.059545749084
424.245268297023
310.63797975419
115.461431053631
-104.142788781508
-265.19384704767
-331.130982296685
-337.886863637717
-334.349281015157
-330.16340058326
-324.264023635569
-339.363285702094
-392.234947379458
-451.585012819046
-452.120583120643
-361.567861036263
-218.242054118852
-81.0510060313176
35.1797514429976
157.841878094986
310.027886878806
476.13346785344
619.082575760524
726.245629330501
806.789254830726
844.774115413928
802.919324809339
689.20788879542
572.415318760907
503.799461609585
459.832592581934
377.566606028459
220.624909058515
10.5649255082166
-189.883428127024
-325.113940993186
-383.496956025664
-390.330506303472
-377.616808483645
-364.498051495216
-349.557239188067
-321.051958068232
-286.566141361619
-278.963899723371
-326.92386761652
-431.503119839662
-559.839713087489
-653.839824316051
-661.354579207608
-567.704542308614
-403.64829126867
-228.29215164674
-95.5390727806738
-29.6972085511023
-24.2926534444992
-49.4212132428065
-63.4562665446502
-33.3866353563891
45.7288598318831
145.69291329508
226.658118185084
273.529706187772
303.538837763676
329.933374664767
330.552265492634
270.104975308438
151.442639087928
25.9949347023577
-49.2507774831106
-48.0811578240161
23.4212082235827
134.531453246432
246.727966902309
337.665691745212
395.599890358947
406.586784193198
380.807222467717
361.886233418567
372.752994984586
382.696060744521
353.278859856461
286.275971149909
206.253169905049
122.873579690248
32.9853661664363
-58.2575810800262
-141.604611817131
-226.984825096758
-343.843428679482
-500.68262168625
-655.680537470585
-745.455370995191
-731.833738832859
-621.280977053523
-455.399121057294
-280.4881160896
-123.738680754962
3.28295826028987
91.621236501544
133.797501744933
134.05674149646
116.736521611245
115.773794958906
144.688035710128
184.608194606478
213.888433274431
236.540850272115
264.599520343507
279.800634248955
241.707912597479
148.209375519902
54.4820373621644
4.38333638179067
-26.4807686528735
-90.9478797635684
-194.279328059513
-285.426123711351
-317.701417606118
-294.121630458868
-253.297709438916
-230.216213377606
-233.740209409669
-250.891114428034
-262.407452844937
-254.500111134443
-224.314691455516
-173.12991924533
-98.6888162686515
-9.31082046326246
67.5559482524147
115.430709023937
154.463039608805
213.672963256075
287.316481819946
340.81464132996
351.27497529751
319.947577930233
258.684239280987
184.663170793291
112.02062157802
37.9361912232216
-48.0585047373293
-143.177643399537
-233.593833573931
-304.816288336241
-336.777080347042
-312.044943171138
-241.131679227302
-152.832945965079
-56.7376232674484
58.9026900738221
194.638328999781
329.03782454574
439.90395861464
516.448481178706
557.372153639824
570.505744632965
558.066778154302
500.041406469364
371.213005406378
175.375851948756
-39.7132445030666
-203.211744477998
-271.33699772716
-258.7913286716
-215.483277438605
-181.737057023607
-173.360326911246
-198.195372944499
-257.209858045536
-316.825414070572
-317.744823441582
-241.883504526676
-136.536503779883
-44.8592151200847
41.5843304457261
132.558251166092
195.198271786799
198.854736710586
173.466297094257
186.475136606748
264.868972752284
365.335982073358
421.403631769855
400.300438059449
318.311347867908
218.915665732381
138.527802350877
85.460648215342
45.7108707226172
1.30487281577412
-64.544786877519
-160.303055584465
-263.405847849057
-334.744185971531
-369.79437884228
-399.720501822732
-441.800370983482
-479.562358449571
-493.272418815883
-489.134951558583
-480.641369035471
-455.652903758145
-389.873932614737
-282.232431495772
-155.438033936937
-30.8564447789029
81.3926178762523
172.737679083895
229.873569703873
242.495338411205
220.113192940512
197.657279180212
209.201462337577
255.151110827613
307.622832469977
342.217702314959
347.942860507183
307.662937102359
196.507667287902
26.4186826524983
-127.963619513213
-190.587104329803
-163.386868150371
-110.964640174796
-82.5900906477801
-83.5229706615248
-104.403715673772
-143.694465960925
-202.577325896436
-270.441843643679
-320.939553423092
-328.339098059351
-288.941621718246
-221.842440576482
-147.738236332628
-75.4673125459552
-10.2748309447313
44.112900065565
95.5945860245888
156.384104242784
225.252110552235
287.952869185973
332.144889178761
356.046013794814
361.669485482008
347.000720362374
313.228352226817
274.840866972676
250.259819663036
235.548203438582
197.113782391995
108.967207818665
-4.59419139878693
-87.5926517009603
-124.231456520498
-160.314091883565
-223.560825065557
-261.047310158341
-199.947868927662
-43.3580787957385
123.730575438226
210.576480175419
195.238761615994
125.615036013877
52.9450636532782
-14.6869075306086
-94.264616304312
-191.624013890269
-288.710684906222
-365.169355102264
-435.459299488231
-528.616372800853
-620.119788097292
-641.902036582777
-564.507548082351
-421.357340675069
-267.620341999854
-140.226103228402
-34.2903033764969
84.2715161389486
229.731941805155
380.347186250838
521.844705958662
673.7153968497
847.808395728386
1009.59337552414
1110.92396540125
1143.43743093195
1135.21932023425
1097.78964409876
998.822033756
805.2595344086
530.259783009734
214.771124011888
-102.771844135015
-379.129562612033
-579.03550915062
-717.334576623899
-840.879893530354
-963.69629795348
-1063.21058547387
-1120.35491568373
-1121.58258062635
-1051.86206939172
-919.814062947686
-766.664035144671
-635.303271884458
-541.157608892493
-471.030487032636
-401.511589835528
-316.652807937554
-212.553114028116
-93.2265215335578
33.7927763914252
160.901881463459
283.950717000924
400.776187709474
504.104338256988
580.92721653601
625.508341881685
650.477068330369
673.593558216878
690.722541489232
675.852007925755
613.800509472427
514.851150697652
391.298870378538
245.046281563826
84.5050303444863
-68.9628020112631
-187.31676723359
-234.428458083927
-185.833161616937
-65.4665993691469
70.2840213338628
188.834039848271
291.740819493725
378.874584822747
427.670423040054
404.376101598613
295.141356392266
133.782656747396
-20.1310547444126
-150.660610108193
-309.823467755512
-543.206295484486
-803.040083453698
-968.708613316553
-968.931331238202
-858.297086859096
-740.022921755702
-640.711658028126
-510.427517928656
-322.903505088407
-117.899993325265
51.8920556672579
170.06717116731
247.967038554687
303.218365448084
357.200085992301
424.756350447262
490.936940239368
519.337085064857
493.727305272569
428.94375568003
340.426053944335
233.209579199588
122.121678769645
36.847680473253
1.58249896437897
25.3563175233052
104.717000112391
210.423029393662
287.311091782289
296.162188823965
243.821841726181
160.419287873179
65.5815267440495
-33.3521110617298
-130.253984022024
-216.497367916711
-274.187593054517
-282.314274969165
-243.043000044254
-181.244601738514
-118.774276272849
-73.8088183693709
-65.0641784349846
-91.8595838825493
-123.590107866297
-121.609323239995
-81.3204112357624
-50.2352972453696
-81.7862007559556
-174.82499878245
-279.003637114993
-347.878798950486
-365.186174376245
-335.081042337346
-278.735998133357
-229.262584754014
-196.76775218923
-152.627592451658
-71.0265157663187
36.5535595804556
136.073343459916
199.136700595247
221.927267935742
227.944466070927
242.886947105046
266.025455219545
276.573216008846
264.607888245534
246.727951022251
250.912655951054
285.489875134377
324.196237284497
324.70272542988
262.994496541877
153.865524863205
38.6771452715498
-44.3513120579133
-76.4632054326733
-61.9295969779424
-23.7078219739793
17.0634012756859
58.1322810400597
104.511642780107
150.031138486618
183.657009110407
198.176442325939
178.461873904401
105.578326726056
-16.677202870129
-159.60320511437
-285.928999639131
-353.370016721398
-331.36401575031
-240.837026210255
-153.667520747475
-128.848362067632
-164.059018849247
-213.11591716104
-227.233016904929
-185.229345501079
-107.891690913423
-36.6632888223557
12.3172760158658
57.9188065256005
113.002687334445
157.418326996529
158.954523795168
111.451588467743
56.027945648175
44.6609711156308
66.3680775982995
53.8286111859147
-21.918882487384
-117.060601064617
-187.906711838857
-246.466366840891
-317.23344967783
-376.8398503697
-372.667390468539
-288.65592707062
-171.775026104402
-92.6306463825283
-89.0436296760471
-144.779935732269
-209.971965826419
-248.311888710165
-261.007945670804
-248.357773616911
-177.948419407785
-23.2978888486481
189.381754163971
390.419436371975
510.508263919758
526.136677054853
483.453842420423
466.804780414211
525.495000706478
634.85078928641
727.663486267707
752.185179605835
701.232406217835
591.436873228661
420.954794371663
162.99479052077
-182.67341800689
-529.850311742733
-728.868862648118
-690.072869236615
-477.96156723059
-255.574317459838
-139.377076863621
-116.485750949912
-97.3019282865429
-28.2394655004147
76.8244602757037
192.549720002196
303.35268592389
374.990048785989
369.298486937579
294.407551908704
208.71836723587
172.445091547028
194.853596417455
217.34741800213
148.027162083405
-66.6704655504514
-373.211822960573
-627.606726685164
-719.642280196469
-662.033006934501
-544.177442556894
-440.792207241798
-376.466265979128
-342.541809387359
-321.076393326459
-294.495635991701
-251.031430592871
-188.965648125645
-114.022836967881
-42.5974330156103
-5.03771321863839
-20.3214142434543
-65.5849567989202
-93.7558113770545
-88.940207027405
-90.8021270901984
-148.239096773523
-255.444790354997
-357.125940285166
-410.678781619061
-413.492273753588
-378.268165804106
-313.024227869639
-218.036851266263
-85.6570784448347
84.7933073533997
269.274320621193
438.924713012066
596.856078132245
767.711532245541
953.072663205421
1116.76918023807
1214.26458742455
1236.07235316713
1216.88778040076
1189.39241455985
1141.35971235996
1031.60830042929
827.709288669705
525.657054981357
169.592760989841
-157.16587837401
-404.918163426813
-600.619978465734
-790.21319434764
-966.884837794967
-1072.2456049647
-1057.82201982537
-936.468937748957
-766.113480717796
-596.759369087519
-450.785831464173
-337.670172207213
-262.256223291927
-218.767862802208
-193.108840326861
-181.853271506707
-194.929196602888
-231.695644669188
-274.734637821766
-302.471652202447
-291.087355228814
-222.404146839037
-100.508035479074
52.8551625451257
219.403080793467
389.666651574888
546.425803285497
658.681769870348
707.317641346291
711.18496143595
709.421911565116
704.608893811828
642.375430580696
484.376383322108
278.254989251357
103.851538911646
-25.5018960286168
-164.451550459811
-360.913131061999
-605.863953614056
-831.297817126721
-941.710686751886
-881.926438857207
-690.884973481244
-468.330949088865
-289.480107210445
-164.992543286283
-68.9559981220307
18.5514186743099
99.4187127695183
170.465638673215
231.471949181383
281.761305376421
320.192987495311
346.530604384807
351.245047337128
311.666386824836
222.046699843405
122.028072255586
71.1381601326231
99.3196222841246
186.463892048073
275.613413109688
313.927375622327
291.540114249968
229.799267541017
147.469841283573
63.1398801643737
4.8075431585262
-12.770839651428
-7.69800671198056
-20.4880290606727
-89.192459639365
-215.783378843049
-353.945472349394
-453.415876873902
-503.099670450995
-514.333027191218
-488.523296417579
-420.192335860327
-320.957186530672
-222.665459285039
-153.095049837653
-119.6004268227
-115.142139050777
-127.815562261135
-142.02399789456
-137.447632228636
-97.9652054689836
-28.0178572645779
45.0941248300284
93.5186671865141
115.613690214077
140.032107934965
200.736956396563
302.358886376004
413.165548985385
494.133534112612
522.773461485985
493.611117499482
418.401222614775
322.254451555198
226.930388055953
148.268933066958
102.294890525445
81.3852067280238
32.0411434524519
-98.6873967593266
-292.054489176647
-471.962615367715
-580.843108830307
-597.381300501979
-500.648424491602
-277.753897219872
30.4643786560522
337.703652917421
579.916878451013
750.064436314699
867.06231132714
934.132760788288
932.251537177606
852.85373845778
727.298593753847
602.341392046912
488.3099375761
349.487701368706
139.851299522979
-159.859257849936
-515.208794400398
-830.690580897391
-994.740782474641
-957.759943530367
-765.971360639039
-519.399767235495
-306.439348484927
-171.996496596881
-117.774961028944
-117.322848740665
-143.93611801803
-188.046621026891
-245.589627443042
-307.759092570676
-369.449145752964
-428.525518694301
-466.93570353929
-449.109707430145
-356.793154093384
-214.391174327694
-66.8903096672769
48.6004277301048
101.547904816151
73.1813362894872
-11.100427319425
-82.0249915284076
-95.2961590910831
-82.7013279803375
-101.81055264686
-154.018826608513
-184.185936297796
-147.297124058502
-49.5285224430016
69.8451601296397
175.196206837967
251.700504922882
298.950790771103
314.471045549846
294.193438226156
251.073165292591
212.840772265657
198.035939964917
207.091154184486
228.665774963576
243.212792620957
230.78239699584
190.3240120165
145.949609594244
121.040211164085
115.869922716845
116.872112016
106.33644555024
65.7346506492247
-1.11607738487239
-53.5356863841224
-48.6032280238313
7.07351797692038
47.5096671241773
-3.09654402317014
-145.740080480577
-268.261286052838
-242.657427362877
-76.2061976198617
91.5094977467256
150.259413267508
114.108383691359
52.3677823308324
-2.01700853378683
-48.8152187107299
-72.8593501319023
-40.8438652011322
54.5086134921912
163.281207238287
208.36173235112
150.899865890044
18.9385291608717
-126.703178222075
-240.062252868533
-303.013894747794
-322.301878400109
-322.402112733165
-312.763117712844
-274.590588771688
-204.825875326595
-141.146944712611
-118.832447847717
-121.034742008737
-87.7345591003755
22.8442042683357
193.561790071412
375.855752087661
534.877331597471
660.083890121214
757.394831267372
842.418837276028
928.103722550234
1008.60784236228
1061.28921742143
1064.03288274355
986.602547459486
767.376220128302
358.153955329565
-176.8473166548
-669.077853708239
-990.502454379781
-1135.92263744375
-1161.61531975437
-1112.23367350225
-1016.41742405892
-911.135051169985
-829.501171647742
-762.328988461785
-676.651313824737
-578.108353377586
-512.33611811763
-500.473092376013
-505.251436749529
-472.988036320893
-387.742430305515
-268.773893035059
-140.344327538585
-22.3251319513347
71.0979575652495
141.404239308447
210.571430239778
304.490241397852
427.130745349092
556.624989846095
665.302398623184
738.25583385716
772.891272661941
766.740945427972
718.829573335871
640.302782139457
541.79953339873
410.145670907324
223.191803727248
-4.89961699827783
-217.942136247152
-374.325719169729
-486.821457399582
-581.49597949356
-636.11599599892
-588.794393675419
-405.694662673822
-120.002476203235
198.672089889257
492.659356321844
729.175518607176
886.053813037076
948.910949621363
935.197841217718
901.982422636662
896.814622488266
899.96302382063
835.103406860822
631.619197043381
266.080855408489
-217.755199956841
-697.923213975292
-1028.49647181167
-1137.57780730814
-1055.34861103181
-868.184177376444
-670.082511037877
-523.862337035958
-443.437754392754
-417.211566593312
-434.140722959094
-475.80009729977
-506.833827468058
-495.879017648421
-442.429344005808
-376.361245805118
-331.966960386072
-321.478855505535
-328.506247064696
-325.727871735559
-297.00937407205
-239.892573616243
-157.958664479589
-57.249981671517
55.0548260114292
164.548522907598
247.787743383579
290.583845444026
303.158393350337
311.986799271595
337.707924570921
375.666162949132
399.827723263344
387.876624711154
335.765251564881
260.478224235793
204.74073484251
212.367702056655
280.785932876217
367.739913863204
444.824056741028
507.095513295399
539.334330891403
512.758613414171
416.016177301991
267.554610656674
96.6400589388283
-75.1904743151777
-238.231747428925
-391.211895887969
-522.094352328595
-596.299787933734
-598.910338965841
-571.296086058068
-559.044462248538
-554.417193892584
-527.644141782169
-473.76122780161
-404.971843782929
-324.462706813293
-216.376517380064
-58.450704527454
153.378141961134
399.740650331301
654.94070554981
891.75016506608
1069.33200409061
1141.89792162522
1090.80802750945
944.412190193364
768.026020072444
624.00317084329
519.142144705685
383.022525353494
130.443315648218
-225.571465732241
-560.956969490692
-764.233509577914
-827.158305301041
-799.070228352221
-709.755071354247
-575.202202379071
-442.246911641634
-376.115584336094
-397.601066163505
-455.536859523442
-476.009037195882
-428.622983397671
-333.235524758177
-223.002224400187
-123.180829784526
-46.1429861700412
12.6756026790145
67.198998718833
128.397614591294
196.975036289098
263.189884827166
318.995435705588
363.499973086403
391.256878487405
390.916399527047
359.053688760704
296.95185345331
194.767168538958
51.1866269719123
-88.5553497541907
-161.811055885128
-164.664248226529
-147.022778146938
-131.256853912352
-100.976900309704
-68.6345536353521
-78.9747953439496
-134.663688477305
-177.066253252749
-153.860802777202
-68.4338777834271
37.7121216393203
115.651163247666
125.300256612325
59.3630686252675
-36.743104285312
-92.3608921008177
-75.6791193475266
-18.3020062853538
28.6582813739802
42.9446588466988
33.3519539616126
17.8189854871703
8.02541654859878
4.00971568548712
1.33660018739711
1.6373942806054
7.83246773549798
19.5833330256179
42.8030827261966
87.2096881597581
147.124327986144
197.316069803387
213.671888582284
196.89506014918
177.170237505102
190.416337469657
241.569143970774
295.223472923461
309.882323645784
277.609010031118
222.75161399275
167.606686793239
116.260243130724
68.4949134195707
22.8383044386745
-36.3075544853266
-127.706120694225
-243.724434428985
-348.45316363374
-404.425425274899
-395.972477369435
-339.02216743396
-269.212944418175
-209.365340615805
-155.586845806934
-100.643897133011
-53.099760502208
-24.9359540092822
-15.0524494442542
-12.618978766533
-8.44995400798782
2.75514120891065
22.1905396518096
42.5611431532985
55.7492863694478
64.803010441281
76.912836329193
92.2302555327476
106.338342121103
114.676029291828
113.483848939082
102.751920081206
86.1754525298537
67.0294164812059
48.3614692395609
34.9597757045247
29.5566669332514
28.6845123596446
27.3866486279018
25.9502140264137
24.327911169133
11.8834330210925
-23.8875944841643
-77.4376645967352
-129.362403388241
-166.857451042455
-186.611672572042
-189.924699805882
-185.213377462348
-184.25219296822
-190.723911326156
-196.374645528979
-188.63115495198
-161.155478576448
-117.632293445468
-64.7383637083657
-6.49237753105662
50.4194110504487
96.059208838077
126.458406835618
146.158693369126
161.585720331842
172.169286933969
168.323680431733
144.211938255331
105.276544368711
56.1968126802147
-2.50164906548263
-61.1390104917151
-102.671667369143
-121.072318161061
-125.945083782332
-128.071460083375
-127.74525528386
-117.522566096176
-92.7980220131065
-59.4813415074558
-30.8220237733081
-17.6209526798085
-20.8089873769367
-28.2595674832315
-21.3826813008423
7.5779772441884
44.1540901317142
63.7984413527038
60.909261699569
56.7934589115217
72.2509910439597
106.471377145982
144.999317273076
173.501864094609
184.426618317407
176.713579773614
148.843529221053
96.7095362904321
20.2945284297756
-70.921339138818
-156.025880415969
-203.775707418638
-185.399466075238
-97.2838817345155
27.2376723228129
127.948074397386
147.858295986677
76.4777149592896
-35.5391638683663
-123.594345943575
-161.175240532144
-155.249448244177
-120.054607668771
-71.0710651393385
-26.7191522710765
-5.5835901645293
-18.0450632040445
-57.3751167221393
-102.000622144901
-126.693579401945
-117.613011891076
-83.4310389035087
-42.3431123464658
1.53166094795706
53.5054716824796
107.358182750143
146.610753493556
163.567663521504
171.493680084286
196.9612443073
251.083885854076
311.205503772011
346.76793080336
357.268946904557
366.441701562662
381.708911769575
375.627212750157
318.159529814505
220.720171143586
129.927817649758
81.5091704112511
72.4208186416052
59.8538851919165
-14.8862989604629
-162.975078375736
-310.734648224927
-367.112294741363
-316.82151922555
-215.36384908269
-120.680708160345
-63.1231518970573
-54.8994471591224
-90.8835233197215
-145.975632009999
-190.91098824229
-209.626444394726
-202.109145551051
-179.020507511407
-152.89813263512
-133.068933803295
-125.916766328008
-132.579238535597
-143.398163471201
-139.447294783851
-110.263283227459
-67.1370790744386
-28.1102589974418
2.33809394686722
28.995392065625
49.4134585119324
54.4729268365424
44.7134796798874
33.8742954458957
34.83147150686
49.4468462434369
70.6637880312221
89.81131541599
99.95044807915
93.7488025181435
64.5108856647638
14.9610094456079
-34.719984410112
-56.4530708886495
-38.5426409359595
4.99380078358145
48.6434349332257
73.0692799543647
74.8407232516887
62.7969523967157
44.9636124060488
25.0473957050093
7.11693374964364
-5.40721111627902
-12.1026041539932
-13.4718590510731
-8.81271451179619
2.16377157089607
17.0951489205416
32.1684787850623
44.3477439417556
50.8126439777468
48.1694638753731
36.7876621426744
22.79691278537
10.2235212548378
-1.75844595705694
-13.7078783937081
-28.2174317528342
-49.3840851301461
-74.4753221622501
-97.8325477560668
-120.524907081508
-145.338436428865
-166.954176151367
-174.803880720293
-163.288720021751
-134.290536598579
-90.3464753915314
-32.2400979181416
30.6164797181119
72.4044086054348
68.5021963290712
27.3993912268961
-8.33501462846369
-2.93908050318471
37.7150002573871
76.1031794319974
84.4740048936464
69.3046068018824
52.9973590186767
47.211990278257
48.4947009106677
42.6398450987624
13.6136264548233
-37.297529930054
-87.1598341386002
-116.706017982758
-131.03744448581
-147.136072873779
-168.771361756749
-183.966732387741
-185.973093175205
-185.359026567326
-198.51239393467
-227.79056480761
-250.471614275934
-235.010029591355
-175.011674622085
-92.526306072414
-4.0531231093916
97.9229416292147
223.449531899605
361.357084996399
488.649779521412
596.494280507258
696.999443674532
802.037546350562
898.530216987422
952.208283667265
932.501558531045
823.260291438844
620.121472035847
337.535051416321
18.9700779429245
-277.522606341914
-514.298067765816
-679.54781001183
-762.247488630298
-759.758187089856
-705.239634605632
-647.624549472289
-609.666247104657
-585.348919397686
-560.26503151967
-522.002526980187
-466.492728382629
-401.68809538623
-340.371594246819
-289.830674728786
-245.337671167469
-188.466129452036
-99.0559644332922
28.1716119197653
183.386472513115
349.406252551954
504.323207148278
626.617708931689
709.733658170211
774.684902178247
849.985720091571
930.068996387973
979.291348636547
979.391633116006
939.54057817275
859.925638832099
716.318882462293
480.369635118327
137.402814611885
-294.959007147083
-729.071680363745
-1012.68474183562
-1042.49134648338
-875.336221990083
-667.324342824063
-517.968087997919
-431.426275179579
-384.811813882157
-358.726025871901
-328.924980916304
-280.735211261471
-222.376481081956
-170.428518764101
-133.358696330892
-110.987768409991
-99.1079887421262
-89.7058219705372
-73.3309625290941
-47.3675057849846
-18.2309854503209
7.25711867197013
26.9527366078017
39.0995144915558
42.0272118668488
37.562473000306
27.2414307040086
11.8380132215246
-2.82800131846852
-11.4526233977123
-17.5780494747573
-26.1264797932515
-35.6469710969294
-43.2629536732374
-48.3779084470523
-50.1930236214024
-46.8331294562506
-36.2319676540222
-15.5745869005115
17.0990990243338
58.3716612569445
99.4380496606717
130.903443505337
147.776028391746
151.715273368165
148.788261180973
145.904693072578
144.872911918515
138.939708800548
122.933543622402
100.618080236788
77.7969337958622
60.1464223205743
53.2667879805186
55.048496556398
56.8409593767406
56.2379405826197
60.3844672279946
74.9363751623428
97.2654763248434
121.076560518501
140.704481268903
149.68089420745
141.242548378926
117.370766971778
91.6650433465268
73.0972355072228
55.1050768818864
25.5564876113736
-22.0674569489386
-82.4906155273729
-137.428506494805
-170.445199369357
-183.062415086354
-188.225815973147
-192.816201182309
-193.879512927998
-187.03693216133
-169.928032035586
-140.889290076623
-102.738191599565
-66.583934056112
-44.0785744583104
-32.9978876450377
-18.3865123680209
8.54285063466136
40.6826785087728
62.8798009949699
64.2610752691224
48.1521718548474
28.7239386956667
14.6508972842888
4.66865151455137
-1.11805025988155
2.29091927139816
14.9955193171366
26.9428833749476
27.404979940457
16.2209805035093
0.725349175662251
-13.9661321237122
-24.9144286478133
-29.4199035193605
-30.5488096488612
-35.6635073290222
-48.5321337028675
-70.0794906850834
-98.3213783592152
-122.483673928888
-129.696664131645
-119.588678529139
-101.412505961361
-79.2574981664446
-49.8745478119292
-13.7611088982727
19.659732818852
41.7496887432801
55.6688012216247
75.3337039414009
115.041969938193
177.557212445479
248.435741882194
302.253362019058
318.837074203079
295.917403834819
245.492090082689
184.860021713742
133.511371450684
102.313626308235
77.3273734295547
28.9104327359972
-53.7728489597581
-148.350178720896
-222.692828949511
-258.397884122183
-253.186243030037
-217.636383678839
-169.648940544858
-122.939467980976
-81.0474119927433
-43.3588990673925
-11.4062918799002
11.9121945914409
23.900407169725
25.3482709505943
23.2344216580584
24.124276783787
30.8295008958292
46.2896929725991
70.3945215269591
97.2438649388785
117.220549642236
116.306960149107
84.1617416367653
27.856945561663
-33.7350045019086
-88.3174392077016
-134.122350149843
-168.584556077815
-182.01354563976
-164.851671772395
-118.166803265775
-56.8261276729042
-4.8078405602238
16.7570148684402
7.81117359325711
-7.61667224499646
-8.10631094000753
4.43121454289092
17.1463428801208
23.8038641561277
25.2721521509174
22.7841590074966
15.8479349238763
9.10967895627733
15.6830093459983
42.6915474174893
75.6102409972006
87.0161962292783
66.1378256144495
33.7114196813243
17.1867047119676
17.6684835330659
15.2055064670645
1.53132244064427
-10.3277288480575
-9.0230373443638
1.01684523260021
9.88023649056625
13.7335541373744
17.3652890605598
28.5650459913592
47.6915119846929
64.9991903739004
69.0472894789326
58.1002559705924
43.3854095095591
38.6292452363161
49.2450597388863
74.0569809095594
111.723597907423
158.078252541851
197.858109339014
206.746663573377
165.403970142844
74.1345466516372
-40.881571774536
-136.593302736195
-178.61091767022
-165.792066061558
-126.5383290373
-89.4330355413012
-61.2277730177776
-33.149401583252
-3.47707148850156
14.8443360836622
9.73653562683695
-17.1164361749941
-54.1371549730127
-87.8866537228388
-106.747474041735
-103.821671918511
-83.2604250234556
-63.0704133318438
-59.8263018031652
-71.8283411460841
-87.226215658079
-96.7300616777678
-94.0036907553602
-79.8252909456684
-62.8333748425135
-48.5097677009009
-36.0754208202155
-25.0899447613701
-16.7123632879845
-9.8197997319406
-0.234074142168945
14.5899797503195
31.0979195778529
40.498447599881
35.1721274095376
16.0865961905276
-7.51992713688902
-25.7595031775313
-33.7648554398985
-29.9064011488185
-11.9496270271711
17.4617917232873
46.5779420705239
65.6405677517496
74.135321641191
75.5887566485596
74.7483871516365
75.643314569267
78.6856607266156
83.0957387470693
89.8248597814643
99.2431764290651
107.875548408162
110.244514570422
103.898518719396
91.4864104781237
76.8471475392247
59.3876140345757
36.9826371160332
11.1529900165856
-17.5285858076782
-49.343538007127
-78.3683566737202
-99.3443371993081
-114.847979668647
-125.308904805493
-125.303480510342
-114.142967483175
-98.5132696560815
-85.2835522330018
-78.360877644057
-77.7802307009769
-76.9158273244318
-66.2453601692798
-43.6520418580823
-17.5817846713262
2.21862511641995
14.7235918214408
25.0954611362916
36.0354017504101
45.3687345967436
46.5371310616293
33.2705240086609
9.19840459714539
-14.097516652752
-27.8410532307275
-27.4934767608655
-11.5148074408786
14.258836226969
38.6887546258838
56.5887956500857
73.108879580482
95.0735398361326
121.889520480473
146.567670937824
163.691528894152
173.448624868276
177.865715686219
174.837968073916
151.584263908489
87.8847528349073
-18.2377609849177
-132.819082088534
-208.670360916649
-221.379542931578
-184.926137894353
-140.696462587058
-122.752310731045
-131.247907291042
-144.176824348548
-142.89547658617
-120.950772930192
-83.0430319734964
-43.017891435779
-16.6646130050312
-11.994038009895
-23.5460150024417
-34.9950503574457
-32.3468417575197
-13.4876325081379
15.1721860458855
43.4041834397167
64.6782819668175
83.5860876565526
103.098962846117
111.380934811379
98.9121707325213
75.0471660117545
53.6528833892409
36.4000751801759
18.8619286965963
4.4185713528344
4.38203560805156
25.0367093343054
59.3351424964395
94.1307679160136
120.972515932209
135.172106206784
133.435794523638
117.401090211836
90.7737604143119
53.107756202375
1.87050232337466
-59.1692048908146
-114.77943941816
-147.044668556221
-152.571485416973
-146.837076631781
-147.459355150136
-153.542032130248
-147.710944667841
-117.949709741278
-69.0079105878353
-15.4354584298751
29.8125444112923
61.6070400364191
81.5926448803769
95.4828102359056
110.514182061342
130.245358629397
150.682616515489
161.403456022572
154.856971542009
138.139319392892
124.477672619066
111.170538481006
80.3238214961366
20.0743187290676
-61.6220226056623
-139.112258277909
-183.994146164674
-184.465439435559
-154.757705275465
-121.66548562579
-98.1521013054725
-78.589423573455
-60.0519645191752
-50.4129766794033
-51.5149447472173
-52.8145291295903
-45.3586565442655
-28.192969027094
-4.85612233639497
16.8625673425044
30.4899494162662
37.9951171084052
42.3558181216497
39.6764232844972
27.3758392684195
12.1346150792608
0.53448567677505
-13.0956549817749
-37.5678193381376
-66.4962033788632
-83.3065390907176
-82.6476976323212
-72.8316241515301
-58.7614956532769
-37.1732830585573
-8.32006944475992
19.3794452449868
36.1296147957089
39.7281460041359
41.0777711003414
56.031278771252
87.4108166297903
122.64479013028
148.073954633549
154.759240036923
136.615067548063
97.1028012261429
52.4290957619397
15.7308466534844
-14.482252936838
-41.9782531738932
-62.2020669317113
-71.0199321934977
-71.5041516841357
-64.8881701861998
-46.0181648016955
-15.3143117522047
16.4903203671094
38.3490746819508
43.7662210681965
32.7350157998229
14.7149785487777
-0.627595322052153
-11.1949889650355
-13.8209109650556
-1.67837010921404
23.3042894994015
42.7697853052188
32.9548745094111
-8.32952683028007
-47.6968608922279
-44.4776568762934
6.67924349761185
72.9497776469687
114.526463704546
109.727064471084
64.9915158065791
6.89266359438837
-43.4277498263027
-82.0872847814449
-109.480432649157
-121.627904517504
-116.788232626789
-98.8789531818622
-71.2542180821598
-36.5320116776885
-2.12884615363069
23.344206335277
34.0938001486394
23.4660760177449
-12.1678612038625
-59.8440343658652
-92.9888463212783
-97.8920526457898
-85.0146141216566
-68.9650866434579
-53.2442933872493
-35.4423481736558
-15.2830120013815
2.24122567287684
13.0066682333599
20.9787942958957
27.4383649173389
21.9035959882462
-2.98274541489748
-39.618242515517
-75.2678121723472
-100.849993261643
-108.259330998578
-91.2199043392199
-51.8037724675243
-1.65783332949252
47.7293515307587
94.5344839355512
138.63172297547
171.398256661429
186.436599930053
191.579183925274
201.210813694598
223.881954443632
255.33449630637
274.110945095619
250.419177291541
173.874622095608
72.2637126493734
-8.80058694832521
-46.0704993192188
-53.3948525645075
-60.09034238411
-79.5476402715774
-99.585186379385
-104.90775714116
-102.771122219956
-112.141050997836
-133.262383139217
-151.461356249948
-164.59425352347
-178.56463199357
-185.070081340931
-172.024624223376
-145.204865867275
-118.963744787132
-97.3424198006161
-74.8375852508363
-46.150600874145
-12.5705992908983
18.9925190016602
45.5663943107879
71.4910161598343
99.691756745633
127.115948727113
148.681125531521
160.265599006125
157.980662147084
138.903864541468
109.085842373206
85.8240710295263
78.8149885642368
75.9795273790835
60.7023044426845
31.9546384766834
-1.36164515018932
-33.4631597667674
-63.3714280628032
-90.114558076767
-109.070737852675
-113.392186330737
-100.88837107594
-78.3641820915551
-55.0214270032832
-33.1244105963636
-9.34786401455201
14.9142009682043
29.7764079295845
29.0886257471398
19.5398437524354
12.1111054883136
14.3911438958158
28.4262552082239
45.1040283753446
48.8776222433267
33.0759210374427
3.7403283981016
-27.9938249012055
-51.6897798561517
-60.9250071369975
-57.4196580858078
-48.4815423680989
-35.7931266717757
-15.4706982998803
9.21741526306371
26.976699989569
30.9339435041769
25.4026950269618
18.7824671287008
14.9057995349564
14.9018704793385
18.469279834984
20.4003167590007
14.7017034922047
1.15637262604038
-15.1214916676397
-27.0348340322113
-30.0014198410526
-24.587394552619
-13.6768509987489
-0.354600614727145
11.5869019622237
18.8058889588289
20.5377064664067
19.3021400260645
20.3222467280989
27.6635338812602
36.8867701989673
36.956453982745
22.0859064352443
-3.45047303543219
-26.7294624419753
-34.3070068475606
-29.1132946203808
-27.5807817129768
-36.2586499039124
-48.5804058555183
-59.5796637993467
-68.3624205226353
-72.8280442979495
-71.227326507757
-65.9673215109298
-61.5091938912442
-59.277236762177
-57.5298021403249
-55.0216640999696
-51.3324018255201
-45.4594473683236
-37.5722950760078
-28.7438026880577
-17.7713030786139
-4.6297821316373
5.98778707132372
11.9360132302958
17.1246235857153
24.0835319724024
31.1990087602387
35.4317795791696
32.5169712826104
19.3523967060188
-1.32953009394558
-22.7138425897297
-38.3973281104267
-41.2699860418351
-25.2012627877721
6.69382107630527
40.9720596044898
65.2819623972562
80.859921585932
97.8762645212868
114.647300014674
113.664801417029
85.3399877622571
45.8885848402026
27.3207066189751
48.8962285055533
97.5484575960534
141.613923652536
160.518470593879
156.832039929753
145.752585865675
136.831636874927
128.671154260748
120.109794974718
114.479597405003
107.387655099975
83.8926565207278
39.9294115754246
-3.3964680269822
-20.0195340924235
-9.67710641978104
2.62455747318055
0.0807042289512883
-10.0492261425198
-23.1638961740637
-50.9346064293384
-92.7380787714235
-122.321468779715
-116.587186706183
-83.3768696778282
-52.6335485280113
-42.6446238195032
-45.9065805915125
-50.830362580389
-59.5711496171823
-79.3221414825996
-115.599686110279
-171.488806447599
-232.205792054185
-264.483055956271
-249.142085733984
-195.186089754799
-120.233785408419
-41.2317854248572
23.8627560391842
66.050711034452
92.7417695322692
117.182189194328
141.39210520016
153.457513658903
141.338204116982
106.984477535084
67.8738005004528
42.0176751999129
30.9359844287919
21.8874783739884
2.94009859108303
-30.1908698492824
-73.6148732815554
-110.795182943381
-120.385448162922
-104.188478637661
-92.9961225770319
-109.238814479616
-140.769981258034
-159.415345652957
-149.153702670063
-115.564731750678
-78.2891123585165
-58.6356436343201
-69.4517436450448
-101.408301904945
-121.270179670693
-100.963071932825
-43.8757132838533
25.6274250291998
85.1366651180066
125.15448253721
152.780746791924
180.651290803218
209.442049413499
233.446321580251
253.680432050417
271.672318005224
283.093601323726
284.12703163393
273.27269336777
247.007329675719
199.752988626209
127.840154751194
37.3800681391745
-47.7958480593896
-93.599384787033
-82.4877255580839
-33.2075254463786
13.6053501990806
29.4602018055918
11.2679850312195
-32.7928140887787
-90.9691326724173
-142.496168991288
-166.768821597741
-162.052873087068
-144.778679195731
-133.1084074385
-134.824721401671
-143.104147114486
-142.091047990726
-121.925365478163
-87.1517946181758
-49.7139675911904
-17.8022377808932
6.01026854538135
18.0852042261515
13.964744163541
-2.05538561718644
-17.9359180801705
-25.8819305912996
-26.5429466791642
-26.9787740534536
-35.0989509869813
-47.8592498139744
-52.2740079080852
-42.1003243895464
-21.7665403167275
2.01398174328877
20.5284455283482
24.3133433067385
15.1908646671276
9.10370718979365
17.0967206056842
30.6670687569019
34.6573131705706
26.4263290360875
16.9375216418812
19.6617460167401
38.9612498643906
66.2526284123704
88.3430429532995
97.6537815341601
92.2454837216664
69.6513224857144
31.9527606575856
0.111593956283418
4.09519267417878
50.7596205049171
114.471378445238
159.809480255257
168.174093691764
146.778309596251
117.546883305076
99.6007231116139
100.282465444532
116.586972022308
139.697275933216
158.571320769988
160.71862769629
131.014063156253
55.67701928498
-64.5823245236289
-198.031104927581
-287.83894406117
-296.990438079963
-243.313241099713
-176.71014687952
-136.18329693855
-133.642045679429
-156.674785677889
-179.936262718067
-187.066322855308
-182.47009394643
-176.208775905825
-168.315417084558
-157.167891260951
-148.429991572234
-144.472708981963
-136.674631469867
-112.680369445521
-65.80680276508
-1.89846955237517
61.6271032787694
108.750382990707
137.945058229344
161.316903717499
189.186305960578
220.363024220878
249.291609109891
266.18058087351
250.194965148235
187.810111642024
97.9873180603747
20.4055611847008
-21.9068530913338
-40.6483440793267
-61.4421185303426
-90.1384937335704
-107.992431377283
-97.1162938054011
-58.3242429669164
-7.02610751851424
35.4838485950191
50.5449750082205
32.7464618234705
-5.48697434844523
-39.2970148230842
-45.1876319917005
-16.1400226938044
34.2337265029459
77.2781045130464
80.5983168808322
29.752970690913
-54.7752208168632
-134.214106193821
-187.271593835684
-213.805308069244
-209.261158413596
-162.916590786537
-82.4570986202436
0.267145832961188
54.7119269596281
75.8847138584848
82.5479309263893
98.7806724658855
135.208556203949
180.236053232604
212.772410850319
224.350335278584
220.590719022306
207.526993529387
189.980715360043
175.363111025592
163.130397193153
136.230709230619
78.0742382408441
-7.83601114614617
-104.697780672647
-196.499604394442
-266.345478940099
-295.118701122032
-278.899920674495
-239.878997348747
-202.225438226209
-167.967038968003
-129.887066221649
-91.4553227437008
-63.3753623468092
-49.4593748865285
-40.1964758178269
-20.0096768280507
18.3585212349828
67.7642599944968
114.368984484597
147.509518248304
162.5864350035
164.295298332835
169.574906091669
195.807042395788
242.820865953716
288.907956268491
303.724567163628
271.002742685242
200.511705020599
115.905463472166
33.508183424639
-49.9832064776996
-144.889053121815
-238.250227415739
-291.168822082917
-274.298964449228
-200.96150120735
-124.389069292665
-92.8147124645355
-106.120838019996
-132.33130747034
-155.036554583771
-176.195493889002
-187.042924230343
-171.037034804502
-129.386874882925
-82.8955116005283
-52.3117208288432
-41.7601642060008
-38.5204589183167
-28.9555084335391
-10.2487756913165
13.1122742768759
34.9715693890643
50.6995410501839
60.5203109701866
67.9171034424698
74.9275777300082
81.4353182092165
86.8743137449682
89.1725769265955
81.6640711724195
55.7022046505011
13.1400128607488
-27.6816585911651
-48.2046315088901
-47.2169829443305
-35.2535024518427
-19.6888683608405
0.889425494294676
31.0733595228983
64.6834803038042
84.679065266235
83.2727184900526
68.7860067465675
56.5802286467837
63.2065659158284
95.6016647228509
141.032779395036
178.247167354521
198.92845953916
210.023113496855
212.041772930391
184.235258915406
107.635234586595
5.73483702195693
-62.6476720029466
-67.2102669545569
-40.0820481443438
-35.0118011399487
-71.8350221584721
-121.236242379014
-136.556837116107
-104.645480432072
-54.7381050755733
-16.3947342151146
7.15470589095231
24.7370648118394
42.6550233727688
67.7823636861066
104.105997803237
137.31049191996
135.881384297656
78.2315922086031
-25.0369475626813
-138.178105182221
-221.26808967084
-248.058865550147
-222.776354819815
-179.425548969311
-148.643406096382
-129.340835788056
-103.220867591175
-64.9503474729347
-24.3968483736794
10.8990117170585
39.5459620685174
58.356793884963
67.204817125591
78.1493916475695
101.382951881635
120.158230040949
100.451825605233
36.3176873004178
-31.9783244030601
-55.1954266574605
-22.0823320251746
34.3455862738052
73.4326289569926
74.7337869933756
29.8371427958161
-57.4188049179009
-154.750173590293
-217.152765017109
-223.176791968776
-185.660991040643
-134.540215993293
-90.781674619515
-55.2065236511156
-23.1050195952598
6.19737987459717
38.5722026292149
78.5976319024666
110.945571575307
110.4589992796
72.6965762505951
26.1702410363854
6.76820265742635
14.7814414186477
11.200250428675
-35.3735041881605
-108.333379177603
-152.357358802355
-125.447956758446
-41.0042065047794
51.455889393445
114.191562512454
135.307027081607
120.327422246304
85.6755725729069
46.1226928670906
13.3252953059989
8.66629536519094
50.5251136613233
125.36308371206
193.391434768982
218.804211323599
189.862181694554
126.703650184372
62.0362955478
4.45188360714772
-60.034445101147
-135.037682548586
-204.944408940455
-251.005735118306
-261.8271736452
-235.461751908105
-182.051895036677
-123.194394777307
-82.4464924791815
-69.9650642473791
-73.7602586893209
-67.5071237187998
-27.6655005316635
50.1692927855897
145.047644210267
227.320316698008
284.006281360697
320.178675637055
342.733428361768
354.376698697228
354.307299014617
339.280217367074
307.631100900745
257.78550991859
188.500622509337
107.504704341654
32.3258659851652
-16.222436779669
-21.6878025077902
11.0497293979248
54.0781193953799
88.8179584833883
114.182008835486
115.507149875931
73.2341066471519
-1.2391750619885
-83.0277724312774
-166.031311507013
-248.707188443788
-312.178853022077
-328.843965296293
-288.602713590918
-218.459597309466
-168.277386154782
-163.130339667919
-177.416644196851
-171.338172868552
-138.845515546938
-101.384624567482
-75.7338305182134
-67.6478160827188
-75.6980211146078
-85.7409971134232
-80.7381225225511
-64.3316324496485
-55.3878028714043
-60.4101579314938
-71.8893876058169
-86.6153326940122
-108.463374952641
-139.970580136152
-178.002022709623
-211.955133250048
-228.28963466621
-221.221402251594
-196.096149071087
-163.616942129847
-134.025349795823
-114.127346246586
-105.052524359754
-99.9414377560828
-85.94592690238
-55.6213785253035
-17.226537321618
13.8679627549695
31.9294002866605
43.2782342063829
57.6330376467143
79.5388838241391
105.819107610494
129.68703398993
143.066312710199
139.197246050067
120.862459398663
99.9440707775773
83.7048337957716
69.5708762150008
54.874566446681
40.7774906027777
25.5870418670883
8.64237109231785
1.32201080091393
18.0300530547811
59.1223766962209
110.119778391464
149.026303268775
161.644390884067
164.260176914316
199.686168694376
291.561999823115
405.111946497248
473.481183274778
465.594484779762
405.26867555224
325.836818760194
239.065550814732
151.981005385211
84.2338103460056
51.6247152719883
38.2539411755954
4.65435848751528
-62.2168657071821
-123.994157936143
-133.543264564104
-88.2996187668416
-30.3002617389828
-0.612194826904155
-4.34819273721491
-28.3029361522899
-72.7470792865957
-137.361110270055
-195.429053391179
-216.764012641842
-202.881164247001
-175.536490057446
-145.943159160518
-114.162110128325
-85.8483804605204
-71.7969959587088
-77.0287827291792
-101.106546059528
-142.698440536503
-194.721904292991
-236.704864486467
-240.616171032847
-194.410214216883
-119.192804421988
-55.766003382785
-36.4377447379481
-68.5935274092469
-130.590723430203
-176.498064182942
-162.631954439841
-84.9514638044146
20.5455904052658
116.209659012136
186.413988054671
228.230229904946
236.996274023782
211.532020310509
170.752232342505
145.563339322841
145.472801959764
153.135478940757
156.125336207817
158.437062052636
161.121761574829
153.01580115335
115.176131680975
32.1198458357725
-82.9505249784649
-178.252942030052
-200.523015420176
-148.599480610572
-81.9224997572608
-63.7282376016107
-98.5712987875417
-140.481882460455
-153.105685584193
-136.483068453456
-101.630274016041
-51.2918776629222
11.1586979378744
73.2349853689983
114.958174322765
121.461217464731
98.0270532328403
64.6260184028245
40.2342339667206
35.5604078568748
54.6214809501616
99.7150063811239
163.002491249003
215.585804686661
220.443409173147
155.467744760011
29.9833778956751
-112.545058959413
-220.009257814294
-264.713351587266
-249.429085334859
-196.132023482252
-138.283076188362
-108.335813309552
-116.296966181198
-142.601363139913
-158.236417560488
-151.285268197191
-135.240913882745
-133.084941219645
-152.157269749
-178.473143435398
-193.967028067258
-190.496868606151
-169.332949027917
-135.430961776555
-93.1782315765146
-46.1005543677296
-0.310238322971567
39.024625828407
77.4634694247223
124.23491262164
174.710103216643
215.152993872618
241.480514826959
260.932343178103
280.796171603891
306.482488637766
345.708128678083
400.24058975232
456.313217936389
498.601246119217
528.004899652861
552.583991578947
569.712496040862
568.174418803047
542.778834320069
492.508506739358
402.872705486462
250.750622357081
38.3946687940887
-187.936415192802
-366.412728242886
-466.373792810058
-503.84404625419
-520.288133211903
-542.587390530873
-554.546600759513
-523.860383151633
-456.966399754207
-398.426579254832
-376.99713273431
-377.754867652544
-367.949814402046
-331.323191570498
-271.897014356763
-199.804768378246
-125.983934621085
-62.3660843601629
-19.5618809895253
-9.45342433675555
-42.6607684291104
-109.748747402729
-176.538173369602
-211.088138696672
-202.903043339227
-159.09685678187
-102.542499618103
-60.1663657612529
-38.561986708986
-27.2366537909075
-19.4093470538186
-11.076940706803
6.98535941156146
42.9005315998199
92.3758970853335
136.791798612076
159.114230596453
161.752349894875
161.823024795855
170.895874226755
183.597975050665
187.764206818559
190.368908314313
227.857944609733
328.955398384127
467.777053542317
582.326666179223
636.669380626159
638.519378785841
603.106292555984
523.452940164727
385.252266237568
208.102877387994
52.5172233858722
-25.4083565351156
-16.9306650123882
38.7387807404585
85.2330723074181
78.7593051785999
-2.87453212069737
-156.45881685776
-341.434710066009
-486.179224951307
-533.570734791551
-481.801131018569
-371.57802031577
-249.891178615953
-151.757563770663
-92.5656819360352
-68.5255954350689
-72.3593628093926
-106.926286883836
-176.199493764106
-262.057837457247
-321.122919353626
-318.702655285193
-262.950365780091
-192.012847312643
-131.119545093702
-76.7465736432461
-19.795401526075
32.2525623357903
62.0953433665248
64.5189678258344
53.0440445134186
45.5347371055716
53.9443891090868
83.9339609327114
127.853409313973
161.313789469787
161.506361058086
132.947135101113
104.097589550096
90.7412805065831
82.791047620008
75.3185728462365
81.6484770188988
106.93386070925
133.824374397848
143.469175909309
138.243125369802
131.391714056175
120.10199512824
86.3853588522293
26.2822621473149
-39.3455388453669
-92.0306846913006
-135.89367289751
-182.130456137126
-233.78669172405
-288.084129522468
-336.535195632824
-362.699630457733
-348.620603397532
-292.768057561328
-222.211481404916
-171.698199774264
-148.179695247447
-128.282216430225
-87.6605641360838
-21.3202520988101
57.1717890245883
125.494106236827
169.116761223878
191.38367322038
206.079274349618
226.55418844634
258.517351414304
295.520774787581
321.622663487012
320.498664333303
288.291610520314
238.69794450804
187.041879856386
132.381566041401
63.8155407859711
-20.347709512167
-104.953728401472
-164.51541086062
-178.875459778565
-148.085033176721
-89.1304289827137
-24.9792982121221
19.7036235777811
28.1194181089047
-0.431666219317636
-55.5924100256716
-122.05629487697
-182.364341388027
-219.823434276268
-221.500974515157
-182.176951618966
-107.158266528036
-16.6446314822772
54.4926978404008
77.834636373753
55.5335942645861
15.5373156710551
-12.1623925913784
-11.6934162740498
16.6602288563866
63.5472870616299
117.404289891819
164.797523023141
189.515262449535
178.009087716354
128.061917659739
54.1751256760999
-8.93850486996612
-21.4325449991324
16.2836746865626
48.7877815397261
27.1729192095358
-27.9604208925243
-50.7258480016649
-10.752021029769
57.9119683552954
109.076788922273
132.937152937005
145.735274251319
155.623533777712
152.00249221942
122.892908366479
66.4535467344028
-15.5428591966396
-115.021284696357
-208.786399494387
-268.142959749385
-279.47455140471
-255.060977044455
-220.469961785663
-188.700867476665
-157.334756372901
-128.338082192694
-109.565877045001
-97.4431738743309
-75.422838935052
-29.9950009800686
40.5411784480821
128.703635238108
219.216439725685
291.393125372315
331.568284890635
343.074771811601
333.248880965266
301.841182249055
260.32170733907
236.731426736528
240.967543174417
252.044710605756
247.233117059449
225.392952307282
206.298050649194
209.78971905056
218.987741687287
175.993400942652
48.6630881196813
-114.638928142766
-239.33951606136
-309.718535902186
-362.402270783988
-427.03595136659
-496.675680510178
-532.64508962592
-499.851014731902
-409.000701795776
-309.895678388896
-242.006842375802
-205.010556704411
-174.898341607213
-134.110974173372
-83.1943660349233
-34.0966080965829
2.44708992151357
23.3515604220277
30.8975576388233
30.4287812597609
27.0103416422071
21.2209163003575
13.0313216873974
4.66804951303658
-5.91460286946517
-21.5603696821431
-32.9040738884297
-27.4267539475938
-9.33151215453109
6.60597190195524
10.940997512406
1.28605457516698
-17.1087578882869
-33.0777807494866
-40.1971967733049
-40.8150589572338
-38.4519194859689
-28.0889232945054
1.80646414072569
52.0935406249742
107.609938379034
154.630703263026
189.953023347319
208.885743137165
199.668433998889
157.173211984276
93.7733816847683
34.4112112042666
2.27985584451071
2.68486241717592
21.1573927222961
39.8128026364642
51.6180522551153
59.1593084242408
58.7089822192283
30.1049717966484
-40.716215979422
-130.991161243775
-192.665985968562
-195.270333307561
-146.275468346806
-72.9948180538371
3.00573414431105
68.9742654306244
108.130412441691
102.862977701319
58.230206349027
6.85362480952409
-19.6337401334549
-16.3831289759822
-1.58285544791971
9.53870203825102
22.8259343470352
50.5821698412484
88.7788148798994
122.035803377059
145.259690689744
167.146396841349
187.285070803108
185.482506796938
150.252009331269
101.959264306576
70.7285996541685
63.6059179611778
66.5724766290974
70.4571524512944
74.3704614561738
70.5792425854989
53.1073612948773
28.237300084103
-2.70959514960795
-49.2037164956886
-111.056001911351
-174.300411950437
-231.303103393813
-285.280622357478
-334.668961588458
-370.686556137967
-387.048397555285
-378.662144736279
-338.270493388256
-266.274244999708
-176.821661038072
-90.6993751309984
-27.9124401243259
4.52198180678875
20.1402823129637
32.2087249784168
40.8590590167313
54.7556724315414
94.2459049355506
164.708993124493
248.861392546124
319.891891716872
354.322583835453
342.863968121938
293.506714648482
226.532593585828
170.046830204591
149.163039324342
165.701614499091
196.284995279562
218.659379000526
228.921091335965
229.740767937132
214.805156644182
176.901492476611
125.209653609285
73.7445656010221
21.1876460854096
-35.2570467449353
-83.9344968669673
-112.024450121511
-115.272722937129
-92.5447975001847
-47.3166570629861
8.56802193568834
59.224195296179
90.7707932290209
102.044650521864
106.306576706422
104.964633782744
77.5842922068281
17.6343172265127
-48.8261624902329
-96.6128792218135
-133.722172362052
-193.908587773883
-296.954498321479
-409.20611406237
-468.656334024113
-459.501949119905
-420.739036213536
-381.739912489225
-336.03708429481
-277.705915327842
-224.665543452349
-197.223364573154
-193.171235857101
-190.607557339796
-167.517677341359
-117.126798955953
-49.8364248503921
18.3300450993329
80.0441977899713
135.375054030659
178.77937145095
199.444927314252
196.282579926172
183.982940285865
181.57606282367
192.232826423196
193.518035662908
157.134145255275
77.6081831227015
-23.181707531566
-110.253500944101
-152.944446625162
-138.87772081769
-77.9844296141979
3.4505906107569
76.5932298589336
124.964802951797
147.194522433842
149.092498155293
141.161671911398
140.441998836935
160.337093220766
196.824563337105
231.093055932751
243.032734215304
225.787015358744
191.806604201908
155.513393255389
115.232681750762
65.536547595366
14.3002859484324
-27.5961980107864
-63.5787761783308
-106.124580209437
-158.239183889033
-208.088361885002
-238.904401224437
-238.479545979458
-205.369420727318
-153.685470321497
-105.886884012897
-75.8713592230477
-66.2890459608048
-77.0827820351297
-101.319377937151
-121.94712130046
-126.224846097783
-114.70267160648
-93.1401798305714
-65.706446535694
-38.0374276993196
-19.8463242428712
-18.4384688065629
-31.1218636461385
-47.8530191925224
-59.0819715132801
-59.7737322295152
-51.2796933499528
-42.2099995426345
-44.4109286178548
-65.0737642762919
-100.372550255771
-133.733079698104
-143.71956468602
-122.517683064439
-81.8525951739282
-32.6075833583724
28.5323546319927
103.867907022145
180.885134676837
242.297606317305
280.56100061217
296.631843064408
292.214267693881
269.367006697988
231.615923626673
182.288417019689
128.618351127571
83.9043098540885
55.9697395691889
43.9743753525109
52.0396393431033
83.9844012995241
123.921720518149
147.756975840484
148.864113404499
136.337177528663
119.964787002368
102.019484737847
75.2393531255818
35.1303218937416
-2.34370787124484
-8.303256883181
26.7472195474111
77.1968301906058
106.658834163324
102.501596030143
80.0396486489749
57.3227582767393
38.2054180560688
19.7136763208528
-1.46957466003234
-30.5345722434679
-68.4628891947476
-106.661740809444
-132.524851330224
-137.373761243305
-123.748716898961
-108.104410478081
-111.617308426856
-147.363043334573
-211.417207095535
-276.376416399375
-299.525963549658
-255.421503541868
-162.526139514816
-64.6428401874098
11.5355742257463
66.6093375214749
106.267345918896
128.906220246777
129.974253746063
105.197485553266
57.6560808139911
11.3694612069425
0.900598953940981
32.5245724191915
75.9037415913411
107.336892297298
131.966386670853
150.4918890695
137.354869105957
69.9889601459778
-39.0630185475241
-148.981810185316
-217.012221779628
-222.791905638369
-188.500936205315
-168.691476587433
-197.079368036
-249.358638672482
-277.773959961827
-265.413263525899
-223.707271071643
-163.137850980043
-91.4892811405818
-21.8500243205255
32.2943870671644
64.216793929705
77.4586025672933
86.3487941251225
106.619573032501
140.563034007289
174.413410184444
190.061217781482
178.581839665907
144.607440851008
100.619073212052
60.8572537381224
36.8880744684061
32.0249128413936
41.4066441198317
58.486407251325
79.0742641687229
100.796043235442
118.255741581965
121.451280303015
108.042024856951
88.3859523537413
67.3814204869546
35.8017915933358
-13.5250072844944
-72.7383841240924
-123.699572487416
-153.304320577491
-164.181811516144
-165.402939305849
-157.741900898229
-136.741871358688
-101.374393621278
-55.2169602064959
-8.24648109795482
28.823900114302
57.7090683860853
82.7689685616938
94.1089748788341
83.0754693574175
58.2555376518995
34.3290341941581
22.6094986683741
28.1017981252694
42.804792728819
49.8825085696775
39.7114010398228
15.8234117815342
-15.0660506657741
-48.5933463772276
-75.4938181197428
-85.0257257949252
-80.3734739280989
-74.441697984307
-71.4325325929158
-65.3697531850072
-49.9821957820731
-21.5056970048403
18.1620474668632
57.6701808996033
86.4968844558967
106.359259012256
123.203513477585
134.340264283736
131.110037164147
110.26913262559
78.5808285392664
45.7678387496346
14.8426898679524
-16.5176509514235
-48.1824158954375
-76.3304437638476
-94.3533176839339
-96.7470346476575
-91.7468225954855
-99.0444097324434
-126.927129679794
-166.287431743439
-203.604521842207
-224.788858320134
-217.252749618332
-179.109177044966
-117.536718646359
-38.8374376204102
47.4833375644676
121.321929678404
166.920518472744
190.205761581641
206.066962009729
216.107108345332
210.518485925886
184.57179242432
142.438653379018
86.7301279315445
16.8027351244614
-62.982433237744
-145.456245611416
-225.118328653555
-293.969656735701
-343.086834891145
-370.779850668733
-384.060128946737
-388.810410290427
-374.914124171978
-316.356937281577
-197.34976779508
-38.0867164738806
114.318988113852
222.607829287191
282.084815440369
308.216214335895
318.11102371308
331.564223908209
366.79092349265
419.312846974729
464.389023146896
485.684137208285
481.541777152476
451.621683744426
396.18489022953
317.657027965193
217.38563771369
98.830827715131
-29.0770531729673
-154.124344984865
-265.68175083197
-360.306696051697
-438.896577647292
-493.309034591755
-503.058033874637
-452.779344424773
-350.804577704063
-231.165771936971
-130.03992906775
-49.7417367378116
38.2457072379964
150.844156722991
274.362855055184
378.764451962032
437.768358186845
445.643377430575
415.446624424218
363.506472716271
308.507337098581
273.868486210922
269.380987513155
278.697810120433
273.041364352649
227.289619447179
133.791312434283
10.5061671873039
-117.640154525453
-239.521785326981
-351.795731363509
-443.696741747392
-490.215664524573
-468.713128711431
-391.189068284358
-298.458107943941
-215.998413523192
-142.087667143663
-78.6623087204625
-42.1698488635953
-38.7988847893041
-52.1046682608627
-60.3380013882293
-53.2790475978854
-32.5124637512772
-5.78235978871121
18.2069568143375
36.0833503383715
51.4896854879657
62.5767744159872
49.0974006270122
-10.5046053170523
-108.795266758913
-210.547151506543
-275.550178630419
-278.947838626379
-230.866302037796
-172.572026789742
-139.273005842713
-134.780480909838
-143.000251742849
-149.475525071405
-146.87073501599
-127.297650966671
-82.3452264583599
-16.0302433925921
53.4009863850061
108.864510503033
144.530337612184
165.36209632197
180.020385026794
191.089978923481
197.094329928204
200.100287335375
202.141584903329
201.476665688745
197.570395208664
192.184232795923
185.498705435742
178.657679786235
178.724342452776
190.702258558073
204.294445160899
200.627952441899
171.648117259654
124.057472223658
70.3713559349582
24.71145479176
-2.27694713539306
-15.0695406754543
-30.4319036288996
-54.6755883416419
-75.7784855920812
-83.3639722044279
-79.2629430461525
-66.5605713763144
-48.5840719905432
-35.8389355380361
-38.091291424124
-55.4840360291027
-82.3932865663679
-111.86630340699
-137.893145019171
-159.784943467361
-181.611944867605
-203.495907614253
-214.289019162329
-201.108776506445
-169.026875712762
-137.313347953719
-115.948945442922
-102.922532895627
-97.2618434130474
-98.0360804801222
-101.501958646664
-104.719729413822
-100.837711262691
-80.7612452659739
-48.2900799745361
-17.2532229207504
9.52966039295136
43.0303547007666
88.7181741487995
136.383579130027
173.843641266208
201.298052654464
224.543827174721
244.802220764084
262.642484134245
279.634587186295
291.601222997978
291.703310531481
280.031052188064
263.588080991307
249.017233102692
233.305664409614
203.976584637337
154.263853023773
89.5713257051953
19.0577304247257
-48.0718008061502
-103.176025729223
-143.639189786517
-176.611217296121
-216.59763679238
-275.727801940001
-352.369633018498
-431.502494909953
-494.63760702402
-524.368925009553
-507.894477052127
-450.060193399039
-372.291091929121
-288.038691668551
-197.289857034575
-105.181281211867
-25.1167460979287
32.9032317283547
70.6578378450423
103.020459051583
142.100332596706
180.046306210606
205.084375839622
226.839498763523
263.187144563398
309.454988231798
341.313032344713
346.113010716747
334.948028924543
322.505896089312
