-2535.128894
-2553.415777
-2546.478788
-2632.629304
-2848.757594
-2936.596768
-2864.205585
-2915.842248
-2999.744361
-2756.158379
-2364.879682
-2304.948564
-2507.940726
-2568.279764
-2433.105411
-2238.953131
-1895.954057
-1341.957165
-827.5400706
-541.5996975
-255.6384332
286.5412068
896.3250194
1297.476287
1643.191196
2104.971738
2408.494665
2463.455419
2719.470087
3243.068714
3502.442551
3421.268758
3343.050497
3133.132518
2622.001705
2228.24691
2187.017311
2161.758706
1949.96277
1583.536785
1027.173888
494.5632257
379.0642263
594.3376217
750.4023761
780.2279301
743.9952949
563.9179993
365.0919543
382.979071
444.0189051
254.8919357
-8.603777667
-71.28310353
-113.3006541
-367.1438555
-600.1786688
-511.0053124
-260.2104021
-133.6593861
-13.31160766
281.9042329
449.7596067
178.8669639
-169.2583938
-144.1122957
17.00035307
21.00931969
122.5664502
355.9207788
301.9072346
33.09997746
-28.85106799
-42.71392473
-307.6236782
-619.052609
-847.4296522
-1085.703189
-1085.420561
-658.5529373
-216.3641601
-99.37880927
-129.7467866
-138.2491628
-93.75365372
117.3949176
354.4044673
211.6189323
-246.6548943
-495.1632728
-401.0753969
-270.0873954
-188.3340861
-60.99973547
-36.66664634
-292.626342
-670.2347109
-945.9060844
-1200.10873
-1569.859616
-1890.097505
-1983.187377
-2054.961172
-2278.395424
-2300.308205
-1834.785969
-1259.083331
-882.5771705
-428.0224576
124.9185135
360.712188
409.3421487
725.2688381
1099.324042
1147.293379
1028.805514
887.2097002
634.1470467
447.2941951
487.6127059
538.8794221
510.8611018
484.2130424
186.2070401
-620.8830442
-1536.986616
-2070.226502
-2217.256451
-2104.393278
-1789.768603
-1517.30519
-1453.348655
-1325.298224
-873.3393171
-301.3773331
126.8430394
509.9921672
1005.12777
1464.548734
1671.298663
1693.400149
1700.398546
1623.534574
1372.140819
1126.290694
946.8455608
579.0341294
168.0858922
318.6784183
976.4858905
1440.225461
1607.671308
1831.721706
1990.111238
2011.629415
2380.822637
3212.230713
3943.804117
4200.346489
3985.241246
3375.069904
2640.624354
2037.396278
1409.92481
642.6147512
29.51027592
-322.0885738
-699.3312872
-1142.464502
-1428.385935
-1641.676232
-1978.866434
-2263.802138
-2283.468516
-2191.297269
-2142.427571
-2003.042471
-1746.861082
-1687.039905
-1984.867661
-2303.193303
-2341.793813
-2356.626747
-2609.634245
-2754.935354
-2507.14334
-2290.027925
-2381.399688
-2321.776777
-1899.091375
-1498.75806
-1126.79653
-478.9257217
219.5322935
662.1301616
1006.980849
1277.598073
1278.474028
1174.598956
1162.98464
1036.737823
695.569242
334.9692983
3.663536483
-278.643131
-294.3209124
-59.26886728
134.8718746
317.8193194
719.9079672
1160.570773
1332.526033
1375.299329
1504.384549
1525.105203
1243.274493
890.6863018
730.4540978
649.1472867
492.0410905
438.495177
637.7473382
801.2191835
668.5626222
509.7088429
567.3443465
566.9337906
403.4546749
438.8634718
636.3874017
571.3631382
387.0858898
442.6793359
481.2446029
256.1701572
40.14752691
-84.11391902
-303.481534
-492.7851359
-528.5786636
-615.6963236
-757.5568562
-729.901853
-618.5518084
-590.5532417
-528.262832
-435.7599394
-525.7442249
-676.1368745
-586.6331011
-394.0257578
-389.6532107
-451.8081964
-379.8118914
-340.4577856
-504.0231374
-680.8159869
-674.4706074
-625.8512999
-708.1365221
-783.4510382
-690.7880115
-593.2135322
-626.1739595
-558.1318904
-303.6034918
-210.9724017
-324.1179645
-235.4236154
-12.94866149
-70.23686751
-185.442149
-3.19204366
110.8775346
-113.4376178
-278.3680839
-233.5514798
-280.3955957
-395.6011117
-364.6883941
-281.5831275
-242.2675442
-176.0877578
-129.5556276
-116.3725784
17.94256918
205.0916549
211.2651975
161.2586237
311.0158706
505.2485429
525.006921
558.5668265
779.8322532
969.9571466
961.0913384
944.5768078
1036.93038
1017.901626
806.7911022
763.7055956
1110.176264
1456.240489
1424.867278
1267.889895
1260.190115
1193.998753
1084.428264
1342.694049
1817.169691
1973.024139
2008.483478
2375.898536
2775.805717
2831.720208
2748.898872
2650.328554
2428.731425
2250.448804
2219.285284
2068.828916
1731.286471
1407.816267
1024.446449
416.5198902
-275.3682419
-955.9657582
-1771.405439
-2722.663084
-3682.161715
-4686.260506
-5669.405293
-6292.261081
-6481.32947
-6633.145917
-6971.338787
-7226.920053
-7167.807597
-6941.038797
-6675.284374
-6208.96769
-5497.426933
-4796.571784
-4035.302005
-2655.275533
-653.3272397
1067.52458
1981.764117
2467.243996
2720.015548
2555.99941
2240.260526
2119.886312
2006.821242
1914.80256
2302.765853
3101.221749
3718.341159
3949.222384
3958.474064
3884.803973
3929.385945
4175.924406
4367.070921
4370.726655
4364.555619
4294.205014
3905.327255
3319.306202
2814.725846
2306.411695
1684.639315
1178.632898
891.8054667
560.3467202
97.00203859
-205.8037324
-226.2919553
-248.6080117
-462.1670337
-670.8739129
-737.3693583
-896.1463463
-1290.963029
-1675.598378
-1959.572622
-2368.338399
-2715.361074
-2517.670269
-1995.50668
-1725.712219
-1578.376065
-1249.166534
-1027.300771
-1054.084305
-995.6542757
-863.3097624
-928.4496573
-1029.394426
-930.3829539
-746.3816919
-539.0239253
-264.1352242
-82.69596198
-72.9555188
-52.17860212
-12.28189857
-78.51933739
-55.79692484
252.2806517
548.5129597
506.2007808
288.7782324
143.8759345
-7.682539239
-261.9016542
-481.3804202
-570.7705253
-627.8994464
-659.4657636
-485.6953458
-130.7190062
57.28588015
-30.91168372
-54.60285135
83.11963576
53.13536271
-83.56130231
76.62962083
330.5545397
254.1425568
171.8280848
437.4348595
637.7368052
502.7280702
370.3027109
342.7352365
249.1539121
232.3301263
399.8281144
514.0994924
490.1041564
452.7204536
370.9160052
262.1929366
309.5208945
443.2774584
442.7311852
428.6957614
588.1656847
731.9701687
708.1845309
744.3372201
946.5288178
1038.714695
885.3490074
719.7575022
663.7407901
522.7225051
245.437743
110.0099738
173.0463407
35.51260775
-430.3680115
-739.6281632
-688.0967704
-729.5675212
-970.0557311
-953.4371021
-732.8033732
-774.918092
-957.4924497
-993.8232255
-1133.509333
-1456.018926
-1574.575363
-1441.729832
-1317.949599
-1165.929818
-913.4318519
-689.7837787
-462.6170098
-161.028951
31.9393709
87.68381666
259.7848596
517.1740745
594.9335346
570.9532702
657.929162
745.3095463
748.4490933
886.7396688
1198.989058
1408.639812
1509.697309
1819.383747
2271.894646
2296.96628
1634.743547
744.5024425
123.7657927
-263.6823042
-532.9073876
-529.2049205
-421.6893023
-751.4371068
-1393.194541
-1616.401908
-1399.532395
-1291.815574
-1219.800609
-843.9707016
-381.8293346
-52.41112828
263.5203904
439.0955355
236.1890194
-207.8639098
-753.9393231
-1487.840003
-2309.782468
-2975.932483
-3356.788607
-3241.6423
-2485.271715
-1458.591181
-606.6894758
200.7648813
1150.391577
1886.367624
2120.891921
2162.726365
2303.587209
2363.765061
2211.829891
2093.367122
2147.069491
2125.715237
1874.294817
1624.758951
1503.408916
1229.624474
715.9192539
380.5935911
376.9082233
283.6512066
-29.55908766
-261.644883
-513.8640518
-1025.214791
-1426.790696
-1434.356121
-1435.852443
-1613.614401
-1647.550049
-1484.409762
-1283.287938
-960.9045248
-535.3686791
-214.6203481
68.30338573
438.4388134
690.341563
729.6188867
799.8510151
956.3189047
1022.186786
1040.145194
1096.055714
1011.725439
762.6942662
690.9046771
892.8961911
969.1494816
669.5584458
251.1290544
-23.25296417
-258.1621539
-560.7901275
-740.3618313
-689.630515
-640.9223213
-677.4805955
-543.2613794
-298.6658524
-340.3652433
-512.9636452
-319.3151887
38.56099334
116.1829833
170.9533649
466.9197062
674.9655674
708.9894991
871.449687
1057.152137
993.04187
818.0440211
670.7702193
462.6655164
260.4969762
127.4866519
-130.8179898
-540.6986568
-882.7925047
-1201.458388
-1661.356333
-2073.044298
-2253.973964
-2429.996381
-2730.28434
-2868.513929
-2706.424824
-2517.059311
-2443.108151
-2250.761994
-1796.564371
-1266.720146
-777.0209365
-171.1776508
532.1145854
959.3298105
1000.259527
1034.582376
1182.102577
1138.556653
995.5059213
1119.780181
1281.929225
1153.723683
1101.361743
1349.0425
1421.517038
1136.219564
863.6996675
700.8072132
529.8330726
469.1395324
572.2789941
754.6559406
1091.860588
1525.116683
1717.406075
1647.66122
1618.308532
1589.047127
1337.085757
1040.16354
928.3263872
808.3642951
506.0446262
205.3410549
20.68433724
-153.0591103
-247.0162639
-85.91054397
129.0577965
-20.54932462
-495.5890991
-815.4975189
-823.4038206
-856.7212661
-1003.639663
-927.647419
-665.117775
-650.4786237
-790.4682582
-679.7504322
-559.0115864
-755.7395669
-849.0476685
-556.1645664
-318.0977276
-314.9120919
-228.8037207
-46.35547806
45.29994648
88.88337606
44.04091547
-203.1490364
-456.9775191
-557.5320943
-697.64757
-934.6460335
-1066.478375
-1112.101731
-1185.572125
-1115.619397
-833.9522669
-656.3951187
-687.4656846
-583.1080426
-234.286813
4.190009711
-8.932890601
43.07068425
314.2012079
542.830968
628.1599642
852.8377841
1243.427385
1361.130121
1104.600784
957.0937728
1054.704974
995.1499783
820.8931289
940.5590635
1122.019334
913.5811921
554.1788311
341.7574869
87.78403507
-207.2208951
-346.6431056
-499.527159
-703.2817425
-534.2235915
45.20112258
528.6657103
734.2978054
866.2321901
967.8514061
998.1989697
970.4962076
760.3247531
331.4059404
-4.350924477
-72.65630289
-146.0895238
-391.4846666
-612.5948909
-755.1149084
-1009.592527
-1314.005803
-1355.922678
-1109.165795
-869.1046933
-741.2575677
-556.7107811
-341.1969684
-347.8576107
-507.1583308
-500.6125776
-484.485309
-840.2542891
-1272.472718
-1312.728793
-1269.145665
-1419.284342
-1268.716488
-695.0554564
-358.4878804
-379.6098749
-213.2805063
194.3071888
473.7808904
552.5425546
522.9281813
475.221984
602.0875111
890.8086221
1082.921207
1210.727077
1486.023889
1723.633956
1653.781731
1466.922831
1385.615611
1250.231953
995.1198902
863.4634714
878.9277017
770.3634485
523.4862316
402.3152032
414.5765207
308.3458488
99.35460614
52.62650901
90.08505952
-158.9901837
-592.5299735
-698.0150489
-518.6812832
-548.287206
-645.6417236
-305.5783114
247.6850481
515.9131554
581.6073097
551.7599413
282.4035345
47.90514795
199.221722
407.151513
295.2459272
68.76383656
-69.51241884
-199.677911
-317.6780733
-443.0491458
-715.7867255
-1005.558689
-1072.710003
-1092.871033
-1308.21986
-1528.410913
-1592.033481
-1702.370496
-1867.631189
-1761.325209
-1404.473215
-1232.538613
-1355.274436
-1436.344822
-1363.597066
-1398.548511
-1565.535016
-1506.260785
-1135.610346
-811.1459217
-592.7547051
-107.2910606
594.6923925
1048.311319
1326.671985
1768.479977
2066.971891
1926.2635
1810.411001
1987.820765
2063.733597
1949.737818
1932.104379
1933.196381
1796.512744
1656.986398
1500.161896
1213.066617
1001.509495
991.2167868
926.8306585
716.7009579
543.8342484
371.2274458
90.63947378
-101.070039
-96.03107612
-147.3038268
-335.3840543
-392.6207752
-267.911807
-213.0866486
-251.0085647
-164.4250744
2.018935521
-30.64748745
-255.7017013
-384.2849661
-400.8443716
-565.4159276
-775.5923055
-644.7511271
-317.9182231
-288.3068262
-474.0376069
-572.0444003
-839.8290187
-1384.83448
-1659.254627
-1537.003166
-1558.854255
-1811.122151
-1931.657624
-1859.31645
-1530.449938
-701.6524883
393.1336584
1192.299296
1561.499101
1632.131349
1440.386828
1183.203032
1091.861322
1000.364323
746.4133406
633.7785198
870.3568104
1141.658072
1184.368054
1107.36523
934.6334135
525.4370251
25.98738135
-209.9256049
-161.5433551
-108.5183914
-98.7497518
65.20646044
312.1890055
326.5539531
151.8770613
107.5313706
81.11163737
-212.7302167
-438.3726218
-214.988235
32.67021602
-74.15768804
-155.9157961
-54.01428257
-165.9350755
-505.2245457
-800.6242298
-1190.010337
-1761.897391
-2185.138094
-2307.040168
-2259.861243
-2063.045267
-1806.3263
-1724.865428
-1752.673529
-1653.048908
-1508.236313
-1449.812981
-1323.812727
-1093.133045
-938.9938571
-729.0171536
-127.4539911
725.177955
1360.300981
1715.312146
2085.000816
2472.656516
2570.929516
2345.513457
2099.106318
1889.705296
1455.75673
843.170958
390.5752572
9.979946946
-578.400905
-1005.595736
-764.0187032
-111.0048831
561.1129046
1326.055006
2021.461966
2252.346233
2250.654209
2451.326074
2659.165802
2560.245132
2202.788072
1596.750266
787.4938719
171.6346178
6.251135452
113.4396605
366.4576158
749.029009
1017.930055
999.201888
854.6324842
599.4518809
-14.45212513
-883.2883684
-1551.564346
-1915.922715
-2262.837223
-2668.480773
-2953.962057
-3132.449321
-3363.193197
-3493.55535
-3141.770122
-2306.814917
-1395.511514
-546.2542342
413.7824002
1289.068755
1703.311472
1857.945735
2069.028006
2064.33001
1728.185575
1522.968124
1481.398857
1124.877004
520.2087316
80.12991695
-252.9043142
-642.0043392
-958.2938114
-1175.650279
-1379.920731
-1505.589073
-1561.160302
-1612.520291
-1464.378944
-1029.129376
-694.7484269
-681.2319696
-630.5201497
-319.9349937
-25.61269423
102.2235832
246.8211541
424.2410264
460.7421844
408.7800986
431.9256257
408.2375276
110.1489198
-339.7831959
-623.8727669
-770.8254971
-1046.735993
-1336.999927
-1309.702353
-1138.337884
-1175.183616
-1166.776905
-852.6046721
-690.9199196
-945.4069446
-1125.300763
-1014.052504
-898.1535188
-706.3645012
-248.4320388
189.3980941
388.1366552
504.1495557
579.8682027
610.0401877
785.3436919
1069.792029
1193.351834
1254.54048
1566.606814
2089.749166
2655.818688
3274.177481
3786.972068
3860.055257
3517.658526
3058.576175
2501.563894
1714.487826
888.2855442
327.7993714
-13.12545636
-320.4599595
-460.8392191
-217.1217263
167.6336733
262.1214051
194.3210864
397.4252728
707.5172393
669.9391487
485.2595334
552.8869804
665.3162399
650.7841349
805.2640174
1078.10915
1080.212567
893.6201437
728.9293298
413.2890207
-39.04299806
-325.426618
-494.1907964
-736.15833
-918.6702492
-1001.716402
-1223.911366
-1609.046991
-2022.326687
-2535.26199
-3097.104056
-3352.707042
-3246.925212
-3145.998355
-3139.405004
-2945.479708
-2555.054567
-2290.654409
-2255.728968
-2262.769242
-2225.158561
-2179.10399
-2021.414259
-1670.783601
-1408.475401
-1534.939254
-1771.404063
-1670.874041
-1408.168695
-1278.986652
-917.3870628
-85.33033851
617.6604458
821.8787959
949.2585652
1166.572039
1213.887935
1233.099408
1497.62459
1888.095368
2348.869133
2955.062709
3448.100721
3599.745341
3612.505094
3606.390395
3451.098561
3241.939867
3147.3669
3008.644639
2699.154927
2356.644394
1913.313785
1117.881028
137.5435269
-627.820364
-1235.199064
-1962.933177
-2605.021948
-2721.181829
-2405.798097
-2142.403094
-2009.989082
-1686.651959
-1185.148883
-853.8834293
-647.1578864
-228.2061471
268.94681
518.9391632
705.6515562
968.160689
928.7980388
586.7157241
469.068547
561.1724867
524.4672951
622.0041753
1076.763789
1401.631756
1256.644843
889.8771301
513.6007761
218.4258157
176.9852841
329.39816
454.8796921
602.7085676
770.0941841
574.1737762
-110.6915308
-832.8361287
-1282.975398
-1572.907114
-1674.940183
-1401.101723
-923.0613768
-611.1928439
-465.6085186
-250.3118733
-17.01861482
-6.311346787
-163.2657701
-222.1289907
-179.576302
-164.8718496
32.43666327
605.4808823
1112.300521
1097.012734
891.2764384
852.2816748
660.3559267
213.3174607
-33.7250747
-80.11210203
-351.5788715
-805.1206663
-1201.038575
-1553.776521
-1696.139114
-1397.68768
-934.5112399
-659.075187
-526.905254
-572.8433078
-1008.408955
-1675.23793
-2179.192702
-2362.038848
-2154.519367
-1537.014274
-891.9541453
-676.5251943
-751.6395424
-719.5185043
-639.8325018
-742.2821062
-823.743167
-565.0348654
-116.2241992
176.0047692
362.4026914
685.3573255
987.301175
955.4668526
800.6700458
933.4304287
1195.415395
1285.003389
1440.404362
1782.006877
1864.511375
1602.621445
1405.309166
1187.716217
659.1748408
186.139013
149.9677789
302.5980004
436.0250228
647.4722188
831.4858714
768.3190174
437.3079576
-88.23862313
-521.8271474
-357.1024517
404.1821186
1078.983948
1287.726997
1311.829219
1307.837269
1112.107292
828.1290602
760.7447604
911.4362246
1136.465407
1479.288449
1906.451506
2109.409952
1943.666641
1727.730662
1784.51944
1993.161495
2147.864384
2392.569864
2757.281881
2723.662806
1996.341734
1065.364766
246.1673701
-801.0858327
-2004.226685
-2751.130823
-3046.893829
-3336.259297
-3545.888825
-3505.759487
-3493.388115
-3691.736368
-4037.767895
-4589.656763
-5258.263932
-5670.065947
-5698.137919
-5451.883059
-4850.036664
-3903.505554
-2962.764233
-2171.15025
-1335.335397
-551.0412489
-166.1208599
-130.7573254
-125.412831
-137.2798178
-281.9180017
-361.3033324
-159.9602013
94.82112745
67.34275298
-104.177968
-54.24182613
160.3006148
248.671282
348.017501
766.7429402
1327.102354
1784.254327
2377.851107
3170.501553
3767.33747
4275.392725
5261.369907
6616.357841
7785.990358
8647.851603
9092.788779
8685.72583
7369.694394
5586.714175
3743.795346
2195.491766
1151.520698
298.0008191
-774.6102234
-1956.960597
-3051.072593
-4179.974376
-5267.784671
-5889.129228
-5904.077426
-5516.352701
-4759.416463
-3612.820104
-2398.484132
-1472.397618
-765.331412
-42.31764135
640.7437197
1093.145225
1371.314173
1598.990043
1578.360486
1093.412863
418.69768
-125.7733467
-764.5404273
-1585.305373
-1955.186959
-1550.807811
-974.4950212
-664.7823656
-485.3294474
-531.895062
-946.3048197
-1329.814038
-1382.547779
-1283.509646
-1039.927424
-520.6801985
8.006351827
231.4550492
139.3325854
-348.2898396
-1339.560261
-2536.629901
-3478.621589
-3910.998909
-3605.838819
-2455.923885
-858.8220246
680.8732325
2188.50516
3832.260633
5279.468031
6056.997689
6187.170781
5958.08675
5362.512624
4214.840442
2629.52731
929.86593
-797.2646887
-2545.831777
-3971.236833
-4806.350886
-5381.92195
-5940.638585
-6067.137246
-5595.235162
-5045.122508
-4594.151224
-3930.512111
-3167.47861
-2571.488398
-1946.722228
-1252.376666
-827.8557622
-665.1357223
-534.0398327
-461.3952272
-192.7278051
964.7076775
3169.637438
5776.091137
8065.103984
9509.708565
9766.587746
9032.423297
7870.252538
6480.916449
4786.742032
3042.783513
1617.910008
481.8667323
-483.6105121
-1070.374608
-1103.099659
-773.7413038
-230.264067
729.5405322
2116.859274
3291.196721
3602.080707
3188.992223
2527.968561
1614.620535
322.7534199
-1078.396617
-2444.771578
-3866.144495
-4962.873743
-5328.540736
-5455.01198
-5944.896984
-6560.087499
-6958.492184
-7216.318495
-7221.443564
-6721.875757
-5907.127363
-5183.94565
-4813.323942
-4923.443554
-5210.872239
-4909.734842
-3648.14015
-1808.970982
192.3008002
2252.079053
4255.249748
6138.658444
8016.953541
9720.274299
10673.49998
10606.03632
9877.113104
8868.016053
7554.153565
5906.245873
4255.188458
2875.998662
1532.155066
-61.33881154
-1623.197699
-2783.431714
-3703.016255
-4454.185991
-4564.890961
-3972.971301
-3344.024867
-2923.105098
-2382.82894
-1809.752794
-1535.58936
-1443.18912
-1276.500845
-887.1762923
-78.67620624
944.8697256
1466.765213
1201.37254
562.0211453
-117.8917754
-747.4206702
-1194.710556
-1590.539426
-2317.770987
-3267.171497
-3853.794383
-3864.143765
-3490.554404
-2721.511193
-1490.7814
-136.8433146
937.3434232
1766.47071
2538.43643
3128.430165
3315.294101
3211.773832
3076.854463
2908.908371
2683.772643
2702.299215
3070.983367
3251.754627
2830.912488
2083.914197
1242.29272
243.4544281
-603.1854449
-993.4354915
-1330.857722
-1876.299814
-2140.293341
-1926.760142
-1720.233127
-1771.224703
-1960.109881
-2288.274593
-2710.921742
-3054.456255
-3344.628623
-3605.43945
-3612.330741
-3322.599622
-2949.992107
-2425.946243
-1573.639239
-736.6867982
-436.6763327
-667.2418957
-1127.533433
-1691.748214
-2201.087785
-2298.738192
-1813.879057
-945.9071611
115.2173449
1448.833356
3101.575035
4801.916792
6294.412076
7669.819944
8897.650049
9494.617854
9269.068927
8681.846113
7932.177171
6708.29466
5031.077815
3127.823028
825.0024271
-1837.307677
-4270.799132
-6244.553181
-7939.60637
-9054.890692
-8972.685239
-7477.986042
-4797.218472
-1641.49222
838.8501728
2001.6628
2273.703157
2275.167611
2133.77991
1886.584225
1620.850576
1162.486481
420.6896393
-189.2638731
-291.0378751
-75.56289833
164.2784319
491.4382667
955.7927095
1244.058383
1043.567488
443.7512501
-336.3570325
-1341.509679
-2594.215072
-3745.478103
-4533.39702
-5072.354415
-5159.897348
-4233.715181
-2498.62491
-825.8754683
605.7230526
2133.671874
3499.725757
4266.825617
4559.799594
4598.957177
4440.500369
4215.913282
3795.852861
2800.92935
1417.935197
300.5428592
-364.1613325
-827.6243946
-1244.936651
-1804.426705
-2691.745125
-3595.623717
-4021.660574
-4073.280418
-4153.689905
-4193.228285
-3902.203191
-3399.159607
-2978.922023
-2610.790581
-2116.26855
-1556.819431
-1097.547081
-722.5285363
-412.3941804
-334.1941108
-421.7066748
-126.5252397
852.6169202
2122.169293
3393.186662
4787.88744
5947.361279
6166.748463
5555.435827
4704.684911
3691.515606
2579.40794
1847.460543
1562.010613
1300.70347
960.4093453
626.4404048
166.0288259
-420.9858376
-995.2290993
-1648.05985
-2320.987873
-2530.916416
-2089.173794
-1421.233111
-921.1745867
-735.5966569
-1058.364461
-1869.177087
-2678.676115
-3095.162362
-3205.765258
-3101.961047
-2633.406312
-1870.357271
-1232.366108
-912.2614336
-626.7943969
-171.6333797
229.37234
444.42166
739.4971555
1093.35864
945.1496716
168.8903659
-645.7539606
-1194.849558
-1509.498929
-1174.982989
81.20766084
1669.17115
3110.543148
4563.183156
5840.782181
6374.077016
6176.09994
5633.745104
4816.514167
3735.685008
2563.537382
1358.030491
183.2202647
-791.4573441
-1695.010568
-2811.211827
-3906.175433
-4452.870359
-4384.934602
-3941.702303
-3167.121023
-2157.063875
-1290.111355
-747.2135658
-286.6145188
196.0821012
359.4976606
-8.491068233
-502.0692431
-611.8971286
-419.8627948
-258.8006559
-57.55538321
313.354156
573.3849577
581.4326988
574.1316303
431.3894698
-168.33177
-804.7422759
-765.6962797
-41.84350286
1037.752874
2277.428001
3320.848146
3901.12789
4206.317578
4302.544715
3962.591485
3345.029857
2830.482942
2338.105936
1675.496492
999.7034172
355.6196439
-447.5815855
-1284.370413
-1888.689901
-2463.953903
-3327.227777
-4284.50734
-4997.097087
-5520.458851
-6025.430081
-6458.891074
-6806.657887
-7240.756159
-7687.926289
-7629.489829
-6707.138929
-5223.998118
-3654.720603
-2094.703533
-649.7112437
348.0616399
1028.033367
1913.916348
2885.561499
3414.647774
3615.433727
3762.35059
3551.330165
2914.238124
2394.47776
2201.671833
2130.623454
2230.619865
2509.666043
2643.309059
2612.089346
2824.357219
3478.51744
4457.048261
5516.90668
6179.04694
6012.117101
5171.261273
4120.373218
3051.375707
2048.300448
1319.413803
833.4293956
228.9696875
-669.9940103
-1698.243029
-2752.694352
-3876.345608
-4891.286994
-5412.20213
-5400.729083
-5285.806867
-5255.030613
-4940.215841
-4193.741936
-3431.323823
-2754.53713
-1745.412736
-432.4587016
749.927489
1839.017123
2961.890093
3748.143839
4062.317763
4265.894795
4376.637209
4127.079707
3655.321047
3233.205745
2884.549982
2627.245934
2362.130499
1732.935919
742.2837926
-103.8081966
-612.8058326
-1026.476095
-1334.596375
-1396.970838
-1487.952812
-1885.632796
-2352.614163
-2644.999429
-2960.569842
-3395.472914
-3527.949945
-2969.864685
-1902.658105
-723.5487521
438.6280242
1454.114022
1899.54889
1648.666743
1285.674202
1268.686849
1375.3594
1558.604271
2231.483766
3228.692565
3801.678885
3710.834624
3109.425105
1927.999119
315.2076172
-1265.424738
-2724.723438
-4149.569055
-5269.297276
-5901.6789
-6190.244329
-6101.648873
-5555.095262
-4854.780955
-4256.867361
-3632.84064
-2947.904736
-2341.290746
-1694.687699
-875.2484128
-150.6659658
278.4802812
683.6644438
1255.885174
1725.85711
1903.632931
2037.122305
2327.017087
2550.502596
2447.879051
2093.923368
1602.857329
879.9222437
4.357389472
-675.6641511
-1206.320613
-2033.946681
-3055.459957
-3700.795134
-3976.463558
-4158.133181
-3890.507913
-2870.892895
-1525.967458
-115.9490979
1596.229875
3470.252127
5020.13996
6096.923253
6718.637934
6861.90449
6736.253796
6556.130202
6243.386338
5856.22417
5669.666928
5578.910537
5228.023179
4678.676613
4175.961751
3608.504553
2896.991511
2388.778416
2285.613146
2199.244961
1678.155318
748.1768847
-285.5799492
-1184.443111
-1767.298033
-1942.689971
-1965.624244
-2266.954548
-2771.270314
-2941.100395
-2792.131874
-3013.154307
-3798.241643
-4692.12762
-5619.886876
-6712.404951
-7497.139826
-7572.403461
-7291.121292
-6958.481782
-6477.815344
-5931.101622
-5340.87602
-4297.916378
-2658.410397
-823.0664712
939.3993893
2562.605293
3830.398711
4657.966847
5169.905047
5220.269148
4577.609145
3489.33616
2331.664457
1074.865007
-343.5603993
-1671.245271
-2699.819493
-3348.180346
-3285.639515
-2170.732877
-375.3770223
1137.547649
1841.517496
2087.335267
2331.801619
2482.713932
2385.688424
2295.898756
2316.163557
2130.215813
1755.888033
1573.851813
1438.666024
930.9164048
219.9934845
-388.0307411
-971.5520402
-1394.17613
-1310.417046
-914.4504837
-662.7723084
-643.3073601
-791.9479043
-964.670294
-741.8512001
32.12350533
902.1384979
1504.543817
1900.412146
2097.81331
2099.388987
2192.276263
2409.875925
2242.792666
1497.115223
668.6657419
-0.470467815
-954.3768859
-2405.927788
-3781.271327
-4430.274587
-4262.649347
-3423.016498
-1954.481544
-139.1791763
1405.390862
2418.760331
3219.84586
3890.593562
4061.293605
3735.559305
3256.403845
2539.858185
1506.811271
643.0391611
85.38646916
-705.2198984
-1731.523212
-2313.776547
-2216.793332
-1703.138483
-945.7736018
-174.3394852
330.2887954
604.1881507
718.9280831
524.3740703
118.9168606
-155.474675
-341.736783
-710.1014012
-1192.087882
-1692.805646
-2469.284052
-3609.78036
-4726.340001
-5482.070185
-5794.506639
-5470.094165
-4344.003174
-2799.614277
-1528.210836
-736.2632898
-93.24033598
528.9883867
862.4575429
889.5869635
895.6503785
652.5719588
-413.0610538
-2000.507012
-3115.925957
-3433.399037
-3173.118947
-2210.747048
-546.4199571
1305.254387
3110.566157
4989.12895
6785.644323
8406.655613
10049.20162
11403.94138
11628.89143
10316.27772
7671.098745
4168.845259
657.0871919
-1957.627761
-3481.16117
-4225.570972
-4222.023903
-3362.045235
-1876.429184
-15.03842723
2245.759385
4716.682239
6742.575588
7763.264835
7711.264357
6706.370183
4794.680974
2166.057267
-756.800236
-3674.752182
-6514.034994
-8982.010134
-10546.40982
-11082.38672
-10824.15378
-9644.35711
-7447.534629
-5021.00184
-3232.756595
-2024.658317
-1224.978619
-1163.32671
-1807.46139
-2612.716107
-3298.948076
-3747.601428
-3728.769502
-3354.113909
-2938.516773
-2362.074186
-1395.405356
-234.2598252
854.7925683
1776.329586
2375.608831
2713.189506
3311.845399
4405.808741
5422.144511
5759.533585
5443.228138
4657.028724
3404.438855
1941.966277
821.2495247
222.0911125
-154.7546738
-334.8431649
148.0704842
1422.913802
2886.179038
4011.221836
4816.063713
5178.830222
4691.354139
3500.388906
2165.776213
744.0599794
-832.305447
-2099.555844
-2792.887055
-3191.036932
-3284.277413
-2870.47614
-2321.818952
-2133.69855
-2278.68306
-2580.736375
-2944.208949
-3229.981437
-3582.633269
-4334.069246
-5180.731602
-5318.150878
-4475.869054
-2912.395524
-661.1526116
2311.29464
5570.508916
8456.533594
10414.86022
10898.36535
9646.389901
7201.637117
4509.480081
1948.992234
-700.4185285
-3402.267333
-5645.174172
-7184.308138
-8288.85704
-8948.799223
-8593.378585
-6980.132529
-4515.352486
-1535.099084
1654.635581
4304.903296
6046.565484
7443.584863
8712.638512
9130.131971
8259.398354
6369.002113
3700.127645
537.9913652
-2456.937809
-4660.103212
-5673.648913
-5268.443652
-3793.305008
-2093.277848
-655.152594
452.6243744
953.663209
607.2833663
-266.1402989
-1242.637577
-2261.305639
-3233.889674
-3917.222998
-4384.914223
-4874.144862
-5108.52072
-4502.380432
-3078.589256
-1574.688472
-598.4464514
-182.3158213
-159.335602
-375.8756429
-482.6258058
-262.6166562
-240.5154272
-1051.804853
-2323.484877
-3311.819278
-4129.226521
-5044.171908
-5502.795741
-4981.845892
-3645.001884
-1659.201662
887.9538484
3605.727477
6296.119434
8997.602199
11104.70454
11716.13514
10975.0087
9979.338775
9623.489519
10172.27437
11350.93138
12444.72874
12794.93059
12170.27672
10435.43594
7517.56692
4065.088794
1360.400483
156.1263797
101.2352443
365.8958905
259.7898337
-678.4315139
-2474.242806
-4460.752682
-5820.687017
-6611.213639
-7706.643261
-9492.224304
-11324.42649
-12524.01715
-12960.6618
-12555.88119
-11364.42995
-9946.010695
-8576.951309
-6844.723206
-4759.989065
-2993.120256
-1766.409017
-907.616319
-650.3951871
-1212.615813
-2240.683315
-3236.60191
-3854.339573
-3952.984532
-3941.133333
-4444.092665
-5381.272349
-6179.838474
-6668.505528
-6850.243781
-6363.559302
-5047.749922
-3347.482273
-1555.333838
531.4314511
2859.961747
4865.676203
6142.743068
6710.522721
6661.880869
6129.023914
5496.02011
5162.165154
5199.42555
5647.572759
6878.134559
8941.591536
10783.16382
11178.09239
10291.24702
9203.070007
8413.534621
7906.000829
7693.752742
7434.876923
6699.569998
5809.249026
5227.165328
4689.437674
3891.696849
3033.697744
2230.38949
1456.979762
971.9504997
918.4151086
984.8251546
913.0248999
661.4788149
68.97231848
-893.9377462
-1834.276526
-2481.963929
-3000.317361
-3428.933519
-3556.517609
-3553.820915
-3977.062106
-4969.616936
-6035.102977
-6667.374528
-6736.089253
-6272.915018
-5433.79405
-4739.019214
-4690.769788
-4970.861566
-4744.191124
-3830.365362
-2656.230981
-1310.347077
99.90772473
739.5737697
17.099746
-1599.884729
-3515.699233
-5419.017047
-6591.999751
-6327.139194
-4865.759472
-2987.771075
-1303.838769
-239.3500296
147.2358934
253.9386625
363.9175835
495.5457114
838.6532395
1518.658651
2161.261314
2415.82679
2382.055767
2019.466412
967.9018023
-660.3315141
-2195.441985
-3330.578273
-4306.449082
-5132.910466
-5410.060016
-4990.640881
-4194.778012
-3277.002781
-2170.944893
-857.8056982
466.6580535
1679.07662
2694.556682
3226.573604
3282.393925
3560.628562
4429.19336
5193.067682
5278.653798
5008.66207
4630.054367
4051.788245
3612.68714
3712.346066
4158.118394
4739.475709
5527.161039
6415.035499
7399.4488
8862.854649
10702.39142
12015.58915
12183.60418
11340.65743
9717.96767
7480.254488
5024.010009
2685.029942
444.7545164
-1720.645022
-3663.069537
-5312.14027
-6589.749517
-7206.813343
-7090.996755
-6819.648699
-7052.726139
-7649.524771
-7909.721436
-7662.3312
-7474.396325
-7717.563618
-8230.750634
-8980.730675
-10050.78054
-11020.14752
-11392.24334
-11208.35898
-10437.97573
-8811.721922
-6741.278208
-5072.956815
-3988.565361
-3272.551872
-2897.000743
-2583.491302
-1881.553586
-906.0183985
-21.78481667
841.6763853
1917.169665
3342.576173
5338.798694
7819.546004
10080.93907
11622.96993
12708.21343
13563.83924
13843.79763
13289.53331
12106.4738
10474.52446
8457.245249
6509.95753
5383.178519
5335.497573
5927.945242
6729.202346
7680.164949
8531.489352
8630.43459
7743.547589
6414.335335
5136.011524
3971.592439
3047.902883
2415.455814
1664.732957
526.1534051
-842.9213362
-2541.917693
-4813.234445
-7391.102189
-9929.959199
-12350.396
-14252.17698
-15115.84539
-15109.53796
-14699.38585
-14001.10012
-13137.50861
-12332.55153
-11461.03984
-10395.66426
-9472.664395
-8885.677904
-8351.566208
-7856.464741
-7734.981115
-7763.113259
-7251.984181
-6108.054807
-4816.469791
-3477.611457
-1764.500349
299.634424
2333.520523
4251.393968
6152.124598
7642.63111
8125.441357
7751.843774
7203.75593
6690.06742
6160.066316
5944.602614
5936.975382
5074.17753
2883.122199
372.2815732
-1369.124451
-2134.396636
-2132.491601
-1842.816787
-1904.918703
-2405.378512
-2920.269251
-3182.100341
-2945.437278
-1852.50964
-51.01369651
1859.951071
3626.821039
5306.795024
6826.051927
8254.618214
9892.174582
11710.86948
13469.1462
15366.53875
17706.27304
20059.77664
21491.89687
21366.71054
19518.45834
16126.9696
11863.60062
7745.622367
4437.707399
1964.042615
383.6030623
221.3136655
1535.899951
3106.749185
3626.085374
3175.970186
2503.618177
1825.581473
1266.496009
1017.606634
421.2712811
-1554.386612
-4888.037016
-8823.10221
-12969.21
-17166.10436
-21112.18602
-24602.65736
-27599.16753
-30177.63168
-32504.13565
-34366.67297
-35065.42162
-34348.91328
-32773.208
-30695.01908
-27858.78322
-24218.43473
-20119.29639
-15635.53877
-10686.45329
-5582.502636
-597.4119898
4604.220017
10295.166
15806.28725
20066.51952
22793.4906
24501.71468
25512.40031
25691.90198
25089.30354
23968.67856
22254.87906
19887.27627
17490.36201
15740.21357
14630.4134
14046.07648
13987.17488
13906.91888
13137.16015
11828.01372
10451.98528
9096.033723
7811.895911
6722.796576
5716.07307
4692.061332
3600.022527
1990.128017
-551.5134238
-3602.593351
-6404.293089
-8716.083775
-10547.75627
-11815.93172
-12715.46819
-13606.615
-14358.93601
-14573.20212
-14345.23489
-14073.58693
-13714.61387
-12881.24399
-11483.81022
-9707.439115
-7546.247247
-4971.340008
-2434.602959
-481.4764674
1070.548245
2737.282326
4365.818573
5565.173835
6641.430515
7874.784693
8646.361283
8392.595077
7424.789671
6239.693211
5147.099035
4490.360284
4275.707172
4088.696115
3717.942678
3129.598357
2174.398651
1046.490952
296.3299484
0.323863008
-258.2290422
-714.290388
-1470.114051
-2644.635102
-3908.176952
-4642.531889
-4822.253971
-4898.774908
-4908.800899
-4587.124277
-4062.263037
-3595.47671
-2996.596382
-2035.297919
-1070.300482
-588.5133797
-387.1707022
121.3677646
963.7186255
1655.080881
2004.685101
2063.831569
1618.604496
719.1913084
113.3360029
163.0165436
325.4407414
421.9164045
943.9649593
1747.210524
2024.197657
1509.494506
602.1600507
-151.8085587
-246.8287024
341.6869005
1025.014034
1378.080552
1408.24862
1071.223105
471.2199004
179.991238
568.8914397
1491.208196
2936.71533
4890.614173
6468.117027
6474.086518
4844.893866
2531.165069
265.5265789
-1613.448435
-2605.308414
-2423.795553
-1771.912172
-1851.761167
-3094.95007
-5004.503206
-7062.555684
-8967.723009
-10139.20689
-10022.46763
-8863.38602
-7290.205243
-5472.935774
-3501.486744
-1794.340693
-476.56202
630.675919
1335.510576
1508.50513
1602.264885
1823.557529
1803.435506
1502.001337
1301.445091
1285.76155
1256.263076
978.5179672
178.3247887
-937.8882223
-1486.556562
-1106.239982
-645.0821893
-832.8746958
-1162.149753
-772.9046162
449.8648229
2156.154415
4098.220345
6032.269716
7598.492459
8578.808777
9087.946657
9473.731433
10070.65499
10898.71969
11504.8287
11302.19776
10289.17835
9189.498925
8475.627678
7640.096863
6071.080505
4015.984383
1923.989219
-221.2346509
-2333.530349
-4181.840432
-6006.680973
-7998.534868
-9711.26661
-10866.80234
-11728.84772
-12351.25427
-12550.14988
-12315.81368
-11411.18532
-9394.643457
-6574.709043
-4026.715232
-2511.096965
-2002.010093
-1948.806562
-1586.244505
-469.8362026
1209.533776
3199.905084
5528.765146
7759.56755
8758.229216
7860.505661
5552.655505
2582.97183
-769.648029
-4114.030652
-6495.292173
-7239.791839
-6730.88872
-5680.324064
-4203.404449
-2429.472891
-1260.739043
-1443.503607
-2715.40816
-4717.81686
-7453.286133
-10261.26137
-11929.95377
-11948.95283
-10281.43236
-6659.40944
-1355.154054
4409.58331
9509.883885
13404.4138
15702.06481
16178.61539
15000.28485
12712.89165
10354.69149
9059.761313
8996.953274
9329.307089
9378.375765
8984.718717
7948.00311
6196.486756
4262.104708
2693.687445
1335.716616
-198.8733041
-1815.383676
-3212.533903
-4421.737669
-5567.02514
-6427.091679
-6787.559333
-7005.953523
-7636.337408
-8693.395736
-9849.872017
-10911.82752
-11516.45666
-11226.56784
-10486.17784
-10226.29254
-10258.91253
-9630.439911
-8355.23028
-7176.172224
-6209.283071
-5030.291896
-3285.524242
-764.3546499
2271.22951
5046.986215
7171.300453
8923.621921
10544.76488
12113.65252
13808.36888
15471.36467
16483.39739
16555.11078
15932.65472
14784.76288
13239.40192
11770.07811
10690.72416
9638.315328
8208.934198
6614.197498
5202.70019
3883.288993
2494.267595
1197.405219
-39.00272597
-1814.88194
-4418.079389
-7047.16836
-8778.833782
-9725.658314
-10303.82726
-10266.59229
-9465.379141
-8479.176636
-7805.691477
-7527.579825
-7714.260146
-8092.075144
-8000.647356
-7359.307378
-6677.729823
-6078.904279
-5342.490308
-4410.965565
-3150.947938
-1415.877278
465.4640485
2022.556136
3015.472887
2915.195603
1086.695459
-1985.517288
-4886.160347
-6986.993413
-8787.468111
-10568.64663
-11893.06567
-12321.58993
-11624.62905
-9467.550334
-5800.777771
-1527.11593
1949.556346
3897.977624
4507.207866
4246.802977
3694.859758
3543.251821
3833.250269
3788.860457
3238.111273
3081.232093
3662.656877
4335.743994
5087.835639
6745.988801
9544.638021
12954.0593
16269.67542
18477.52077
18662.61725
16983.58048
14429.29688
11911.27365
9960.372249
8476.08931
6722.746282
4333.415129
1873.755426
-101.6252246
-1690.561237
-3046.664818
-4134.698464
-5159.420616
-6359.107961
-7528.83522
-8395.553817
-9078.942529
-9711.147122
-10097.69771
-10146.80777
-10166.19166
-10339.45179
-10281.31048
-9571.614915
-8437.348987
-7363.044399
-6382.757714
-5441.414475
-4893.206796
-4800.246529
-4483.750549
-3436.432357
-1693.783442
770.559538
3659.069823
5827.789103
6497.096796
6177.538224
5678.816183
5347.50132
5330.929922
5445.469996
5191.334075
4546.397701
3979.449826
3628.502911
3351.148089
3186.970812
3064.474087
2720.140249
2263.610022
2042.692075
1973.81873
1805.976619
1745.662883
2075.238173
2552.322258
2771.14602
2708.388743
2487.02586
1991.358566
1106.060833
60.2704667
-816.5124483
-1434.948188
-1701.679924
-1363.294171
-596.2496847
-114.5966914
-128.6604902
-134.0551213
-84.03236034
-413.6865247
-924.8736567
-1192.863172
-1520.439487
-2133.865338
-2500.798787
-2342.910278
-2140.347922
-2403.200645
-3363.519881
-4968.135659
-6656.429533
-7822.51426
-8482.64647
-8874.074096
-8912.551358
-8467.280474
-7456.565999
-5662.565585
-3274.011233
-1241.270374
-243.4550213
137.9413469
562.3566044
1002.748532
1190.070011
1174.023678
985.1676136
484.3773482
5.838444945
455.6693836
2124.583101
3905.633407
4443.473017
3684.960234
2626.144477
2129.84649
2625.164856
4016.352753
5348.58325
5721.820151
5605.649732
5978.69697
6714.642479
6998.444557
6440.675776
5152.332473
3716.369135
3012.962696
3271.278566
3865.3244
4288.537062
4376.569679
3818.033458
2519.08986
1027.199655
-125.383027
-942.4214692
-1610.666422
-2281.181799
-3047.598045
-3602.639444
-3448.378892
-2859.021418
-2837.432235
-3739.480746
-4717.986511
-4829.55377
-4053.909859
-2979.779407
-2009.245418
-1185.204146
-383.7428959
746.8611851
2564.401049
4549.749404
5303.3822
4171.581648
2045.965774
27.78558645
-1540.002795
-2606.977291
-3300.398067
-3920.863831
-4170.413323
-3402.90023
-1968.358073
-954.46502
-802.5499883
-1324.068282
-2361.722106
-3657.634732
-4834.841599
-5662.396593
-5857.763985
-5243.650944
-4370.705292
-3951.001876
-3688.40628
-2846.423148
-1650.509797
-913.754503
-737.4416559
-654.5125681
-557.513414
-647.3134734
-916.9043623
-1220.414042
-1395.332567
-1002.605103
476.3570746
2783.820752
4772.840438
5654.548728
5801.571999
5785.03142
5516.028603
5057.115344
5054.695496
5581.490892
5870.806318
5579.109281
5009.965269
4313.252681
3519.096638
2713.84433
1753.697602
636.3974232
-145.7342083
-359.6334339
-362.67542
-371.5758738
-372.9668775
-577.87296
-1082.712773
-1620.954837
-2163.655667
-2921.719816
-3585.55367
-3553.71592
-2888.521927
-2187.538052
-1740.109678
-1446.029773
-1157.241635
-637.6067032
338.6763229
1497.969529
2134.992201
1999.317908
1731.076639
2043.088457
2808.001661
3406.536481
3579.091146
3384.394604
2868.965061
2305.986801
1999.849668
1638.169453
843.2043134
6.543333131
-566.9812344
-1381.706936
-2649.911984
-3814.727113
-4644.715082
-5430.569094
-6194.994784
-6739.252288
-6956.142416
-6659.957717
-5809.423727
-4760.48051
-3696.933859
-2379.785196
-774.781051
874.1010113
2562.649668
4258.629855
5464.465206
5848.507339
5789.520731
5712.483115
5568.688115
5386.927276
5568.850439
6202.658182
6677.548938
6368.092952
5269.112806
3647.150888
1585.018333
-667.8567952
-2501.974018
-3719.959238
-4805.112216
-5926.835068
-6686.534711
-7063.946723
-7282.470801
-6947.060575
-5752.71459
-4409.965599
-3726.386455
-3659.303694
-3749.205076
-3536.721915
-2699.008583
-1457.817253
-329.1039217
655.0412899
1748.131555
2880.24566
3937.664232
5025.8389
5995.303116
6355.640993
5770.601195
4123.561097
1459.249644
-1602.466605
-3993.522429
-5284.205828
-6110.007311
-7167.393996
-8311.456866
-8934.604024
-8801.112033
-8217.876646
-7681.514719
-7577.578748
-7847.408298
-7679.885741
-6117.257905
-3340.001962
-504.6670776
1979.28432
4699.106417
7635.916615
9961.052703
11315.91644
11827.30078
11536.73886
10856.98595
10475.06382
10369.57512
10057.2638
9529.009217
9026.319182
8570.655669
8175.765426
7823.488673
7310.86848
6602.645379
5824.427732
4783.015335
3297.817861
1850.923154
1043.505703
757.731209
554.1110663
342.4301113
150.709578
-108.2568908
-299.6139856
-144.4985137
163.7995501
36.98039676
-637.3935276
-1294.013572
-1629.635314
-2143.827334
-3304.549873
-4812.254301
-6207.504375
-7404.653756
-8217.747398
-8502.978332
-8921.283842
-10160.15592
-11711.09441
-12777.42763
-13470.15735
-14012.77804
-14039.10827
-13310.849
-12014.24662
-10340.75191
-8461.464138
-6477.819169
-4244.429527
-1791.309277
426.2904575
2107.315858
3283.830654
3853.589198
3785.349453
3625.686714
3983.549445
4822.776582
5809.005736
6777.689352
7460.083366
7435.240906
6694.583708
5718.684033
4848.167022
4056.812766
3415.358938
3253.985911
3627.108413
4084.503514
4325.413614
4552.420617
4777.693652
4567.083837
3916.408975
3391.177831
3177.383858
3065.364747
3077.287868
3136.097931
2925.85711
2613.766708
2573.980564
2527.717767
2122.370544
1660.551541
1392.569524
1073.132923
579.8289443
22.00269353
-607.3281345
-1192.181888
-1429.07834
-1365.858232
-1367.4917
-1541.143126
-1786.487563
-2100.835025
-2341.026547
-2168.524668
-1572.564012
-954.5967695
-570.845859
-369.3643345
-359.8306634
-661.8148215
-1168.767258
-1585.075353
-1888.54758
-2356.306257
-2988.222204
-3431.096503
-3652.692236
-3931.49287
-4097.83724
-3831.06737
-3490.306929
-3424.222277
-3163.738226
-2444.587526
-1831.765427
-1570.706909
-1238.210539
-693.643907
-116.1742644
493.653659
1042.455472
1289.062367
1264.47272
1032.901611
395.5777968
-607.8992763
-1517.768463
-1984.15849
-1863.9586
-1073.480148
31.83530187
733.0254112
932.3113026
1300.379361
2100.686394
2744.875176
2773.549444
2436.348882
2075.657781
1663.503625
1174.211455
792.5845833
495.5365049
13.24381979
-505.0944682
-475.3366239
143.142472
701.8029086
897.6806514
886.7155859
524.8482803
-246.3513705
-854.2289604
-1018.386498
-1153.999175
-1303.424399
-1048.850274
-448.5969559
186.210332
863.8901667
1476.010073
1691.309859
1560.87062
1427.271273
1478.024496
1870.806437
2638.990701
3285.941817
3263.840246
2771.611578
2402.273783
2367.995613
2591.465649
3007.575945
3400.073762
3508.119228
3465.930482
3572.481927
3610.788362
3029.890666
1859.787853
790.9344168
176.3393533
-354.8914301
-1035.753952
-1582.076034
-2014.217779
-2733.470361
-3465.582588
-3497.395757
-3028.197334
-2820.140924
-2906.303648
-2942.431269
-2978.883659
-3047.510544
-3023.444643
-3085.249812
-3446.609229
-3972.568053
-4423.626265
-4490.611399
-3886.767602
-3022.149207
-2814.865638
-3441.407488
-4231.198146
-4751.680224
-4961.138524
-4687.958194
-3951.01441
-3256.387561
-2854.409484
-2351.400731
-1486.285735
-553.5980653
226.9072062
1045.363668
1946.441707
2540.363336
2584.202817
2406.308487
2411.114744
2567.303763
2743.483576
3010.943067
3229.45287
3075.300484
2737.132706
2633.733487
2580.017614
2324.229759
2244.946118
2551.363881
2892.247058
3211.946285
3701.497403
4114.238778
4258.075869
4401.907757
4520.322512
4180.942682
3380.834114
2590.733233
2195.69519
2370.569827
2937.977797
3272.921986
3005.004917
2522.900586
2228.218105
1916.880152
1366.308748
783.3659485
323.5469629
-145.5577536
-636.0156277
-983.4294745
-1226.231355
-1539.648525
-1828.802416
-1868.114766
-1836.373464
-2183.604252
-2885.622262
-3461.690571
-3822.27664
-4235.931323
-4485.299166
-4226.332737
-3909.250196
-4045.604978
-4228.154371
-3972.398653
-3489.686756
-3047.453741
-2712.949581
-2653.045493
-2784.697353
-2724.415835
-2454.126684
-2209.485931
-1934.652784
-1612.567461
-1476.011968
-1419.262223
-1053.889511
-429.7841895
127.3134793
581.8654588
898.8321569
803.6402988
372.0128638
146.9836655
345.3159717
652.445278
922.291187
1380.714602
2053.51127
2605.97332
2878.30643
3086.141212
3340.847928
3471.785125
3502.722057
3652.267089
3677.005013
3104.054641
2184.275615
1534.548275
1131.456885
784.1383568
760.6267059
986.8970137
862.1488753
330.9732785
-168.0537951
-598.4363467
-1081.785074
-1459.942429
-1683.453914
-1785.916041
-1509.52538
-735.5787055
161.0259586
848.6789233
1292.137582
1442.891872
1384.707463
1491.791555
1811.808966
1785.163517
1052.24757
-11.09565301
-832.0843252
-1188.326656
-1142.455946
-942.5900967
-1011.23354
-1592.064944
-2388.923642
-2926.169803
-3222.703291
-3610.351488
-3919.152059
-3616.531045
-2817.979718
-2169.967327
-1743.983863
-1168.606834
-484.0088892
257.3753001
1369.076896
2662.928336
3456.138685
3717.924977
3878.70582
3897.222785
3626.836911
3289.727989
2969.942803
2512.576005
1943.529752
1315.737592
589.255304
-13.46932715
-217.8092342
-231.7282299
-414.5097332
-748.4337141
-1109.11092
-1481.04899
-1640.144958
-1341.257067
-939.9344989
-1095.733779
-1820.970321
-2485.745959
-2744.175785
-2806.871605
-2764.187742
-2297.477452
-1272.497702
-75.85215141
871.2324836
1406.163225
1361.610428
771.6297769
256.401133
273.8464106
393.6660319
188.9396343
-72.02063652
-237.627231
-466.891441
-480.1861248
45.576611
740.0059257
1162.374131
1356.135912
1400.471638
1330.786649
1363.514232
1513.934607
1519.282366
1404.016644
1370.453449
1250.929521
832.2400558
333.2545561
-32.80246031
-407.8735283
-858.8609311
-1245.850672
-1641.771549
-2239.803052
-2850.24772
-3064.130406
-2856.235681
-2533.882242
-2201.013481
-1811.525228
-1658.548694
-2096.681427
-2733.323151
-2740.140767
-2019.681598
-1069.278218
96.0244266
1620.990853
2948.208211
3565.288123
3758.077284
3784.505583
3510.189091
3099.186735
2829.004459
2549.503043
2144.807574
1772.096754
1398.924433
963.3782477
708.4680742
720.9353866
760.0254765
757.7493611
739.9182586
480.191888
-49.34005776
-419.9853137
-466.1184814
-533.5937806
-732.5069415
-779.611332
-689.0970229
-807.7072955
-1150.088357
-1394.798329
-1510.373903
-1783.814974
-2229.753044
-2528.283632
-2605.985166
-2692.561965
-2720.178382
-2397.454128
-1922.195205
-1699.976598
-1510.700611
-1008.559514
-490.07697
-153.0872831
365.1906425
1012.928266
1239.615994
1041.623308
829.705772
729.9498735
874.0293356
1468.627619
2223.525905
2623.71392
2578.826239
2206.458737
1612.513208
1139.644991
1086.870892
1301.227468
1628.415494
2232.546017
3026.001603
3526.794913
3567.757952
3419.622688
3180.152042
2754.924392
2341.979073
2279.042947
2501.778554
2659.203205
2641.239692
2518.259033
2098.881743
1160.035788
52.87655818
-687.5153265
-1259.755669
-2200.442464
-3385.452322
-4488.383689
-5706.59575
-7005.323577
-7799.635929
-8050.308677
-8273.588844
-8449.137582
-8283.621346
-7991.251741
-7839.310799
-7755.443738
-7698.106862
-7591.345896
-7177.496976
-6466.929372
-5657.981598
-4523.834271
-2745.599698
-593.2880491
1500.031871
3509.880137
5427.031429
7012.624282
8264.558472
9390.77526
10224.43352
10348.47948
9738.22058
8694.980249
7339.792325
5767.993192
4485.368469
3995.913856
4058.994637
4071.056957
4044.77613
4329.938524
4632.899318
4465.018052
4132.636078
4038.755068
3800.236518
3167.424564
2594.712892
2200.235658
1606.992521
880.576363
301.8553408
-252.3161546
-838.7617429
-1246.991341
-1531.872983
-1879.318326
-2215.846525
-2528.780219
-2977.59346
-3518.072364
-4065.03158
-4767.931649
-5578.219144
-6115.316529
-6311.510252
-6462.182627
-6544.143893
-6283.471678
-5808.036201
-5455.355587
-5100.125358
-4374.10059
-3401.597228
-2676.425943
-2277.432799
-1825.659042
-1237.458443
-840.2417162
-672.1402536
-458.5736116
-262.5483758
-221.4810689
51.935609
770.6847708
1404.110818
1688.355139
2009.644802
2312.186664
2106.100486
1524.009667
1059.940286
792.3064137
651.127318
628.3846407
539.3843796
326.5715531
242.4090619
303.7032486
262.9966571
169.4379646
210.2932186
301.0324517
418.9025363
762.3488965
1236.219849
1512.581316
1688.858378
2108.449343
2648.017546
2927.809861
3007.998539
3213.92686
3508.624259
3627.823921
3636.656312
3786.696339
3966.614436
3904.837013
3784.650394
3920.614117
4041.954813
3803.259118
3558.497672
3634.266044
3655.035126
3445.519539
3397.762331
3515.597214
3475.95204
3438.873045
3564.730524
3469.182115
2931.073387
2169.374244
1262.76543
184.3208181
-938.1173693
-2139.007559
-3573.183916
-5097.018802
-6560.26153
-8131.817961
-9760.034501
-10975.4672
-11612.373
-11959.32904
-12082.4549
-11791.01996
-11192.18734
-10558.90574
-9830.191814
-8838.753527
-7792.19882
-6981.469397
-6212.22271
-5054.996658
-3527.183299
-1982.168123
-474.2613081
1084.702459
2365.053931
3037.315952
3341.06611
3470.190874
3229.989863
2890.399696
3133.329484
3916.850454
4675.297114
5269.684481
5695.136457
5728.089668
5460.919341
5226.047607
5050.049667
4961.193352
5227.216958
5807.93964
6350.788874
6754.409307
7021.912276
6969.652707
6653.129265
6445.085705
6391.044888
6223.452711
6022.154054
6072.489031
6211.262309
6036.790104
5560.843693
5033.778406
4371.716349
3369.788821
2279.218605
1520.779873
965.423548
214.9940338
-573.3310524
-1011.821623
-1336.970138
-1923.030621
-2498.091418
-2897.401129
-3689.557662
-5224.85494
-7245.899089
-9656.433791
-12311.91722
-14494.07867
-15793.7045
-16618.58006
-17188.97756
-17166.73215
-16379.36664
-14954.29582
-13044.75576
-10905.03664
-8692.230631
-6222.672027
-3490.081529
-981.0409079
975.160182
2503.731136
3621.042271
4174.646082
4378.492261
4648.432877
5023.863967
5375.776314
5938.575345
7084.331082
8764.462449
10543.26479
11968.46677
12632.35101
12200.70592
10849.27278
9383.16093
8324.182124
7271.077952
5864.436609
4605.482497
3849.545849
3142.640529
2324.567343
1859.338576
1740.377877
1534.773991
1263.070246
1095.613959
914.5421044
744.0798522
709.701319
630.5572364
390.5278192
175.2332298
-26.13275422
-411.5963022
-910.5048084
-1401.540643
-1966.825567
-2499.041204
-2729.770615
-2810.132146
-3088.478692
-3417.07123
-3449.263767
-3318.781062
-3325.394699
-3359.54607
-3260.606366
-3311.933398
-3780.047214
-4324.796123
-4462.257263
-4309.766286
-4229.965187
-4075.736017
-3587.236208
-3095.74601
-2903.292023
-2635.791746
-2099.395267
-1725.332221
-1534.509658
-1042.222001
-339.4594142
152.7646595
559.7799532
1066.291303
1430.012692
1542.052741
1520.804599
1318.973971
969.6583521
699.6052339
482.4908567
184.5852776
0.061273262
60.44719322
105.4752663
37.3751695
131.5450542
464.2579199
828.6896807
1172.748039
1490.996892
1543.239422
1198.328662
711.136688
289.8233427
-211.4602786
-832.9139997
-1136.136989
-731.6720166
109.2668804
887.4155815
1598.956899
2379.12758
2939.153757
3184.656016
3637.360874
4450.58862
5085.460737
5410.6014
5726.105669
5792.672051
5307.100307
4725.425456
4501.673548
4485.805062
4558.547074
4782.032478
4979.436747
4952.439033
4684.833014
4072.920201
3079.047999
1948.712964
741.3764186
-787.4610033
-2559.164982
-4233.944054
-5903.170879
-7834.61933
-9742.941285
-11127.46059
-11975.11449
-12463.53961
-12406.78867
-11580.98847
-10238.61454
-8820.712369
-7471.042124
-6276.478358
-5622.54637
-5696.091031
-5958.993297
-5815.085773
-5363.192248
-4796.930567
-3886.561802
-2756.022737
-1979.926783
-1458.032053
-596.6240713
503.5136844
1435.046058
2360.097451
3438.371899
4405.128548
5176.689061
5855.79237
6296.31538
6412.063368
6389.634689
6331.456785
6330.416987
6659.220418
7299.208368
7819.184469
8044.910007
8132.153845
7972.446407
7358.619603
6560.478705
5980.850969
5548.274855
5025.309722
4490.207125
4038.743993
3457.858337
2643.562799
1953.26599
1697.543362
1652.333409
1579.629922
1773.38175
2413.904057
2975.272202
3070.546825
3061.150348
3109.904925
2793.263478
2095.437682
1437.310512
778.895368
-100.7244867
-1082.986287
-2244.93491
-3893.17765
-5855.484769
-7707.650052
-9349.132039
-10723.9374
-11686.18709
-12338.03909
-12774.97278
-12786.15951
-12365.72585
-11872.35262
-11371.63267
-10627.38416
-9747.882742
-8979.275906
-8092.10858
-6773.568804
-5255.769954
-3896.567265
-2581.114376
-1094.181639
339.4334188
1412.729017
2317.249194
3472.044048
4927.922665
6508.649854
8160.207519
9588.109707
10147.03459
9769.140047
9184.848391
8730.104975
8102.198319
7391.544002
6903.821871
6315.524298
5332.787408
4378.45491
3787.525207
3378.356442
3013.835778
2608.51602
1940.20051
1067.87328
290.758509
-373.9283287
-969.6673239
-1280.458328
-1306.683931
-1365.592173
-1430.531941
-1188.666812
-745.9499428
-466.2334941
-344.8879885
-222.7432143
-234.2491459
-499.9346401
-796.3538791
-966.1858207
-1265.98218
-1908.321214
-2612.583182
-3069.909415
-3509.553571
-4207.276611
-4826.072186
-4991.693582
-4977.935296
-5020.543051
-4794.856547
-4265.927303
-3882.664439
-3590.165725
-2992.046161
-2258.507901
-1653.579429
-942.6996972
-42.32465891
795.8014101
1590.297203
2458.99701
3265.885764
4022.528319
4912.878716
5819.76279
6547.661886
7170.952499
7661.578899
7802.528943
7648.262525
7338.94873
6655.862342
5534.275592
4557.02305
4197.663538
4120.753423
3813.84493
3305.921963
2771.684304
2027.11952
941.3104455
-118.9459797
-801.5860528
-1362.207019
-2174.165448
-3051.374933
-3719.134311
-4395.670868
-5214.617827
-5918.188198
-6655.557523
-7879.780859
-9264.846725
-10084.84302
-10330.7044
-10283.84123
-9847.931758
-9029.970841
-8044.463751
-6857.584296
-5489.836701
-4252.101032
-3196.562918
-2152.759902
-1307.646203
-907.8060579
-767.3436979
-664.7399178
-578.3964631
-277.6972607
516.1025198
1556.308852
2369.430475
2876.271477
3186.135226
3266.323503
3284.735326
3765.144967
4969.003168
6483.103501
7711.065146
8431.037343
8604.76046
8095.893832
7057.70222
6122.738126
5601.869173
5099.17754
4472.907238
4189.200243
4283.717956
4287.327399
4269.745424
4534.077347
4730.969319
4508.949333
4138.581388
3783.071889
3263.519021
2660.883951
2200.771239
1884.350041
1690.227428
1508.090657
937.6753642
-187.884116
-1541.273016
-2965.545317
-4611.703041
-6286.065186
-7579.030195
-8538.118302
-9392.254402
-9978.567322
-10140.96949
-10187.3262
-10392.62798
-10554.52288
-10448.46234
-10240.91529
-10078.26007
-9700.5175
-8899.006333
-7955.058209
-7103.645092
-6061.268164
-4719.403203
-3574.930456
-2754.308961
-1605.601041
157.1736684
2125.699377
4139.883253
6204.641469
7874.512908
8881.470639
9559.282246
10071.16425
10268.7002
10264.42153
10197.56751
9923.251051
9438.472357
8903.163269
8261.728584
7530.935458
7018.498916
6792.038498
6595.946025
6400.15513
6278.056636
5971.532068
5313.066054
4643.421451
4214.075717
3696.758215
2696.940983
1251.547882
-416.3829821
-2156.30642
-3717.404487
-4759.329156
-5302.246166
-5824.238533
-6626.498201
-7495.670326
-8267.118533
-9052.501122
-9623.83394
-9554.64862
-9107.331987
-8790.969151
-8357.257629
-7480.482473
-6579.293659
-5964.710573
-5375.748587
-4781.892271
-4363.162755
-3880.980021
-3093.075143
-2184.947782
-1271.197429
-243.2967371
884.0012393
2093.288335
3368.463384
4285.896015
4413.150525
4134.568661
4203.617131
4742.863547
5458.269034
6281.844014
7100.088201
7486.525565
7282.946865
6883.625529
6560.527808
6053.891324
5154.87227
4150.106919
3290.224226
2341.132313
1151.832722
64.75864108
-821.2407981
-2000.686412
-3578.701893
-4975.007673
-5987.124521
-6885.51677
-7511.054151
-7582.723187
-7340.123714
-6907.780992
-6019.141915
-4796.023496
-3690.416249
-2798.215807
-2065.592949
-1572.79126
-1224.327916
-905.0024515
-810.1286242
-951.042223
-860.4397722
-241.8548445
753.8912706
1976.007775
3282.475178
4322.144028
4923.934263
5313.66271
5599.504403
5611.661109
5414.79363
5343.460611
5420.056286
5302.19713
4908.024497
4576.018369
4421.374853
4068.797203
3359.322114
2700.537257
2268.917176
1703.076245
1031.865734
753.1308161
728.3446763
389.0181848
-123.1919094
-413.9949557
-711.0214009
-1190.166026
-1527.403889
-1638.592192
-1739.588665
-1807.912027
-1834.854248
-2025.889347
-2368.363531
-2699.615742
-3053.94744
-3371.58018
-3416.958758
-3294.562634
-3334.122941
-3509.192079
-3677.452034
-4018.005419
-4595.938728
-5053.323616
-5196.558602
-5264.295747
-5347.572829
-5197.659091
-4788.195013
-4460.722311
-4326.520936
-4045.219829
-3418.500931
-2704.009282
-2048.709768
-1199.11512
-147.6960749
700.3862439
1345.427425
2166.616726
2992.853154
3428.272176
3754.869395
4300.647157
4745.216157
4907.672376
5061.768848
5200.766241
5145.6353
5061.938338
5052.171147
4944.618817
4788.976029
4754.831672
4730.141146
4648.932934
4666.611781
4715.823474
4617.351699
4558.160037
4712.015083
4772.742025
4521.646257
4271.604399
4237.377952
4110.655932
3611.757327
2874.702794
2076.22493
1193.356618
266.3965063
-563.6083727
-1419.764538
-2584.424002
-3826.640274
-4509.270958
-4673.444112
-5102.122485
-6007.316581
-6846.463798
-7504.162752
-8245.783457
-8853.06926
-9136.850122
-9456.563789
-9849.312297
-9874.79381
-9579.064139
-9340.426603
-9053.73103
-8385.892169
-7223.350911
-5533.219964
-3488.858255
-1556.549333
55.66033421
1505.890863
2750.979513
3655.186437
4488.231371
5499.591675
6384.218105
6812.863614
6916.975695
6817.061257
6377.326483
5743.932896
5415.528576
5479.757783
5392.091414
4820.876111
4142.250234
3692.455391
3121.548283
2062.925207
827.6334577
-170.4560966
-901.5892095
-1196.652402
-827.7932303
-248.2752851
-1.351250715
206.1412454
680.4345388
1007.491365
982.0610034
969.9067354
1076.608325
1133.695057
1165.163407
1090.111081
698.0821166
192.4995012
-21.58453702
97.97890261
398.2172731
717.5239176
729.5553009
281.0468772
-267.6403195
-610.9553059
-896.7875638
-1135.147098
-989.2571442
-499.5088426
-205.4997183
-322.6179675
-524.2178799
-634.1269294
-851.4469688
-1202.159946
-1394.842498
-1371.464853
-1417.544864
-1531.304572
-1366.240285
-1032.008741
-1053.281695
-1361.276024
-1468.381062
-1524.805157
-1871.814229
-2097.759221
-1778.647247
-1199.628467
-581.4555078
209.0849588
1046.911465
1717.112175
2267.397681
2596.361279
2475.091631
2051.878889
1564.56433
962.5620138
334.6317487
-33.82270666
-250.644339
-644.1184326
-1112.787311
-1398.063218
-1618.085585
-1906.741563
-2047.568819
-1912.576286
-1721.529968
-1606.43817
-1419.275145
-1115.88337
-897.2265383
-841.1053378
-760.6066843
-585.1218901
-491.2304975
-445.3900442
-163.5748661
226.535375
276.1170727
113.8496115
201.0014248
373.5831906
333.8304866
413.2074942
760.8370487
915.0511084
806.9248687
834.2443457
948.2068669
887.0452908
785.5495449
783.6236628
804.4292429
898.8013796
1068.224026
1071.54712
900.3050254
818.1414625
791.0376427
613.8654018
408.3831014
317.1190592
140.8875363
-212.1106088
-498.5086173
-652.7830761
-886.1550089
-1142.193797
-1086.914605
-720.945115
-427.9678258
-320.0452148
-88.60857543
326.2078768
541.4401438
490.88202
618.5421513
979.0217261
1126.090778
1113.517326
1362.05275
1632.701645
1510.507449
1338.303372
1469.409991
1618.722295
1650.432812
1769.320007
1876.499763
1797.720054
1664.358979
1507.038562
1244.342048
1051.244093
991.3177126
771.400001
337.0716793
-32.7154811
-325.8091228
-699.3772508
-1032.868152
-1256.976166
-1606.660129
-2058.901031
-2203.082344
-1969.159914
-1779.704895
-1848.842547
-1984.673737
-2124.925159
-2462.090131
-2947.113052
-3189.643253
-3032.388657
-2749.465624
-2451.020023
-1902.47968
-1189.357631
-704.1180865
-309.4801677
389.2781424
1104.575561
1393.129317
1462.535353
1466.17522
1113.777653
484.3169077
-20.46268596
-369.7612322
-548.9690376
-260.2544964
429.608491
1042.48779
1338.015863
1291.723043
883.3853249
348.4252175
-7.207046025
-273.3052445
-574.8665128
-661.7752691
-486.978608
-526.9204265
-986.0203182
-1415.820914
-1485.385871
-1403.417719
-1366.563017
-1258.787414
-1047.328861
-909.9947292
-832.4470652
-569.5956076
-143.9710952
144.5222641
354.3687479
843.5386836
1424.54408
1538.53573
1321.436279
1336.80956
1530.092737
1639.241168
1865.580781
2188.938726
2201.801787
2017.194679
2037.402593
2099.666432
1939.63344
1740.694376
1608.533597
1396.599591
1104.22182
731.1643028
166.2493621
-397.6787103
-624.9681405
-619.77241
-646.0086076
-622.5800928
-495.5500976
-509.6960342
-683.6606051
-702.1926847
-524.0140337
-415.5718375
-381.2097372
-198.8384077
48.54131841
47.46704011
-175.4843976
-266.5689312
-161.2735506
-143.722195
-193.9603209
7.637768103
311.8362935
295.7867739
193.7815313
461.9967931
803.6157422
832.0478426
838.1521113
961.1464487
847.7682835
540.0707798
387.5285917
285.0015334
11.12984953
-327.5556988
-666.5860779
-1016.644015
-1222.591475
-1303.414175
-1513.346818
-1798.29596
-1922.482917
-2024.675287
-2308.836719
-2595.103494
-2757.866021
-2971.213435
-3161.774942
-2984.676466
-2497.684766
-2078.711077
-1683.805493
-946.5911202
45.10932622
776.7431057
1091.415404
1319.007878
1597.470679
1715.657831
1721.883549
1921.256331
2160.235784
2038.096336
1755.604285
1670.416717
1488.611049
1015.090105
748.1097368
874.1558586
959.8515367
917.9527956
964.1736045
983.8684314
925.9604554
1009.196211
1138.442463
1086.480421
1068.431818
1311.861149
1632.074523
1862.012802
1934.795617
1564.739706
648.4483868
-358.2073509
-1083.259646
-1680.899383
-2267.970029
-2651.531001
-2818.375638
-3002.112375
-3187.130025
-3085.277806
-2559.605659
-1659.415115
-393.2325124
1078.01753
2147.243583
2236.961333
1586.51139
931.5307501
458.3479932
-67.60776454
-428.4649326
-358.0368948
-246.9502203
-327.5299295
-154.3828441
343.4076324
664.7896723
805.750453
1133.703862
1534.560493
1705.687572
1605.399133
1196.462765
511.3698719
-173.1807626
-763.5470883
-1402.889009
-1955.531192
-2193.028949
-2290.523869
-2427.661234
-2392.66373
-2106.263181
-1828.143244
-1545.421055
-972.574553
-259.0756204
117.6882201
133.498498
150.2698601
186.8926222
-14.77804023
-275.1820898
-72.23927842
605.8258341
1235.133401
1641.448853
2061.147671
2338.141801
2138.236887
1791.280926
1729.317419
1618.493458
1141.757934
646.4561152
283.7807677
-195.6671678
-656.3033464
-855.3195623
-1039.775971
-1390.376596
-1710.933413
-1982.94973
-2339.754738
-2678.751716
-2907.240911
-3033.064628
-2831.370221
-2120.716069
-1160.620726
-128.0142603
1258.373263
3055.943617
4744.013875
5908.443464
6569.674039
6720.83983
6274.582474
5482.080454
4750.380783
4058.348835
3084.635629
1851.839575
704.396525
-328.5733865
-1518.03128
-2731.155079
-3500.213851
-3827.186189
-4011.718584
-3886.208211
-3291.817679
-2732.741151
-2543.757228
-2391.811064
-2198.419018
-2264.484505
-2464.875585
-2539.181772
-2621.696359
-2694.874453
-2444.860981
-1895.196303
-1277.106438
-579.6851356
139.5210489
648.1476586
988.7824268
1329.358263
1545.908439
1559.371741
1583.159786
1622.94336
1417.713572
1055.828538
891.1344227
860.0810036
607.9310662
162.8211714
-165.4135646
-390.1976254
-761.6500783
-1201.539813
-1373.919337
-1242.740762
-993.1433958
-496.5068061
418.7519158
1331.330687
1784.312253
2084.882021
2514.458143
2581.690786
2072.047753
1570.949373
1274.180456
776.5658917
126.882979
-315.7257959
-639.3605585
-1051.943092
-1516.550011
-2007.985526
-2419.213885
-2470.710484
-2167.119426
-1765.784764
-1242.597138
-489.3134121
246.24902
725.8762319
1018.416585
1085.600618
765.2162635
297.6837502
132.526034
249.8121888
326.5910558
375.6369691
605.3351127
877.5983055
899.3877461
788.6145871
870.9748443
1030.936579
918.7402881
694.6670589
754.6859058
906.5943869
798.4598366
716.3118899
892.947674
886.678784
572.0373188
472.1405951
622.9999606
589.8261526
473.9771048
572.4127581
709.3218651
738.6551459
777.8167723
737.7137479
476.4162797
109.6817669
-326.3356099
-903.9895132
-1449.675516
-1837.908027
-2289.467145
-2825.016841
-3058.613017
-2895.080069
-2668.563201
-2443.61675
-1953.141651
-1215.502135
-529.1643687
40.92243882
612.2174356
1068.122335
1190.177819
1093.29042
1045.838391
935.1643104
475.4317526
-124.6354059
-431.3075038
-585.5065301
-930.6445217
-1195.238208
-1031.503581
-676.5717424
-281.6134414
336.962702
938.3514431
1118.337828
1072.095261
1031.194798
760.1608784
240.8919397
-183.1353211
-422.7108142
-533.1020366
-435.4582346
-264.052762
-288.9806248
-417.7968462
-464.2384894
-551.6066102
-693.383886
-622.3181659
-384.5494519
-334.9490236
-444.608798
-394.5682777
-242.1040675
-261.1125634
-342.7570184
-196.4648779
84.88151012
204.136403
209.6247386
375.9926884
686.2417678
952.0396159
1289.250984
1803.972696
2056.501145
1699.725094
1188.95894
947.1052286
681.4511781
271.9632646
85.03002489
74.28322277
-61.4540958
-83.64555288
299.2034754
896.7114285
1557.462679
2268.913286
2777.035322
2925.66758
2884.214605
2646.705236
2078.004143
1413.911179
918.1674871
421.4440446
-200.2406367
-720.6015723
-1087.204216
-1517.803528
-1981.915242
-2295.208942
-2581.960996
-2985.592273
-3196.477299
-2874.41117
-2256.395643
-1784.35531
-1396.330528
-801.8645036
-228.9041021
-116.0310281
-237.2035355
-69.3386275
220.3119228
207.6059784
106.5718893
171.617641
124.3100954
-6.293347253
242.4736006
735.5953449
962.5650382
958.4438661
882.1492282
547.3360189
12.83130981
-383.1458231
-621.7417762
-808.5855056
-843.9389584
-758.843943
-718.441885
-664.093847
-560.3598144
-612.4777607
-799.9497601
-827.8721536
-736.5911408
-825.3411784
-1016.41223
-1019.905944
-931.2116668
-1039.733495
-1293.306113
-1448.22834
-1512.810785
-1618.123975
-1638.253366
-1374.954596
-984.1257609
-711.7997737
-374.6849245
235.8125613
756.4337616
897.8230995
1076.875962
1516.410935
1722.807543
1562.62716
1519.33233
1643.210891
1650.923803
1704.389401
1969.986121
2212.793583
2364.33556
2540.981336
2599.524186
2451.962813
2276.873551
2061.831429
1677.93218
1306.611772
1094.860658
843.8928675
518.5150494
372.3670685
347.3344405
132.9294434
-194.5930968
-339.5487539
-388.4154213
-594.2057569
-843.2293832
-873.4441541
-753.6689339
-700.4186363
-649.3556865
-441.0319618
-240.7356525
-275.027141
-350.9220339
-247.5206757
-239.8334855
-488.9533016
-549.7156599
-268.6030533
-170.4403325
-388.5850317
-513.8778644
-581.4330562
-843.4854158
-1046.641073
-990.6972805
-926.7804704
-936.4903123
-897.0179363
-922.3961264
-1073.435395
-1173.917255
-1235.161066
-1360.309771
-1381.759977
-1231.138451
-1161.023521
-1189.874907
-1045.339586
-791.7466647
-723.2682514
-742.9237799
-586.831322
-380.0184051
-341.9407136
-312.05803
-91.77248941
121.8193988
116.4879966
132.2496764
446.8437888
798.1491028
818.081437
727.1324954
860.0539425
945.8845969
721.9738562
568.2301265
706.4770958
793.9691643
813.9722764
1053.416605
1231.133891
992.6816987
669.4081234
550.257096
404.2968838
162.5369169
7.521231667
-101.5305761
-213.4616228
-204.0472336
-129.4257486
-109.9726586
-4.197278152
228.1872124
329.2737148
276.3702243
331.8115112
459.0602871
438.797117
434.5502416
725.1071908
1141.160037
1360.806538
1441.282902
1586.375767
1694.670731
1555.517608
1261.329769
1015.759603
724.1995223
263.6737536
-71.26527735
-33.48934527
39.27205115
-102.8073502
-95.0595151
180.1802736
278.6805201
185.3232088
274.0501782
355.6498017
106.3684828
-184.8341393
-268.5625043
-351.8826232
-493.6794507
-580.0025215
-697.9663089
-851.7279199
-892.8491211
-942.3093972
-1175.508
-1431.291363
-1632.073226
-2019.297076
-2593.081012
-3035.422748
-3293.565323
-3517.20486
-3580.619898
-3327.791477
-2969.150597
-2704.250139
-2345.977902
-1739.68208
-1151.814115
-839.5552275
-581.2332158
-78.16804166
487.20644
839.5234172
1199.377599
1789.404591
2255.07883
2358.792259
2455.747231
2584.426351
2271.215081
1648.517891
1344.906396
1355.61438
1329.982325
1310.046958
1302.596349
1135.61067
990.220936
1076.078843
1158.638179
1107.627855
1140.781616
1279.195297
1411.358721
1672.627451
2065.398314
2265.508304
2211.067409
2144.765137
1999.530326
1542.313305
947.2516353
504.4829277
104.1490349
-426.7230881
-905.7982792
-1163.868
-1417.027515
-1864.443883
-2262.613039
-2328.961328
-2253.406226
-2298.087899
-2272.440461
-2042.320269
-1982.22869
-2187.184718
-2110.138652
-1633.702496
-1283.339167
-1074.447526
-607.1037765
-81.75890094
156.1287919
339.5287161
624.9609277
768.8901838
766.4110504
809.1040769
849.2925638
853.0510095
908.3629032
914.2389067
793.2936371
729.8191812
728.9749438
549.5694645
282.7427527
224.1052419
241.198848
62.07885812
-120.5309354
-50.40041548
51.15291704
-71.69717933
-232.484962
-224.0189278
-231.1717959
-415.6300782
-518.3853
-323.0822387
-123.2344306
-181.377083
-170.4012131
169.4258689
445.1773461
427.6207774
520.9487013
781.9180846
731.487339
422.5715539
276.4750419
149.3640073
-168.974663
-371.6319471
-354.3846287
-411.0117853
-553.1649734
-645.5094966
-795.3140233
-965.9999674
-938.093392
-787.647465
-647.9102809
-347.0348673
130.8481309
473.6762696
613.5856311
707.4252743
616.4671792
195.5771107
-209.0324572
-246.6680199
-119.9243174
-137.3705589
-184.5809545
-49.04219294
156.9666587
267.3792279
409.2131847
697.7114815
899.6453098
847.1184898
807.5186231
911.6067887
796.9093595
393.6100979
179.9979251
215.9152136
105.7364313
-39.40131166
62.67376158
82.14834161
-217.8599437
-477.9749113
-568.2560784
-719.9089701
-848.2756959
-804.937707
-782.9921448
-836.9068183
-783.2525837
-697.1963315
-735.8838066
-781.9775662
-785.817786
-847.731125
-777.2612949
-335.6025501
205.7023103
487.1546692
655.5239715
916.074283
1054.782083
917.8295125
780.0805622
819.6787828
756.2812507
388.0737022
18.66334103
-60.60831808
-61.90086852
-185.0317096
-145.1820034
184.64501
367.6559897
251.3429072
236.7137564
290.5993176
-5.588065076
-422.222178
-534.1848871
-643.712157
-1007.97655
-1197.114835
-982.3324571
-648.7721978
-305.2379101
66.45696379
272.0474064
247.8196016
123.3547467
-122.9339344
-436.6093084
-494.4943354
-192.6951075
275.8211393
934.9841354
1878.81288
2794.536775
3340.694444
3608.661786
3679.620922
3314.183983
2495.943918
1666.689505
1103.850138
596.3080955
-36.00281233
-618.9480266
-1100.292932
-1810.080507
-2801.83021
-3515.440889
-3652.691697
-3630.986836
-3626.910636
-3256.403997
-2584.645118
-2088.403699
-1631.915734
-890.0822895
-204.628376
125.838325
355.3881322
507.4295977
313.9631372
-86.74892165
-396.3408375
-594.5738383
-623.6003487
-393.542461
-115.8001973
46.86012254
243.7409103
444.6103509
401.6565371
223.1220381
197.0644696
220.437728
132.2606694
188.3410324
575.3495595
978.4087334
1106.821388
1123.19704
1213.810051
1231.660961
1075.307944
985.9790599
1115.212343
1203.303952
1107.871498
1143.268344
1388.742088
1401.822877
1133.359889
1072.175504
1170.998707
978.6235403
712.5364253
759.3576813
774.7168529
466.1017819
192.3504604
150.4648832
137.367515
112.5725288
75.23065444
-123.2121831
-394.2266276
-532.5571722
-634.9345196
-778.3482028
-800.5896326
-784.4739932
-997.565861
-1274.868368
-1292.850478
-1238.118058
-1430.780803
-1717.353544
-1861.492857
-1986.059671
-2171.943196
-2192.502233
-1985.813243
-1863.53111
-1955.48651
-1922.319625
-1544.733476
-1120.445988
-867.9985228
-516.2783444
17.65035432
335.8557603
427.6157991
755.8497638
1228.470013
1400.604974
1475.392565
1757.160299
1903.640948
1755.912183
1700.847085
1766.706105
1648.074103
1439.098145
1334.451021
1227.944203
1101.438639
1040.907764
913.4479677
677.2199971
549.6446302
506.6298994
303.8614474
15.46300217
-177.1527549
-406.0831873
-662.2021223
-522.0292573
103.8408098
656.3365414
769.8679711
710.5476357
699.1776273
515.6743641
86.2065582
-181.7062469
-70.42332706
12.94784839
-227.3249305
-469.0578008
-570.0061847
-940.7118549
-1536.681511
-1710.972881
-1455.468248
-1352.000051
-1376.377667
-1181.779869
-938.1565558
-807.6624403
-598.7330055
-400.6816118
-476.2610157
-678.357759
-767.3510361
-737.5416703
-549.1385395
-258.020989
-184.1483268
-342.8048735
-306.5378949
40.13733076
400.7586411
714.4967921
1062.644623
1193.882395
886.3129597
374.368003
-77.08992284
-488.921758
-771.6013517
-598.7673596
89.59425358
916.528473
1569.978096
2092.879688
2510.455604
2625.724768
2492.753614
2516.326349
2664.336992
2386.909075
1695.867999
1184.499398
823.1282355
132.5068862
-714.647272
-1328.538771
-1863.322129
-2383.065009
-2589.124643
-2508.600367
-2350.716188
-2006.140621
-1472.477095
-1040.221496
-757.2729377
-492.4549935
-313.7369313
-214.3910164
-37.41523969
74.52497276
-113.480899
-378.3402349
-419.3816255
-377.5531432
-371.019125
-148.5479236
315.8535272
581.173776
437.0743031
209.9182487
153.1395385
100.7339828
-70.86856983
-157.8641426
-86.34355024
-150.8431585
-432.6243714
-562.5948559
-442.2854659
-406.0577868
-405.4007657
-113.7665259
196.7246135
152.0366343
124.4635815
408.0480104
596.0294305
555.1226761
662.1659589
884.861694
910.4616736
813.1943829
724.9165688
565.9216427
419.0897447
410.4261352
406.905068
359.1971981
387.911071
349.4467436
52.11291071
-244.4803773
-271.9730381
-270.5053383
-458.0217218
-590.7318428
-506.1252469
-442.3446394
-515.6256404
-506.123592
-367.7505797
-387.5866556
-633.0090773
-749.8100059
-585.5408366
-487.1503751
-602.1988072
-544.7852559
-214.2926888
-57.94644908
-123.6286678
-2.995987902
194.6952555
141.0440329
140.2523541
446.2338319
660.4622183
606.816721
584.9902262
596.8588833
470.3039216
340.3439362
274.7019987
151.7426574
68.84530566
115.5736515
84.27281211
-60.10279007
-78.55718266
-13.93531255
-81.29783671
-146.9062161
-19.92884866
138.0274075
218.6906233
412.5999416
745.7215061
994.6346442
1164.679863
1462.072509
1814.83585
1945.691709
1885.481233
1936.415867
2072.247863
1890.912726
1370.811438
1022.075112
973.5294119
806.0892299
538.215273
562.8781678
627.7696822
271.4351176
-209.5202302
-473.0381228
-807.1343809
-1309.995083
-1678.607573
-1971.388984
-2410.174425
-2836.16817
-3119.277053
-3389.400357
-3628.790244
-3727.669709
-3711.986811
-3497.709482
-2970.10219
-2380.609273
-2006.469933
-1673.516169
-1221.412124
-911.6488376
-880.0219845
-847.31297
-706.3814399
-711.5058285
-897.0462104
-941.1829627
-722.7039833
-473.2850212
-270.7696957
128.5940144
774.2253143
1328.801189
1646.5588
1945.796256
2149.426052
1917.713329
1510.303431
1501.128738
1770.569172
1983.632083
2386.141101
3043.235302
3432.531415
3426.364853
3391.709955
3374.155892
3287.464196
3268.295811
3198.014261
2788.953066
2203.71545
1715.15038
1188.031979
501.763072
-206.7786124
-925.4852102
-1661.717757
-2157.838291
-2340.735672
-2554.468308
-2899.20752
-3009.625597
-2745.575429
-2386.614891
-2023.997222
-1430.415048
-608.5194495
92.21552499
497.9437858
785.9068835
1010.643041
945.0203287
613.3099079
383.2026843
275.9340719
-17.09822995
-330.3531245
-305.6648134
-252.0021727
-539.2827841
-841.2720379
-965.7433935
-1242.585334
-1570.098741
-1469.520062
-1026.749071
-618.7313227
-266.9759505
70.49556105
326.9846075
543.1141726
641.7769984
411.8907271
21.42670872
-171.0815297
-258.9683876
-470.1758498
-617.0175191
-557.1221303
-569.0824509
-758.4387145
-826.3365251
-708.3935859
-690.8976281
-793.954009
-740.6657494
-548.9083177
-522.5053611
-635.4814398
-514.7074083
-126.0091074
152.7405641
314.0786758
772.8517567
1422.542842
1702.32316
1713.84365
1965.170596
2236.509809
2106.357084
1891.996792
1886.222077
1797.934192
1571.648841
1461.419525
1338.254256
1000.485347
604.1340257
231.0714676
-178.0740998
-489.9156705
-669.5034438
-925.3441615
-1204.181105
-1270.585667
-1260.112242
-1377.519111
-1404.842505
-1172.989536
-929.577496
-776.1935065
-471.157368
-61.24016541
46.01920113
-220.0376012
-492.195637
-605.1961884
-740.4985576
-906.1709207
-864.0464004
-680.1229612
-714.7635307
-890.5893047
-750.1909351
-409.1201867
-406.4199125
-576.7679089
-377.8748504
-31.41356834
57.42973048
212.2986146
640.9453
907.7720234
887.307596
900.5748281
956.2029293
962.0861691
1083.1919
1268.678598
1257.990629
1124.776483
1094.407995
1194.408866
1460.394349
1869.971578
2092.050013
1930.851273
1640.30889
1322.020425
699.8331752
-171.9764966
-799.861206
-1047.334977
-1248.93971
-1491.556793
-1526.122048
-1375.335491
-1356.039814
-1480.979385
-1427.690828
-1171.956898
-1061.903259
-1130.538459
-1038.577437
-840.3011483
-901.6688331
-1076.974077
-1081.009098
-1274.423334
-1884.489405
-2336.969673
-2327.501413
-2295.186562
-2409.303799
-2400.951091
-2202.365439
-1788.540867
-1048.690343
-187.6405525
553.0021597
1321.794796
2144.006872
2684.558701
2887.534848
3006.655953
3023.52506
2831.058442
2640.011115
2568.724589
2376.367338
1998.687472
1712.16022
1590.528791
1427.245131
1224.96874
1192.768336
1277.810005
1202.291933
975.9753388
889.541112
917.2075389
683.776046
182.5625893
-188.785708
-440.7438713
-893.9075891
-1317.436175
-1309.185113
-1141.745632
-1118.145416
-957.9306611
-609.8809673
-428.2865185
-337.1572873
-118.9527331
-93.98615728
-488.7142494
-955.3265006
-1195.1967
-1182.279625
-893.6871073
-496.695617
-285.6128227
-164.232958
113.6929431
370.6879578
388.3196808
365.1724842
417.3552169
305.9588512
24.53293248
-94.03697315
-21.24796896
-74.67840728
-307.4671871
-493.3136187
-670.5104635
-1118.507002
-1793.389445
-2311.002139
-2541.643306
-2676.882265
-2649.76241
-2206.102094
-1599.845594
-1304.734914
-1152.666014
-795.0095772
-492.9877327
-427.8288078
-222.1361205
147.1874079
273.2017169
278.0627785
547.4380937
973.8966147
1372.869231
1804.327381
2146.929882
2233.751003
2206.622278
2149.881484
1974.565773
1834.877135
1892.441821
1884.298669
1623.581648
1400.224918
1374.720845
1296.898156
1113.592464
1072.609196
1132.164976
994.9790292
689.1198776
496.7801446
407.5681813
184.9848084
-108.5229072
-182.2992401
-91.27913551
-157.7311299
-304.8737228
-199.6641351
-29.96170525
-195.2046517
-437.8005217
-370.8444856
-287.7894317
-422.9620547
-424.1752663
-223.535484
-160.4629705
-192.9771811
-178.4841395
-353.791631
-735.5994182
-988.5587295
-1117.218902
-1331.464733
-1529.34304
-1615.528551
-1718.285727
-1805.519092
-1783.119874
-1835.064064
-2047.822084
-2151.169935
-2060.154527
-2028.777698
-2061.832811
-1898.522588
-1601.192585
-1453.640626
-1354.419924
-958.9151582
-338.0213112
99.62618803
303.8470998
604.7213457
1014.619181
1196.399126
1204.431922
1418.636669
1714.274147
1711.666864
1638.575667
1797.00893
1791.145877
1363.520283
937.1624329
645.3614495
204.069003
-146.2829451
68.5867604
714.3335081
1379.764221
1845.713566
1975.143495
1861.09473
1826.313198
1883.393118
1813.337461
1736.790701
1833.328999
1870.476262
1690.834196
1559.110781
1571.517943
1450.436791
1137.155452
860.198109
610.2745728
199.0801223
-268.0362356
-527.3528556
-640.0342199
-868.0730676
-1157.135965
-1231.131533
-1182.74149
-1380.485932
-1760.307679
-1968.04106
-2172.368369
-2754.208619
-3402.86269
-3606.283071
-3471.997242
-3135.796886
-2391.748412
-1456.103898
-822.5121089
-394.0846414
108.2564449
511.415939
701.3601056
868.7702122
1054.284501
1208.141396
1359.664825
1328.160372
924.0239452
414.7878212
96.40552836
-183.2487202
-519.8374806
-676.1372561
-666.8455726
-800.6837021
-1005.146691
-921.1462932
-624.3339886
-523.0022643
-666.0957271
-753.711061
-687.14409
-592.556875
-420.1284843
-35.24152431
356.4240052
454.5070441
478.1715754
826.3546191
1302.046661
1568.204032
1920.30237
2572.471076
3002.00208
2929.116645
2779.522678
2705.400639
2477.953455
2187.997017
1909.679464
1376.559826
622.2791602
-12.57565951
-508.5674756
-949.0789631
-1194.685575
-1283.765257
-1418.384737
-1518.444137
-1501.409281
-1594.963707
-1818.415952
-1836.589697
-1634.405018
-1535.014605
-1506.88435
-1270.23982
-950.0760845
-873.4588631
-929.296251
-780.849376
-519.0365735
-500.456598
-655.146236
-590.1359952
-350.2567732
-346.2658798
-534.2232469
-534.2234283
-443.4168775
-528.9718657
-522.5038321
-253.8639999
-158.408795
-319.2158699
-238.2728594
67.13972283
146.4939063
77.96926167
174.8546455
443.2088847
934.7681597
1690.304579
2361.983355
2704.038872
2894.821614
2968.015762
2771.548456
2475.097121
2291.840834
2074.206249
1766.435192
1596.492928
1511.44925
1198.265158
718.9096669
389.3541027
176.9747379
-152.545504
-529.1671801
-734.7327748
-839.6871873
-1048.86912
-1278.934153
-1323.853703
-1328.381486
-1571.03004
-1878.661626
-1941.951554
-2001.053339
-2343.365876
-2590.669606
-2441.951353
-2268.911883
-2201.840913
-1863.965283
-1323.240563
-941.433328
-580.2179793
-62.77083283
378.243259
647.3263556
807.5049461
705.2656525
392.497719
261.6496532
343.3744668
362.9250346
422.8880698
722.25452
1022.497955
1106.878818
1147.41593
1214.93446
1153.162336
1061.867194
1181.618031
1366.302157
1302.016129
1078.983457
1000.595175
1003.980326
775.52442
312.7816383
-132.3786284
-560.0522806
-1086.489273
-1441.32453
-1335.175991
-1092.141902
-1071.47006
-983.2211667
-652.8581065
-529.8425883
-725.7867514
-803.4141653
-758.3743821
-870.7573843
-950.8257182
-822.6270823
-739.3067957
-762.9402732
-676.5949086
-472.8538075
-197.9042052
202.1616241
576.6332358
788.7930782
1053.14676
1421.626776
1534.4861
1366.132363
1390.217121
1722.214323
1966.216078
1967.6636
1914.722824
1804.020104
1493.613594
1119.56307
906.3451808
729.3180401
350.1335301
-60.50270647
-165.7243027
-110.1897823
-275.3209771
-535.529469
-582.2560393
-693.4948098
-1182.544907
-1639.238889
-1728.023602
-1817.882707
-2074.443004
-2172.889187
-2148.396057
-2255.319148
-2365.231149
-2408.125658
-2508.256926
-2387.366334
-1734.238179
-878.4628412
-223.9375127
261.2962298
590.4255756
721.3477623
919.454861
1349.808322
1734.480437
1914.404096
2053.936082
2097.572263
1834.938691
1457.3878
1299.722239
1256.96872
1062.355235
802.3656506
663.8395716
527.1933682
253.5941131
67.30563157
189.2833791
342.7930668
167.8038239
-130.6811734
-208.3972183
-245.4645298
-407.0453274
-349.8101661
-39.31399995
20.55915465
-130.7317872
7.41541169
264.3877268
196.6163901
22.59076674
28.54977001
1.187914017
-190.0428282
-422.2451464
-674.5725301
-873.092909
-873.7474408
-823.4141277
-893.2021337
-904.2641122
-781.4814722
-757.0876054
-771.047297
-498.0830717
-63.92533026
153.6141866
284.3881928
682.1577423
1199.172313
1484.275446
1626.923187
1864.28043
2001.981265
1723.64168
1207.938413
858.4604118
652.0581009
385.0814907
261.7693147
449.9472058
501.9583476
122.7893461
-208.2194331
-221.7787052
-357.6407042
-740.3063475
-1025.062123
-1258.219333
-1569.951552
-1639.018394
-1395.422161
-1224.935973
-1179.199613
-1078.679439
-1061.7674
-1173.696367
-1140.28623
-942.9125975
-778.3266524
-573.5050111
-282.3382191
-155.5722853
-220.0646453
-191.9322133
-82.42702045
-131.2248092
-238.2034591
-161.8084644
-16.71376842
-19.90559779
-76.2116282
-29.24079545
8.177323152
-77.97334309
-104.8042272
51.2537831
80.52675766
-259.0269446
-580.8411972
-486.095494
-270.0437763
-229.1838366
-41.03261895
414.4141316
735.6111945
933.9486234
1328.370664
1642.648291
1546.454223
1399.190787
1495.18794
1587.893475
1507.082599
1251.269007
736.1766826
140.7972103
-151.1104009
-168.790529
-162.9646534
-80.2738654
113.6035703
195.139745
174.3010035
274.1156672
358.7652883
175.9106653
-69.03490236
-126.5150987
-252.6626222
-677.3982843
-1012.124338
-790.4222102
-186.2453964
334.1001296
711.5098787
1101.756811
1331.371618
1203.670797
1014.041495
1038.490949
1000.479298
776.2313288
787.3167763
1054.599881
1074.924074
923.5140945
1037.285283
1175.810429
939.9919737
509.6652289
14.12135243
-691.3374931
-1429.940639
-1972.652952
-2494.58929
-3061.22904
-3456.138881
-3718.045404
-3974.184126
-4015.348348
-3736.186933
-3386.485653
-3005.242611
-2396.877844
-1717.325424
-1259.379556
-861.0775037
-242.3829921
447.3853757
978.505995
1482.175111
2081.64176
2504.726502
2501.68194
2314.88279
2278.698032
2262.749625
2055.87771
1917.946933
2065.236048
2150.399114
1980.476291
1909.662633
1936.315897
1609.156344
1044.936464
664.9448519
288.7399364
-268.9715124
-622.4227401
-631.1483229
-623.9712053
-647.7081335
-557.7215801
-482.4163878
-522.9758624
-626.6331053
-875.5226971
-1231.787306
-1355.060548
-1176.579839
-1013.104345
-924.4891822
-748.8865741
-655.1619151
-849.5093476
-1054.102057
-951.6695127
-702.1525532
-534.6829139
-326.7219172
54.08507538
446.0750135
721.6898707
1023.132795
1378.765289
1483.452439
1245.810971
1075.973436
1130.191045
960.5117294
474.2974748
206.5079416
170.730912
-178.6132951
-710.3746237
-887.1401776
-886.4993735
-1106.731591
-1420.976787
-1740.839384
-2230.915943
-2784.634289
-3204.241334
-3511.394742
-3597.259131
-3283.740383
-2743.27664
-2166.452233
-1448.605015
-667.8210207
-107.2533459
407.6112398
1317.138936
2532.820391
3654.508886
4648.181528
5573.907749
6127.996485
6084.453771
5703.130566
5228.646631
4478.678355
3373.418143
2404.206027
2017.556476
1917.757082
1622.739584
1248.308865
978.2833196
454.9869015
-433.6314106
-1103.238591
-1299.739628
-1380.069247
-1378.405715
-1156.589106
-1093.860074
-1447.600946
-1881.029234
-2219.865733
-2574.800692
-2773.831273
-2667.39475
-2469.797025
-2265.863396
-1954.377663
-1681.5733
-1576.264748
-1458.104751
-1293.343085
-1269.698865
-1272.765994
-1064.557106
-826.5660725
-796.5076122
-759.5255342
-502.2022602
-247.5735099
-180.239617
-82.71856476
194.6016062
388.8550451
283.4967351
98.8817922
68.99973157
39.18864515
-75.55528193
54.09707102
505.3025191
792.0171151
761.9508277
797.7230679
799.894274
322.7115203
-338.7220074
-639.3174572
-766.2886003
-974.558322
-1015.014035
-852.52892
-761.0939635
-706.0224768
-560.9370942
-423.8741753
-262.9893895
23.34773991
271.7379465
433.5968523
766.0519681
1227.154187
1452.233591
1444.262856
1460.111685
1412.625157
1161.948661
967.8916216
1005.733651
976.370793
673.2629147
369.1167926
288.2888832
229.9720436
39.94258752
-25.1504471
206.8467908
417.0092691
375.8408069
407.3649665
687.878608
820.6813972
715.7791409
841.8841609
1157.726596
1111.226693
745.8716685
457.4467671
169.2342081
-179.2808784
-288.8210736
-167.3185312
-77.6257809
36.75625979
225.2975739
259.5691202
115.0993806
-51.63556183
-314.9276366
-688.7854078
-920.914171
-995.0559374
-1135.529957
-1250.771176
-1159.816128
-1122.102974
-1383.692234
-1654.62577
-1661.119947
-1632.717872
-1757.847681
-1768.870133
-1475.034294
-1162.191647
-1076.912099
-986.5770514
-683.0187644
-450.4731416
-491.1024379
-446.4611499
-115.8383442
127.3204476
218.127939
591.0617443
1129.853271
1291.072798
1174.486423
1103.155742
838.1674971
287.1319601
-113.5181621
-224.658231
-272.0030633
-233.7508599
12.20670402
498.1835898
1373.006117
2554.33278
3475.485746
3819.397332
3841.96604
3673.273501
3223.407741
2782.923973
2752.658221
2975.773508
3089.857268
3100.705575
3050.536556
2694.487251
1941.755943
1097.001171
375.7085553
-358.7336467
-1162.462075
-1781.765458
-2137.428556
-2563.375141
-3184.471643
-3639.862574
-3882.332834
-4418.597152
-5275.80993
-5836.849491
-5968.009941
-5991.09571
-5731.367719
-4924.839552
-3893.250598
-2878.98381
-1752.027939
-656.2741167
178.5035796
934.2690516
1685.351009
2139.0886
2242.63684
2191.502036
1990.72854
1696.421173
1549.958887
1484.468404
1205.674485
774.0256625
381.8079745
-119.4760965
-804.2542213
-1310.907744
-1416.294322
-1386.348458
-1414.714994
-1301.756536
-930.6817207
-530.1169988
-241.4783398
115.9029923
597.1184708
900.4603449
912.8633064
965.5466764
1172.032118
1218.066185
1101.605898
1099.794191
1005.339698
626.5420838
558.4168285
1204.001179
2012.789613
2575.66509
3130.138798
3657.793384
3824.592859
3628.351689
3215.963489
2649.860013
2156.865969
1891.080616
1658.974754
1401.295644
1329.207353
1350.706694
1156.954135
801.6758925
437.3111061
-138.3980439
-1008.794831
-1769.554484
-2140.534376
-2347.003551
-2568.531427
-2623.972538
-2465.523799
-2420.442814
-2646.429288
-2821.946427
-2713.512241
-2566.291971
-2517.628715
-2247.341187
-1712.722917
-1371.963751
-1210.785753
-698.3359009
66.57086817
513.9206706
664.1467572
759.4492834
614.0808818
221.4527634
-78.37278868
-286.3297614
-549.96422
-687.6625272
-648.7128161
-682.2454651
-798.7705882
-850.823481
-894.7509454
-900.8107953
-693.7861201
-399.6530571
-228.7984251
25.42861151
564.6342212
1116.219312
1471.542927
1859.738269
2353.792055
2592.10591
2405.04714
2105.669316
1939.616543
1764.613757
1461.452164
1199.716301
1065.87796
880.7849188
661.8605072
700.0582442
885.9057738
772.9398989
521.5932489
664.567397
989.131959
961.1159602
751.7975703
630.1328776
338.8587096
-131.2903635
-423.1516031
-628.0879469
-1041.201806
-1544.887099
-2004.941446
-2489.726698
-2872.934288
-3033.25005
-3162.893514
-3292.671506
-3158.625076
-2806.820095
-2542.579063
-2334.560818
-2010.863947
-1704.753132
-1491.939249
-1106.201701
-459.5181473
132.388042
502.2003906
833.9968332
1182.733309
1355.273163
1385.982755
1577.036442
1893.741359
1897.725109
1527.273199
1257.812946
1199.293221
916.6845094
361.7920004
-95.2816486
-460.3619815
-767.9287363
-577.0227049
120.6215758
592.4974346
586.1167917
552.2940393
691.0274674
967.4198625
1496.595754
2145.297227
2564.368371
2778.596538
2965.32752
3013.250333
2851.702618
2573.125056
2053.19912
1190.723622
343.6535444
-161.5202723
-513.533317
-893.0970953
-1091.318909
-1016.637255
-936.1964307
-989.530222
-1036.493793
-1094.216268
-1385.142639
-1831.589462
-2015.304364
-1836.073686
-1675.920373
-1658.152468
-1448.859589
-1083.573876
-1027.36785
-1196.124747
-1107.036936
-917.3796599
-1039.998806
-1274.540148
-1373.229912
-1459.809401
-1364.047365
-785.3963005
-7.03071069
614.8218474
1192.932052
1744.206644
2053.061295
2174.230169
2206.099148
1978.938675
1533.490368
1201.282225
1012.443308
782.4964999
601.9705086
549.6269032
370.0015868
-45.0214042
-439.0545422
-732.9661329
-1127.296828
-1552.053268
-1660.750926
-1432.708418
-1213.727686
-1106.970253
-865.7700554
-493.5490684
-351.0614856
-469.6384255
-464.3169618
-335.9827793
-445.284742
-624.7130143
-474.7403011
-281.547963
-390.6035546
-413.3822276
-109.2707276
124.2932614
177.4442566
298.9399567
361.2236948
196.6380292
41.52360645
9.422720772
-29.94824367
0.310995
177.1727313
316.203316
377.0144737
494.2930008
560.1013163
473.0459875
488.0391762
707.7664308
799.7207368
658.8131128
634.0319506
836.7371291
961.7188311
904.5334256
877.4491601
895.4818409
755.1968424
532.5926157
554.3184973
826.3581288
1030.086052
1156.628619
1481.884016
1849.103997
1869.559852
1779.827466
1995.884198
2214.790575
2123.829511
2083.902444
2139.64809
1716.612804
811.2171578
8.355176976
-579.9235754
-1169.127811
-1696.399783
-2107.769526
-2509.259541
-2862.446327
-3111.762544
-3289.189973
-3231.693996
-2804.342929
-2317.986207
-2072.466723
-1879.438942
-1578.217206
-1403.833106
-1468.31395
-1585.715792
-1772.284371
-2173.518096
-2479.924829
-2160.185028
-1282.614974
-469.4422647
-44.05812209
187.1502073
305.4238451
126.5864419
-197.5948711
-239.509453
-119.3419813
-273.2992928
-431.2544281
-81.99263158
430.282786
619.101804
805.0732518
1258.360019
1656.882099
1947.576475
2385.52498
2822.378131
3032.353113
3115.236185
3039.394818
2639.512256
2038.820819
1360.703663
523.1326323
-308.7014634
-818.2101733
-1078.269664
-1275.69923
-1300.527616
-1198.306558
-1344.921231
-1741.91127
-1921.810186
-1778.756506
-1697.161073
-1782.114561
-1724.342583
-1450.478728
-1210.488454
-994.0419128
-527.6055092
74.04945154
369.8500224
456.2865538
930.5646656
1825.070361
2601.020118
3193.972449
3833.568211
4200.254473
4049.367572
3865.042148
3930.478666
3924.11467
3770.508967
3596.853524
3150.237662
2292.504676
1359.774941
550.9582877
-200.0597551
-832.8176283
-1332.537635
-1833.285131
-2237.868144
-2377.706209
-2456.976635
-2686.079132
-2865.246702
-2831.945388
-2732.663502
-2569.21916
-2166.15099
-1681.551253
-1475.341456
-1518.841582
-1529.94712
-1546.392263
-1801.078272
-2166.674045
-2283.14218
-2173.338321
-2159.760882
-2203.733225
-2014.875144
-1741.720782
-1681.010895
-1568.165502
-1176.604805
-950.018995
-1028.837635
-813.3403262
-215.1949129
163.3494703
262.2304473
456.0218806
644.5269351
622.1703618
562.1947945
563.1705075
570.8655917
708.5062385
1015.319368
1301.61803
1544.711263
1802.810838
1882.648344
1723.40553
1643.405401
1737.193486
1717.848073
1600.957635
1725.488331
2011.084399
1994.358071
1603.515443
1223.704578
1040.496539
897.50673
779.5755055
879.5176527
1127.263586
1230.948853
1260.757637
1475.264126
1594.219238
1226.940081
782.8797663
759.1783125
750.3879052
365.2121775
16.20290249
-109.4934413
-411.7853443
-842.5641119
-939.7012188
-669.6748453
-219.9382005
371.0300653
922.9002988
1226.416388
1347.787662
1284.623551
850.966346
112.8898896
-712.0213761
-1605.784264
-2446.738363
-2904.134758
-3055.755257
-3409.584095
-4096.770396
-4731.182068
-5028.115724
-4909.368166
-4196.554426
-2839.731923
-1280.597229
-37.1779372
936.7525075
1950.204051
2783.073652
2916.15798
2509.610307
2222.763751
2062.715735
1547.704063
854.4509105
499.3935612
336.9981279
52.59763381
-237.6525304
-614.8616996
-1358.296015
-2175.981636
-2586.01629
-2602.436898
-2339.64238
-1823.13565
-1350.855407
-1126.662387
-876.1972388
-424.6656387
66.11073929
622.1045438
1343.136361
1923.281583
2056.252412
1915.978182
1740.484193
1541.589094
1459.615594
1704.875838
2074.064754
2158.824184
1976.326664
1846.906799
1774.408535
1479.233271
970.044521
557.9433539
306.1899146
13.82580663
-259.7742371
-327.2584409
-424.6859787
-781.2818927
-994.180683
-793.1945084
-663.1995097
-842.5066122
-899.2943013
-763.830029
-739.1361257
-635.5530403
-241.814876
55.60850109
34.96883741
9.184865529
123.4108474
251.3724402
369.5582084
396.4657465
217.4345751
48.34121647
112.5333055
210.5633127
191.1769711
274.8612139
504.549892
607.1848698
587.2614866
705.2094182
874.3876436
769.4384454
421.2286266
122.3091365
-100.0603844
-394.4012619
-628.2669379
-562.9796852
-370.7234815
-382.9831066
-447.8945769
-256.6765991
-69.32214874
-213.1311944
-340.8034571
-186.5209333
-183.491765
-453.0121582
-479.7952522
-268.7489535
-310.1964566
-514.0465922
-548.9370009
-568.9946786
-696.1977748
-727.4726708
-652.831912
-586.6114393
-435.8978006
-202.9521982
-50.38310753
76.59319111
271.7774429
378.9293951
379.7309493
517.6604342
754.7045577
798.2413861
702.0772724
717.7778995
707.0471502
381.9642158
-108.726882
-426.8324039
-627.5826018
-947.6269967
-1231.114167
-1160.832733
-920.0654917
-943.8092265
-1111.728249
-998.4303001
-744.2952444
-708.4843096
-673.4326926
-428.3371094
-346.756081
-517.2573532
-480.6057011
-239.8682386
-174.5108765
-173.5629728
-51.01369921
-56.99721668
-240.0747486
-299.2702856
-210.9990393
-117.1851198
35.62210023
202.4630783
230.8347276
242.6505843
368.0825481
426.219761
390.3424084
545.3074966
868.7471406
1016.2949
1001.850447
1118.272212
1289.700968
1213.681555
957.4472631
816.7694606
788.2627917
693.0829698
635.400923
827.7257298
1104.211945
1171.999398
1191.373901
1409.602206
1499.696338
1146.259928
760.8260502
664.9798657
483.3829757
129.1875224
77.56474575
306.2698396
414.6400369
555.1525216
1012.411383
1576.12523
2039.786159
2416.897471
2585.495938
2504.288689
2379.94432
2209.267149
1815.568502
1310.95306
831.7149753
187.0353178
-702.7466991
-1616.476102
-2555.390122
-3733.844591
-4970.496265
-5771.435369
-5952.952804
-5660.848233
-4983.500386
-4004.06668
-3043.615403
-2436.0407
-2146.012039
-1938.14126
-1802.205712
-1794.637878
-1650.181988
-1171.311485
-718.2639937
-545.8295474
-226.0721079
444.0048757
946.710287
1110.437912
1325.881798
1504.91818
1282.192596
861.4717709
489.8619281
-22.17864185
-652.9548278
-1127.259436
-1509.085042
-1914.351826
-2117.695545
-1983.811296
-1606.425571
-959.0644898
-79.4839915
723.3782391
1340.031107
1996.096486
2727.38573
3374.252666
3999.53794
4633.407938
4893.584168
4498.943421
3813.257829
3323.019627
2927.716013
2281.854866
1514.256766
996.6189728
650.0988117
186.1763734
-204.3496119
-227.8940078
-199.1306875
-442.2338488
-593.1992867
-416.7149046
-334.5877884
-464.3408035
-433.6956467
-330.9417028
-468.3412011
-619.9264982
-582.432535
-614.0714633
-768.3081469
-808.161445
-747.6548277
-679.9159877
-554.3727951
-497.8111137
-658.9241752
-813.5979239
-771.3898665
-714.4043455
-700.2169539
-540.6547977
-348.9392053
-405.5860986
-552.7123228
-481.3322371
-360.2377636
-515.5747069
-818.7253591
-951.9118495
-962.0495072
-1052.189507
-1097.057103
-878.5821474
-577.0959015
-455.0117739
-308.466209
79.37517091
362.509297
323.3139417
407.8156199
762.3451672
876.6057753
738.5711798
863.6620124
1128.352875
1102.563073
999.7384485
1104.932188
1217.232933
1250.292236
1345.23299
1421.860454
1411.955102
1457.960686
1525.399314
1474.49763
1410.951516
1380.072362
1182.937029
865.3209695
702.5958825
592.0384689
210.2390822
-360.5662892
-844.1772776
-1281.532982
-1777.18977
-2154.10814
-2298.765679
-2439.33003
-2718.363729
-2864.053761
-2658.204711
-2378.466857
-2305.804517
-2186.155736
-1821.405167
-1659.308955
-1986.70105
-2303.845843
-2282.705261
-2243.830365
-2191.999311
-1766.652637
-1162.013787
-763.3920696
-433.9046292
-87.59333347
36.30983571
40.06480216
252.7622925
643.2460142
1088.539156
1607.864709
2035.646322
2212.2392
2332.491389
2480.715515
2374.618882
1968.892595
1553.937517
1135.355361
540.5052083
36.18194324
73.18218443
635.4321901
1417.844489
2315.097981
3260.352043
3944.639898
4174.849383
4211.284336
4265.127558
3983.588114
3044.670272
1873.757383
998.0071851
233.4844175
-634.1542216
-1227.5017
-1451.179198
-1791.206653
-2251.33158
-2391.407204
-2319.469273
-2285.715912
-1999.141047
-1340.120358
-721.6607635
-390.1750027
-376.5149949
-827.8488119
-1619.231758
-2302.850233
-2748.707689
-3093.674494
-3259.085491
-3184.306215
-3026.152328
-2722.562668
-2022.68768
-1028.573514
-28.47743218
977.3850349
1971.333934
2575.021937
2555.606498
2248.010014
2058.588957
1912.626276
1543.796278
1026.27795
611.3157609
265.8057663
-133.2818403
-387.9584151
-343.0332997
-260.7883888
-227.8337329
77.2945243
519.1161535
543.3369327
285.2917705
274.5168691
357.9611712
218.9240542
97.1282274
87.6168926
-95.61408457
-361.2558153
-394.0779172
-282.5415773
-192.9888919
-75.67018468
-4.482829493
-61.19485519
-44.04302978
120.77173
199.2875031
178.1040872
248.7761787
278.4044669
64.72320211
-154.6608507
-136.9788201
-131.9204209
-390.1876687
-679.6803499
-732.5175346
-707.1799761
-822.0757516
-919.3308563
-785.1065538
-571.5760516
-449.7773575
-214.8699265
205.7537378
392.6605819
214.9057089
144.6493108
278.563321
227.911325
129.4143325
337.987021
497.6384275
249.4086559
-34.24038845
-87.40025915
-130.7042784
-171.7732793
-52.69794991
87.85379818
125.9863723
133.6590575
68.70050413
-64.31723876
-40.21748209
116.1911978
109.3973158
18.76601457
163.2264621
398.4497798
368.3671351
175.1311508
98.31357038
61.72835981
-82.07069826
-191.1754866
-166.7993338
-216.0236066
-423.3598754
-460.4245525
-135.053862
174.4840968
167.3130139
203.4233687
551.253171
751.2057561
519.0473652
317.1023026
357.8037634
297.9398052
201.8129564
392.2932231
613.6062822
570.5347331
499.0573433
489.8921552
339.6466508
153.6770821
96.9240166
16.29642339
-84.55232779
12.49044733
199.3635937
247.2840828
260.9611902
350.8253488
407.9329087
451.6508633
552.4999107
501.9159016
176.9313084
-117.2720839
-160.2282432
-175.6988516
-350.0531609
-528.6355428
-611.9351752
-760.2379287
-1010.014171
-1100.354912
-916.8481314
-737.7714605
-707.7048014
-512.6157289
-62.38888358
146.5285612
-60.5829779
-187.1144229
-92.07477158
-139.4228776
-235.056667
-86.53334213
23.79877855
-108.7017624
-126.1828709
74.25715872
192.6613998
226.6372171
329.7625488
441.3586036
606.2630252
947.8358953
1291.5338
1472.768475
1578.899805
1463.990685
792.9403118
-249.7650466
-1126.145386
-1709.450563
-2135.512414
-2288.871073
-2114.931032
-1953.656933
-2033.412473
-2108.199661
-1951.759436
-1734.508626
-1612.674828
-1403.572662
-1000.198675
-673.8309173
-592.2175721
-534.1055145
-463.051765
-642.2855127
-827.6204218
-453.0632494
186.3780367
339.8505841
170.8293503
243.3270901
415.1232363
490.4941762
785.5714911
1340.243219
1824.708866
2230.919126
2638.595118
2844.744616
2802.681005
2671.34734
2403.424792
1991.334148
1705.56801
1617.131919
1535.759417
1543.832621
1825.994738
2131.803179
2136.24647
1971.513049
1823.892433
1521.490026
998.7587618
629.5966715
658.5573592
747.1358327
502.2290931
62.54799773
-311.9302583
-806.5225502
-1581.12608
-2229.615298
-2434.993177
-2483.466809
-2463.304508
-1988.809659
-1179.53056
-592.1005255
-185.4810097
271.2912492
414.2547618
66.93551707
-296.6268348
-477.1298874
-721.7028731
-1037.495473
-1348.937602
-1809.046132
-2409.777307
-2983.357089
-3572.081771
-4155.117484
-4448.970435
-4376.89121
-4091.489364
-3500.952917
-2506.867348
-1446.969068
-621.1045167
160.8260543
1041.871996
1727.565217
2021.262801
2148.308995
2248.942956
2107.586299
1681.693537
1387.495498
1478.491162
1621.467151
1568.942738
1663.966734
2062.14849
2253.088044
2018.86834
1798.030237
1649.492394
1216.435643
731.2180908
622.6580279
644.0748013
502.2984142
390.1220151
378.430216
354.4164678
432.6430842
618.7400846
676.5707852
651.5578833
737.776461
815.9492319
803.2717605
894.2661077
1054.569881
1013.577718
817.9990736
650.0829198
357.3068603
-164.3030551
-583.1748651
-673.6312983
-704.2061381
-890.4812581
-1009.718255
-881.7933995
-729.5377581
-739.9211517
-722.2097883
-557.5682211
-509.4815
-662.5008879
-654.8070334
-457.9351371
-583.8114845
-1053.379313
-1304.171857
-1354.70202
-1648.367097
-1949.230055
-1833.84298
-1564.360524
-1397.951403
-1137.857213
-822.5541856
-684.9339502
-597.7084146
-415.4300784
-250.3937696
-68.93336027
220.7101439
442.0445813
526.7956539
672.4334991
819.2270952
713.6045395
467.2098098
300.7380917
58.48014758
-366.2622593
-651.935742
-600.5036103
-475.3567608
-465.1171224
-401.3557209
-228.3265126
-205.5679586
-413.06319
-525.7207328
-371.3011892
-253.026842
-329.5136537
-239.4992291
178.4782717
569.0391668
892.6867746
1503.614178
2216.478231
2586.650173
2823.872756
3172.558804
3253.671834
2934.560914
2617.683608
2365.022719
1986.78742
1666.488972
1554.047033
1452.865218
1315.489824
1242.091799
1119.166127
904.4594585
763.7042543
612.0516774
222.0065261
-255.931764
-605.0174954
-1018.946012
-1628.697005
-2110.245182
-2256.51114
-2311.585291
-2401.442196
-2251.793463
-1730.235681
-1134.21402
-705.9184084
-341.457234
-52.44415294
-178.5072423
-733.2526738
-1180.603921
-1332.86592
-1596.94575
-1957.184813
-1943.540299
-1721.1566
-1761.410193
-1807.280208
-1538.686139
-1322.613053
-1341.283088
-1268.228256
-1118.918342
-1152.093419
-1243.320807
-1237.560827
-1211.160991
-1076.769807
-730.8466814
-379.4203843
-121.4772561
206.0554137
523.2790382
617.9370178
669.075179
906.0258613
1119.458981
1131.504678
1178.62583
1372.35743
1430.080092
1252.24759
1149.25949
1277.560722
1395.062625
1375.592866
1470.276184
1795.386864
2051.61912
2091.929729
2173.986998
2279.569787
2028.313624
1565.325368
1396.296896
1339.551756
967.2761507
557.2283032
349.459344
-46.1150685
-636.7951538
-860.1145322
-674.132728
-509.5425866
-453.2823855
-399.3211166
-366.535979
-300.7776803
-198.0137978
-236.3307024
-372.0438536
-382.3784486
-407.3385029
-699.9428879
-1045.442783
-1156.077571
-1193.033527
-1323.707492
-1379.21947
-1333.227005
-1434.28744
-1636.340213
-1551.098766
-1095.085263
-599.2513526
-183.2686873
398.6644884
1123.39125
1548.110792
1597.51197
1753.018412
2090.309133
2119.131568
1873.263215
1864.619063
1932.965614
1603.348275
1123.225956
815.5866393
393.991794
-211.3758147
-638.3483068
-915.9606008
-1298.882058
-1669.412199
-1902.326014
-2106.130492
-2252.663542
-2291.005031
-2373.625247
-2476.096993
-2368.081664
-2109.199126
-1887.370318
-1573.9005
-1091.249149
-742.1740801
-654.8860699
-530.120695
-257.3229139
-88.22536455
-48.69691466
129.5414241
412.511154
438.8622245
189.1674242
99.75384414
335.5948209
534.6360654
538.7227808
662.0295295
904.6950579
850.7782874
600.0225341
605.6485165
673.0507965
454.5471471
321.5237473
541.2169684
694.8918812
639.920261
711.6779909
893.2185455
971.6448608
1046.567152
1168.556376
1222.775652
1305.742174
1500.062558
1623.374031
1652.027494
1765.885483
1882.618983
1843.365614
1810.349556
1874.951102
1786.228191
1512.11682
1398.890449
1490.839601
1394.957218
979.4217087
558.6257914
297.3105612
8.479305589
-368.4608385
-620.4920959
-731.9411575
-961.4964823
-1259.63567
-1281.17942
-1173.401735
-1427.379716
-1861.655978
-1943.221891
-1873.40922
-2033.468291
-2094.703967
-1855.790657
-1789.168982
-2053.011817
-2267.659222
-2316.046876
-2269.423347
-2020.768799
-1628.584411
-1307.177242
-1012.050166
-671.5059996
-414.6508976
-197.6048722
140.6045757
440.5396377
523.3388102
585.1687417
713.2753537
608.5433356
210.6147034
-105.958511
-187.9427908
-257.6546545
-361.0743331
-324.0799731
-242.7225486
-419.6266623
-811.7452636
-1090.716654
-1298.53175
-1817.349935
-2527.918027
-2786.081236
-2468.106182
-2034.031722
-1463.628588
-431.264197
680.1538741
1361.054693
1905.335706
2595.572175
3094.949388
3295.679756
3459.664643
3502.339234
3236.010568
2823.327912
2377.013393
1833.789928
1275.223303
726.0544054
22.80254766
-767.5142963
-1404.563117
-1887.492968
-2164.77311
-1877.065084
-975.2634564
61.33392265
996.4881462
2030.658678
3072.06044
3675.188353
3770.042783
3706.708121
3593.298108
3241.847062
2765.084919
2601.513949
2819.355637
3001.624917
3019.422316
3163.536992
3298.255977
2915.285543
2146.892916
1496.699047
819.2745949
-143.1224096
-989.4922056
-1498.232854
-2049.954859
-2694.02539
-3095.979987
-3292.477872
-3464.654988
-3570.717192
-3706.960088
-4041.076622
-4437.817801
-4772.825831
-5105.679867
-5262.967782
-5020.730724
-4642.603939
-4472.045921
-4359.901365
-4115.36703
-3916.374373
-3811.28185
-3500.179048
-2901.937034
-2291.130505
-1738.97239
-1021.958748
-167.5295348
473.0679693
813.6011533
1159.886815
1590.485093
1818.231798
1882.444285
2193.100179
2654.791132
2757.202925
2602.812226
2613.83256
2545.659261
2104.97922
1735.824601
1733.224205
1766.187703
1741.53725
1837.570859
1871.439681
1677.678144
1480.560374
1391.48405
1323.814586
1346.732005
1483.453132
1602.507493
1773.954312
2087.745773
2264.246126
2114.535771
1922.877884
1839.689721
1591.87395
1145.952217
851.1354887
734.3267263
444.6804499
-28.99573204
-309.0079874
-325.9065659
-407.1600637
-612.4774178
-620.4807973
-412.1031965
-391.491607
-631.1395182
-779.3082947
-861.0538391
-1169.322317
-1409.337045
-1167.601175
-823.0165033
-768.2762848
-628.5200556
-202.013406
98.06876846
144.3861449
142.6418906
20.76184505
-259.2119169
-462.6036788
-577.4455783
-766.4635733
-975.5982085
-1183.145553
-1488.024029
-1714.130973
-1640.078116
-1475.794536
-1444.24887
-1364.334919
-1163.751582
-1118.639975
-1251.74074
-1244.243279
-1083.005773
-1063.947525
-1144.972447
-966.0932189
-494.0935863
-61.06613266
234.8789866
599.3023676
969.0970114
1027.705075
911.2836742
1090.202916
1446.987858
1485.126871
1338.503947
1365.578766
1248.10512
709.4622061
187.3921839
-75.35619007
-348.3669405
-569.7821369
-476.6559842
-253.5856783
-136.4158626
-61.08305628
-24.52401995
-28.47028946
115.2024564
385.8241338
524.1694593
526.3481415
474.7964542
175.076546
-369.1378232
-698.257202
-608.0021281
-395.087307
-165.3137132
303.619595
965.8543657
1508.746212
1870.519553
2152.772824
2178.433261
1697.984292
925.0818843
331.3129459
-39.28257125
-458.9082748
-782.630798
-659.9018282
-423.1976239
-687.0624865
-1237.406244
-1496.707215
-1534.553402
-1527.906843
-1252.46484
-838.5962716
-711.2391246
-662.0635168
-248.888048
380.8206881
943.5064383
1437.828643
1783.771533
1877.609146
1825.258357
1643.383598
1288.199086
1021.802558
1044.107904
1084.123302
953.1510688
874.3914707
863.2770912
593.9901487
87.8599791
-298.278375
-584.5672517
-1087.863681
-1716.466381
-2049.677489
-2045.004367
-2043.552654
-2108.229415
-1971.469052
-1663.05933
-1510.971038
