147.0499302
266.7661092
298.200147
91.79145646
-2.670145964
203.4260685
300.8064125
46.35737054
-125.0247998
45.97240414
186.8844506
201.6897748
439.0429733
752.5986184
772.3851469
779.6138869
1028.252664
1123.146568
934.8412002
850.5011007
896.098622
840.1192781
772.8425071
760.8054239
680.4988495
627.8311949
698.6040666
676.7747536
520.8291331
481.9991053
497.1265327
295.4730307
14.72633702
-100.0429935
-233.4660896
-546.2863168
-758.5160546
-719.2769408
-739.4990595
-971.4965903
-1100.792595
-955.0348325
-833.904835
-931.9044612
-960.8402546
-722.315932
-528.020471
-568.573513
-506.5803917
-249.9449884
-234.4274958
-438.3344627
-328.7027397
-8.085952363
14.40917282
-93.18963977
3.155997506
51.13536122
-88.69028092
-155.4939145
-158.9689063
-225.4041681
-183.0929739
-32.53016841
-12.27057985
-17.30233615
153.1977531
311.8051347
341.1855551
441.7790463
585.8386442
563.848953
526.3892874
660.3075801
692.9955518
411.2908164
109.490564
22.8801876
-41.14037807
-197.9562398
-246.658475
-137.2826958
-117.1064602
-238.1849639
-221.158354
-22.26621626
-2.117918612
-216.5373412
-208.6861297
99.7122128
218.1390191
111.6922862
211.0081973
365.4061003
184.1355889
-28.31648605
41.79857316
76.79466478
-21.14595433
63.1141134
252.0398749
289.9925823
304.2066822
376.2026619
362.2227994
336.5297001
394.194568
344.8163201
172.7958317
123.5128249
128.1714453
-42.70172638
-213.8380893
-174.7277883
-160.3790157
-325.768809
-389.8063632
-257.771052
-267.2944341
-515.7157863
-643.4278569
-488.5643098
-343.0827015
-381.6670712
-383.4643072
-249.8931475
-256.4069043
-465.3761656
-513.3051715
-347.6762046
-340.9419163
-411.3299339
-164.3757693
136.7657508
81.79996235
44.49418197
347.2385055
568.6963324
513.550144
510.6241287
557.600321
441.0889312
311.0302253
296.4782751
269.865198
243.8621336
271.7572275
225.0506713
158.3195266
276.7222389
400.8894956
233.1162887
-30.82166288
-102.3418814
-152.2609818
-328.8764818
-361.5334454
-136.7665676
11.88152575
-76.47797299
-127.6872199
-13.3352161
1.246696789
-189.0935401
-274.2952626
-122.5383951
-72.94283305
-246.0878851
-250.4608214
-32.32308103
-78.78347015
-382.67143
-429.6772049
-302.4406877
-397.3959842
-471.6109007
-264.3306331
-117.8561142
-153.88179
-73.04287305
65.66587156
31.64861314
-33.65361263
-2.925115963
40.07683504
156.4886425
369.5251384
459.7296649
426.8896707
505.6872415
605.4483976
515.143892
435.284854
552.4218823
583.1677835
366.1153167
245.8156247
417.3127862
589.5436155
574.384704
551.5807267
583.3530033
449.4867913
126.3191154
-79.88109461
-96.07376656
-259.1015221
-623.0099144
-760.3414495
-635.9545601
-742.9460737
-1045.582629
-1022.056636
-784.8069195
-750.8663131
-688.3419165
-371.0817892
-154.8381249
-96.71304014
187.2390788
645.0873738
947.9662625
1068.036469
1004.082556
719.0682895
450.1254992
321.7338188
88.69899447
-249.861624
-370.8236955
-306.485402
-325.7887143
-337.3729545
-203.4585476
-166.3284222
-344.4448894
-449.8554741
-392.0515821
-447.274795
-634.6285358
-626.2217887
-389.7087024
-292.9704168
-440.0341074
-469.0332247
-228.2002984
-69.64156858
-143.1088987
-111.3892347
54.57627555
-39.52147987
-265.9714939
-165.496195
-5.157307629
-237.6469465
-512.6305117
-478.4787096
-441.0697046
-480.7850774
-293.73412
29.35414331
291.1635112
696.4704613
1291.345326
1751.083942
1954.306874
1970.081036
1766.647524
1472.329873
1317.085254
1149.833919
747.9639113
385.6246863
344.9237595
355.4937582
165.5548533
14.09785768
55.96355588
26.56167994
-199.9801505
-378.5866802
-419.1982854
-561.1170661
-855.2785057
-1001.246634
-914.0842834
-911.027761
-1042.506225
-920.1352566
-554.9751165
-439.335509
-542.9407095
-426.4287576
-267.5029412
-415.6652732
-527.2934002
-356.9793343
-305.7669828
-459.9554098
-436.0001024
-250.4115967
-151.9247764
-87.74855311
-39.77532409
-98.17240745
-98.28243417
57.96291689
130.8479202
73.04912505
109.5343254
179.7732842
109.0911788
93.10544424
278.1358972
373.1946884
239.8518303
180.0038694
275.4361609
200.9341874
-94.70160461
-245.8965642
-133.2133303
-53.31057055
-121.6251669
-87.38942696
92.32678796
97.55520647
-79.311978
-36.22487623
170.9606834
63.1822031
-188.7229988
-46.55127726
205.1458622
52.12861395
-142.5498929
31.22630799
251.4040673
321.3166147
428.7429417
461.1786743
275.0118493
132.0037322
151.0298776
152.1790023
156.2807558
233.1442187
238.46986
211.1593064
344.6552025
465.3934543
335.8637012
198.4074183
276.7009267
299.6242974
114.5003532
45.49475056
229.5102128
360.5363591
328.4444655
382.4249112
535.5699673
477.0341034
190.006425
44.19075335
110.9816725
16.7577044
-279.4198588
-326.1192987
-93.33599456
-61.42802085
-207.8581979
-136.1457994
-58.70200393
-296.8241738
-464.8160401
-309.2821971
-221.9673151
-294.318969
-212.5088508
-60.11278578
-63.25534304
-92.18578836
-74.25923182
-114.6589719
-135.7442976
-96.92727397
-162.4497422
-263.3096371
-193.9164964
-147.3467286
-361.0114704
-565.9892034
-512.626865
-459.0220584
-582.622343
-638.5608596
-560.4377488
-626.9913552
-833.6235331
-827.7904665
-581.9246308
-474.1487851
-586.8417893
-543.7910383
-240.8393556
-88.38618937
-221.1624003
-247.4540876
-123.2899359
-240.2689004
-430.3537168
-196.4911093
201.957128
298.7992903
356.2404053
563.8020976
529.8595273
246.4121437
154.2651514
250.9342004
297.3465334
326.6079553
299.9285563
97.7969019
-90.53172571
-108.5986416
-120.8839642
-132.2455057
60.01057566
363.6713942
583.725789
840.3749008
1176.415626
1301.493853
1176.463148
1151.127946
1276.491895
1230.78328
1002.348681
917.893421
997.1190711
933.473469
712.6260308
650.5065399
753.3385239
662.8727515
397.096114
385.5596216
560.3173404
414.6869304
69.92935215
24.92279768
82.18144348
-115.4245909
-235.4527359
-97.09319681
-145.5595238
-474.0015583
-733.1528745
-939.0641866
-1238.362547
-1467.45865
-1545.82152
-1519.985738
-1261.785418
-821.8855014
-551.0475691
-484.2679607
-381.2869114
-343.4345281
-539.6689021
-698.8767808
-632.208478
-641.9100465
-853.2573864
-909.5515284
-690.8123291
-543.8064822
-599.9956372
-582.7876033
-393.4289055
-270.8246092
-282.5315442
-201.613371
-16.27907753
0.235317481
-88.22106995
102.5216506
442.8749826
434.3647886
246.3363315
382.8200445
615.015251
568.8693448
560.2912746
747.8951906
720.644502
479.0952273
422.0179575
477.1386723
403.3702887
324.0008086
315.430138
278.5511311
276.8189533
328.5972312
279.4928794
221.3995879
352.0329025
451.097272
241.9739159
-70.24610578
-250.3737595
-431.2908475
-622.9102732
-566.729969
-335.4563223
-311.6373946
-478.6067406
-453.6397691
-219.2964943
-147.3805109
-287.6331754
-275.0822506
-44.80104669
25.60973487
-115.0904149
-69.92136222
138.9297314
99.44746531
-25.19429876
176.7279127
388.2799064
254.5022346
200.1390648
461.6477717
609.1651312
562.1705923
634.585234
716.4088734
600.2845208
468.8272747
410.8533766
290.3437546
147.6096695
34.22455076
-143.2942525
-271.4476568
-173.8239987
-32.07988465
30.03948982
320.1107336
909.9250883
1318.745877
1345.969812
1390.510495
1641.046804
1776.566451
1639.03827
1464.713484
1338.922116
1046.631227
576.8306462
213.5410531
-37.3637565
-517.0206415
-1188.827978
-1591.479871
-1732.915277
-2034.677875
-2339.167847
-2232.257937
-2030.876003
-2120.733355
-2140.552175
-1870.031897
-1664.349612
-1554.655764
-1293.951606
-1058.956731
-1016.500077
-944.0138432
-812.6219782
-813.1147473
-862.4816135
-864.4425112
-953.6490909
-1062.094432
-971.8294065
-810.4346587
-754.0260317
-584.8845734
-176.4655921
164.1627779
288.2210729
455.8314062
758.4943699
980.8014918
1114.412262
1376.734296
1708.961792
1809.300381
1683.548773
1656.234711
1766.387477
1706.705892
1499.398602
1513.296928
1652.688189
1496.166285
1240.623569
1279.698437
1237.158374
757.3774823
345.2104939
314.5144151
243.7897933
17.46422936
-44.30699842
25.77399646
58.72704983
131.3747159
194.729424
128.9740838
91.7003606
152.9202069
121.1786607
42.41488292
107.6163159
142.3418556
-42.97313999
-198.0443453
-147.1707651
-126.4331294
-210.0600909
-156.7884721
-14.87046278
-110.9197249
-402.7718539
-546.1773028
-558.5543474
-777.1826072
-1179.845728
-1359.982558
-1260.779542
-1286.425549
-1494.376666
-1469.246736
-1215.367736
-1151.384858
-1161.455448
-891.6451528
-645.5017808
-706.2283211
-654.1743666
-355.9767259
-293.4958135
-470.3215216
-442.1917553
-240.7707322
-109.1569716
28.19539978
218.8416171
384.0484234
586.7076903
803.1137311
860.8394178
845.6190914
920.4324239
895.4112356
643.6717956
462.0563562
474.1330079
364.3606189
51.12945409
-151.9354365
-180.2116484
-265.1640106
-369.1435392
-250.1776212
31.20642605
255.9671284
542.2055012
1128.643113
1762.829991
1937.782549
1737.652658
1667.342821
1634.099431
1177.107532
610.1659828
565.7296768
779.380461
727.5632776
614.5951498
616.5772915
425.1554145
81.1455085
-90.31397066
-215.9753156
-487.713864
-721.6079518
-838.5858855
-950.1080069
-1009.447044
-1047.743682
-1256.103298
-1501.195265
-1483.03423
-1322.580324
-1266.012503
-1194.294257
-1024.309609
-985.8073243
-1096.080451
-1056.572372
-859.0999104
-799.6164046
-856.8155293
-704.97634
-335.4185418
-95.88057267
-99.22176993
-116.779676
-111.2329244
-280.8816267
-452.4523583
-193.4461531
321.4770617
528.0745936
525.4677913
720.1471271
848.0492155
619.9304289
439.4505809
497.5726546
426.6084749
223.4855097
171.2619622
148.2164412
41.85598516
63.46774794
190.0671338
223.4753427
282.2797261
479.8422799
651.0436373
783.6907208
1000.197604
1144.294211
1093.639012
1094.514846
1225.589491
1169.514124
872.8454987
662.714899
549.3079707
198.9297783
-366.7417496
-756.4715906
-873.2173722
-972.6720198
-1069.92274
-879.6160994
-423.7451685
-88.97686884
59.54053086
304.1098728
539.6453003
458.9448689
337.615669
494.8604677
532.9012647
252.465265
210.6298438
518.6675194
600.1344744
421.9243092
404.9225177
463.0657812
350.1040542
185.3725475
18.1234878
-240.0061848
-449.85759
-521.3776134
-605.0908754
-674.309946
-593.3700844
-538.5442543
-662.8789016
-735.2371776
-667.192242
-767.6328814
-1095.6293
-1298.961199
-1296.178996
-1380.198886
-1573.516847
-1572.919326
-1369.910475
-1286.899449
-1329.593616
-1138.093682
-714.1585429
-485.5407192
-462.1067791
-203.4431902
223.3344302
353.1728794
339.2244901
589.5018137
846.2610592
861.117526
1010.573777
1350.495574
1416.553427
1240.129644
1172.576645
1084.689103
801.8867821
540.122752
414.6011751
356.766569
419.3455887
549.2345159
559.8709555
553.0934164
697.350276
772.548589
602.9107559
457.102371
494.6685282
485.3489655
386.9698082
445.0278198
609.257123
588.9508974
446.4714927
467.9019315
560.9244809
399.5359872
64.01345006
-73.47363707
-53.67913957
-241.1278481
-532.8693804
-515.1103413
-384.9372101
-604.5337939
-847.9359092
-617.1775401
-306.1241376
-337.1696864
-339.5699032
-147.780642
-152.8109511
-320.3915543
-310.9559917
-242.1373663
-272.3749693
-221.5923159
-87.7535099
-58.60483406
-96.28185387
-158.3424531
-335.2247518
-504.9073137
-516.8338986
-572.4647832
-784.3346635
-849.0455942
-663.4981897
-556.4813013
-593.5490193
-449.2507817
-100.9247472
117.1274033
143.1872697
191.8220945
204.7250061
-69.84794152
-476.045165
-550.5643226
-304.4283655
-243.5002052
-465.3035305
-549.5163861
-459.8288467
-518.7263818
-573.5943333
-377.2252778
-291.3910075
-486.7755976
-462.4995874
-105.6420139
148.497256
323.7954535
691.7595114
1068.895371
1305.629726
1569.103768
1772.134658
1694.023792
1478.263046
1296.31373
1092.257866
957.1248987
1013.500155
1025.144738
802.1704519
564.5305955
406.2462756
76.25244235
-406.4991725
-701.0384673
-817.5871794
-1077.232259
-1428.401398
-1499.234779
-1267.984264
-1080.763831
-1036.421037
-906.2241478
-671.2650677
-516.0715669
-258.2217633
404.2809825
1097.617174
1252.38566
1124.547207
1167.439454
1096.480344
725.4311206
541.5329678
646.170194
595.3097386
461.8625723
623.1018016
930.4346963
1108.930429
1191.850799
1170.97348
1030.411355
931.2297661
821.099359
460.2073348
-24.02781989
-366.1256089
-702.5463725
-1180.989787
-1563.604099
-1742.770904
-1962.623958
-2246.648789
-2337.992639
-2262.234583
-2260.149302
-2257.149784
-2006.014283
-1614.126841
-1395.517189
-1311.636904
-1069.452035
-715.6630721
-550.6918535
-473.4830027
-162.1417788
166.818948
152.0641616
137.5177107
485.6224352
762.5990965
710.9755492
824.729316
1213.502214
1412.328455
1439.938133
1585.47593
1662.410452
1516.978137
1387.380671
1339.567177
1246.636735
1153.220269
1039.809747
783.5311189
546.4299944
511.2159273
461.8627219
257.4616799
164.9138826
259.1450684
236.6218833
68.34611454
45.81457969
142.052501
67.03416493
-139.539847
-209.9833248
-196.7634336
-358.5224294
-617.6071612
-679.7055017
-631.4958954
-791.2518431
-997.1793077
-853.7179919
-595.4693132
-661.9055315
-733.4293031
-414.6075141
-140.3379439
-225.1533458
-219.3870043
5.740495697
43.41520427
-47.87570552
29.80207092
97.3284713
-2.254931861
-77.51388461
-110.3211548
-192.933134
-174.8176642
-11.23999092
119.5562708
262.9444876
546.4736305
773.2672126
792.0159691
806.2234838
877.7772034
776.6881548
542.4588257
474.0872059
527.3840414
398.7160192
124.249613
-1.213410749
3.567053677
-141.2464848
-398.8610355
-445.8483829
-328.3408724
-438.431879
-727.9641295
-777.3557007
-693.0206839
-862.5562154
-1005.508427
-723.1763321
-411.8420652
-446.6341223
-494.539842
-412.9691433
-494.5572168
-669.2421045
-710.2090191
-752.4082253
-815.6699411
-690.026105
-488.2367667
-420.0886608
-362.9065189
-255.0905055
-234.1374626
-212.5587338
-80.59831253
-64.60373703
-213.5622748
-136.4467327
261.8396804
572.5751404
656.5769884
784.998264
981.1349691
1013.582509
946.8704801
1023.361241
1137.456059
1001.41758
719.4667505
652.683995
762.7539342
696.5104529
521.0190954
614.1812605
865.2441422
923.1029684
970.3885416
1198.858467
1205.498916
878.8749173
745.4151155
860.6062262
766.1067087
516.9924244
413.50035
281.5364822
-77.4657098
-531.1377897
-950.1541831
-1162.723675
-963.3032121
-611.6658126
-573.8110008
-742.252238
-757.9257352
-710.9875139
-752.1075547
-682.5544327
-488.0567823
-463.2545772
-534.0500203
-328.9130691
45.6109007
146.0279429
0.554897517
13.9202451
202.9757346
219.2016609
44.10433915
-14.76711601
-13.39471081
-314.925307
-798.7158398
-1001.524996
-1022.65797
-1237.543329
-1403.108766
-1227.375563
-1120.428455
-1312.018837
-1360.413551
-1154.005884
-1024.44718
-901.0911025
-598.3259508
-318.9819999
-114.099312
220.90983
577.1065191
750.3753564
839.7893393
885.2717211
810.0564859
807.8337008
1017.219738
1152.643978
1102.572746
1217.46014
1554.635709
1695.812176
1548.432666
1440.378324
1388.244079
1106.388105
663.1805811
399.6289357
295.3225066
38.90285757
-349.1181994
-560.5138038
-631.7006708
-865.5045998
-1128.091896
-1048.542236
-849.7984895
-961.6392475
-1100.49741
-867.3814031
-578.981868
-495.8746281
-335.937852
-129.1317652
-200.5255367
-355.8781692
-303.3446624
-239.0447775
-270.7824653
-232.097269
-202.4102751
-283.4769504
-261.9169129
-93.16353947
6.688565608
99.61446581
343.1353841
534.8385069
535.0940571
578.9650792
717.8880143
708.5614398
636.7640165
824.9931898
1160.12004
1286.874991
1277.538643
1421.637843
1597.500989
1495.018874
1266.103153
1307.037613
1495.738525
1356.429566
924.2233828
586.7169849
220.0682946
-443.0357919
-995.4227438
-1099.617122
-1233.634926
-1663.629974
-1938.371564
-1970.790355
-2122.453579
-2284.69344
-2200.104248
-2047.195553
-1903.64075
-1576.267389
-1136.703612
-761.2778836
-402.9905846
-126.2835839
-76.44959673
-50.65213187
146.923629
266.8750287
168.5073424
159.2770274
335.3945053
390.8993066
300.5206815
355.3390186
506.5246079
456.8978785
294.011329
339.7104044
525.6163629
545.2516161
476.6945582
619.7626278
835.7499359
771.1112625
617.8704612
774.9914556
982.4474709
849.7984022
740.628295
980.7266519
1100.128602
849.2098702
655.9598124
564.6871978
212.3143243
-260.7483319
-553.1208988
-785.5352248
-1010.542473
-1072.294454
-1060.320924
-1075.634037
-954.367685
-689.1930715
-431.3875539
-59.63623982
508.2009667
952.9670109
1115.942284
1256.916056
1368.649445
1091.901016
507.0080567
135.7184856
120.8125783
156.3156099
123.1855807
139.276373
114.1431029
-153.207843
-511.4177155
-654.7243272
-724.6725615
-1050.921373
-1382.349675
-1262.944366
-978.7548725
-1026.756222
-1105.850186
-824.5632117
-521.4615041
-381.5287778
-60.21455233
313.3737269
283.6002763
56.43473761
26.2996328
54.13935215
0.412394543
-14.33486637
-30.83427324
-83.72469931
-16.77865651
68.37617151
-111.5227089
-483.4287602
-890.7494954
-1486.490907
-2237.095067
-2726.920547
-2859.541858
-2944.177358
-2963.944777
-2622.898175
-2049.975071
-1631.481056
-1277.528925
-555.4626547
570.1203897
1711.242245
2677.932927
3564.63093
4251.488517
4469.943041
4389.736759
4384.443029
4300.862177
3869.105735
3432.405286
3244.481859
2882.719134
2256.05743
1928.152043
1971.805823
1936.491161
1780.150408
1604.654682
1206.313758
607.8749839
77.61663566
-432.8458312
-1026.890254
-1524.604078
-1862.391332
-2107.222825
-2099.816305
-1825.43004
-1685.29197
-1805.794014
-1804.329714
-1577.939483
-1447.137276
-1435.111126
-1301.5187
-1172.083313
-1314.603248
-1511.849991
-1355.788017
-946.7103176
-716.2136263
-722.5878053
-677.3948565
-576.6666775
-675.6304966
-881.7210997
-928.8278642
-1018.445876
-1385.617271
-1649.639759
-1553.621797
-1491.560269
-1539.970553
-1262.744772
-769.0264059
-498.4050956
-287.5355166
119.6260099
487.3120849
697.7903254
919.0466398
1129.034525
1288.373789
1486.621574
1544.051074
1256.485672
933.4431056
890.6087605
899.8877998
776.6435469
754.8954722
864.0959422
788.1045425
525.1155967
378.7974837
334.9217557
154.2161526
-91.351377
-178.6877475
-224.7292643
-482.2385609
-811.8631741
-894.5263774
-842.9709295
-965.231782
-1055.639767
-755.1256401
-380.8794326
-359.0994921
-333.1256707
37.61808826
308.3806384
245.7339768
286.2615553
502.9965827
563.0780262
578.6152189
780.7156032
996.3745194
1108.478434
1180.448091
1119.816767
942.2502946
877.7249593
869.6338648
690.2767199
440.433425
226.5514025
-150.5060814
-639.9671606
-831.5313902
-704.7059311
-636.4523482
-620.8657353
-318.6297716
263.6293231
851.4891369
1392.291966
1897.5075
2100.488645
1796.123803
1299.505716
1052.884033
950.9083331
681.4677996
546.73078
1048.206037
1849.410744
2233.710389
2201.240567
2005.132652
1429.502525
503.9002942
-236.7389682
-704.2423882
-1221.554587
-1731.386685
-2061.888218
-2279.796447
-2312.952643
-2098.161651
-1930.298185
-1960.066419
-1997.579983
-2094.466916
-2418.912041
-2706.58514
-2710.646784
-2702.578094
-2871.120484
-2947.855031
-2800.535214
-2573.858211
-2165.286606
-1405.674047
-634.6503941
-321.5751746
-327.304877
-190.1446298
110.7209421
290.9983795
444.8028975
916.721037
1579.286678
1956.85218
1988.225135
1854.434996
1329.253625
313.2690447
-556.5883605
-892.0321011
-1179.995092
-1634.832936
-1823.707109
-1736.918961
-1701.316381
-1540.633565
-1073.066872
-631.9473877
-398.8709084
-181.4392786
105.474723
530.2345701
1272.845592
2261.965343
3309.844177
4502.751556
5829.024276
6916.510769
7618.210123
8142.173362
8383.078774
7964.233266
6948.574055
5726.724784
4397.229894
2916.575933
1535.211653
500.5822211
-391.8156464
-1469.661204
-2628.07976
-3567.63587
-4391.338664
-5362.194024
-6240.607748
-6637.97715
-6743.384642
-6785.386206
-6391.512219
-5444.916457
-4543.051873
-3907.725633
-3238.076393
-2731.896218
-2678.260902
-2583.037754
-2005.312931
-1260.261598
-609.2645104
68.14893039
725.4989781
1222.908987
1572.938593
1687.243592
1520.242943
1380.578544
1448.884808
1464.517248
1348.083749
1375.90534
1523.569359
1505.540098
1425.008531
1541.908658
1645.054722
1403.700445
1004.065599
818.3964862
802.6319069
773.0638333
931.8722219
1499.553704
2094.013883
2201.463264
2025.48064
2023.924679
1997.374136
1643.916674
1333.132404
1286.778476
1051.594548
566.8425036
349.5304658
361.1537837
160.6551197
-186.854642
-503.7091638
-945.3731936
-1475.945233
-1859.055821
-2112.07357
-2256.004924
-2181.741739
-2071.245229
-2165.595759
-2248.833909
-2102.247193
-1960.69729
-1955.020778
-1828.948393
-1518.606543
-1216.060454
-831.5443578
-177.153741
496.419559
847.4760947
1041.994779
1409.873161
1808.594502
1867.970728
1612.235642
1319.757539
987.0414395
503.0919066
108.1729033
-18.84787476
-267.5673541
-892.03826
-1445.942283
-1689.930626
-1990.746705
-2299.003496
-2179.571546
-1904.27755
-2014.478018
-2337.644626
-2562.187967
-2756.362055
-2811.524877
-2558.089402
-2294.474808
-2235.862434
-2083.395744
-1688.277382
-1290.212051
-999.9311844
-766.6497944
-515.0550799
91.44003022
1301.264009
2581.748277
3167.685834
3146.622901
3149.150049
3343.423312
3473.605642
3439.980806
3264.481307
2891.071657
2455.061789
2417.348844
3025.323088
3876.888885
4465.014217
4889.655459
5416.387955
5762.622421
5672.802754
5535.556655
5551.757358
5305.62304
4756.115946
4300.214612
3788.583346
2896.608007
1916.687131
1074.610144
64.19760464
-1212.446702
-2543.868253
-3924.169744
-5269.947724
-6181.610537
-6471.395611
-6251.867756
-5561.753421
-4576.503926
-3747.414109
-3215.451237
-2703.276636
-2184.164221
-1915.629718
-1864.517429
-1828.609757
-1925.25894
-2363.83781
-2997.21011
-3544.580701
-4013.953001
-4549.753919
-5063.20051
-5396.980285
-5700.635124
-6119.992732
-6273.909778
-5766.209492
-4952.399899
-4327.731352
-3710.986191
-2901.49233
-2179.079673
-1507.789499
-461.2735377
945.8818667
2488.119215
4192.666973
5793.423799
6793.116328
7294.335881
7666.341598
7792.629747
7496.775148
6919.955674
6100.1338
5066.071096
4186.481322
3620.72295
2976.934753
2092.32474
1374.136557
1070.241124
1037.403232
1244.864376
1727.13009
2214.222665
2431.689179
2503.509123
2620.80979
2624.713733
2294.163785
1763.180731
1245.26796
603.6667217
-278.4548568
-1015.417122
-1333.938788
-1706.996947
-2495.416849
-3237.462696
-3671.231792
-4259.185123
-5062.047042
-5593.53604
-5887.123904
-6206.455068
-6238.143469
-5720.978547
-4938.70998
-4079.814343
-3098.25428
-2089.716255
-1122.408613
-233.7444399
259.6771637
210.4367116
108.7997382
433.2493628
1118.879123
2032.437362
3140.211202
4075.61384
4402.400696
4232.423845
3904.038428
3411.05649
2736.267902
2261.261814
2282.109608
2513.112982
2544.621143
2459.689975
2514.032503
2519.262774
2176.880718
1736.005501
1546.35182
1369.099915
1010.214593
921.7796174
1304.818275
1683.826098
1912.434699
2224.184474
2320.715197
1835.437527
1096.484029
405.3648362
-401.9792826
-1279.322667
-2016.915634
-2801.662851
-3839.191617
-4939.098732
-5875.112786
-6513.853455
-6694.231264
-6546.924837
-6474.538438
-6519.554086
-6461.616995
-6513.350545
-7030.619938
-7746.345329
-8132.504815
-8171.289557
-8093.308869
-7788.976015
-7047.348126
-6018.491911
-4946.636391
-3651.117383
-1735.917561
750.2469389
3316.176574
5616.678362
7578.614602
9271.01825
11153.19681
13674.9277
16158.10567
17324.07582
17120.05151
16441.39197
15405.62531
13595.76375
11212.65427
8670.376433
6058.642117
3568.980546
1457.366447
-276.3812546
-1511.908889
-2005.094832
-2026.418693
-2138.333374
-2481.773311
-3002.516374
-3807.599102
-4720.292856
-5215.216295
-5103.520207
-4594.975748
-3810.221824
-2941.771154
-2496.804749
-2690.92529
-3041.322116
-3088.704357
-3060.822552
-3373.833019
-3934.223433
-4439.349313
-4944.246902
-5487.105291
-5604.471099
-5079.530826
-4659.161741
-5059.864523
-5965.002218
-6812.517057
-7455.070973
-7556.796051
-6767.348435
-5498.421892
-4232.81009
-2735.851064
-851.3812571
1038.694294
2711.049507
4186.554281
5357.01144
6230.309099
6923.752698
7244.313754
7025.14519
6557.046435
6045.38764
5294.451249
4309.405607
3378.953181
2478.94711
1450.361115
574.4034427
196.6754348
156.4235125
201.3212284
495.7420055
1214.364605
2061.898358
2634.887291
2928.757539
3074.13055
2899.986117
2300.964019
1681.305034
1333.232877
866.2311655
32.72929534
-684.075142
-1032.408299
-1394.87334
-1835.354059
-2095.351983
-2364.362893
-2810.169958
-3110.284825
-3211.791329
-3396.22265
-3459.237905
-2978.211037
-1972.881705
-552.3016651
1266.819885
3102.449813
4443.010359
5196.508068
5395.150906
4939.407628
4040.581734
3182.132983
2499.201504
1853.339071
1280.768512
760.5984657
12.34209661
-977.6412502
-1782.696545
-2250.581212
-2803.17578
-3654.139678
-4268.859418
-4108.671937
-3485.868828
-3043.671513
-2810.689206
-2541.342671
-2395.386718
-2383.60873
-2009.427652
-1278.401441
-874.9168386
-924.5933885
-1026.537008
-1298.629241
-1941.101147
-2538.255761
-2836.449517
-3125.95252
-3475.001586
-3691.233008
-3851.728638
-4090.440308
-4365.215938
-4670.581199
-4898.796205
-4788.070366
-4460.65154
-4311.530307
-4170.209339
-3553.859126
-2699.189253
-2187.182329
-1655.951815
29.53207214
3370.185607
7712.300645
11984.7926
15439.17951
17825.93405
19286.95917
20014.91899
19774.68847
18054.74657
15050.27089
11932.17912
9471.459484
7140.986142
4403.240706
1777.893625
-261.6336559
-2017.826336
-3524.501875
-4328.210412
-4460.847656
-4297.528016
-3950.109032
-3653.52745
-3836.88233
-4549.030136
-5643.887491
-7129.70607
-8807.365271
-10327.35057
-11663.12845
-12745.0166
-13095.27703
-12511.2448
-11392.03327
-10049.06298
-8545.584273
-7138.511315
-5942.20776
-4557.479445
-2938.047061
-1985.498789
-2412.544121
-3659.39198
-4684.605284
-5227.802512
-5567.542756
-5526.6268
-4551.510934
-2555.347961
52.31116448
2942.68643
5798.396801
8146.588656
9938.458927
11522.80262
12639.72394
12709.22711
12131.3075
11703.52291
11260.24757
10409.11477
9556.679862
9080.662611
8743.82122
8356.525297
7885.299686
7127.264198
6033.15237
4794.101837
3450.038051
2087.649882
1044.873004
298.6287431
-668.5962892
-1997.112021
-3213.410237
-3949.149168
-4205.578716
-4136.160771
-4118.187311
-4606.055272
-5516.862402
-6209.624096
-6271.274021
-5864.688325
-5170.579238
-4029.019153
-2506.563584
-1333.677297
-1124.971633
-1560.806642
-2083.280217
-2762.277472
-3596.648917
-3960.555056
-3656.322467
-3300.399539
-3183.085798
-3128.349627
-3301.692639
-3833.008674
-4343.763141
-4646.433003
-4891.274353
-4935.251216
-4576.435202
-3937.914741
-3022.205211
-1744.587866
-509.6217193
178.5148098
396.2291845
448.6614215
477.2927608
708.2097391
1234.967107
1558.878449
1216.709017
590.871408
333.3761767
484.7194512
811.202057
1407.55274
2346.253608
3231.000457
3676.807756
3906.733627
4353.963961
4966.264937
5500.955683
6143.303179
7082.402428
7998.413201
8746.266015
9669.293572
10596.57685
10809.91961
10277.24297
9462.329111
8283.452815
6614.210632
4863.502019
3153.031345
1108.905012
-1326.003572
-3946.785391
-6701.621422
-9317.73239
-11256.86249
-12259.30605
-12228.77128
-10973.93274
-8721.456196
-6224.041727
-3965.194781
-1980.321138
-421.9976432
534.1650826
1086.658514
1405.751755
1259.811112
531.2068526
-434.6607099
-1366.633315
-2451.462238
-3869.801773
-5379.946441
-6702.807861
-7900.938276
-8887.375768
-9054.201006
-8119.793009
-6750.165765
-5543.131568
-4286.054985
-2868.52649
-1618.27248
-384.0940635
1251.943179
3046.581998
4609.528337
6079.077582
7602.355141
9167.416973
10905.51556
12608.02527
13563.25744
13434.81394
12429.70165
10652.75338
8260.976922
5775.248563
3478.166182
1240.387681
-705.0920829
-1786.65255
-1967.978332
-1654.671457
-937.4281847
210.1653288
1337.778664
1868.467488
1739.508278
1186.131822
185.0200597
-1451.841226
-3633.767578
-6043.983026
-8478.793123
-10718.68232
-12321.95004
-13092.90252
-13325.38646
-13026.55988
-11724.55505
-9528.672296
-7191.3777
-4979.728405
-2831.310341
-1151.8535
-175.4687215
545.5695461
1262.011444
1818.684617
2422.163408
3498.293398
5095.241673
7019.230569
8953.221625
10410.53353
11188.3512
11444.16257
11013.94546
9542.328209
7381.925834
5321.829971
3561.312347
1886.786625
417.5579481
-642.9953601
-1414.414407
-1902.931337
-1799.470339
-1131.086947
-475.6027739
-135.0066036
333.4580916
1290.863259
2253.06582
2588.640661
2428.225721
2085.930143
1275.131631
-217.0569472
-1960.65535
-3647.108872
-5263.896451
-6347.678076
-6443.034231
-5955.905261
-5405.824818
-4713.734276
-3853.606626
-3033.502267
-2176.782177
-1230.76188
-491.2444152
-33.60451438
343.7341213
496.7729642
129.0056078
-650.8990142
-1568.336076
-2443.505104
-2996.777556
-3103.929168
-3114.452716
-3192.000768
-2784.979888
-1457.277634
314.5440593
1735.832712
2521.357953
2753.277497
2514.260696
2063.759403
1892.911263
2149.032264
2352.249514
2111.810591
1683.067015
1336.286561
889.073539
420.0333175
397.5929243
650.7115458
556.5272344
287.5177811
376.8939953
574.7268353
457.2505123
191.4871909
-65.38787313
-345.7391308
-367.0030959
125.1162854
928.0169576
1824.131079
2738.339683
3482.931097
4074.618562
4840.707712
5707.020289
6119.279206
5833.943466
4912.972373
3094.15367
105.0821018
-3626.100934
-7248.611805
-10139.81161
-11921.3847
-12339.24582
-11468.61775
-9676.194869
-7159.038807
-3824.491564
178.7013822
4194.342157
7684.210693
10622.22908
12728.16877
13097.7502
11377.42618
8355.652052
4828.670055
1165.297108
-1937.419938
-3852.651127
-4836.002784
-5242.095713
-4925.001957
-4092.359062
-3422.858713
-3158.696335
-3129.699253
-3237.107203
-3280.335631
-3028.489075
-2573.71786
-1962.024902
-974.5792993
175.9207518
786.9739982
702.7340092
534.8690158
735.7369644
1204.233263
1616.524873
1558.668138
750.2339333
-433.8578379
-1160.092932
-1144.239152
-977.6399715
-1230.883144
-1742.092099
-2125.11829
-2446.68765
-2828.033623
-2924.94258
-2536.234601
-2033.219903
-1485.808451
-439.6011645
914.3936628
1790.516603
2144.458489
2430.645795
2545.183443
2327.442108
2110.420814
2034.986068
1964.275841
2044.155799
2362.929821
2684.53715
3076.370729
3865.153473
4853.879107
5440.690333
5292.449453
4472.920149
3471.704428
3112.711948
3656.982963
4293.521401
4258.157835
3821.921784
3468.83488
2939.24754
1832.63089
427.1455599
-759.4083674
-1696.010934
-2616.128517
-3496.187715
-4234.72356
-4971.557194
-5720.560911
-6133.288758
-6147.570126
-6139.618266
-5922.866925
-4757.013932
-2786.127611
-1035.830605
63.10855968
689.3588213
777.9180222
441.4985222
231.8871939
238.1042516
-2.300345692
-698.1839941
-1811.333931
-3328.125921
-5016.40731
-6582.63409
-7986.022704
-8995.124609
-9050.47712
-8061.864505
-6573.308203
-4993.788661
-3469.375364
-2275.839113
-1515.609274
-825.3362221
25.45889079
809.284348
1468.148618
2361.135941
3562.581298
4561.072389
4998.304886
5146.434674
5247.027007
4959.239447
4078.582623
3204.791601
2938.727718
3116.762861
3496.083832
4139.1998
4700.31092
4721.360372
4594.420214
4787.889229
4848.190169
4402.621582
3906.062949
3659.408918
3433.10387
3147.151671
2865.983624
2554.44269
2350.689957
2386.709605
2400.700841
2194.274583
1966.629752
1765.632658
1390.326711
966.2700455
742.6685195
488.3475594
-77.71403188
-662.7538349
-910.5342792
-1003.250371
-1218.365408
-1415.109606
-1356.789674
-1107.625754
-815.7923029
-490.39392
-315.5089173
-771.7124534
-1962.254986
-3279.076217
-4288.433115
-5217.344243
-6013.59093
-6088.133995
-5446.09103
-4644.220803
-3640.835967
-2208.92896
-847.1403464
12.02197158
588.5149148
879.9203873
553.2865678
-203.4872638
-831.11917
-1043.91982
-815.4811776
-388.8186411
-293.1236141
-725.7589948
-1337.360428
-1930.442302
-2548.057184
-2825.097954
-2292.62927
-1269.516399
-548.2186531
-423.9808649
-691.2831472
-1187.373178
-1821.858305
-2444.851524
-3030.033508
-3709.438776
-4441.274781
-4913.800876
-4945.365724
-4658.618776
-4019.479665
-2691.548024
-763.9406865
1034.871433
2289.941672
3160.358368
3510.439616
3064.341241
2299.881983
1897.996527
1901.43837
2290.927414
3276.515614
4689.923392
6288.49744
8279.673728
10537.97913
12195.52073
12657.87997
12098.67318
10924.6116
9589.363465
8505.745394
7543.947035
6196.605664
4363.88996
2304.693429
135.0381698
-1903.971764
-3264.848207
-3840.972965
-4246.573222
-4904.955912
-5569.337668
-6068.16147
-6759.009455
-7808.28763
-8651.192594
-8730.656787
-8300.567003
-7884.354638
-7478.682296
-6997.728497
-6738.287986
-6666.176677
-6255.462135
-5491.253706
-4763.224424
-3878.988586
-2571.968824
-1286.296778
-344.4180913
533.7477081
1363.849883
1796.056478
1806.20018
1576.723849
1232.653024
1075.17659
1341.70377
1860.838704
2511.633215
3395.744995
4240.266332
4572.696192
4561.610935
4714.491463
4988.077682
5094.279159
5174.10242
5380.044394
5390.733963
4945.517234
4297.442136
3734.492435
3176.504622
2551.013029
2049.521631
1660.403779
992.0053054
12.04159359
-719.6346236
-1092.379723
-1726.589649
-2652.022401
-3067.812313
-2823.455248
-2522.642848
-2219.405374
-1680.251529
-1317.293296
-1493.786876
-1884.135628
-2175.272903
-2290.696049
-2011.238735
-1326.483002
-627.6606346
-90.7526344
407.9291562
846.9561463
1216.995422
1659.642975
2000.078086
1786.866726
941.3124772
-257.8662144
-1626.672649
-2988.049514
-4128.296661
-5201.537749
-6503.95614
-7681.262977
-7967.089606
-7321.044776
-6542.900703
-6127.493528
-5719.152006
-4884.721801
-3705.088637
-2273.249634
-417.0525635
1589.560399
3006.461421
3811.685307
4687.541616
5587.398413
5838.628916
5529.992075
5295.124004
5349.154749
5760.507011
6538.939686
7056.985247
6624.759284
5393.797742
3826.778554
2132.550501
658.6175985
-235.7519674
-733.1928308
-1176.306148
-1569.995418
-1915.766799
-2297.520895
-2504.852562
-2330.399897
-1967.850116
-1429.96753
-242.260785
1599.584572
3178.165802
3796.386995
3850.196553
4085.815914
4649.366847
5316.572111
6075.772655
6942.317476
7645.165966
8050.833414
8420.068634
8735.072007
8488.119277
7518.114496
6009.943563
3687.216925
480.3897006
-2538.181688
-4548.420103
-6284.65158
-8573.620844
-11008.69371
-12948.77781
-14376.28649
-15415.40243
-16030.45372
-16126.4628
-15598.66021
-14642.57944
-13775.90339
-13152.72744
-12437.96642
-11506.75283
-10469.0717
-9195.510531
-7727.966019
-6669.479297
-6217.346062
-5429.835394
-3322.508659
-124.2611132
3160.464976
5874.71807
7969.561047
9692.940143
11421.29517
13322.93002
14781.11864
14716.39016
13051.62032
11148.26206
10078.89055
9445.017921
8633.581239
7884.167027
7456.530514
7188.725737
7048.010251
6848.852262
5999.62393
4450.418059
2849.912453
1494.061548
292.4082513
-609.7989167
-1145.08869
-1539.96048
-1823.610448
-1939.407828
-2115.61249
-2364.373733
-2227.7024
-1531.749317
-633.9145604
208.462116
940.4406242
1412.969553
1680.540842
2156.941702
3017.043685
3998.515377
4918.147544
5651.548535
5618.512474
4148.266111
1501.158701
-1173.831298
-3122.345925
-4612.421882
-6033.281809
-7202.109066
-8060.733288
-9032.371345
-10098.10959
-10728.91975
-11013.19981
-11391.66462
-11528.86599
-10945.74376
-9946.794247
-8786.086332
-7149.082275
-4983.646769
-2604.980793
-117.2668165
2372.134146
4540.724098
6201.166617
7202.013879
7258.019557
6451.606742
5264.731063
3911.292932
2518.976944
1751.161953
2158.387144
3254.23017
4141.129465
4560.425162
4707.308382
4663.837369
4512.458976
4468.486524
4566.101411
4562.817187
4292.489543
3826.062738
3234.920836
2570.446012
2181.08098
2464.672304
3073.837451
3229.483939
3048.552213
3315.507764
3893.006662
3900.779441
3179.751276
2151.463059
1026.111334
88.3027528
-456.6080596
-1199.568432
-2824.544186
-5059.619489
-7245.974761
-9073.308044
-10220.93064
-10188.27141
-8680.754294
-5833.027299
-2498.421705
-193.8091221
175.1712512
-749.50053
-1913.148248
-3161.777239
-4695.159468
-6372.399263
-8329.389743
-11031.49792
-14013.69226
-15783.85591
-15617.11175
-14415.40741
-13263.77716
-12082.45177
-10301.55519
-8018.766908
-5734.049855
-3642.997675
-1858.023248
-466.1270217
1090.802353
3529.251256
6566.746758
9611.465986
12930.08294
16611.34729
19590.80939
20994.16176
21098.51301
20448.29367
19343.51077
18049.0379
16587.47931
14859.69445
13156.98957
11770.78899
10479.81102
9131.336888
7981.207318
7043.644108
6034.608485
5055.3062
4416.230313
3958.959309
3304.460964
2422.638011
1473.256457
523.6862714
-363.9493743
-1211.554771
-2298.410589
-3835.97632
-5545.430776
-6968.831598
-8153.355711
-9556.65642
-11229.29922
-12756.62993
-14155.78092
-15816.30464
-17345.77444
-17831.68598
-17338.7546
-16710.00589
-16294.38013
-16141.76399
-16382.25267
-16461.54127
-15327.44466
-12659.09372
-8782.97811
-3997.500863
1076.492683
5459.380626
8590.2549
10295.45683
10372.13072
9132.166839
7721.179392
7213.326859
7888.707318
9395.688101
10995.06811
11969.9932
12317.52944
12568.09631
12758.79985
12321.29649
11044.11421
9382.131359
7775.469597
6307.976405
5051.011374
4130.599065
3322.773688
2154.734242
662.2522381
-545.9644886
-1264.370078
-1980.502043
-3007.66742
-4318.487819
-6119.980766
-8397.174568
-10419.17513
-11757.17945
-12759.03237
-13460.08074
-13508.69779
-13206.19352
-13151.08167
-13268.64824
-13168.66132
-12678.60297
-11635.96442
-10028.89944
-8224.433323
-6375.697398
-4101.868324
-1162.656091
2199.027566
5697.604907
9164.947057
12392.23048
15228.89937
17492.46552
18619.96234
18007.77628
15855.12607
13188.30293
11019.18158
9823.304277
9695.030559
10511.16172
11829.43692
13018.99012
13713.59268
13791.529
12902.67621
10824.98642
8233.388553
5910.851601
3535.784105
688.537937
-1831.725202
-3183.881884
-3713.669061
-4034.995449
-4363.18762
-4974.649527
-5954.326823
-6922.749787
-7878.266573
-9350.260334
-11320.16724
-13051.85708
-14090.14989
-14752.81022
-15813.24853
-17847.44229
-20491.01931
-22590.56437
-23526.94175
-23756.54119
-23581.42741
-22307.76171
-19222.59417
-14569.48751
-9083.179635
-3363.573692
1876.613763
5762.652671
8055.579851
9428.44724
10438.13049
10895.96186
10832.30143
11147.31311
12472.10193
14330.778
16056.22868
17378.21399
17910.45102
17420.17319
16338.69283
14930.25223
12943.97144
10723.75034
9188.156287
8516.148093
8163.831932
7791.161318
7291.887826
6656.377205
6148.371972
5901.989951
5616.404724
5164.410152
4768.861821
4319.599518
3466.721585
2394.467607
1549.510354
801.5162511
-330.5467749
-1949.403625
-3803.210805
-5604.313483
-7045.643471
-8005.71424
-8911.747916
-10406.62643
-12512.42652
-14586.02967
-16216.61799
-17594.2869
-18805.38947
-19548.13244
-19872.91639
-20203.72913
-20299.29332
-19405.70283
-17498.77815
-15051.87195
-12035.52902
-8377.805442
-4467.98997
-449.1447404
3756.89607
7659.131042
10661.89714
12864.59255
14586.80025
15838.53517
16496.72418
16285.06371
14948.0916
13010.02732
11611.99302
11277.0888
11611.08
12061.96788
12135.03258
11323.42393
9657.95249
7871.736121
6531.949313
5536.348777
4671.848693
4029.645302
3656.440692
3320.988746
2853.519297
2336.630816
1770.899887
973.2869491
55.52449586
-576.0894137
-1020.414155
-1883.478446
-3270.347032
-4857.977351
-6811.249176
-9276.928925
-11577.97781
-13145.25179
-14199.07701
-14856.85077
-14971.6939
-14870.58857
-14923.80125
-14860.6338
-14318.81066
-13284.67427
-11792.98895
-9959.943422
-7988.491983
-5698.98157
-2823.32624
149.3529992
2445.67171
4187.763474
6139.07994
8604.405034
11294.39233
13745.47109
15368.73397
15686.17815
14893.5916
13740.34407
12697.71394
11636.39013
10365.10839
8998.045235
7604.372706
6039.898581
4471.913778
3414.65867
2836.083265
2098.162969
1069.258717
176.3782016
-554.3299935
-1225.919445
-1463.231003
-1206.998201
-1008.842625
-960.0376694
-726.4510632
-527.275858
-730.6471604
-1117.745356
-1423.758126
-1645.090739
-1522.332153
-758.8043452
354.9168299
1267.944976
1700.799149
1526.601096
714.7005493
-564.9676112
-2226.369869
-4318.10558
-6492.25778
-8063.13246
-8857.134364
-9383.765626
-10070.08183
-10878.51264
-11641.36744
-12244.43816
-12451.80379
-11985.62124
-10953.77456
-9886.489847
-9134.32693
-8562.630691
-7911.564767
-6785.399749
-4415.125994
-582.8702876
3517.927004
6574.288997
8528.521648
9713.326898
10037.25174
9692.882811
9255.235549
9076.884846
9510.376858
10808.57982
12237.83244
12547.19476
11421.77334
9415.991292
6985.975732
4493.402278
2415.544404
942.7594698
-52.06478912
-625.2630091
-865.7950137
-1009.267183
-1037.864387
-724.9937538
-272.0429053
-221.9167075
-659.5626027
-1125.232274
-1308.607974
-1283.338412
-1090.606153
-610.0288519
84.26455056
728.2749723
1377.850207
2314.094898
3268.730658
3624.9771
3507.090389
3533.368094
3689.701242
3705.243676
3783.533342
3813.633602
3104.639999
1592.352323
-105.4794776
-1793.73242
-3570.835873
-5220.970043
-6593.866029
-7751.188071
-8532.754454
-8807.85389
-8831.89887
-8761.896799
-8448.083495
-7923.902394
-7335.613599
-6492.443487
-5207.016936
-3717.223607
-2210.326432
-485.8161661
1516.835529
3466.758074
5106.376848
6347.165465
6888.043638
6431.71374
5316.606436
4262.02316
3420.287913
2381.601706
1186.96943
398.2156137
-24.65818279
-756.9505758
-1858.219154
-2779.632827
-3428.175895
-3884.390305
-3801.839814
-3234.349028
-2839.887743
-2671.908931
-2260.247303
-1787.776137
-1710.630843
-1762.272761
-1412.199832
-614.5602417
408.0774726
1529.247846
2787.578084
4279.353855
5709.581923
6325.403823
5849.678535
4954.029227
4239.529842
3475.450954
2319.06024
949.3984594
-382.9872564
-1659.513486
-2730.115911
-3297.749832
-3378.312849
-3278.161688
-3076.594115
-2569.367841
-1771.434326
-993.3499135
-309.495564
442.1710967
1048.74153
1185.165392
1205.932981
1513.908056
1621.729158
1204.553943
1093.661111
1907.000579
2996.745861
3572.247804
3503.964216
2909.001841
2089.673998
1482.591588
1101.945861
721.88392
486.8485679
532.4867671
539.0917402
288.9753811
-13.85169078
-206.1050131
-259.7369688
-79.23475744
218.2100705
262.3700279
37.7505092
-73.78883852
23.56265134
101.7010778
199.1013982
557.0763463
1056.935987
1339.921384
1435.985884
1704.898283
2119.46081
2212.291648
1879.776072
1514.52434
1145.554163
369.1136261
-777.6955073
-1975.117027
-3369.589728
-5002.134271
-6293.940139
-7046.097991
-7686.1664
-8123.609324
-7873.003293
-7136.548164
-6450.507798
-5880.324596
-5351.75866
-4933.735443
-4520.959758
-3906.468247
-2968.708694
-1501.125866
555.5956738
2686.606374
4220.805451
4933.458226
4851.493525
4092.740262
3188.971162
2792.166699
2891.918091
3020.837217
3121.815541
3463.891954
3899.549307
4000.251646
3836.207527
3869.076769
4060.746835
3888.368381
3352.342097
2984.79005
2693.384164
1872.653472
790.0191794
382.2713047
810.5965413
1608.291661
2528.01932
3109.407725
2661.542234
1359.78637
62.31988049
-904.6818624
-1695.685142
-2314.800467
-2711.161615
-2781.127855
-2284.491334
-1411.522828
-896.8166988
-1140.412583
-1953.096382
-3144.512196
-4464.051598
-5280.669658
-5204.640594
-4635.371572
-4146.517484
-3882.665646
-3826.194773
-3948.596006
-3878.69141
-3064.71663
-1504.987701
108.5274449
1116.433045
1397.723483
1107.744533
489.6620917
117.5619603
553.6871485
1516.87762
2318.009955
3077.026068
4206.531007
5117.2724
5028.382157
4347.689723
3926.666658
3979.856736
4405.337496
4950.217111
5036.364045
4413.521194
3526.462225
2809.026626
2338.298139
2057.937197
1671.110416
820.1714732
-278.6611786
-1079.219151
-1509.743097
-1810.150412
-2023.022836
-2298.840265
-3014.350562
-4089.917613
-4954.878683
-5439.560806
-5907.430485
-6437.116546
-6664.428395
-6485.492465
-6221.841265
-5986.951149
-5484.451185
-4600.0122
-3618.318416
-2646.687589
-1500.499552
-329.0153573
538.0749299
1358.661597
2507.445878
3652.518525
4505.308763
5393.601127
6214.00432
6299.448001
5750.439494
5353.373521
5373.77341
5632.732967
6030.086391
6274.255082
6001.363975
5330.498528
4598.486458
3897.418172
3271.544594
2747.668902
2100.34235
1203.647976
345.0492752
-280.8658366
-845.9112337
-1386.796918
-1734.800579
-2031.649865
-2592.311614
-3296.854908
-3756.147665
-3965.805902
-4230.5448
-4528.67167
-4515.882967
-4226.05939
-4177.442932
-4537.92627
-4819.423938
-4659.721507
-4132.439879
-3266.495317
-2288.633671
-1964.821616
-2564.138382
-3297.062371
-3591.229625
-3646.287515
-3490.202937
-2995.18617
-2554.46289
-2524.241747
-2662.065602
-2715.324552
-2673.238133
-2386.53153
-1722.097245
-794.7463386
306.7203441
1462.153887
2295.639988
2706.526044
3204.130509
4078.511673
4904.16317
5368.540314
5779.825083
6362.668837
6833.771109
6947.172152
6813.125945
6526.838553
6021.454226
5397.868101
4923.9988
4585.565048
4125.561159
3634.086844
3423.05783
3241.894111
2579.417925
1688.910607
1134.226364
737.4914076
197.6822064
-178.2322924
-342.8809573
-789.2519626
-1538.334923
-2219.3571
-2904.892183
-3743.32172
-4473.422204
-4943.761518
-5313.213922
-5676.372966
-6124.329697
-6790.965848
-7503.554974
-7940.349049
-8061.148967
-7833.519386
-7018.333549
-5734.774904
-4519.475202
-3465.607975
-2112.006367
-323.4343699
1541.387803
3293.949095
4980.300162
6407.060623
7263.950234
7605.130121
7694.72707
7519.991573
6968.754825
6313.549827
5831.419176
5141.166251
3856.687185
2541.78856
1831.422368
1291.398011
393.0906258
-504.5271097
-1123.475769
-1739.997521
-2248.368605
-2264.403126
-2014.365408
-1959.169251
-2113.125561
-2319.54079
-2494.473463
-2582.6572
-2753.700305
-3165.920359
-3434.00274
-3136.80728
-2637.754772
-2522.15055
-2669.232136
-2648.422728
-2446.967033
-2238.601663
-2025.133939
-1798.43247
-1526.207879
-983.6907119
-133.4857685
503.9217547
468.4092954
189.005757
495.501006
1342.180404
1844.768652
1692.691285
1511.595156
1632.856166
1725.863028
1748.859104
1908.122834
1932.661139
1689.445256
1740.942312
2317.224431
2893.451098
3162.116519
3227.595392
3140.115269
3134.237934
3566.865533
4239.159046
4644.317194
4692.037747
4457.934161
3799.427101
2705.086016
1414.208238
120.3046362
-964.2436018
-1640.097333
-2197.765438
-3185.211296
-4461.467845
-5315.09385
-5636.18291
-6080.349882
-6980.450981
-7909.264009
-8432.349824
-8589.149894
-8463.546043
-7928.130241
-7055.084007
-6112.666037
-4913.297412
-3024.575451
-819.0505297
801.7807859
1731.66392
2452.08579
2981.227283
3314.73404
3945.868947
4966.482855
5892.822312
6665.693819
7510.081015
8170.490222
8320.722289
8021.399566
7331.799536
6272.242443
5074.394554
3898.095157
2775.092367
1959.669996
1604.953425
1339.454284
908.1712696
668.1235849
819.6779728
928.5390081
686.7631774
326.3135629
17.43906434
-362.4788789
-770.5826474
-1004.392082
-1196.528547
-1714.690638
-2506.471857
-3068.373816
-3220.946425
-3390.28683
-3891.878252
-4552.52583
-5214.894021
-5783.662429
-5826.803093
-5196.574391
-4616.178088
-4597.057097
-4715.174623
-4687.577853
-4777.998759
-4901.072099
-4756.490756
-4543.260209
-4491.821179
-4403.940111
-4116.50071
-3603.429542
-2750.540306
-1663.261696
-627.7890238
510.7490878
2101.341565
3848.390716
5058.791943
5493.833402
5373.814535
4996.747551
4733.157574
4843.360827
5131.343645
5275.637859
5403.305299
5848.219014
6567.104801
7266.714156
7860.557661
8312.232885
8245.263852
7341.130831
6045.280962
5092.187426
4375.968538
3298.129075
2027.935747
1158.732901
595.1971169
22.40037262
-410.8489135
-768.4105192
-1468.18499
-2438.503112
-3325.58528
-4187.285087
-5096.489728
-5831.158945
-6359.106506
-6806.406377
-7063.596254
-7041.101912
-6859.846768
-6547.202814
-6117.200221
-5768.208701
-5450.605813
-4744.542183
-3569.96002
-2319.85776
-1140.753472
62.31329114
943.3760028
976.6039333
364.8318783
-89.75042017
36.70095218
524.3194827
1081.196638
1606.927993
1957.552061
2045.485071
2184.786068
2666.170149
3037.287694
2705.838164
2038.881
1740.459864
1671.825901
1426.743021
1147.741915
929.1743814
572.8889867
177.0809759
-114.0165666
-494.1485481
-898.1859804
-926.7209708
-591.6037694
-167.7106441
404.3913401
1194.457134
1948.956699
2461.102153
2652.547324
2411.296077
1920.368291
1650.738281
1613.247
1334.21388
747.0263519
256.9523124
-66.99197232
-505.0854236
-1008.447806
-1284.858851
-1440.181124
-1866.51365
-2545.770507
-3043.63322
-3222.010641
-3382.788535
-3627.405083
-3747.58383
-3780.104431
-3822.621565
-3491.296669
-2558.450884
-1545.898388
-761.8847204
150.7216781
1115.14756
1575.536213
1694.578151
2141.799028
3020.752318
3990.925462
4754.978416
5036.529859
4833.075852
4534.002787
4286.016766
3835.862887
3160.545376
2462.397654
1696.337618
829.7116643
136.3257318
-292.0640764
-694.42628
-1028.220402
-940.2391581
-436.5129913
80.18143819
362.0618387
360.7819521
-66.94746887
-953.7202212
-1868.125993
-2276.67196
-2198.394641
-2001.187297
-1657.705553
-931.2314509
-170.7089183
61.99554608
-80.16217631
-213.8447765
-474.768222
-824.4416851
-766.88112
-394.1258744
-308.3559837
-490.4802592
-593.6165552
-748.5006672
-1077.455524
-1328.144775
-1421.399595
-1480.107711
-1456.310526
-1345.473651
-1266.511506
-1121.842555
-812.6799885
-576.1998638
-509.1164069
-302.2178621
80.5489658
191.5407945
-136.0830071
-576.7525993
-957.0259758
-1382.738969
-1763.977796
-1864.555255
-1732.965091
-1516.210421
-979.3561445
154.6873549
1446.171635
2081.768404
2029.98482
1982.39061
2178.285816
2386.273148
2767.513965
3441.214731
3817.246615
3576.59725
3257.276353
3121.997817
2873.706375
2626.450884
2713.763011
2905.510378
2799.814919
2311.367043
1452.872327
366.5443594
-633.608234
-1497.136309
-2360.210172
-3043.802415
-3392.3307
-3763.868238
-4430.257696
-5035.834268
-5215.040402
-5088.519718
-4831.490375
-4442.673092
-4036.782776
-3711.623019
-3182.861355
-2155.27162
-949.226291
-193.2220077
28.01267692
175.4518297
470.9328964
754.599687
1107.512499
1798.474829
2613.158772
3162.132307
3590.644238
3974.302935
3799.609565
3065.047971
2648.090383
2875.799722
3172.432941
3166.682188
2803.516411
1949.540093
843.6088704
77.69843938
-181.7218116
-148.6502092
70.3949892
326.7525372
439.9471694
577.2317783
965.8948938
1455.699764
1898.928007
2365.848617
2629.61288
2268.663146
1453.608357
741.3137007
119.0250619
-848.4429851
-2052.613859
-2875.114423
-3097.930101
-3085.82028
-3134.212278
-3242.087811
-3468.246397
-3847.052559
-3968.504482
-3441.713521
-2717.941256
-2467.459276
-2426.210396
-2033.435237
-1563.168184
-1467.746104
-1602.230653
-1835.230038
-2169.358204
-2153.673326
-1400.075078
-251.2308283
821.165575
1668.796585
2142.404054
2210.683862
2153.879071
2069.631988
1783.3873
1409.828575
1253.213768
1318.589534
1546.461033
2034.024977
2582.900056
2731.520427
2484.161716
2281.552269
2247.749971
2183.06844
2143.441097
2303.319418
2385.011865
1918.718353
1045.153116
421.6471794
277.1420043
218.3031116
20.96812317
-200.8038915
-584.5918504
-1274.657376
-1824.334625
-1890.60037
-1862.18035
-1929.252873
-1727.80966
-1400.159653
-1507.153182
-1926.307474
-2199.035758
-2375.017766
-2593.084535
-2712.661154
-2708.226481
-2636.35258
-2420.952813
-2121.467485
-1841.93683
-1375.037459
-652.0691177
-138.0689811
-88.61785615
-79.23777207
197.3002727
461.32266
496.6714533
469.4108747
440.2262606
244.0417167
-86.92232035
-271.6528749
-121.7412403
417.2723185
1443.065454
2896.043163
4240.620156
4868.250231
4841.942067
4637.077496
4283.847318
3664.751567
3285.166853
3571.069042
4027.666316
4154.181365
4173.207715
4208.50794
3991.586866
3452.201931
2583.486333
1307.154432
-14.64602126
-892.422333
-1451.324606
-1959.287503
-2269.945984
-2382.331334
-2616.325534
-2952.184525
-3121.746361
-3232.915664
-3512.19761
-3805.08156
-3875.300516
-3698.181074
-3230.681544
-2483.708337
-1840.834322
-1722.349596
-2013.89502
-2318.97217
-2623.376495
-3214.631615
-4050.930425
-4765.689587
-5303.811642
-5903.566855
-6372.419476
-6192.314449
-5406.347395
-4484.291408
-3522.923186
-2553.99711
-1951.705134
-1645.598585
-1031.984645
-96.8669188
718.9145514
1533.160813
2606.30543
3681.824022
4603.300484
5577.248166
6568.125313
7369.32984
7994.770224
8384.368217
8333.387146
7942.266102
7479.399814
6961.382718
6394.566295
5945.412972
5522.321489
4834.593229
3996.949863
3402.021999
3067.779853
2726.2344
2341.960529
1992.068525
1480.35547
604.4096086
-349.787251
-918.1609933
-1203.583736
-1699.056536
-2430.035894
-3107.450708
-3984.639857
-5447.51866
-7062.203709
-8212.745872
-9016.41317
-9656.042108
-9946.193094
-10048.74721
-10250.69148
-10196.83914
-9545.758679
-8599.582207
-7543.296413
-6194.763441
-4712.379638
-3460.287416
-2402.25246
-1330.75142
-165.0724186
1187.737404
2610.137752
3616.833326
4013.217203
4228.622825
4622.256485
5137.681117
5789.617872
6718.7511
7727.137579
8414.13937
8717.217508
8847.623405
8839.333641
8566.019853
8078.134444
7527.198349
6829.954707
5872.145947
4976.171992
4534.721931
4331.980077
4016.310924
3795.34513
3790.515204
3610.658397
3298.42846
3359.299401
3572.431677
3325.357073
2800.740214
2425.951716
1948.179325
986.2449314
-433.6150742
-2156.893497
-3920.668738
-5376.423519
-6544.555525
-7701.213169
-8837.991078
-9857.06562
-10875.53136
-11793.07777
-12235.20315
-12262.75907
-12338.72403
-12505.98152
-12413.13019
-12030.64315
-11591.24841
-11037.45488
-10145.05126
-8982.398975
-7780.234419
-6526.506242
-5067.943186
-3424.864304
-1571.283162
844.1113677
3888.330779
6780.218367
8805.691472
10214.82072
11264.01932
11467.76517
10757.13824
9933.486262
9385.805738
8857.160038
8367.069418
8044.006266
7700.053922
7353.086911
7242.614204
7210.999512
6970.692144
6597.263811
6171.926452
5612.445906
5039.828162
4603.670046
4133.366942
3493.978067
2782.810001
1882.299537
530.0162792
-1082.29675
-2508.923039
-3716.767716
-4889.440186
-5865.781691
-6415.689908
-6787.374108
-7371.427105
-8012.655962
-8258.882333
-8180.441136
-8238.114473
-8411.685329
-8341.501817
-8181.335269
-8233.530232
-8119.221313
-7436.566152
-6476.542244
-5402.918207
-3932.631379
-2218.604064
-643.3293003
989.2634392
2822.10741
4366.284779
5348.273004
6069.376886
6717.47784
7251.944414
7682.195743
7908.717464
7842.753519
7735.763318
7750.99571
7575.880764
7025.244938
6405.988291
5920.951307
5454.888327
5063.020591
4913.456538
4830.683783
4550.090806
4196.429388
3979.724461
3713.228215
3110.726493
2312.592753
1654.682665
1089.774728
335.2497374
-569.1233786
-1458.800984
-2513.727076
-3768.465159
-4719.962266
-5258.206179
-6014.805336
-7123.600127
-8023.092969
-8722.820144
-9683.987212
-10718.4353
-11337.42299
-11490.44457
-11224.41008
-10527.59245
-9633.284472
-8710.282733
-7629.913527
-6420.076804
-5252.633927
-3971.587512
-2346.142267
-482.8963758
1499.442745
3593.579709
5463.443544
6661.548621
7317.747661
7868.789784
8304.978887
8343.975013
8012.346602
7491.521707
6745.664722
5780.325776
4939.038713
4465.233783
4032.524997
3235.109445
2277.454779
1527.319313
799.1939274
-63.069755
-565.8583858
-487.9296598
-406.9063836
-543.4106043
-449.7261073
-137.6273174
-30.39774679
-102.4470407
-252.4278803
-688.8342839
-1319.004785
-1794.470714
-2142.125187
-2465.921382
-2576.780891
-2464.487182
-2373.2484
-2332.011217
-2330.911097
-2563.294563
-2890.393272
-2748.148104
-1979.747204
-999.8291043
-58.04014631
857.360589
1538.856357
1773.842218
1852.678121
2235.410124
2898.163877
3485.847975
3890.50076
4179.396214
4162.034227
3676.910794
3140.345419
3015.913655
2994.142252
2604.363727
2080.863496
1682.756579
1129.230499
453.9069844
106.855806
-37.91291697
-381.3411532
-718.7743154
-810.501024
-917.3336276
-1124.979782
-1200.322784
-1168.170046
-1151.464806
-1059.857402
-918.3734152
-857.8575833
-754.2379321
-518.4521476
-392.4208215
-487.7484701
-620.683175
-809.0057492
-1218.080538
-1656.039638
-1831.928353
-1891.546363
-2095.785319
-2311.217388
-2331.133552
-2343.335192
-2599.629967
-2904.601022
-2928.262008
-2815.678956
-2897.965821
-3006.157054
-2831.145499
-2638.438467
-2699.244215
-2630.92679
-2259.951378
-2083.711807
-2143.120557
-1885.412206
-1369.424998
-1050.307796
-787.73969
-353.7770328
-20.92716126
78.65086068
153.1359074
247.767321
364.7156004
649.0800946
1039.780831
1385.451965
1832.608723
2439.694565
2876.666592
3026.467489
3174.244745
3328.242162
3205.840581
2947.319729
2987.685751
3316.951845
3594.054578
3786.438606
4089.146308
4422.426545
4536.159004
4472.712482
4441.969617
4337.923375
3934.922097
3441.929257
3142.302739
2736.954982
1935.344268
1160.007718
737.2274419
327.6255453
-148.7223283
-331.9367258
-352.8639052
-540.8544065
-636.7445474
-416.2458708
-184.9756758
-86.7057105
31.58169439
121.1940649
151.4626399
301.9134179
489.559595
429.6286725
152.4183218
-219.9633333
-809.1237645
-1601.335783
-2363.158512
-3156.290155
-4228.367037
-5447.238616
-6499.737036
-7356.705351
-8002.468484
-8160.491597
-7756.261603
-7195.292763
-6762.755806
-6150.777916
-5036.704559
-3771.434418
-2883.529548
-2229.215284
-1415.555069
-632.0234956
-134.5937661
399.8827219
1081.802138
1431.946464
1429.477533
1550.607941
1676.808739
1436.795608
1119.91306
1073.219256
1139.896804
1300.047825
1779.620562
2460.863031
3013.42526
3260.094875
3068.512748
2468.623344
1808.429371
1290.709764
796.3070192
418.3378735
412.1419864
572.0518714
528.1198271
480.6738823
798.454721
1256.437166
1419.745096
1354.79895
1365.451251
1442.737918
1471.392427
1630.26036
2098.108789
2615.711237
2875.423698
3102.295245
3605.220191
4143.24741
4512.599306
5057.569054
5784.453832
6042.261548
5663.172466
5069.63492
4211.896629
2831.217514
1288.604235
34.94461912
-929.1761352
-1655.073444
-2238.906464
-3008.07056
-4005.716467
-4879.859428
-5520.809093
-6023.580922
-6226.737728
-6047.97518
-5784.417968
-5569.171628
-5208.674607
-4742.252507
-4380.332841
-3980.387762
-3338.469633
-2698.70489
-2318.179806
-1924.706219
-1167.76009
-252.1024182
365.4850052
660.5502119
962.6614023
1380.885992
1836.064304
2444.74067
3162.567636
3395.907412
2848.077861
2154.055028
1819.404303
1531.94909
1135.769761
942.5889761
905.3168139
795.5962366
780.2862592
894.6581267
829.986634
600.2507523
444.1600012
302.2709999
126.3837485
70.64147248
71.15262293
-14.17161221
-23.91501355
93.01540323
33.97807089
-236.9377228
-379.0820661
-378.2163276
-538.7727887
-811.9609082
-902.4417228
-855.485048
-907.8362656
-1019.65687
-1038.592518
-1052.922573
-1174.332312
-1209.391723
-970.3997592
-718.4729161
-778.4067076
-921.2675149
-800.0337574
-645.5830676
-707.6218695
-649.5660992
-343.5091622
-247.9084869
-395.3046176
-316.3779107
-57.97706649
53.98205501
160.6899419
381.5462006
481.6386334
450.7174175
474.8853688
501.9541218
496.6020408
559.0068473
579.4103646
466.5653192
462.7751776
631.2502301
635.7782087
413.3202402
270.5632269
203.5203857
-14.64247073
-206.9805329
-78.53144871
170.4221372
202.4808971
134.0134709
228.0842356
390.7191
446.4145353
568.9061761
934.9950155
1236.652195
1150.944033
1008.686292
1236.120101
1556.993736
1615.746468
1668.405435
1834.287697
1757.938124
1527.676369
1578.264161
1730.721092
1654.367179
1618.872101
1810.493145
1944.135223
1954.297455
2015.094511
2071.45787
2104.773649
2239.692512
2285.232418
1951.21137
1395.57125
901.0909517
485.7006813
230.9488577
286.2259634
398.3240452
184.6966751
-249.9304616
-647.3932149
-1166.634261
-1985.007739
-2780.102585
-3201.425187
-3507.499613
-4213.363796
-5324.668589
-6391.90107
-7151.458031
-7591.039337
-7609.914259
-7282.007245
-7077.183703
-7076.777393
-6682.042553
-5766.287081
-4929.069898
-4202.700712
-3043.038125
-1567.1841
-302.9512551
723.7873972
1579.057512
2048.049854
2148.467223
2094.628347
1910.310633
1692.370217
1665.759175
1789.438012
1977.092656
2380.354065
2887.249596
3073.610004
3032.935527
3329.452166
3996.690764
4536.367198
4799.76012
5006.922522
5170.285422
5199.811072
5237.648977
5370.456067
5365.907296
5097.35869
4847.073775
4742.294646
4288.66326
3086.15505
1618.139116
543.8317316
-280.9978475
-1177.450843
-1843.532168
-2096.108685
-2330.141642
-2634.640529
-2718.326792
-2719.349673
-2856.433296
-2869.219187
-2650.66086
-2474.429881
-2369.199851
-2246.664051
-2281.092391
-2483.421203
-2623.179159
-2744.599348
-2937.531308
-2921.435779
-2578.763666
-2255.688382
-2066.675889
-1707.633421
-1127.245229
-547.761869
76.32342666
846.5322462
1455.343736
1592.375446
1479.881658
1489.418105
1569.703771
1519.177
1503.105882
1756.887916
2033.00901
1991.867355
1864.715289
1954.529767
1938.007758
1555.625463
1235.528015
1188.564246
993.5878423
595.0571583
352.0751331
136.6226749
-305.7771215
-714.1073721
-926.1438671
-1152.960308
-1366.42446
-1409.977338
-1420.515341
-1456.479607
-1370.272251
-1259.981216
-1282.120926
-1250.128421
-1055.15968
-933.212693
-934.6812083
-852.8060306
-773.644331
-931.6804808
-1164.215733
-1195.31818
-1149.622371
-1237.36277
-1318.45564
-1215.675833
-1092.839959
-1133.810828
-1145.021253
-886.6037662
-547.1898144
-396.4822532
-256.0635918
71.71277486
308.642457
322.3058927
481.7228516
805.0886191
872.5770653
822.3912481
1074.267811
1371.011634
1374.525918
1363.727511
1487.742028
1480.769643
1362.99764
1340.106731
1338.598738
1346.747326
1516.602223
1726.424235
1814.068302
1962.304012
2236.465049
2369.980866
2356.504321
2459.74635
2593.386502
2503.84253
2338.591906
2303.485751
2170.023875
1733.472516
1288.34425
1146.273772
1115.715169
903.8888361
659.6278653
631.7438998
599.7046072
224.635924
-350.5192845
-922.5860415
-1747.069376
-2878.990223
-3793.146858
-4342.755199
-4977.57409
-5689.653257
-6089.169173
-6297.115937
-6490.78226
-6331.985324
-5698.723376
-4926.24361
-4099.327528
-3125.85646
-2170.425325
-1324.873829
-510.0374828
110.3478383
365.4031975
461.1308344
534.6143725
419.426854
186.9690526
157.5070267
325.7364317
548.9294957
1072.947274
2142.656804
3435.532045
4439.885793
5021.125183
5245.85329
5055.702479
4474.579995
3811.214598
3268.970065
2635.544163
1815.035038
1281.153274
1357.377168
1589.470424
1569.861147
1547.424784
1584.751521
1330.361703
948.3887208
856.2525468
769.0838697
303.6611339
-256.6661531
-636.3043662
-913.3261505
-1020.6056
-951.2526232
-1045.243363
-1377.593838
-1623.88764
-1717.068308
-1795.216552
-1770.134815
-1628.979676
-1589.357235
-1600.777037
-1450.822967
-1379.580925
-1748.635261
-2311.006804
-2562.157207
-2450.294979
-2141.908341
-1546.325306
-612.8371445
292.4403089
793.5935381
995.7179579
1131.059113
1055.494302
651.627264
299.379402
241.6841967
93.55436536
-295.9696215
-466.4888827
-405.8501106
-615.9393001
-916.9022082
-749.166517
-301.7794331
48.09636494
477.4053573
1003.681451
1270.924257
1320.213182
1458.511568
1669.455635
1874.250823
2118.919837
2261.666685
2171.387571
2022.649254
1873.541482
1512.552744
999.7974493
632.0679237
363.4172911
-5.098727641
-319.5564949
-420.5593702
-564.7974924
-959.8824364
-1360.896028
-1535.45025
-1654.856417
-1875.238879
-1964.204028
-1732.574629
-1453.4475
-1377.391448
-1254.117291
-918.5300599
-736.6191361
-805.6529573
-633.220269
-182.7805751
13.47526889
-7.124889558
171.5638208
364.1254818
315.3667627
345.8497981
601.5758742
785.3825285
881.115021
1095.547137
1359.002797
1562.886165
1716.704714
1693.611017
1456.248598
1268.18865
1210.237427
1083.266753
992.3153007
1225.624203
1584.375427
1645.300102
1448.613794
1231.045142
889.1685979
278.2518285
-412.7877781
-1030.104528
-1762.346647
-2687.800919
-3409.909158
-3598.091162
-3544.11371
-3626.744709
-3644.380775
-3377.138561
-3180.997982
-3228.346271
-3078.235036
-2649.917821
-2367.349521
-2113.370424
-1503.293851
-838.3113596
-463.59502
-81.82451508
454.0777746
840.7050923
1031.429519
1197.947021
1328.285534
1491.457117
1846.666126
2273.339006
2651.61172
3130.069353
3614.290759
3696.318273
3370.721795
3026.736487
2751.2405
2404.095241
2082.545695
1835.126009
1394.69249
748.6400169
428.0915003
767.3255801
1379.120828
1757.976834
1924.692107
2047.965722
1921.567879
1407.970171
919.1538631
754.6315252
560.3466446
144.980831
-73.85521116
-5.163872429
-47.31205458
-140.6726014
-18.78023241
-5.481174756
-375.1186525
-821.8379697
-1216.555042
-1741.44739
-2292.757577
-2784.373541
-3471.708361
-4350.739987
-5079.053998
-5571.435845
-5834.257172
-5613.927945
-4876.381628
-3992.643534
-3137.35898
-2253.238376
-1533.031582
-1128.454969
-697.664795
41.1800149
762.01828
1089.776961
1191.220446
1362.490145
1503.815041
1427.594762
1313.056055
1402.843791
1558.149232
1618.599694
1804.188573
2155.195698
2216.666946
1947.037273
1938.23514
2188.710687
2047.204339
1564.069084
1313.89995
1217.141051
956.1171456
720.9224293
628.8847433
469.0321868
279.4571036
245.5250193
323.5904093
482.1515809
702.0562208
721.85471
440.9958799
180.2843448
73.88358445
-108.8479111
-335.3877616
-340.3358163
-245.8937622
-349.1618343
-539.5114305
-586.4012885
-602.1891228
-725.7794437
-801.6679543
-729.7573266
-706.8069498
-829.3273737
-844.2765529
-624.7645827
-508.6794113
-702.4256582
-810.0449996
-574.9410775
-427.4241977
-596.7508414
-652.183094
-490.4989184
-481.3904898
-471.4405018
-92.81133395
345.8931074
521.0800464
709.8530827
1022.394565
1194.168116
1243.115878
1316.053879
1307.680308
1224.460554
1229.576121
1242.466821
1169.745529
1170.388914
1235.329862
1157.527752
1064.20941
1196.272796
1329.822153
1204.159366
1107.419275
1335.007802
1609.900454
1603.609124
1470.771044
1425.801453
1311.173771
997.4641492
762.3384273
799.6247162
740.2963189
229.6696615
-459.7533735
-1053.808779
-1826.843701
-2786.479545
-3337.490162
-3411.698314
-3627.160769
-4079.519644
-4397.175703
-4647.666628
-4948.228981
-5012.955396
-4797.825201
-4554.577917
-4209.532525
-3616.254964
-2942.600478
-2271.822541
-1532.42888
-861.1924625
-371.1982107
57.30390745
350.0848694
288.0137003
92.71094326
157.2005976
355.4670058
398.0833363
470.8770869
824.173361
1246.272673
1504.621415
1779.239034
2222.65151
2576.54173
2619.191043
2578.985011
2687.732836
2733.003606
2578.426064
2631.248664
3130.822592
3644.168514
3913.244267
4202.315253
4388.471607
4071.074805
3581.605374
3421.649575
3284.484356
2844.254257
2420.286561
2164.222244
1836.957286
1454.661752
1132.099669
742.6903904
289.1755868
-97.02945701
-534.8444996
-1083.04662
-1491.206271
-1725.907223
-2034.061101
-2339.135548
-2403.289819
-2436.804926
-2752.114019
-3189.184301
-3518.055052
-3869.619451
-4290.446829
-4461.02298
-4230.281743
-3899.124426
-3660.743024
-3241.89495
-2453.432802
-1629.859621
-1056.917647
-491.2865448
183.2232498
565.8328467
615.3568102
871.7117918
1349.498242
1529.484845
1482.04807
1580.499532
1612.436537
1360.890166
1120.950116
1011.516353
863.0825068
752.8370819
750.8207845
670.9662135
525.8161183
473.3752984
386.4488557
179.1614267
71.63695406
77.96144452
-39.9251961
-193.0953871
-146.8188979
-76.73080485
-191.6459868
-249.4272359
-66.79323251
71.73238049
-28.7562018
-116.4286429
-29.27309486
-21.28858471
-237.3799817
-371.8417085
-239.8497388
-184.2072824
-394.930002
-445.8293995
-154.5862629
-38.44618451
-250.1116445
-247.6378564
19.84600678
55.55313629
-63.5351274
6.786823983
51.07154407
-63.05785803
8.028891694
261.2643404
347.2734586
319.8611781
389.9679781
470.780301
502.9673882
526.0234486
425.0055293
221.0145948
171.4117408
223.9243221
91.66475801
-82.31992805
27.21511282
241.112578
235.9713158
168.0011495
283.648024
433.2620578
451.8255879
501.8161238
698.2651375
846.8808615
832.6888561
882.9395828
1132.064547
1296.745702
1199.759467
1161.181475
1347.810087
1407.726641
1272.816043
1321.525707
1431.517358
1184.742156
881.4137249
943.1679173
998.8430488
707.9066582
372.9920982
149.0174124
-153.3675908
-534.2753553
-970.8690386
-1546.423493
-2048.011101
-2230.177052
-2300.965254
-2433.664742
-2408.860232
-2204.33199
-2103.664814
-2077.542182
-1920.002999
-1800.964201
-1896.778171
-1933.552413
-1738.752328
-1637.754385
-1823.686569
-1971.942749
-1843.899934
-1687.29807
-1710.182581
-1676.767573
-1401.795513
-1149.52914
-1062.644773
-765.3624142
-106.1488325
471.0519885
832.3008112
1347.414482
1878.673394
1954.397706
1830.570854
1984.623061
2213.01177
2266.837113
2278.040745
2131.398017
1637.056266
1116.478186
868.1726272
736.3213309
654.8322758
722.0880297
779.6327164
700.9175137
659.1544976
645.2051784
435.3100716
162.5232958
111.0721422
123.1757358
-39.85465214
-172.2631135
-76.37765749
17.6899657
-48.61063835
-23.69161684
226.5183015
382.9720219
213.7260846
-10.81298797
-28.65089739
-45.85104747
-201.3337118
-161.7515895
151.6381394
252.9229495
96.1044307
251.1800038
727.7363887
1028.020424
1221.216436
1513.872615
1514.435209
1101.39308
840.030678
934.1766495
996.7047519
813.6004466
413.4196413
-110.6137225
-460.0481932
-477.7109315
-440.7779704
-464.1999724
-286.7419133
27.05002159
76.99550496
-132.3774753
-331.1838764
-582.7563223
-949.9521392
-1099.335204
-897.5578918
-770.8098133
-998.611527
-1288.916028
-1382.523915
-1469.39983
-1693.269303
-1780.756666
-1537.763284
-1234.971328
-1067.561555
-804.7322776
-467.7507745
-523.4673827
-910.464277
-1017.899493
-883.8189118
-992.074361
-1115.369797
-847.1195721
-512.2085808
-401.3287949
-260.3019509
-47.46189291
47.76753168
190.3818721
524.2067615
818.9097878
970.9324419
1075.946086
1055.227207
899.154961
823.785134
785.3356597
545.9141521
271.9404604
261.0583933
314.8048335
136.7051823
-92.75160645
-143.1086835
-174.1849637
-303.6936754
-308.5776014
-97.61758369
35.17576442
-73.28529435
-152.272177
-35.56756877
-17.14811092
-241.1070498
-323.5286447
-113.0487402
-35.12721681
-163.6173373
-42.56777113
271.5442832
336.8172346
339.0950865
615.6851393
864.86744
862.2868641
881.0971308
972.9410762
971.3482045
997.4723106
1113.461326
1124.937489
1066.796041
1084.612751
1020.411299
806.2250887
703.9272182
751.8399022
733.8655262
751.8200229
1011.552549
1273.125221
1249.645152
1128.921198
1144.912216
1159.956298
1049.71683
973.8893466
1002.80442
939.1380029
733.7031758
652.0995243
742.1304362
599.3369479
93.5674697
-256.5058494
-196.0947194
-228.0342251
-648.8455167
-1138.177627
-1588.537972
-2113.214748
-2439.004625
-2447.309261
-2552.556254
-2816.673979
-2865.064123
-2777.866561
-2824.4476
-2807.033478
-2595.198467
-2441.139729
-2357.836812
-2137.88611
-1866.351597
-1635.036673
-1267.210522
-792.7348501
-485.9314284
-321.0716946
-110.2928231
44.75311592
69.78475747
215.2579375
543.2045531
690.5954018
499.6760355
320.8667906
414.0633025
544.4494942
454.4930967
307.483113
301.7501608
258.4771713
39.45315018
-132.3168603
-214.5731908
-427.9130264
-475.2850424
153.6604987
1051.639549
1486.026324
1659.311067
1989.099273
2190.512932
2134.667632
2224.697643
2476.388906
2571.308908
2581.905481
2640.90124
2582.006559
2399.547654
2260.988987
2098.399547
1832.48789
1567.412982
1228.79599
666.5097328
113.91952
-165.1465491
-388.2292624
-783.0218441
-1119.813956
-1205.048174
-1239.84055
-1354.036477
-1364.058416
-1205.707839
-1094.073495
-1087.106888
-948.9889725
-642.5306898
-487.9524744
-556.6355601
-490.9977315
-273.8120492
-355.7167594
-696.0141149
-786.2079441
-706.720991
-841.2633242
-934.5136834
-723.7081065
-593.7283277
-701.3836061
-700.8351944
-603.1143387
-649.6357089
-689.1498129
-601.0091644
-587.4706161
-662.4984117
-692.8298637
-790.0953652
-971.4854857
-971.9249281
-790.5344007
-704.5509185
-681.302688
-517.611283
-334.2973479
-285.28806
-202.1146534
-2.920536263
81.84430965
-4.125138111
5.397644552
168.250715
202.0782173
62.70517973
114.1941515
455.3183814
649.9015026
519.2151474
498.1908441
725.6777328
733.5938006
478.0535625
446.3683286
583.9066243
523.0127977
513.2322045
798.706412
995.2355853
973.6398435
1081.577691
1261.453973
1221.494814
1102.038604
1079.097324
1058.031469
1084.86244
1234.894957
1294.596702
1188.259319
1155.520684
1208.20154
1147.76189
1065.235904
1083.056368
957.9610971
575.0405659
286.1476336
303.9381941
387.1178243
379.762408
428.0797908
528.7492152
448.4959017
204.5640043
95.86857493
96.547909
-240.5114714
-1010.175146
-1705.191272
-2035.999936
-2169.343252
-1995.069439
-1354.12421
-888.4500924
-1228.680557
-1877.129877
-2208.40149
-2462.150551
-2817.218483
-2945.400984
-2856.014404
-2831.141925
-2766.778977
-2517.356676
-2240.045532
-1990.05071
-1701.418571
-1454.280212
-1214.644914
-808.6660053
-386.2834709
-199.2414692
-22.66130185
432.7582702
911.363767
1099.96829
1145.205708
1169.979791
964.5556193
520.5623091
207.5768191
181.4448188
180.9291431
60.75824962
26.47199605
209.6022686
526.6304233
1096.124788
2099.873525
3052.192302
3174.14282
2638.743142
2258.088923
2125.582221
1930.679951
1907.388533
2157.095984
2185.184975
1934.153441
1869.057969
1945.360505
1850.498349
1730.47138
1698.789286
1513.19142
1171.238829
918.3988436
757.5176184
626.169534
592.0852858
535.7004455
263.8610805
-92.77942871
-398.9572121
-844.1699259
-1435.978647
-1775.115906
-1717.363406
-1581.166108
-1497.136091
-1245.093399
-845.0035393
-646.3521283
-694.6087583
-614.2710401
-339.6556194
-335.9279013
-745.8528928
-1057.986022
-1052.84876
-1121.86325
-1307.630277
-1271.859338
-1238.182022
-1528.201118
-1664.724894
-1300.809402
-979.2471581
-1018.125275
-1044.623684
-960.7543731
-1000.655523
-1086.979017
-1099.632359
-1152.054997
-1210.617916
-1168.588217
-1155.153093
-1204.255838
-1127.285439
-964.0227457
-875.5339705
-694.6829625
-279.242641
98.55532539
302.0945487
638.5723715
1188.132745
1556.666614
1580.176002
1558.562231
1620.894528
1533.440229
1285.392841
1231.259236
1442.813522
1538.749299
1424.428285
1464.733523
1628.200698
1455.749257
1099.614097
1097.281911
1192.105187
876.5261435
531.0392326
603.5169254
735.3559399
673.2145413
680.7833413
725.8573172
541.4137422
226.9408554
-50.99015825
-322.2028146
-511.5001868
-577.2772189
-720.3435455
-953.9924911
-1041.64646
-1045.442071
-1204.391702
-1396.440258
-1430.349238
-1469.909896
-1586.450542
-1486.324735
-1102.938384
-783.783049
-636.2049414
-375.1709743
21.65307751
171.2939441
-34.71733915
-212.8746267
-166.811438
-170.2780655
-285.635642
-152.7977669
191.9907433
280.8508846
280.6014664
812.871533
1694.731861
2285.813747
2605.852018
2815.386288
2621.311807
2068.7277
1628.360879
1300.332066
829.071035
355.0900207
5.036416994
-382.406057
-785.4410675
-1029.960044
-1137.913041
-1138.584331
-1040.887003
-1111.302939
-1456.640266
-1554.326364
-972.8779739
-106.2993429
452.8221279
636.0970875
542.4153109
111.9173338
-496.2304035
-884.1609929
-1008.11635
-1221.286247
-1595.127832
-1776.478921
-1686.688847
-1698.859466
-1828.288194
-1557.906514
-850.27234
-321.6501637
-135.2423196
28.71286686
6.408210472
-402.8412326
-633.7703888
-322.1043918
12.60978988
72.59104054
192.2356915
455.3565403
678.8937726
935.9042279
1291.174737
1646.991722
2026.392113
2356.850704
2337.776141
1984.999667
1649.103718
1375.401569
1000.200179
655.8249019
473.1956217
258.0854738
-7.494182946
-7.419088435
214.2524312
146.6420363
-360.8967191
-851.7607227
-1007.281678
-1032.232094
-1122.201744
-1110.59419
-924.6372651
-843.2459661
-932.7807725
-855.7246719
-591.3986273
-489.1089854
-422.1315
-39.34967086
305.9638293
173.7131557
-84.75438838
-164.9271832
-335.8249461
-524.0450615
-328.1109974
62.32625288
253.0463927
371.4851302
560.8732527
624.7384449
496.3455556
265.0614542
-63.14037582
-316.0062196
-235.0889888
24.46778468
168.4306313
328.8619156
667.0606234
918.6108327
928.1440222
974.5135474
1148.108467
1125.293295
812.3162765
528.5804765
410.1635982
240.0066147
-34.56152872
-185.9529972
-235.2339297
-492.7598265
-860.1833945
-831.8971752
-464.2980643
-371.9710049
-565.6121576
-533.2236708
-373.2213853
-457.5824218
-531.8115709
-364.282222
-265.1335079
-270.659064
-77.38733118
191.5492296
270.5573133
247.3655066
135.4913285
-173.4172967
-450.5160961
-488.6127253
-514.5797865
-615.961314
-475.9656805
-21.55563083
443.6231019
776.4320336
975.3873688
902.6013891
591.862277
392.3202733
425.8696284
414.2556308
229.2671974
76.34590999
56.85396901
57.56736739
114.4358557
396.2387241
742.360469
727.4553281
347.5522787
25.50930047
-231.6046821
-791.988811
-1446.133888
-1682.866174
-1699.435176
-1824.792249
-1682.092338
-1109.574188
-676.8262334
-556.7315913
-330.6192059
17.19666778
222.4812702
376.3212689
580.9168777
715.0255319
808.9061844
929.8707005
917.3606819
694.9619935
339.6758718
-209.2212499
-870.9751818
-1189.876195
-1016.59467
-833.3354108
-920.338209
-955.500701
-728.7890548
-427.9480476
-73.46182267
529.4158973
1192.064577
1409.419376
1133.404051
874.8733986
899.0565449
948.0407495
969.2384746
1315.594154
1918.314321
2269.165484
2417.173149
2732.308628
2862.052674
2346.551788
1605.322623
1059.290419
408.0841716
-451.4266386
-1131.244083
-1544.520665
-1872.691573
-2112.007132
-2290.552857
-2510.415879
-2686.802837
-2805.395401
-3029.450158
-3226.765925
-3094.297172
-2766.825703
-2528.024213
-2232.5535
-1724.413005
-1261.458965
-975.1543103
-608.5676269
-110.5677045
256.945758
516.7582691
949.4542512
1468.498607
1697.273251
1660.089857
1766.16223
2045.194857
2049.825984
1695.333941
1441.002891
1396.791979
1204.15442
949.4038241
1022.987243
1240.352233
1328.0993
1593.715276
2095.776902
2317.543719
2187.955887
2079.553242
1922.572878
1513.327963
1075.814794
773.6113104
477.3879343
188.7994863
-25.29569096
-225.0430302
-310.0684232
-115.6296622
162.3698193
285.2577545
403.9845767
595.5525929
554.7862439
209.9428882
-69.68659277
-175.393296
-428.5292182
-903.4771912
-1285.687748
-1485.170676
-1759.776595
-2146.272851
-2351.411255
-2347.054021
-2484.893821
-2828.3544
-3069.008485
-3259.143616
-3663.064331
-3886.331813
-3416.498662
-2704.546436
-2351.508501
-2054.10566
-1517.431811
-1119.088993
-989.4681193
-846.0138947
-743.2894111
-802.9782687
-755.0739488
-451.8440629
-34.64645751
536.4842936
1331.500627
2119.357467
2700.852014
3053.148909
3026.742852
2532.197197
1864.576662
1318.295691
882.5091819
624.9065213
756.6116515
1141.789183
1396.898346
1527.545056
1858.814353
2360.417082
2632.427202
2589.703056
2596.498833
2789.757657
2854.524107
2692.14112
2589.320762
2469.386
1923.184878
1125.266516
575.9620231
159.65012
-343.0881818
-565.3099407
-363.3856769
-149.9627615
-0.801923147
260.9240178
359.8444108
80.50160402
-253.3281909
-443.8753972
-662.6772514
-987.7655987
-1463.376801
-2167.438769
-2782.182945
-2857.959366
-2579.581287
-2446.730422
-2468.325384
-2423.641978
-2401.9866
-2476.531704
-2426.869545
-2157.665353
-1842.842209
-1524.625965
-1082.710539
-615.6488619
-394.5639924
-427.7811137
-480.2823947
-561.3645643
-912.8693613
-1394.603459
-1526.163801
-1306.412311
-1140.991908
-954.7998531
-477.4873091
-44.80625277
88.8148056
393.6564092
1063.977109
1644.433315
2052.033188
2540.948817
2893.41884
2848.159315
2615.069995
2307.086669
1804.393595
1270.300892
951.7289174
798.3629881
759.4329696
847.4699678
835.7652263
572.7405148
299.7107324
79.26970775
-469.7132857
-1391.173133
-2080.324661
-2090.148739
-1596.744919
-925.5589582
-210.1245359
405.6358935
750.0223932
939.7461353
1308.147764
1883.947825
2367.624171
2726.752671
3154.016028
3356.929078
2888.677874
2153.647275
1821.393856
1627.410865
1102.609047
575.4827892
289.6909686
-146.4088322
-786.1643442
-1208.973483
-1314.630354
-1184.01094
-768.5501379
-267.4661798
27.34363952
217.8245054
395.1765099
306.0704601
