-0.0010548200580342
-0.0008308300754318
-0.0003997920162883
7.42863432851386e-05
0.0003232855411909
0.0002366426980659
-0.0001373727600115
-0.0006228675107154
-0.0009507787770611
-0.0009667553223682
-0.0007763700599075
-0.0005825293421994
-0.0004807907286182
-0.0004735587509283
-0.0005339789574729
-0.0005960607530201
-0.0006472818043503
-0.0008661707814818
-0.0014261572663827
-0.0021125549189565
-0.0024693769077711
-0.002397183671936
-0.0021885405744086
-0.0019277741050007
-0.0013594300555472
-0.0003825691562006
0.0007701800347319
0.0017780320029206
0.0023892330565101
0.002585279005292
0.0026781356762124
0.0029183701032291
0.0031735037816088
0.0033205765227717
0.0035159044443624
0.0037569497855067
0.0037380961039238
0.0033589340736664
0.0028224182257917
0.002179268616809
0.0012750205841301
0.0001275999384687
-0.000930332742295
-0.0013939728151671
-0.0008959136318413
0.0003227065816948
0.0013534413194963
0.0013870877989368
0.0004434058118181
-0.0008584244576844
-0.0019665911008322
-0.0025795799921663
-0.0024937278907773
-0.0016649733178117
-0.0003496506507533
0.0010117327701746
0.0019867541737413
0.0022225171684249
0.0016344356516317
0.0006564683993657
-4.3250913750906e-05
-0.0002746323379212
-0.0004312137195089
-0.0008299687670783
-0.0013603620028955
-0.0017884637579673
-0.0020255316486421
-0.0021822905090254
-0.0025630863577884
-0.0033556835943378
-0.0043116653818954
-0.0050408238285975
-0.0053678203273061
-0.0051394672739601
-0.0042725869606986
-0.003231071614908
-0.002689712914749
-0.0025878889089538
-0.0022904389502443
-0.0016059178609668
-0.000856776468945
-0.0001447322154283
0.0006848004422801
0.0014899077716907
0.0018363833481072
0.0015356315335967
0.0008989330145465
0.0004713417541489
0.0005922203635818
0.0012028873873924
0.0020722056993244
0.0031023868877269
0.0042568849199037
0.0052752007081222
0.0057283819031434
0.0054208466078296
0.0045697037888226
0.0035634885988946
0.0027358919334837
0.0023446681613809
0.0024249431717072
0.0026213746942016
0.0025371258984782
0.0022196339088224
0.001878883265694
0.0013097711209688
0.0001544731369721
-0.0014049186712916
-0.0026392128014901
-0.0028471394906467
-0.0019038744973242
-0.0005058180258294
0.0003244151627896
0.0002337703281634
-0.0003302362148975
-0.0010123709313355
-0.001877435370378
-0.0028475814907817
-0.0035924851267551
-0.003991480399244
-0.0041153011088232
-0.0038708950017552
-0.0030995781867334
-0.0018606562766719
-0.000392182744421
0.001011785860594
0.002054836391591
0.0026123032591871
0.0028141719490771
0.0027969398844618
0.0025335326479398
0.0020462546791743
0.0015505439057517
0.0012043506532693
0.0009141305482312
0.0005529175150983
0.000184149121643
-8.39660459932706e-05
-0.0002915413601277
-0.0005602832551786
-0.0010178896899055
-0.0017923997778813
-0.0027861665962807
-0.0035211077787982
-0.0035760595210806
-0.0030317592571218
-0.0021657445787461
-0.0010592763181431
0.0001860118030161
0.0012927252824005
0.0020863805418373
0.0025463115131917
0.0026402418686739
0.0024460872761757
0.002164719379161
0.0018133713518059
0.0013173091830716
0.0008781101496553
0.0007167115754071
0.0006195221627878
0.0002735620611996
-0.0001923462682748
-0.0004421402218109
-0.0004562516568896
-0.0005286549501717
-0.0009310274083095
-0.0016690077263103
-0.0024269116171401
-0.0028389478591429
-0.0029395824957403
-0.0031506925805487
-0.0037092741579822
-0.0043661313676332
-0.0047786873542857
-0.0049108269282748
-0.0048627473663131
-0.0045983063953165
-0.004099660400311
-0.0035468962561426
-0.0030779811682273
-0.0025959609131851
-0.0020254566169207
-0.0014985320683321
-0.0010997665456455
-0.0005866902081811
0.0006070534490406
0.0030065027999608
0.0063016924053806
0.0090162192825009
0.0097232782413095
0.0085727025280217
0.0069235935621721
0.0057335317663428
0.005020291382788
0.0044940684591799
0.0040132802131963
0.0036760110266013
0.0037762590706379
0.004414616385485
0.0052168905912781
0.0057731306018155
0.0061245705214232
0.0064995171192398
0.0068371801622539
0.0068133980274471
0.0061636623109569
0.0049412911200465
0.0035665484625388
0.002446442525417
0.0014162962901505
-0.0001634348887678
-0.0025982447229785
-0.0054219190226612
-0.0078825716330185
-0.0095729671356844
-0.0104938546856285
-0.0108589793506515
-0.0109947511454572
-0.0110703583664675
-0.0107373013570961
-0.0093799792968919
-0.0068756989750296
-0.0037847552775949
-0.0007960758092458
0.0016318661852719
0.0032436553758341
0.0040495777777743
0.0042372148336216
0.0037988232063194
0.0025980791008154
0.0008336958072539
-0.0010268920966535
-0.0026747782434851
-0.0039742350328334
-0.0048736547688879
-0.0055363274007764
-0.00615610577447
-0.0066188688696165
-0.006761857583756
-0.006745522449997
-0.0067201451543551
-0.0064348809079575
-0.0055557952026082
-0.0040874709578089
-0.0022987596091027
-0.000522664841362
0.0009357932161618
0.0019620756542409
0.0026816421272054
0.0032394719077483
0.0037094938444213
0.0042490916307262
0.0049937623537228
0.0057099672990212
0.0059494333141507
0.0057090097659712
0.0055615596606458
0.0059425590354109
0.0066613840000041
0.0072815895641347
0.0075943570517478
0.0075768803637414
0.0072915395070963
0.00692072066277
0.0065841479663059
0.0062180521345367
0.005836198950801
0.0055270119240652
0.0050643486662494
0.0041240716945254
0.0029540718354113
0.0021889395190534
0.0020169962181024
0.0019865814403627
0.0014486091909817
2.92879464321376e-06
-0.0021144713311761
-0.0041114653835774
-0.0055315331685214
-0.0068132878537109
-0.0085227604095809
-0.0104042309339639
-0.011609278943195
-0.0115424664163939
-0.0102262050539165
-0.008111007553844
-0.0056675961240175
-0.0030479613989391
-0.0002073405225369
0.0026448336434913
0.0050288712883396
0.0066976587476488
0.0077890132337148
0.0083777787186872
0.0082780076014565
0.0074566807332417
0.0062593416563529
0.0050009209151046
0.00364407778762
0.0020359199304991
0.0001103085663397
-0.0022229160405959
-0.0049354171814053
-0.0075712384538482
-0.0095289153971328
-0.0106228778225766
-0.0110353941101998
-0.0109624062304569
-0.0105735536449583
-0.0099653834096483
-0.0090265923344104
-0.0076721570778627
-0.0060693717419822
-0.0043660760986644
-0.0025739507204582
-0.0009007178804536
0.0002980936444861
0.0009660982707677
0.0013155796318681
0.0015082028170273
0.0017385706768862
0.0023215745628228
0.0033688045194408
0.0046637386032634
0.0059796022653921
0.0071973764777444
0.008127898102101
0.0085760851846311
0.0085552335351812
0.008182669860686
0.0074586384792789
0.0063584992548445
0.0050234263585521
0.003660135539433
0.0023466851630165
0.0011168960913349
0.000154382655202
-0.0002849593233687
-0.0001197741585622
0.00047982551868
0.0012018831870812
0.0017893685479744
0.0022519672142694
0.0027534884815896
0.0031491951833777
0.0029825174955654
0.0021463514120736
0.0010649205090377
5.61075467848078e-05
-0.0009242430088171
-0.0018774331299948
-0.0026877966352969
-0.0033726664188355
-0.0039897720900205
-0.0045107998321531
-0.0049289705722436
-0.0051366842462509
-0.0048301428513999
-0.0040119991377784
-0.00330410656238
-0.0032668470555275
-0.0036950223151008
-0.0039185652403452
-0.0034980888431831
-0.0024712236896198
-0.0012357402423289
-0.000291141821222
8.69586296863794e-05
-6.51678035028588e-05
-0.0006055206243329
-0.0013719860654214
-0.0020892077572022
-0.002495907336481
-0.0026207808153535
-0.0026772866265005
-0.0026152787008414
-0.0020007678690949
-0.0004313438649582
0.0020872369095621
0.0051431382115638
0.0080134520995606
0.0098521331480057
0.0102596694152921
0.0096887441578622
0.0089268093088206
0.0083142383969277
0.0077328597343811
0.0069354545545402
0.0055690587749878
0.0033542273265176
0.0004888996747094
-0.0024574254297937
-0.0050033847542874
-0.006902113999097
-0.0081763993301333
-0.0091576739743965
-0.010066324174739
-0.0105809042674919
-0.01025500714142
-0.0091555324466261
-0.0076789851945719
-0.006011090543889
-0.004102818159753
-0.0019710451863322
0.0001314930029165
0.001740501001667
0.0024942564998087
0.002556065358772
0.0024910522492172
0.0026188752210239
0.0027821693237908
0.0028021274429793
0.0027760444264236
0.0028190343605023
0.0028675539824198
0.0028620323790797
0.0028154213213889
0.0026123284982494
0.0020760291156896
0.0013177279020225
0.0006597766098954
0.0001791463193019
-0.0002628030609289
-0.0005721491174981
-0.0004481666730078
0.0002101143022408
0.0012129265301571
0.0021818407051506
0.002676148986034
0.0026296978660249
0.0025474960990453
0.0027879498383232
0.0029752243321448
0.002602651971584
0.0017748866556836
0.0009723358115782
0.0005112622124259
0.0004155344897973
0.0004648705043388
0.0003755901509593
0.0001374641925145
-5.35728375381581e-06
3.42364907978072e-05
5.92304794449656e-05
-0.0001955604406705
-0.0009570629780087
-0.0022707413569807
-0.0037042062831643
-0.0045491094896375
-0.0046295482768418
-0.0045915390097964
-0.0050979320533545
-0.005969192330638
-0.0063221040879749
-0.0053718388948388
-0.0030069593953203
0.000180756535978
0.003309796726213
0.0058258616246295
0.007736905441655
0.0091137277265586
0.0096482697406855
0.0091373450459023
0.0080957585822734
0.0072905065319905
0.0068573897558234
0.0062834810176594
0.0049491779139383
0.0024814141927055
-0.0009632388529899
-0.0046770967420579
-0.0080287433705528
-0.0109118609978387
-0.0133084453286652
-0.0148863894891288
-0.0152713098552095
-0.0142498173230039
-0.0117068281375655
-0.0079005511239432
-0.0037462513051115
-0.0004119122500749
0.001352432029355
0.001470779343225
0.0004310894899808
-0.0010547962240261
-0.0024900624989065
-0.0036307680091676
-0.0041401257048298
-0.0036751332399278
-0.0024251455297017
-0.0010405734575559
0.0001760745623379
0.0015669461354763
0.0034083351204153
0.0052624272794993
0.0062282699452989
0.0056299258526045
0.0035106911860053
0.0008664783493588
-0.0006481974680916
0.0001429928282611
0.0028862927954078
0.006093804188797
0.0084840415526652
0.0096298440273732
0.0097696109699864
0.0095647394340944
0.0096258563684475
0.0097973182050438
0.0092737671710225
0.0076587528273935
0.005610808837433
0.0044270299248016
0.0050359941115679
0.0070475696309476
0.0088098754302855
0.008848623322485
0.0071192703754828
0.0045473648394193
0.0018779788757703
-0.0005258861759186
-0.0023163210178659
-0.0032750868195119
-0.0036767162962963
-0.0041910329623216
-0.005275755059328
-0.006545487412989
-0.0068702656067936
-0.0055201064355016
-0.0032467342970164
-0.0017698590497762
-0.002084303781085
-0.0036879216903994
-0.0055114585144161
-0.0070247940268321
-0.0082199866048981
-0.0091583714386563
-0.0100618623679078
-0.0114454246448098
-0.0136111095486882
-0.016187626217818
-0.018441446739566
-0.0197916444522354
-0.0199310581580141
-0.0188323219259462
-0.0167590032939105
-0.0140872419511973
-0.0111582523221059
-0.0082405141157606
-0.005349279177509
-0.002287134673229
0.0008419138000863
0.0035654356437227
0.0057837496603025
0.0081076784292888
0.0112943695166563
0.0157333984518925
0.0213022269905136
0.0272222599079013
0.0322652366012935
0.0354410449461166
0.0362715592595169
0.0344607578460443
0.0299135161760649
0.0231839298507634
0.0154074590634333
0.0076494232985729
0.0005274430691956
-0.0055775789684746
-0.0101322613561643
-0.0123968221774313
-0.0120178254059514
-0.0098416928849588
-0.007774756890393
-0.0073406866526217
-0.0084175376418533
-0.0096772316885161
-0.0100890552328161
-0.0096234453542089
-0.0087294031272892
-0.007761214456693
-0.0069355261600559
-0.0063194137579777
-0.0057864227054921
-0.0052576562480349
-0.004812720353297
-0.0043987285058347
-0.0037943578507317
-0.0028992951685274
-0.0016446377029653
0.0001517527747871
0.0023615581845376
0.0043539415350252
0.0055698400368446
0.005809524461498
0.0049027675427938
0.0027891694436555
-5.50725801277317e-05
-0.0028149490804769
-0.0048452434708182
-0.0057262839546129
-0.0052614012006024
-0.0037581188475834
-0.0019998985843859
-0.0007430644869534
-0.0003442906387173
-0.0007342570818296
-0.0015605830204945
-0.002504497953438
-0.0035414026636404
-0.0047058492823864
-0.0056638216647687
-0.0058689338303434
-0.0051674599912032
-0.0039368417660832
-0.0026073868599255
-0.0013364441650869
-0.000100452094996
0.0012576153256426
0.0029693153479881
0.0048666980973244
0.0061535613665145
0.0062798701622202
0.0058832735149965
0.0062141859455444
0.0077786624425132
0.0100203813548475
0.0120422502032565
0.0132884081133148
0.0138207703258249
0.0140702368182496
0.0141401935125437
0.0135472341542137
0.0117589287078694
0.0086289725456122
0.0043714389242747
-0.0004338134350143
-0.0050214571957875
-0.0090288397351037
-0.0125736622388787
-0.0155841700255718
-0.0176887031746576
-0.0189425531027459
-0.0199151829161506
-0.0207434049222014
-0.0206388848903637
-0.0186450428013918
-0.0146378152557123
-0.0094299401520471
-0.0039956415815344
0.0012984368286074
0.0066032675046292
0.0117525328291301
0.0158309758261106
0.0178879159799183
0.0179272719513862
0.0168176651115265
0.01530062653359
0.0134893869115686
0.0112451125096432
0.008476670614675
0.0050284616882044
0.0008348946622863
-0.0036822892730719
-0.0077371152931452
-0.0107199978235608
-0.0124555081587559
-0.0130804855928372
-0.0126934456790624
-0.011015028333389
-0.0077648349522188
-0.003582630383824
5.12541083478331e-05
0.0021102292137418
0.0027061184660676
0.0025277497067322
0.0022555113570893
0.0023160747949191
0.0025306539197881
0.0022361577699162
0.0012332507381841
0.0002791615826058
0.0002853803844776
0.0013426230326792
0.0027866249711797
0.0040259629478343
0.0051337581160267
0.0065735675380663
0.0083127024080476
0.0094441189093873
0.0090089002736601
0.0070362967055878
0.0043886971244436
0.0017398650546008
-0.0007781907079035
-0.0029618086116197
-0.0042148645154029
-0.0041323329169697
-0.0030288566563807
-0.0016446176124689
-0.0005888715993804
-0.0001330746353648
-0.0001933120241112
-0.0004675235752964
-0.0008421665782523
-0.0015643623982984
-0.0029081019547389
-0.0049757046867605
-0.0077954872669355
-0.0111592578199365
-0.0144781008964795
-0.0171774390501527
-0.0189708317045361
-0.0195827777381882
-0.0187172792845113
-0.016419506873709
-0.0130271375686052
-0.0088532961735607
-0.0042423675651266
0.0003658108091537
0.004680530419881
0.0085367374299027
0.0115924090604393
0.0134805534979965
0.014250132685839
0.0143054190976317
0.0139905194343615
0.0134404225852719
0.0126034283953535
0.0111884424931903
0.0088547904016007
0.005751179565706
0.0027800692878757
0.0011237117551136
0.0014075489238641
0.0031922190343806
0.0051652308893051
0.0060047915677447
0.0053865997770284
0.0041564236400222
0.0033264897050788
0.0030731779125715
0.0029921060390374
0.003011469857194
0.003583980115978
0.0051478335077134
0.0076097580585746
0.010095251534554
0.0113088736925362
0.0106487337459908
0.0088123208213594
0.0069069816621953
0.0053163335898128
0.0036752058626924
0.00140316197196
-0.0018917453086424
-0.0060103505333643
-0.0101353927011219
-0.0135132028463922
-0.0159409158072669
-0.0174949665556369
-0.0183454619613177
-0.0189607581158066
-0.0198029063572753
-0.0205228715624862
-0.0199209461847854
-0.0170233483739429
-0.0121205638565627
-0.0067293768578579
-0.0025580395223698
-0.0003261144980897
0.0006147565324245
0.0015374566583188
0.0031867439125872
0.0053269882430071
0.0072554592578633
0.0084731164641886
0.0088083867550862
0.0082118075297942
0.0066915769309179
0.0044019816770912
0.0017725855727179
-0.0004364622558146
-0.0015388032702457
-0.0016753650084818
-0.0018671337496943
-0.0030356265393109
-0.0051701783589485
-0.0074258856099505
-0.0087327897083925
-0.0085398896510079
-0.007272958614997
-0.0057643873848429
-0.0041927133430106
-0.0020406853236613
0.0011437200716938
0.0055485487508907
0.0112080852403468
0.0175778600344019
0.0233592546788086
0.0273231123226928
0.0290934877945704
0.0289407186477323
0.0271558653429672
0.0237684595376529
0.0187050145523431
0.012251615756791
0.0053409812518951
-0.0009377943236045
-0.0061878778840753
-0.0107589895887973
-0.014936520268001
-0.018438854852282
-0.0207975795525355
-0.0218993985687999
-0.0219999376951857
-0.0214185212837667
-0.020323732312655
-0.0186845206427891
-0.0164713943086607
-0.0140319235359203
-0.0120161334606933
-0.010718990399089
-0.0098940803055565
-0.0093738273070393
-0.0091337549492049
-0.0084619865817307
-0.005983794514245
-0.0009993155513178
0.0057626114693607
0.0128286470871498
0.0189508280994388
0.0235574395928409
0.0266457975373858
0.0281920017709976
0.0278498678743063
0.0255344666603009
0.0218366169853147
0.0173951381648631
0.0123581279780376
0.0068333830501422
0.0013276260083163
-0.0035732573855613
-0.0076031026654041
-0.0108583627384539
-0.0137186580871448
-0.016513300235588
-0.0189558824428371
-0.0201619873106449
-0.0194824461238592
-0.0170700956659067
-0.0135160481309788
-0.0093762337255666
-0.0053182328428936
-0.002246596691961
-0.0007116387087192
-0.0002892057538838
8.85064965241726e-05
0.0012030266788162
0.0030649539592092
0.0051773475165258
0.00718101673922
0.0093229231242616
0.0121053517567068
0.0153311532259455
0.0178893680955338
0.018678602805833
0.0173368615659295
0.0141199179395604
0.0096935004442681
0.0050081632716148
0.0008553679100638
-0.0024496874348488
-0.0049227287749171
-0.006813427854947
-0.0084971953516401
-0.0099571129552492
-0.0106005612321213
-0.0099961291397854
-0.0084709172660442
-0.0067465466669539
-0.0053829058751857
-0.0046501149193943
-0.0045010466653778
-0.0046202165995995
-0.004760497193772
-0.0049310871132949
-0.0051374058663289
-0.0052080041193477
-0.0050018402423213
-0.0045308057773425
-0.0038210830396297
-0.0028949776291563
-0.0018921778581499
-0.0009876087636038
-0.0002509232284238
0.0001769718889558
-7.64652272954548e-05
-0.0012083138893383
-0.0027567285055702
-0.0039388385031621
-0.0043931809822555
-0.004212012532911
-0.003435226305462
-0.0019230058566498
0.0004458543620646
0.0036231578665448
0.007122595839028
0.0099694250201147
0.0113981883888634
0.0114907381406777
0.0108782732756781
0.0102073871916687
0.0099224099113895
0.009837706909848
0.0088847972960112
0.0059892173893915
0.0011730447223644
-0.0046347994627106
-0.0105002037962433
-0.0157204875125929
-0.0195443150479452
-0.0211721780220485
-0.0200975740526472
-0.0164750551886828
-0.0111470568027813
-0.0050468474766437
0.0014940921551999
0.00859770535387
0.0160538288003643
0.023008672377556
0.0283735309517743
0.0312686885191029
0.03128024031354
0.0287640877514845
0.024867515251921
0.0208041828122763
0.0170055455809308
0.0132094860256947
0.0091752620321826
0.004806593777471
-0.0001956279197298
-0.0059802178028784
-0.0117430761722369
-0.0158955753620119
-0.0172812565083608
-0.0161140510918593
-0.0137568557104055
-0.0115416791220133
-0.0097867664921575
-0.0082113031772559
-0.0069944577328592
-0.0065404901280417
-0.0064478842935896
-0.0059793879909545
-0.005587271568449
-0.0068037608191293
-0.0103782457772216
-0.0152266044247031
-0.0193699372687901
-0.0215882810376155
-0.0221619337943439
-0.0221676252995563
-0.0221478639401551
-0.0215460458659959
-0.0192678996188184
-0.0145053795157777
-0.0072621432284355
0.001345744785501
0.0093216468365244
0.0148515104953253
0.017347123402171
0.0173650853568976
0.0157414124573134
0.0131352058167412
0.0101803967433353
0.0075083806493258
0.0055176028182676
0.0044559861574011
0.004694158158598
0.0064697336987676
0.0093198641467953
0.0121333231537143
0.0137925395272502
0.013676577917369
0.0119229373080514
0.0094592193399635
0.0074379020814535
0.0064587959136528
0.0064336694766521
0.0068780792951421
0.0070811963268135
0.0063866941253629
0.0044802181779093
0.0012217716700942
-0.0033529710450598
-0.0084294483960122
-0.0124952754982062
-0.0146120491154422
-0.015057082537779
-0.0144257215296964
-0.0128108847641678
-0.0101063178144079
-0.0064876583517522
-0.0024117872372919
0.0014624774436795
0.0043898046248717
0.0059640799549705
0.0064679957680126
0.0066403094796859
0.0071155029249425
0.0080897994434302
0.0093590986957476
0.0105676488900759
0.0114599688211319
0.0119248010051786
0.0118307501764696
0.010992228716881
0.0094028727395668
0.0072654578344465
0.0046075190679753
0.0012304338343879
-0.0026598137906262
-0.0062207134681681
-0.0087305607945841
-0.0101184014753716
-0.0105440649857792
-0.0101130654055819
-0.0092388894242919
-0.008661785430691
-0.0087670115264541
-0.0089892969932632
-0.0079521865496364
-0.0045966711485221
0.0003596704630544
0.0045380051982719
0.0060625884615032
0.0051471210749262
0.0031615212442365
0.0009410320538527
-0.0014387659264581
-0.0039631139819681
-0.0064333394623448
-0.0086283263925496
-0.0103356539852811
-0.0112915625111859
-0.0112231551439195
-0.0100475783099569
-0.0081478242907563
-0.0063620293424518
-0.0054599758506015
-0.005593973643469
-0.0063573917135667
-0.0072640455151588
-0.0079859167108765
-0.0082943616610896
-0.0081312876661083
-0.0076789338073859
-0.0069735626527649
-0.0055038699525195
-0.0026436088183328
0.0014922837266459
0.0059255699651288
0.0094518380582303
0.0112883160353581
0.0115189115682868
0.0111086576248676
0.0110957442073282
0.0117085201902699
0.0124943036041843
0.0129462807713493
0.0127011353516809
0.0116375276301588
0.0100730209603862
0.0084994633558553
0.0071728418898765
0.0062467469599537
0.0058840575941725
0.0059229279828955
0.006036329552091
0.0065282866345739
0.0083037787111943
0.0116493282803041
0.015442773086453
0.0178312427133362
0.0175099353840844
0.0142827288516279
0.0086149970608658
0.0010058094878058
-0.0078893839969872
-0.0166395005016621
-0.0231634476009145
-0.0259542227948383
-0.0251138928644038
-0.0220024963897527
-0.0180026275539761
-0.0137696843771619
-0.0094074363586928
-0.004937010638983
-0.0005968599132956
0.0030128089842814
0.0051259000152353
0.0053905134474142
0.0040762448512216
0.0014849799026801
-0.0024985343629788
-0.007909469130893
-0.0138463425905567
-0.0182002976064425
-0.0184871444257475
-0.0136905220524263
-0.0055309214320794
0.0027038026807317
0.0087134342102986
0.0121826004738464
0.0138219357284603
0.014484580773225
0.015070330817762
0.0163813527131043
0.0187062824466582
0.021494343102635
0.0233808414213878
0.022921822854738
0.0197734009592917
0.0150024121417172
0.0100167471455132
0.0054619852471586
0.0012768274224742
-0.0026327537113495
-0.006148085852683
-0.0092611181048709
-0.0124295023275867
-0.0164142708599931
-0.0214749868293503
-0.0266162458835505
-0.0299533334021764
-0.0301822879461105
-0.0276333579158925
-0.0237646629498491
-0.0199782634421987
-0.0172102073980319
-0.0160439982573047
-0.0163536192412383
-0.0169503940535334
-0.0162015074472099
-0.0130632351542436
-0.0074854565586945
-0.0002618419095474
0.0072536712262192
0.0134858457936302
0.016957123493624
0.0168374566802601
0.0138352166694733
0.010182317641241
0.0078909211626653
0.0072221665221944
0.0073538298240239
0.0079049181246772
0.0091394653647498
0.0112393006230556
0.0140133291128903
0.0170805585616304
0.0200633161854231
0.0226716812569466
0.0245276375797055
0.0249629646177637
0.0234587392277864
0.0203796818781118
0.0167399071969662
0.0130971472600258
0.0092121435469333
0.0049698857111739
0.0010853394809681
-0.0014120350935815
-0.0020188294453272
-0.0008839747387818
0.0014138272341722
0.0038324225174449
0.0049866890533925
0.0038404776711818
0.0004033603299528
-0.0042237773849576
-0.0084992622206233
-0.011540588086165
-0.0138557299776089
-0.0166177748553566
-0.0200713481305751
-0.0231653646718937
-0.0248511277254912
-0.0251809147558759
-0.024916412154548
-0.0242889504756912
-0.0224291989113453
-0.0184990567641819
-0.0134436004980695
-0.0096202067597222
-0.0081063095768982
-0.0073851523640175
-0.0055296138079997
-0.002885948189684
-0.0017025702457999
-0.0034582718644264
-0.007166476110691
-0.010292196466994
-0.0111102099802776
-0.0100314297504105
-0.0085669393977636
-0.0072590900648156
-0.0050439153229897
-0.0005971111612987
0.0061182270350819
0.0137392822050276
0.0206119766660635
0.0258343301725508
0.0294019190207014
0.0316246610558887
0.0326058504525391
0.0323977259558299
0.0314816868480599
0.0305593967881028
0.0296572632078964
0.0280147347021267
0.0252759895512936
0.0222125953163952
0.019779908428129
0.0180063568600555
0.0161904992493167
0.0136219590761494
0.0098600732031146
0.0048433641369767
-0.0010435200253287
-0.0071703605820575
-0.0128829412565589
-0.0176499786266626
-0.0213100797425733
-0.0240461525300096
-0.026005153552083
-0.0273733752308202
-0.0288031191932191
-0.0309741435115797
-0.0335646186812957
-0.0353153190878754
-0.0352449580086223
-0.0333966060821353
-0.0305299391897857
-0.0275307196740469
-0.0249862633671924
-0.0228744868240159
-0.0205325863889777
-0.0170802691074584
-0.0121005019488642
-0.0061389427324682
-0.0005335879247297
0.00354540575178
0.006108797461958
0.008370119016159
0.0117109110000235
0.0166067157221036
0.0222872231725202
0.0270460650379339
0.0291330926313814
0.028271028762573
0.0265755075323939
0.0270530711066684
0.0305287676201986
0.0345455370554412
0.0356490626648315
0.0323424170528855
0.0258354288328485
0.018633997856177
0.0126875186958686
0.0086260958383392
0.0063667601360493
0.0057398167368708
0.0061382591684852
0.0062773758468814
0.0049687200038008
0.0017200866298142
-0.0035918502700609
-0.0107963672601169
-0.0188435124577608
-0.0258905959197683
-0.0304344638156106
-0.0321842688557324
-0.0318908863766891
-0.0305732874311486
-0.0287509913919366
-0.0261723242970998
-0.0223606643267663
-0.0175143515590514
-0.0127605847796389
-0.009435378052993
-0.0080438911736236
-0.0077720683730882
-0.0070518369192902
-0.0049616802411813
-0.0022098612912682
-0.0002892704085419
0.0006443906730975
0.0024827625061197
0.0071590481537952
0.014400071535299
0.0220921957345683
0.0282994403695551
0.0321408626354874
0.0332067376129975
0.031121392115043
0.0258830745926182
0.0183886188802489
0.0103462991417621
0.0032993248603128
-0.002210710417264
-0.006183787446443
-0.0083510184342104
-0.0085473496995363
-0.0074296381874884
-0.0060400274455937
-0.0049531676660622
-0.0042398678789888
-0.0037497180721752
-0.0031022951555144
-0.0018424554576449
0.0002106052313752
0.0030174477710306
0.0065748157929693
0.0107402172219519
0.0148738519515202
0.0179573743080176
0.0191116116743652
0.0179072712841345
0.0142688338669483
0.0084231886294872
0.0012256675342197
-0.0057234530812241
-0.0109958168198702
-0.0147286673084821
-0.0187073842698433
-0.0244948614910527
-0.0314687196332737
-0.0371287071112639
-0.0394374729834606
-0.0384949684984414
-0.0359541205877861
-0.0334472449642175
-0.0316106037114592
-0.0297425399085082
-0.026172999315714
-0.0197973267744434
-0.0115767057130828
-0.0040848899135712
0.0005170595934295
0.0020124164411003
0.0020677508244968
0.0028234457648689
0.0052682712308082
0.0089542785966971
0.0131419489129506
0.0176366529267479
0.0225759576499726
0.0282173815315968
0.0349261543151565
0.0424702966177229
0.0491724274012066
0.0525388725476457
0.0512432360369116
0.0464699159188326
0.0411582059770662
0.0376585702117036
0.0358808010228318
0.0338001972244262
0.0298035001121596
0.0242108786944224
0.0184234734558087
0.013174452879509
0.00806694205422
0.002399573713469
-0.0041521858909168
-0.0114551884916502
-0.0189085650380301
-0.0255362133784953
-0.0305798699042812
-0.0341402469575645
-0.0370931118405615
-0.0403862842416419
-0.044298718172886
-0.0481264058866359
-0.0508175496409696
-0.052196896630808
-0.0530234279928595
-0.053427805505458
-0.0520546450000433
-0.0473490112887676
-0.0391159801574532
-0.0284757073400875
-0.0168671174458141
-0.0053340797331483
0.005587485564642
0.0154349266343208
0.0233813495177617
0.0285728249207753
0.0308623506399578
0.0308746183842892
0.0294468026743969
0.0272185390020446
0.0245434003130327
0.021648888405206
0.0190323509760644
0.017495917646283
0.0173886818840701
0.0180610393605565
0.0185827140000458
0.0187657855670944
0.0189259047000024
0.0189194940648627
0.0182016384076076
0.0168075786570174
0.0155003197574891
0.0147376813041639
0.0140610203822629
0.0127139900542505
0.0104524326667021
0.0076408330273948
0.0048929235648697
0.002688339101309
0.001174838689647
0.0002620218271583
-0.0003463707750527
-0.0013540973116683
-0.003562179119013
-0.0069457501885284
-0.0104947215999828
-0.0132360890863422
-0.015019613983531
-0.0163689935565192
-0.0180083262008678
-0.0202560192922564
-0.0225244878262254
-0.0238682198110274
-0.0242295037426087
-0.0245393304344691
-0.0254279254069243
-0.0263857956713128
-0.0263358923200923
-0.0247534963003646
-0.0222465455394766
-0.0200566225714001
-0.0187139025449322
-0.0172337819392458
-0.0140718511523286
-0.0088915172683738
-0.0030212186391872
0.0017906682928401
0.0046932779737038
0.0059367290515599
0.0063923708110466
0.0071168033920155
0.0089779830958674
0.0122953202913777
0.0167793887878535
0.0217837015524714
0.0265974070314224
0.0307679780874744
0.0343185849483936
0.0374014875248696
0.0397094729363851
0.0406225876644588
0.0398995384118625
0.0378704269932576
0.0351888955219527
0.0326602599208569
0.0308167098579035
0.0294257708167861
0.0278993303531575
0.0260868861131366
0.0240527270129565
0.0213725175311606
0.0173614071707063
0.0118000675085661
0.0050076005848447
-0.0025620834010171
-0.010558332448044
-0.0187041897552638
-0.0265404461013003
-0.033276729451506
-0.038318369686253
-0.0420509966035734
-0.0456964753192815
-0.0502319553952494
-0.0556072868644877
-0.0608281500883127
-0.0644294992957969
-0.0650297902968377
-0.0619816458969834
-0.0557970173457183
-0.0479524086520194
-0.0402155579970499
-0.0338457006474197
-0.0288256918162493
-0.0236220635613771
-0.016283531854139
-0.0063564362750882
0.0045717116848945
0.0145436286486205
0.0228554209805174
0.0295800146090495
0.0342154371968462
0.0356155256018315
0.0331751842345179
0.0278587710854475
0.0220668777031714
0.0182733294298016
0.017584915150686
0.0195618640641849
0.0229887341523881
0.0265039322989374
0.0291140249115338
0.0307357864508047
0.0319729018157252
0.0331330251864999
0.0337919949454617
0.0333479277348179
0.0316968793648859
0.029420648750407
0.0273846597735179
0.0258955273077723
0.0243365567779022
0.0220386023850129
0.0193261931657511
0.0171728049464434
0.0159406466157376
0.0149106410373888
0.01295569505876
0.009376601495976
0.0042858316097159
-0.001480952782261
-0.0069395772308071
-0.0116506833327341
-0.0156755641694909
-0.0188248779014985
-0.0205876179103563
-0.0212786606889521
-0.0227249320191497
-0.0270752206042498
-0.0349026997981157
-0.0445399672838175
-0.0529840548541602
-0.0575823668609546
-0.0573730407806346
-0.0529634033092357
-0.0454634040769099
-0.0363905847123072
-0.0283947626603923
-0.0244783304355613
-0.0256643124805784
-0.029909788650076
-0.0335074525911327
-0.0333122646285219
-0.0280067060343669
-0.0180130831121277
-0.0046498364062711
0.010430093580889
0.0251276751454054
0.0369348079041673
0.0438042433206629
0.0453598793938162
0.0434896351307033
0.0414991344831116
0.0416437466990532
0.0428506175420638
0.0416288781118757
0.0361114729103169
0.0287094869756113
0.0238490081615169
0.0233652827109009
0.0250309505155292
0.0254418539799532
0.0232864171410467
0.019607327022433
0.0159079590122506
0.0127392029533701
0.0098119424276731
0.0069234418677543
0.0044808068892395
0.0029938147070951
0.0023332016131777
0.0019004157614014
0.0011969996318543
-0.0002807354367109
-0.0031721747178731
-0.0075818611562548
-0.0126692496757358
-0.0173320708855515
-0.0209554419940895
-0.0235141665998292
-0.0254800004197134
-0.0275048141529858
-0.0297489909523535
-0.0317072833901705
-0.0328537342741351
-0.0330681318362444
-0.0323543540824723
-0.0305784636256453
-0.0276456049585127
-0.0237929766265151
-0.0196485673777068
-0.0158415072851135
-0.0123662755544382
-0.0085252059267557
-0.0037308141417105
0.0018646663775062
0.0077350966041764
0.013631346466508
0.0195192158020326
0.0250873309482241
0.0297477939825968
0.0331714599469784
0.0355319985616269
0.0370645027750554
0.037493905907275
0.0360251007367452
0.0320227907751376
0.0258999901374609
0.0192215595113165
0.0134666869485259
0.0086881916499198
0.0038560708033815
-0.0016341647224531
-0.0073776811479321
-0.0126670758140119
-0.0171732927498794
-0.0209416564607939
-0.023920062527942
-0.0255690614353297
-0.0253907904816153
-0.0240297311963529
-0.0230519241961898
-0.0231914250730672
-0.0235669629765912
-0.0229841092130751
-0.0212459346727611
-0.0188601571681856
-0.0161125807325694
-0.0127855035430472
-0.0084824197594959
-0.0030602281108681
0.0031201497570346
0.0092400240181376
0.0142601534623705
0.0172893735815513
0.01815889081908
0.0177650878539833
0.0174279570065682
0.0176032078931797
0.0173935285977205
0.0154439319917772
0.011163310586721
0.0052223866907804
-0.0006369908927146
-0.0043890511500356
-0.0052656700708945
-0.0049430062682422
-0.0064263482717717
-0.011111279219257
-0.0172582255199793
-0.0215025296591429
-0.02138731159963
-0.0165767843622978
-0.0084752524148444
0.0010434437284738
0.0108109940224716
0.0204162298898204
0.0294257956834633
0.0370219408014417
0.042235058242762
0.0443556089278053
0.0437402176882877
0.0423859838178892
0.0427033210416044
0.0451737360450987
0.0478246809088912
0.0482595568678205
0.0456607071400346
0.0407501472977681
0.0344680045122335
0.0270757260887377
0.018308641127685
0.0079986425801193
-0.0036581907682978
-0.0162895597856119
-0.0294351091185547
-0.0423319829969971
-0.0538052791535817
-0.0624966741165729
-0.0672495873089806
-0.0675804334541645
-0.0642977735077914
-0.059889842020613
-0.0578594389177554
-0.0607780279916932
-0.0683080815648644
-0.077064382048818
-0.0827755445306749
-0.0830281904721676
-0.0781180055471124
-0.0692228668362715
-0.0562847835892675
-0.0388785222772122
-0.0192080696047675
-0.0023098461923501
0.0081317131451914
0.0133534874585765
0.0179739411859686
0.0254640824078156
0.0356725014467632
0.0461924061335959
0.055241238476401
0.0627061699219402
0.0686617981481528
0.0721314536895305
0.0722176743155686
0.0696426599085835
0.0659995700353566
0.0618413938663396
0.0564603772192458
0.0493784288465173
0.041333901338817
0.0337972647061688
0.0278885889862459
0.0237282698419818
0.0205841641440464
0.0175946126622431
0.0144331394103724
0.0113641125275956
0.0087885165733962
0.0068618232413007
0.0055117214164527
0.0046190640289679
0.0040127711630698
0.0032761395968855
0.0016771155196389
-0.0014197670152042
-0.0058010082494877
-0.0103211611614511
-0.014117826686654
-0.0177558397271921
-0.0225229857178772
-0.0286675587027992
-0.0348419437421256
-0.0391836837848699
-0.0407652473854006
-0.040317078277107
-0.0395408841859819
-0.0394030755953658
-0.0394048340300757
-0.0387206093893778
-0.0372767738688376
-0.0353834587378654
-0.0331863567596557
-0.0307981481249691
-0.0281558041100557
-0.024578273332195
-0.0192484396255751
-0.0123120114716529
-0.0049519805674083
0.0017264879686485
0.0075106395481151
0.0126942083691289
0.0171381163347024
0.0200125733352325
0.0206537861563897
0.0195622536488603
0.0182156974887313
0.0177935893948676
0.0183147981604452
0.0190975906526151
0.0197573533755865
0.0205226887990893
0.0217613243258098
0.0234224764790044
0.0248306215931771
0.0249782638572695
0.0233616480392215
0.020644900775386
0.0181341452723643
0.0165525182648975
0.0156507584975034
0.0147851258203683
0.0134550741599984
0.0116208865725022
0.0098539069076268
0.0087920044155371
0.008330576273547
0.0077815883894053
0.0067095132348726
0.0052068082283963
0.0036363353293318
0.0023847538007252
0.0014660793195619
0.0001847275701799
-0.0024510929085165
-0.0068632185959797
-0.0125004792756236
-0.0181626804810648
-0.0229441498053339
-0.0272852832996801
-0.0327041334717866
-0.0397881901345582
-0.0468392808022995
-0.0513554675087324
-0.0525987918596266
-0.0519054425429097
-0.0506913173574376
-0.049028843139583
-0.0462303172277164
-0.0420410065869744
-0.0368281493236815
-0.030852034307089
-0.0236267509171991
-0.0141086569774327
-0.0017719891261125
0.012391727503462
0.0262874312551983
0.0382555454075315
0.0478541834425621
0.055256044083259
0.0605146100218851
0.0633339640205276
0.0630367495927582
0.0590772167461666
0.052083459838433
0.0440230387834798
0.0369925957078064
0.0320132307154003
0.0287334422577434
0.0258089399240739
0.0218693690766317
0.0165950983281364
0.0107848971612347
0.0054897231456024
0.0014526850472055
-0.0009125133010905
-0.0016234909787021
-0.0011838135879621
-0.0003010062193594
0.0003154548767225
-4.41555390786414e-05
-0.0018470234447841
-0.0049948130898499
-0.0089475798209638
-0.0130228251205578
-0.0163974600543035
-0.0182312088333533
-0.0183189560456436
-0.0175144635503043
-0.0171017014773586
-0.0177431421767264
-0.0192099488173647
-0.0208891625423043
-0.0222389917715396
-0.0230348962732709
-0.0235964645696892
-0.0245884879292567
-0.0262889000819073
-0.0281880074975483
-0.0293352242467086
-0.0288738003299475
-0.0264763101210616
-0.0225370101628202
-0.017603057869162
-0.0116234748053077
-0.0044878709275974
0.0027545233726716
0.0081882186969211
0.0107228062042337
0.0109788978509962
0.0106154019523986
0.0110626452672872
0.0125429274289604
0.0140336722318431
0.0142982133214395
0.0128276737367982
0.0097367488946885
0.0053980371854369
0.0006949237203096
-0.0028255166890778
-0.0037835261240295
-0.0022002038924736
0.0001551941828968
0.0009281941372949
-0.0007680922207638
-0.0032043505368212
-0.0033353198781102
0.0003055557271046
0.0061002202103726
0.0109766537863532
0.0134055399035837
0.0145734571840285
0.0168500934353666
0.0214534666422563
0.0274203998218127
0.0324660332594407
0.0349003861179954
0.0348587085282101
0.0336049747336185
0.0319499007521781
0.0298457035297057
0.027157243187289
0.0240547375766182
0.0207011516980536
0.0169250372547396
0.0121345305100828
0.0057340016444936
-0.0019803534007927
-0.0097054243953523
-0.016379972698629
-0.0221038274786501
-0.0274834804308861
-0.0326212833006488
-0.036987406375581
-0.0397660886773684
-0.0402306739733029
-0.0382989211223556
-0.0349115508519441
-0.031612864591102
-0.0295089705472055
-0.0284442339738248
-0.0271862695899348
-0.0246072742367316
-0.020594755267962
-0.0155998390320365
-0.0098448831654481
-0.0038073846661854
0.0009418391479482
0.0027179787812258
0.0017815035391352
0.0003925532321425
0.0004172669445752
0.0016912114870898
0.0030985049443605
0.0043491603732716
0.0060748011957228
0.0088492506981957
0.0126667909270153
0.0168593938773016
0.0202163073414214
0.021705358352634
0.0212050094767428
0.0191728690754744
0.0159081375386243
0.0116759227411088
0.0072547631582605
0.0038133131219619
0.0021227216017826
0.0018491627216404
0.0017785431007486
0.0011392915918156
0.0004889588368538
0.0007130973893893
0.00154365281172
0.0019047323308392
0.0014161891073784
0.0007389767460768
0.0006146657834259
0.0011751927695722
0.002112042949171
0.0031729280175434
0.0044774509816654
0.006321332391912
0.008545672209526
0.0102563153389193
0.0104385686142391
0.0088338435365216
0.0061001099206939
0.0032064868482872
0.0007553660811353
-0.0012633618570368
-0.0032005278147648
-0.0051557533646664
-0.006696571103104
-0.0074453284344987
-0.0078036972255532
-0.0084544097553888
-0.009144750450302
-0.0087995695733314
-0.0070318949236735
-0.0047892151880375
-0.0032903132519771
-0.0028458725714136
-0.0028140440967423
-0.0024216089830789
-0.001570105564215
-0.0007476756846293
-0.0001919988625992
0.0002880920155947
0.0005687480767693
0.000179739995568
-0.0007117393697067
-0.0011823367147427
-0.0007408678887362
8.22054747409367e-05
0.0005656643610168
0.0006698754888052
0.0008866862613822
0.0015414519978161
0.0024381910809384
0.00318786019334
0.0037963444077863
0.0046839552601858
0.0059607046065515
0.0068789887333636
0.0063230494749986
0.0039640050837666
0.0008914255717589
-0.0010420056813281
-0.0007649686350915
0.0009341731297329
0.0019826109904256
0.000891485063956
-0.0019920588215292
-0.0052001683603883
-0.0077589073762519
-0.0096520893244595
-0.0110635477538989
-0.0119049429668019
-0.0118923455924071
-0.0104582699091974
-0.0069617256356645
-0.0016374161021751
0.004061370167206
0.0085207443067252
0.0109073394771148
0.0109290203466957
0.0084433425737162
0.0036985063785611
-0.0023901899052336
-0.0084699790027007
-0.0133864827778045
-0.0167546189679531
-0.0188118820754977
-0.0197243297077582
-0.0194633215605892
-0.0183132791539462
-0.0167529140265868
-0.0147458514601302
-0.0119181796363129
-0.0085141568991487
-0.0053387523472911
-0.0024824306771376
0.0013236059079584
0.0077538815641693
0.0173067097301509
0.0283557542105618
0.037507755169701
0.0414455114796058
0.0392427127856585
0.0329963405765932
0.0259316205283947
0.0200049324636343
0.0153838084320398
0.0115239951245051
0.0080633337877222
0.0049721343853859
0.0024100918068973
0.0004609899701952
-0.0010111872989458
-0.0021308530770452
-0.0029359960753364
-0.0037238294584217
-0.0049603737092288
-0.0066400293809667
-0.0082395697305862
-0.0093079830252338
-0.0096428496760623
-0.0091729955636798
-0.0081560663202821
-0.0071557266480757
-0.006508665177137
-0.0061245387163208
-0.0057961670705344
-0.0052968644008727
-0.004343851538529
-0.002914278388716
-0.0014474514266221
-0.0004309147908797
7.24084580972738e-05
0.0003643393173607
0.0007276862646273
0.001092651724097
0.0009876424788707
-9.3131394065677e-06
-0.0016520930468087
-0.0031285971234187
-0.0039767498089314
-0.0046158817650355
-0.0057017565222184
-0.007240294690129
-0.0087129743134868
-0.0098607387250369
-0.0109166975096165
-0.0121494851720559
-0.013448235415602
-0.0142508199308081
-0.0138234737626041
-0.0119019221866333
-0.0090999354876816
-0.0064783666647163
-0.0048130189815358
-0.0042473623587967
-0.0041543957658165
-0.0033415084937966
-0.0009952319359049
0.0025763866281406
0.006446172820576
0.0098787831804851
0.0123856836615854
0.0137236625691513
0.0142293508758146
0.0145566810926377
0.0148782432469542
0.0148221690787636
0.0142004793953523
0.0133758429740117
0.0128719398342736
0.0127554302493985
0.0123767706537861
0.0108798652027066
0.0082022774102596
0.005398791825708
0.0036972188487908
0.0033519157010159
0.0036081035709028
0.0036173860102097
0.0031769543794185
0.0026962738241483
0.0026694737454679
0.003182812252412
0.0038318292831958
0.0041291733169634
0.0039721945511136
0.0035620388902518
0.0029544398461696
0.0020506878648316
0.0009979340360058
0.0001611324372917
-0.0003093614756727
-0.0005527699028247
-0.0007433462828906
-0.0009646168937668
-0.0011974825870265
-0.0015371342130414
-0.0026114098112332
-0.0052315520531988
-0.0091960875184322
-0.0131257666741152
-0.0159221394773711
-0.0176830321527849
-0.0189558635909679
-0.0199356341348842
-0.0205932505089697
-0.0208350655283108
-0.0203694777592682
-0.0189462926156798
-0.0168312144879077
-0.0147567734800025
-0.013330635008584
-0.0125125647500085
-0.0116757790062962
-0.0103221114239905
-0.0087436525419556
-0.0076775808865243
-0.0072076446535562
-0.0063416168479652
-0.0038992014024837
0.0003340700266165
0.0054169474223703
0.0100383530455052
0.0135083391923714
0.0162832724074408
0.019529115090932
0.0237524831457338
0.0278315301080262
0.0299275434810918
0.0294123471248411
0.0273757745317904
0.025315597899125
0.0238871901900777
0.0227269120604288
0.02091180781571
0.0177268327171752
0.0132803603584723
0.0082615129680271
0.0032773592316334
-0.0012711760339414
-0.0050698132850279
-0.0080483774312868
-0.010327541821876
-0.0119132219432486
-0.0128479589289402
-0.0134828227492904
-0.0140605471413969
-0.0142551704115833
-0.0136058712342031
-0.0121943678811311
-0.0105725002814934
-0.0091851355821072
-0.0079692926749351
-0.0064090657899908
-0.0041201442972673
-0.0015020988178327
0.0005046765972496
0.0015037658031154
0.0021036670028796
0.0030505345210467
0.0043178471015174
0.0053698692349636
0.0058662390401227
0.0056573771060812
0.0045311470996242
0.0025641310729302
0.000427732624086
-0.0012028141636937
-0.0023611358628291
-0.0035899023724803
-0.0052263752039324
-0.0069744314407377
-0.0079820450914197
-0.0075160592765022
-0.0058160372187526
-0.0040520065788881
-0.0033357257211855
-0.0039584313470605
-0.005298807154117
-0.0061207561767859
-0.0053894235924084
-0.0031635070550343
-0.0003890855488486
0.0021200411913483
0.0040543890958002
0.0053466402039489
0.0062266779444038
0.0072360407863746
0.0085906384435084
0.0097516570929192
0.0099877756959798
0.0091192598844249
0.00749781621708
0.0054991545051931
0.0032492805092754
0.0008068680691245
-0.0015035332794983
-0.0031276691982333
-0.0037990736295723
-0.0038738925928878
-0.0039177399291676
-0.0040892090337888
-0.0042347141420077
-0.0044471294425611
-0.0050122890275116
-0.0057548321153113
-0.0060298187909572
-0.0056024973749884
-0.0050183071572608
-0.004828017455584
-0.0048540154641531
-0.0044236107867692
-0.003132438572601
-0.0014281878652961
-0.0004202721081934
-0.0007173213950015
-0.0015725721008287
-0.0017461714990706
-0.0009678999227086
6.06660008361675e-05
0.0007709854578352
0.0012902860407724
0.0022049699544604
0.0040290121019454
0.0065998714806332
0.008983636468157
0.0102518030402303
0.0102042999941345
0.0091972407405901
0.0076624879578964
0.006027679915433
0.0047821609238272
0.0043628387093074
0.0049478395630746
0.0062298067845327
0.0073866450346385
0.0075946183541311
0.0067038160943227
0.005183671363903
0.0034249953207778
0.0014901266875024
-0.000410300045956
-0.0017309970699698
-0.0021803230994434
-0.0021288333564948
-0.0021469511321195
-0.0024372290233545
-0.0028938449308494
-0.0033506539509151
-0.0036610648375446
-0.00389410300079
-0.0044087612167484
-0.0054157788778222
-0.0066868288779891
-0.0078933570599788
-0.0088129894548527
-0.0091369166018119
-0.0086040379501928
-0.0073111192996985
-0.0055567955232448
-0.0036911536554495
-0.0022829570376648
-0.0018116711264536
-0.0020177616056241
-0.0021474848744523
-0.0018777274716781
-0.0015141707807271
-0.0014204095593882
-0.0016897311450248
-0.0022023018029226
-0.0026637375294799
-0.0026871783995072
-0.0019958340376017
-0.0005412404256135
0.0014421468864117
0.0033556157575177
0.0044008053960442
0.0041177652224832
0.0027963599739296
0.0012896052668589
0.0004612805555766
0.0007539281077825
0.0019897381586393
0.0034121760060259
0.0041468625383597
0.003846959285183
0.0028063099693893
0.0015111497834496
0.0004002154513555
-0.0001320245795728
-0.0001065483822656
-0.0002264229644721
-0.0011195114330775
-0.002305715168867
-0.0023727625577372
-0.0003281692407393
0.0031539613603345
0.0058701817739609
0.0059714202122827
0.0038449887463713
0.0015282211446579
0.0003757537804354
0.0002207969945814
0.000567268347947
0.0012965697044548
0.0021125687887339
0.0023710270239728
0.0017556906577805
0.0006119173870196
-0.0004757920324397
-0.0012017852295629
-0.0016702664357812
-0.0020773858748862
-0.0022503029888193
-0.0016993318004962
-0.0002940827541819
0.0013574131034939
0.0024774595272969
0.0028881844154829
0.0029272928679715
0.0027722114278621
0.0022790605014625
0.0015142193579346
0.0010322534432812
0.0013851799822073
0.0024536928685421
0.003374192616024
0.0032540667319171
0.0021304900898252
0.0010627760108241
0.0009759035786533
0.0016430542572972
0.0021376860424046
0.0019341920748628
0.0012435691364621
0.0006516534952254
0.0006283978586479
0.0011038349982864
0.001578490904596
0.0017553311151757
0.001641812699769
0.0010348801707585
-0.0003727431801588
-0.0023454817772342
-0.0042582164676686
-0.0058413242165451
-0.0072114265813284
-0.0083552590158992
-0.0090914340542226
-0.0094155316126512
-0.0095689042369064
-0.009803139775692
-0.0101138523837164
-0.0101568804039283
-0.0095701705098879
-0.00848871075448
-0.0075816972276268
-0.0074745993582706
-0.0082141195870906
-0.0092309529852581
-0.009613699693897
-0.0085061562541978
-0.0056431912581317
-0.0016835454158424
0.0022079659201268
0.005257863566297
0.0074744058123544
0.009322738029578
0.0113812701417315
0.0140514424763154
0.0169664404303281
0.0188438858194604
0.0185409154940394
0.0161707931739985
0.0128922025440359
0.0099044319116254
0.0077513812954566
0.0061713246676188
0.0045632293594936
0.0027800820640732
0.00121308939207
8.15985809684089e-05
-0.0008479258611847
-0.0018842638006063
-0.0032560962777914
-0.0050872315783115
-0.0069990646179569
-0.0080548787292023
-0.0075872809989116
-0.0058435686948902
-0.0035776506948713
-0.0013536140212249
0.0005491381310204
0.0018922146117819
0.0024481780914762
0.0021646777482875
0.0012401671026984
3.40698907753473e-06
-0.0012796053166962
-0.0024460083586191
-0.0032853747215365
-0.0034884307601588
-0.0029162479834447
-0.0018687997512438
-0.0008685488613169
-0.0001863076803402
0.0001999531051282
0.0002895614542316
6.57317237480831e-05
-0.0003069956084118
-0.0006782485527743
-0.0011191806760164
-0.0016443667784373
-0.002069324708657
-0.0023187415400525
-0.0024301421230047
-0.002272360776265
-0.0017585723084308
-0.0011294553822298
-0.0005764002916285
7.88607984557703e-05
0.0010312984069918
0.0021883710528599
0.0032673443893905
0.0038274958160139
0.0034160760611242
0.0021409720231163
0.0009121413678236
0.0007530996846282
0.0019020097785159
0.0035881007405458
0.0045840356225666
0.0041754951266183
0.0027829051000038
0.0014446587365167
0.000632488084616
-9.95650406439838e-05
-0.0012605531292615
-0.0026797518798063
-0.0038175502451455
-0.0044488259310065
-0.004743578511829
-0.0048790567723733
-0.0048451577675368
-0.0045397693383088
-0.0039060810645948
-0.0030775080864341
-0.0023891758581546
-0.0020317270920788
-0.0017661262649404
-0.0012189614174359
-0.000261564483666
0.0010866462756237
0.0027150220443512
0.0041714792535478
0.0047921769097808
0.0042273658701417
0.0026397006411044
0.0006430064670282
-0.0007978223314889
-0.0009717216531263
-0.0001494287937647
0.000760073317979
0.0012187635899104
0.0012539871685082
0.0009749074768091
0.0004931165001217
9.02481864483896e-05
5.65005463358468e-05
0.0005308289564035
0.0015777294472481
0.0030765916232748
0.0044414739286006
0.0047668766294696
0.0035141785555625
0.0011549473156989
-0.0009055256806008
-0.001333223508141
-7.65492659733171e-05
0.0014946220367952
0.0018349655307854
0.000543356316315
-0.0016208933933411
-0.0037397541727066
-0.0053991488791498
-0.0065437850807628
-0.0072441790864726
-0.0077125928671931
-0.0081231613269892
-0.0083053830398688
-0.0078700288410389
-0.0065652442226247
-0.0043711569266953
-0.0015306074317224
0.0014617122598654
0.004274418365583
0.0070236704878302
0.0098001474732754
0.0122803398184605
0.0140719400817121
0.0148806431383623
0.0142474231620765
0.01192983697111
0.0086638216821683
0.0058084170080763
0.0040966703944234
0.003122924154916
0.0019379141798466
-0.0001350661214998
-0.0030643300159545
-0.0062129103657197
-0.0088462819999533
-0.0104822935945238
-0.0108274653022686
-0.0097953124926166
-0.0077944057384015
-0.0056546322683553
-0.0039530566973172
-0.0025389978618546
-0.0009288209757028
0.0008943662828861
0.0022434570304366
0.0023329074875964
0.0010839720235472
-0.0006928777507023
-0.0019717158558056
-0.0024555193702744
-0.0028075091958751
-0.003881319950835
-0.0058980069491583
-0.0084177046071401
-0.0106924550206668
-0.0119524182688154
-0.011936104106915
-0.0112621005506838
-0.0107355309773076
-0.0103650177332007
-0.009523630179495
-0.0077019011396716
-0.0046970256680094
-0.0006580249966365
0.0036965044284053
0.0075231696818325
0.0107268590884027
0.0138389777657975
0.0169875192938987
0.0194946161452357
0.0205520861234413
0.0200294215926873
0.018607238164961
0.0171958110186782
0.0162154488535199
0.0154486158490074
0.0144450147820587
0.0128289227979587
0.0103662978833032
0.0071594279212131
0.0037842352892247
0.0008886223258591
-0.0013729925919399
-0.0032609050110808
-0.0049066987691287
-0.0062209421521109
-0.0072992815271133
-0.0084485366264791
-0.0097092670515293
-0.0107639159757714
-0.0113948478974983
-0.0116651286416251
-0.0116956669683637
-0.0116019950704854
-0.0114302469113427
-0.0108813338899064
-0.0095156974065083
-0.0074502924263112
-0.0053584867812649
-0.0036628451132759
-0.002132901591247
-0.0002234467278493
0.0023644462014402
0.0051228067392876
0.0067249118862682
0.0061128399666392
0.0036231869697468
0.0006892160170107
-0.0013728013826944
-0.0021010259134295
-0.0019199919030731
-0.0017610345575321
-0.0023244119068745
-0.0035250263970793
-0.0047647414058438
-0.0055777862023411
-0.0058173433767772
-0.005489454031154
-0.0047064524953301
-0.0036679064779021
-0.0024999183633109
-0.001176444529112
0.000363025362567
0.0020926008739846
0.0038370899413664
0.0052291612393831
0.0059145246639155
0.0060710775418495
0.0065420601166127
0.007998706752643
0.0100123336260519
0.0113842523351173
0.0113419314943002
0.0100653874835405
0.0082416283357085
0.006436352442957
0.0046707738026739
0.0024849718429388
-0.0002863609578976
-0.0029567333368126
-0.0046190212352435
-0.0050603261460487
-0.0047275551890611
-0.004172526130571
-0.0037126689202082
-0.0032492843772379
-0.0024233741855214
-0.0012267410656272
-0.0001795923022289
0.0003578492026376
0.000666108505941
0.0012399353329899
0.0021762260638757
0.0030127195083631
0.0029477952057497
0.0014106359776898
-0.0013159693142237
-0.0042442363118158
-0.0066202380405216
-0.0084473657779477
-0.0099906496116602
-0.0111719284647043
-0.0116799113224203
-0.0113608586191862
-0.0102659644385429
-0.0085503879203651
-0.0064997437667183
-0.0044278943367948
-0.0024475578519279
-0.0005766191644115
0.0010113056627432
0.0022582676365431
0.0036160620066942
0.0056466983805123
0.0082858680422063
0.0108360572150216
0.0125278495575784
0.0129788363830312
0.0124328297469852
0.0115904104609406
0.0109850508773105
0.0106594813666402
0.010420322538929
0.0099525477167018
0.0088036628710586
0.0068304715118449
0.0044817463429399
0.0022015517981146
-3.25914497278312e-05
-0.0021911365484063
-0.0037864095456294
-0.0044501616694081
-0.0045060153584271
-0.0045831624274899
-0.0048426076675475
-0.00480429229852
-0.0039738505526243
-0.0026175353285312
-0.0017128592250873
-0.0019220894830219
-0.0028196909889223
-0.00345200764908
-0.0034788852661904
-0.0033600387841859
-0.0035166491368934
-0.0037953388316266
-0.0038618578298617
-0.003731762473726
-0.0037048054117379
-0.0039785957512449
-0.004423864874825
-0.0046530558800757
-0.0044591776361902
-0.0042766371026367
-0.0048216962333418
-0.0061420493341879
-0.007516275268894
-0.0083518142703088
-0.0086285459453885
-0.0085132914647885
-0.0080664636497814
-0.0072361875587074
-0.0059072464827009
-0.0042073025812218
-0.0026658838754044
-0.0016031344127532
-0.0006378141245185
0.0006679512082384
0.0020629104746817
0.0030078958609019
0.0034296185780404
0.003664488172364
0.0039359112587053
0.0041416938486861
0.004058068932874
0.0037607225069472
0.0038770830110777
0.0052101324554852
0.007997088926597
0.0116577655842728
0.0152199369107579
0.0178193572279913
0.0189752004225298
0.0187796338659791
0.0178397922828773
0.0167483594322029
0.0155936966616982
0.0141857357642766
0.0125858170916857
0.011038101090539
0.0095882862908402
0.008270363565259
0.00743865490353
0.0073512535455376
0.0076244028551218
0.0075124401922957
0.0064627150111302
0.0042360006851572
0.0009353658973778
-0.002976111792007
-0.0070092222135886
-0.0109142623109966
-0.0145328965112344
-0.0177775130940083
-0.0207663871095363
-0.0235601388721714
-0.0259381182621407
-0.0277862344481048
-0.0292700520187815
-0.0302247001510531
-0.0298747357349081
-0.0276328370184816
-0.0239517748505081
-0.0201513931743597
-0.0174163944509085
-0.0158349577346579
-0.0143778432438998
-0.0120561402323284
-0.0090405873465958
-0.0062523258218111
-0.0039703641620522
-0.0014658343318221
0.0019068543248691
0.0058577771143766
0.0095895689838007
0.0125625919063621
0.0146401351002348
0.0159638581906454
0.0168888944407338
0.0176366503967332
0.0179544421810763
0.0175367610889136
0.0166679609839793
0.0159604589834943
0.0156427806332776
0.0155303342666998
0.0154539541506174
0.0154229990425218
0.0155452071257812
0.0157886499601892
0.0157200212019844
0.0148026106853973
0.0130442729768974
0.0109381659898711
0.0088731196116644
0.0070825245710547
0.0058572033485577
0.0052635569095946
0.0049757968813009
0.0047554877885401
0.0047110738697964
0.0048875842885624
0.0050268064553264
0.0048604888256311
0.0043384392694247
0.0035566675391221
0.0026181009498512
0.0014564283486692
-0.0002390297024554
-0.0027138039545014
-0.0057929925469653
-0.0090921857327508
-0.0124857265027182
-0.0160231199106117
-0.0194739660365212
-0.0223803526359067
-0.0245423173797175
-0.0260374162717268
-0.026802078395665
-0.0266809239150058
-0.0258771108562349
-0.0248540789082997
-0.0237805669438483
-0.0224348125300882
-0.0205416199470623
-0.0179864121633055
-0.0149605263004344
-0.0119608978039357
-0.009312968066417
-0.0067924685674263
-0.0039748288376914
-0.0006267551676464
0.0034195120511355
0.0082864895900715
0.0137668571999588
0.0192672719148718
0.0238655247959572
0.0263404254508568
0.0258295642763517
0.0228616222994366
0.0192183574680407
0.0164538096825132
0.014833739353413
0.0136706204834512
0.0122605646084485
0.0104910249450763
0.008818515909502
0.0076809676949653
0.0069519436727218
0.0061699781680213
0.0052361424497109
0.0045214082804807
0.0042291166640617
0.0039981413804223
0.003296926679723
0.0019962405179945
0.0004499937710149
-0.0008098544936198
-0.0014502010209406
-0.0016434120013663
-0.0019603268288733
-0.0027492421788073
-0.0037848505067478
-0.0046713358231381
-0.0051977575289719
-0.0051790287643264
-0.0045501680226301
-0.0037914195519607
-0.0036889341965393
-0.004514347033034
-0.0057102284161431
-0.006318428209541
-0.0057941952922484
-0.0048190918297878
-0.0050632265601171
-0.007469544483225
-0.0109442321558742
-0.0132711711588471
-0.013094375061059
-0.0107090533844685
-0.0073463861826748
-0.0041004334464819
-0.0014015436381998
0.0007217025302538
0.0021346153644306
0.0027186996820927
0.0029207446459963
0.0035913094630587
0.0050865299050497
0.0069245071775232
0.0084233790392555
0.0093106104052066
0.0096996664587805
0.0099235528824938
0.0104612502867272
0.0115663520840195
0.012816008313337
0.0133914931510095
0.012909688677621
0.0117004784836199
0.0103539857353392
0.0093138844386775
0.0086453596016812
0.0077923584064358
0.0058864907709159
0.0026693521934026
-0.0011637538894719
-0.004626032249696
-0.0071175959893073
-0.0086235274893096
-0.0096380981320085
-0.0107073106572339
-0.0119209549744655
-0.0131056972681577
-0.0142059321244304
-0.0149663884696559
-0.0147596841680538
-0.0134510177205512
-0.0120360471335438
-0.0118021525799287
-0.0130838214498087
-0.0151397087080855
-0.0169980249335669
-0.0182159723902366
-0.0188805254671235
-0.0189255948256596
-0.0176772406364116
-0.0144432401702443
-0.0094700873173743
-0.00389102089235
0.0012389781378911
0.0054622152794341
0.0086067142196845
0.0105702734222545
0.0115686979342331
0.0121401492523393
0.012682412314648
0.0132458507072357
0.0137872199785298
0.0142559190404896
0.0144674274173116
0.0142951524994972
0.0139238528164256
0.0136127112219322
0.0133762852478072
0.0130448208710327
0.0123686570409039
0.0111286331364456
0.0094993884994564
0.0080867908130159
0.0073210228957663
0.0071527409839914
0.0073990712072622
0.0078542914703901
0.0081411099817729
0.0080099872773774
0.007599694325471
0.0070237391200566
0.0061058192596633
0.0048321655915888
0.003602198965439
0.0027868905098488
0.0023584550812403
0.0019809612007143
0.0012213967333903
-0.0001833889746848
-0.0020492916966721
-0.0038968242344728
-0.0054675390045509
-0.0068638794229341
-0.0081637935346756
-0.0091922322465832
-0.0097325288574397
-0.0097365906517608
-0.0093219302818037
-0.0087808913219582
-0.0085226665789692
-0.0086989332847894
-0.008954214020974
-0.0089161413809573
-0.0088784573671115
-0.0096126924546908
-0.0115141648384436
-0.0141372662364939
-0.0164306093795819
-0.0174076160044234
-0.0169112319123063
-0.0156671732633115
-0.0143518375430151
-0.0129743960318111
-0.0113692831070961
-0.0096359560263656
-0.0078541343040434
-0.0060053826840114
-0.0042415260710291
-0.0026623984141068
-0.0009830387002055
0.0010790407566061
0.00333932842737
0.0054019959820595
0.0070744427423131
0.008358749590087
0.0093254263700662
0.0100669143937244
0.0106426912481563
0.0111998586396051
0.0121855813623635
0.0140792947227588
0.0167412958069799
0.0193066438863124
0.0208587002905614
0.0209950035697814
0.019746326276801
0.0173629493300265
0.0143912017944216
0.0116532022311586
0.0098584712301049
0.0092595001851909
0.0095901013992344
0.0100835568078461
0.0097591736802241
0.0081845918932899
0.0058934827111706
0.0037302322418311
0.0019768288266012
0.0003130566164184
-0.001707494741884
-0.0042741659966268
-0.0071290863602028
-0.0097764535272662
-0.0119523107608567
-0.0136311812491453
-0.0147162883118351
-0.0152048099038805
-0.015405810272799
-0.015511187998224
-0.0153306505476485
-0.0148054551770109
-0.0142339439217043
-0.0136898875286997
-0.0127784901984382
-0.011203805855675
-0.0091552133035004
-0.0070347249359566
-0.0050923560138745
-0.0033167057437936
-0.0015072480006721
0.0004638698367664
0.0023588961122155
0.0036431187357427
0.0039192455008841
0.0032501447667513
0.0020574692622133
0.0007544494136622
-0.0005351319574505
-0.0019153779314325
-0.0033428188870875
-0.004401957649911
-0.0047315506826496
-0.0046765535361477
-0.0049950521421165
-0.0056675560606678
-0.0055852546809459
-0.0038295021303918
-0.0007460217463118
0.0025494301555095
0.0051887968578949
0.0069221194672032
0.008029764078272
0.009008869025293
0.010146020581585
0.0115201385987345
0.0132926240322599
0.0155122934497695
0.0178229218567442
0.0198889178289406
0.0218450996007423
0.023874026732063
0.0255816013668473
0.0260178901951195
0.0241575916167668
0.0195713199492082
0.0130231403151919
0.0061805781459892
0.0003468758835108
-0.0043812489055785
-0.008632889715176
-0.0128513743723314
-0.0169620346559166
-0.0204844111261354
-0.0227669450945856
-0.0234250779638627
-0.0227367750529471
-0.0214351563283435
-0.0200443197281376
-0.018579904258652
-0.0168575269612531
-0.0148177877126193
-0.0125526125965218
-0.0102610351798292
-0.008115312882951
-0.00600175666435
-0.0036575714904172
-0.0012222016960777
0.000779931055822
0.0021402698798018
0.003162642497087
0.0041486198236898
0.0051529795127769
0.0061165419887012
0.006883096988979
0.0072859849399167
0.0073035829233241
0.0068760440847613
0.0058389597672663
0.0044030111679374
0.0032315943091427
0.0026616532726429
0.0023552045876686
0.0019775587460805
0.0016871690691329
0.0017684194274258
0.0022019752229124
0.0027004607243922
0.002932605194828
0.0027343593189492
0.0021829862896258
0.0013543138133669
9.55406695322442e-05
-0.0016669679417361
-0.0034620773093455
-0.0045125548572175
-0.0045259685396195
-0.003966257976103
-0.0034721502425116
-0.0032629854413541
-0.0031482212752464
-0.0028152448745194
-0.0020474009854676
-0.0009264448185547
0.0001773147853292
0.001003652750632
0.0016257854910068
0.0021519129320943
0.0025565970749195
0.0028873224685861
0.003208307356253
0.0033713331954961
0.0032431404843599
0.002985797649728
0.0028493711236946
0.0029736710358202
0.0034147770443275
0.00400102604903
0.0043866884872224
0.0045969845347606
0.0050562064648802
0.0057682996266423
0.0060852757719287
0.0055937093240616
0.0046826118876394
0.0040076212393915
0.0037791910350736
0.0036824693243136
0.0032767317135951
0.0024603558053514
0.0015755396995557
0.0009510672991456
0.000432233969551
-0.0004195719019374
-0.0017597540911408
-0.0033310643993785
-0.0047953818541719
-0.0059392611547056
-0.0066570775572979
-0.0070444620862412
-0.0074525580190157
-0.0081209564439482
-0.0087928595409269
-0.0089981677544772
-0.0086120698776653
-0.0078303608421547
-0.0067881099868976
-0.0055151784794599
-0.0041071798750816
-0.00281748505022
-0.0021087366684788
-0.002373064752138
-0.0033462705319677
-0.0041943766902786
-0.0043860396308619
-0.0040534751517691
-0.0035806208673328
-0.0033760021825043
-0.0037350630563693
-0.0043452062266715
-0.0043448937658848
-0.00331960116342
-0.0017325385298569
-0.0001019420617953
0.0016405938248685
0.0037289539356933
0.0060136060573515
0.0080926219602968
0.0097774293151285
0.0112961866880355
0.0129813181628207
0.014672932344986
0.0155886991616515
0.0150505461177496
0.0132764292319844
0.0112319627708991
0.0097497092216943
0.0089247247895793
0.0082088096657616
0.006881423704784
0.004600526762365
0.0017908042923393
-0.0006143724536307
-0.0020539001047725
-0.0028177850291997
-0.0035517960306977
-0.0046815040125451
-0.0064407010081301
-0.0088794609017896
-0.0115925656609033
-0.0138574444097799
-0.0151202832965229
-0.0151551660052612
-0.014069631515748
-0.0123691406219145
-0.0106196937093862
-0.0090150635116266
-0.0076230009422093
-0.0066865961628228
-0.0061765396115984
-0.0055162056800591
-0.0042452327521284
-0.002549547070144
-0.0008653434716487
0.0006289817010796
0.0020201155609192
0.0035287141876367
0.0053799202523939
0.0075351228381873
0.0095843032261134
0.01103623566983
0.0116562164831823
0.0115305570048571
0.0109494954313825
0.0102287507831241
0.0095360324868017
0.0089023349573502
0.0084219226360525
0.008285360114653
0.0085093021908527
0.0088374805961935
0.0090976562396343
0.0094030996315622
0.0097248318880715
0.0095794110908711
0.0085201267475227
0.0066601705427799
0.0044207506845292
0.0020832740596392
-0.000277058479029
-0.0027814708611974
-0.0056271337399714
-0.0086606306417876
-0.0113341859819905
-0.0133049863395114
-0.0146710230839172
-0.0155633666608781
-0.0160053240519139
-0.0161266088136302
-0.0161130027942107
-0.0160826548008721
-0.0161623772209785
-0.0163638917358614
-0.0163697849823855
-0.0158092883596981
-0.014670498511005
-0.0131764651125719
-0.0114645485056835
-0.0095570945517263
-0.0073495977169489
-0.0045494690934166
-0.0009946254278654
0.0028941534901993
0.0062916213011696
0.0086371591000127
0.0099345371890862
0.0105361046436224
0.010945366748973
0.0116913561906779
0.0129702493121337
0.0143825825403275
0.0152885511728841
0.0153452177558172
0.014515312981469
0.0128953975952667
0.0108742726436742
0.0090883274541398
0.007896460401441
0.0072115133507753
0.0068757966023347
0.0067357080588049
0.0064678230428396
0.005822644966738
0.0048797381498458
0.0038420042725535
0.0029128452408039
0.0023427792671075
0.0021326147684135
0.0018816342832134
0.0013288702138108
0.0006794281722686
0.0001265251364494
-0.00043354957726
-0.0010091830385176
-0.0013471725204858
-0.0013259616887708
-0.0011926242828641
-0.0013442993534092
-0.0019772388042817
-0.0028741850665904
-0.0035848472320966
-0.0039776573964868
-0.0044325523569034
-0.0052345461331333
-0.0060191224191187
-0.0061843967012612
-0.0056982320001172
-0.0051383275612496
-0.005014053813701
-0.0053520379802739
-0.0058785167461929
-0.0063358236608511
-0.006696385322296
-0.0072580769989259
-0.0083387921688871
-0.0097373042640706
-0.0108193083427713
-0.0112007515784115
-0.0109234138662307
-0.0100718704748948
-0.0088004473205704
-0.0075405553733008
-0.0065918535264254
-0.0057283172429166
-0.0045645092661416
-0.0029904027225107
-0.0011481070867656
0.0006394810497531
0.0020262101793819
0.0030433081207687
0.004068071741506
0.005252304387608
0.006423057864307
0.0075585597794395
0.008811785673608
0.010044328314119
0.0107855640139811
0.0106851989793194
0.0098173511490432
0.008647220082869
0.0077680452146416
0.0074827076333465
0.0076078753833079
0.0078088506542318
0.0079986282778976
0.0082179580750263
0.00831925518603
0.0080739692191967
0.0074609409475195
0.0065416753100982
0.0051893393777238
0.0032866105187076
0.0010556398475018
-0.0011448807271766
-0.0031483342541813
-0.0047793546035766
-0.0056199832236698
-0.0053219949073508
-0.0039441411531901
-0.0018944727471597
0.000212603588223
0.0018061570160408
0.0027591792816373
0.0033033010334909
0.0034921707634879
0.0031779687822022
0.0023821040750487
0.0011719344671335
-0.0005447787944065
-0.0026516897802444
-0.0046757808044104
-0.006341198277157
-0.0077957126364162
-0.0091118597235629
-0.0100714357658912
-0.0105862728025592
-0.0109615259173182
-0.0116115053824703
-0.0125834149715795
-0.0133026112233935
-0.0128611612537365
-0.0107887801705387
-0.0075358340994933
-0.0040681451323011
-0.0010945002962807
0.0011879491205562
0.0028166365649757
0.0038492983636968
0.0043972559470379
0.0046731251170507
0.0050193539041005
0.0059001422347308
0.0075115314762173
0.0091720469928643
0.0095676419867507
0.008060346870722
0.0054478205102304
0.0031329658531378
0.0018847614274131
0.0015129760616704
0.0013246445109694
0.0008482405251991
0.0003438282154676
0.0004532293714034
0.0013577125767649
0.0026341376937027
0.0037131257459072
0.0040396397549028
0.0032447099376806
0.0016853186133587
0.000358057953258
-8.96822758167955e-05
0.0001588883261728
0.0006600617131748
0.00120341622197
0.0016841823548974
0.0019636692103882
0.0019807351829561
0.0018289033606246
0.0017032116297388
0.00173546443503
0.0017674939355059
0.0013721705713427
0.0002459951835598
-0.0015085902958859
-0.0035829529215047
-0.0057606135688126
-0.0078592921981888
-0.0095696574049179
-0.0106089737252695
-0.0109599944836439
-0.0108106384293661
-0.0104356826584308
-0.0102336561353457
-0.0104444393311826
-0.0105525903398988
-0.0094416005957152
-0.006492502249307
-0.0022008381547017
0.0023860809416607
0.0064557617627883
0.0097241010092014
0.0123085292056922
0.0142472276576974
0.0151819926245418
0.0148462335856158
0.0136065181057166
0.012053126252757
0.0104318211529918
0.0088741140170932
0.0076518344983613
0.0068303107759937
0.0061279604048258
0.0052999748230689
0.0042800950410992
0.0029648864488071
0.001233068210243
-0.0008304289504186
-0.0029066874042976
-0.004591848618099
-0.0056184339426656
-0.0061021293133669
-0.0064769435824787
-0.0070044220557437
-0.0074772768016137
-0.0075624431787334
-0.0072414269310313
-0.006714551498525
-0.0060774557815397
-0.005353195137949
-0.0046584487320776
-0.0040323662112055
-0.0032717062209412
-0.0022485285104464
-0.0012083262994019
-0.000472519992289
-4.22676265976824e-05
0.000331959115967
0.0008958889272673
0.0016883131241381
0.0023859915781851
0.0025711794901445
0.0022830136293995
0.0019193596839407
0.0016525255448308
0.0014661185253349
0.0014988097235362
0.0017527378830721
0.0018485790728773
0.0015693184370237
0.0011757667920734
0.000871169231334
0.0004942462949382
-6.82238427532222e-05
-0.0006460501105624
-0.0010601333498722
-0.0013320848812681
-0.001632473806
-0.0021283419076829
-0.0027691639274169
-0.0032614970181367
-0.003437676796692
-0.0035273273913905
-0.0038397615865398
-0.0043138350346986
-0.0046102844937155
-0.0045322873024617
-0.0041437085992311
-0.0035837737189313
-0.0029849161882886
-0.0024678821083578
-0.0019959690599676
-0.0013673583640994
-0.0005545922374746
0.0001707134929781
0.0006427404494501
0.0010363384892562
0.0015755211435748
0.0023346085202301
0.0032926948639622
0.0042461117364193
0.0048643613974431
0.0050964483169176
0.0052134760973199
0.0054071892090193
0.0057613710737834
0.0064106568868978
0.007242982898791
0.007804804914928
0.0079078062114407
0.0078718770863804
0.0079316783184522
0.0079480180932617
0.0078396594532426
0.0077842367717065
0.0078881155111646
0.0079757624419481
0.0077322495120113
0.0069558898776954
0.0057532146664817
0.0044578230266925
0.0032399227112475
0.0019238963856033
0.0003310750215988
-0.0013767010745246
-0.0028574571454661
-0.0039248854267013
-0.0045783307612232
-0.0048973190573246
-0.0051265609415294
-0.0057034265429206
-0.0069224140120776
-0.0086442066524185
-0.0104890447916881
-0.0121084716564949
-0.0131446293048653
-0.0133016377820294
-0.0126773632059592
-0.0117470193270395
-0.0109505413289246
-0.0104774907431575
-0.0102836009641539
-0.0101690449339687
-0.0100673570394385
-0.0101379509511471
-0.0102471135296495
-0.0097932973172811
-0.0085321272786198
-0.0070319206128155
-0.0058709325311018
-0.0050005927944741
-0.0042256633011248
-0.0036286413382302
-0.0031685889191664
-0.0023398476190526
-0.0005208287344813
0.0024544273017486
0.0060454392947778
0.0092766765974834
0.0114153785485481
0.0124390614484268
0.0127997338242922
0.0129019357683873
0.0129422287264535
0.0130031078610214
0.0130223366652282
0.0127978079253569
0.0122745649417867
0.0117508579231243
0.0115864221311019
0.0117922197641053
0.0121231286336125
0.0124598678428108
0.0128536923782277
0.0132771099704067
0.0134748728054041
0.0129870812133186
0.0114635046466546
0.009220588185096
0.0071498678269599
0.0056442277991963
0.0040309508498197
0.001491520089859
-0.0019034073615424
-0.0053370191481701
-0.0079759545219838
-0.0095107330554121
-0.0103620247044609
-0.0112604024737559
-0.0124612988416205
-0.0136546573818004
-0.0145714549415195
-0.0151750219752687
-0.0153682138317162
-0.0150445375186094
-0.01437638931672
-0.0137207921677089
-0.013286177094876
-0.0129480065413316
-0.012276757185746
-0.0109057951330671
-0.0090849414869691
-0.0076137395593341
-0.0069439555725143
-0.0066006391288075
-0.0057596433585501
-0.0041342810570601
-0.0020352712338708
0.0001430030515894
0.0021694113626638
0.0039733885068729
0.0057187941147504
0.0076074480025953
0.0093306473429229
0.0101062983661143
0.0095809199437111
0.0083083031111102
0.0071289497070114
0.0064906726054556
0.0064214707887168
0.0067256482323006
0.0072082694977001
0.0078821284526848
0.0087261797251238
0.0093168768731431
0.0091564295025715
0.0082064470559928
0.0067265340896694
0.0049716143752369
0.0033333694561828
0.0022246587439625
0.0015763621534349
0.0009478246653796
0.0002124048123285
-0.0003208074821023
-0.0004495381082032
-0.0003845502611473
-0.000522522269366
-0.0010568767918186
-0.0017793774033724
-0.0023097409354333
-0.0025771123548505
-0.0028834952649595
-0.0034004305516205
-0.0038899618630502
-0.0040856093567724
-0.0040596260533306
-0.0040035476078696
-0.0039078514903323
-0.0036981936608818
-0.0034457347676601
-0.0031903152252268
-0.0028119641460977
-0.0023265637658753
-0.0020076060950519
-0.0019837863821204
-0.0020260701631927
-0.0018566073121421
-0.0013820222199717
-0.0007105646399971
-0.000210065202453
-0.00026050545036
-0.0007401487269292
-0.0011434202488055
-0.0012167772291654
-0.001028390074398
-0.0006373711797464
-0.0001753260272633
9.40600843623946e-05
0.0001544191027102
0.0002502855271319
0.0003733952287345
0.0002520572786607
-9.57380837498522e-05
-0.0002899692440704
-0.0001132219991473
0.0002036835575172
0.0002525272325439
-7.41437086059379e-05
-0.00038315105558
-0.0002043405675356
0.0003453270614714
0.00063582206142
0.0003871107821515
7.1045112356083e-05
0.0002289295301898
0.0007535458827847
0.0011478496930939
0.0011992632641309
0.0010632255834934
0.0009161136938955
0.0008539338256963
0.0009175572640072
0.0009481419431465
0.0006891163172896
0.0002290554990318
-5.40033905972691e-06
0.0001903202369187
0.0005999137960277
0.0008987319963233
0.0008772882283121
0.0006205071617229
0.000656126998002
0.0014889050019445
0.0029237026056749
0.0042975120918914
0.0051931529407533
0.005498100594175
0.0051997846714158
0.0045800708927054
0.0041765893619963
0.0042420279319973
0.0045841460535293
0.0049687251915427
0.005303274484595
0.0054637454019228
0.0052344338442695
0.0044294184945755
0.003049331904956
0.0013748813079547
-0.0002590403934964
-0.0018890495321221
-0.0038254471493314
-0.0059750310591097
-0.007651501974658
-0.0083375170724704
-0.0083371934306426
-0.0084039091321146
-0.0089560028447904
-0.0098737843059274
-0.0107940376845651
-0.0113425459783107
-0.0113280478066913
-0.0109450393638513
-0.0105394150213608
-0.0100641940728951
-0.009104451199243
-0.0074356858116419
-0.0051784226666328
-0.0025861316342615
-8.42995636466107e-05
0.0018274852369902
0.0030927090297522
0.0041459663560499
0.0052726661543956
0.0063117651614853
0.0069617844838699
0.0070689780752315
0.0068290239553483
0.0068435981210836
0.0075592279718219
0.0085822238090371
0.0089585302218596
0.0080871902676059
0.006104340325051
0.0036538751361973
0.0015308065807498
0.000231160245985
-0.0003230702950377
-0.0003951268135881
0.0001190207617997
0.0014872722474632
0.0035218753247064
0.0055692853146038
0.0070507012349315
0.0077350398277027
0.007629268404517
0.0068947174760476
0.0057484412392144
0.0042241183606213
0.002210866566546
-0.0001019360280529
-0.0021397586792899
-0.0035121857594943
-0.0042929339415653
-0.0045989869888428
-0.0044139419763179
-0.0039796529219024
-0.0038475395110105
-0.004405648814159
-0.0056094097291981
-0.0070161984708628
-0.0079555170009372
-0.0080215909040283
-0.0074245979704481
-0.0065609563386013
-0.0055244749811218
-0.0043393043915982
-0.0031777453341569
-0.0020689885237376
-0.0008982124104321
0.0001996668100838
0.0009408719768833
0.0013462384574638
0.0016660117347569
0.0019603820764301
0.0020371043680643
0.0016847671612483
0.000898675484179
3.33959797525712e-05
-0.0003851245755991
-0.000232489129712
9.15038082223053e-06
-0.0001274430337344
-0.0004746832102863
-0.0005045248881682
-2.84256241485871e-05
0.000671156000393
0.0012614569966334
0.0016315509130643
0.0018619730597678
0.0021421904038932
0.0025685445887925
0.0029034496229931
0.0028078913075913
0.0023684652276422
0.0020255367052524
0.0020148593478661
0.0022669502870184
0.0026467031868379
0.002898522699057
0.002691105933983
0.0020260117920825
0.0012604527952776
0.0006899218944879
0.0004585445240741
0.0006187567122125
0.00091096843055
0.0008814568080637
0.0004640413576653
-1.26515712374893e-06
-0.0003502440796615
-0.0006816831541042
-0.0009583649809784
-0.0010126275753668
-0.0008657400166514
-0.0007349073321707
-0.0008077634453291
-0.0010924268335584
-0.0013734209228581
-0.0013967605701236
-0.0012313567812378
-0.0012547912549948
-0.0016321414732297
-0.0020572603073086
-0.0021817044540925
-0.0020388327596477
-0.0018499065100672
-0.0016732278355186
-0.0014762056042832
-0.0013109086578457
-0.0011815672105579
-0.0009833062201601
-0.0007527968486391
-0.0006634035358089
-0.0006634147538521
-0.0005065452683674
-0.0001418593486932
0.0003220614812561
0.0008553875011438
0.0013332978686892
0.0014681683347965
0.0012126370888013
0.000860168124607
0.0006712801263386
0.0007362770386125
0.000999680212118
0.0011367769317358
0.0008123620327752
0.000226848168445
-0.0001017008502329
-9.71209152236143e-05
-0.000106020743239
-0.0002198378778575
-0.0001603965763711
0.0002088615763589
0.0006148720160442
0.0006326162891706
0.0001456439542841
-0.0004424506124739
-0.0006198480850824
-0.0004372530972691
-0.0004487643711804
-0.0008931216299829
-0.0013568229205187
-0.0014305611124927
-0.0012555816834672
-0.0011350679750668
-0.0010052799051039
-0.0006569896668108
-0.0001581616854243
0.0002955112273554
0.0006357725413197
0.0007459241217677
0.0004416510038476
-0.0001064200328402
-0.0003648650937784
-4.32274634619147e-05
0.0006348332422962
0.0012265852655435
0.0013631294248708
0.0009839894224206
0.0004449400619476
0.0001101368063614
-5.48660669930727e-05
-0.0001760172338274
-0.0001620431041549
-3.98338333200474e-05
-6.08668374001364e-05
-0.0002232439014383
-0.0002455943805613
-9.7485876094502e-05
-1.51354985698881e-05
-2.53102202765979e-05
9.65819524857676e-05
0.0004611705262314
0.0009179001145542
0.0011997697624854
0.0011865281250157
0.0011243638644584
0.0014295213563956
0.0021355868243608
0.0027871697356627
0.0030356590115865
0.0030405896625521
0.0031007368921898
0.0031936872342717
0.0031167879210712
0.0028469220277039
0.0025274873423641
0.002278742731697
0.0021789431661797
0.0022102750866126
0.0021360194718672
0.0017462432375743
0.0012278198439355
0.0008697212643049
0.0005023195499682
-0.000267283683936
-0.0014280420918949
-0.0026202849448376
-0.0035950859077215
-0.0043485057231534
-0.0050412863495576
-0.0058218621593025
-0.0065805883836743
-0.0071420273049072
-0.0076811425993099
-0.008345219251884
-0.0085805503864116
-0.0076693666410351
-0.0058467633766648
-0.0041057935461928
-0.0030269241008804
-0.0024404164684719
-0.0020637495016581
-0.0019158740864536
-0.0021113579060334
-0.0024981367387015
-0.0025825846487049
-0.001916271699555
-0.0005676156239627
0.0010195239832103
0.0026377012607995
0.0044027853202805
0.0061400880528612
0.0071492211030635
0.0068891031849092
0.0056424413304617
0.00425790968939
0.0034257414660062
0.0033282065235021
0.0036800011080051
0.0039308613695081
0.0037253470431467
0.0032609424506222
0.0029358680929228
0.0027893608109691
0.0026158518982426
0.0023139908066658
0.0018116348230051
0.0010891838826306
0.0004845849305533
0.0004976967700515
0.0012449982793462
0.0024428111830675
0.0036730038823741
0.0044373992762565
0.0044209994162812
0.0038326633769561
0.0030119423012715
0.0018261169086965
1.41798571070233e-05
-0.0020793605825377
-0.0036494054907082
-0.0041856479122455
-0.0038069786479069
-0.0030004518425062
-0.0021527707899343
-0.0012677147717939
-0.000231254964449
0.000646652566103
0.0007201812494828
-0.0002067246629639
-0.0015504788572737
-0.0026171313092423
-0.0032950417469007
-0.0038926291580649
-0.0046058497556885
-0.0053816008676858
-0.006031955083269
-0.0062703786877449
-0.0059182790775172
-0.0052082477538668
-0.0045239388207445
-0.0038170873814758
-0.0027392021746007
-0.0012682577824856
0.0002667675076139
0.0015619960167466
0.0023471631394402
0.002404425125817
0.0018885545380302
0.0012794461253666
0.0009787120066339
0.0012108108540167
0.0019832887411996
0.0028689986551634
0.0033080617965816
0.0032847157535578
0.0032077184069239
0.0031953029836941
0.0030421057175713
0.0027333844415115
0.0024644075852117
0.0022753668893397
0.0020104448553407
0.0015475335717616
0.0009496253373928
0.0004717832750684
0.0003528659630924
0.000504128009455
0.0005627312907007
0.0003332993858284
-3.46830897679345e-05
-0.000353010596449
-0.0006053336419658
-0.0007921923456363
-0.0008602274048974
-0.000868819969585
-0.000929711578139
-0.0009338353178427
-0.0007209403841461
-0.0005368598752955
-0.0008027912986402
-0.001392946135285
-0.0017061958287647
-0.0014621038822252
-0.0009234297935678
-0.0004513500772975
-0.0002503084064126
-0.0003381966204117
-0.0005300185561232
-0.0006591061352503
-0.0007531508501417
-0.0008061399385173
-0.0007322220354077
-0.0006904655967488
-0.0009317683560435
-0.0012906872023162
-0.0014091326309537
-0.0013521637186571
-0.0014269932546407
-0.0015838186148934
-0.0015000521351317
-0.0010964733007456
-0.000646035911482
-0.0004722019974979
-0.0006245820886989
-0.0007701988910069
-0.0005137142655513
8.50972098431635e-05
0.0005439560082907
0.0006170413328114
0.0006210155830032
0.0009369245663336
0.0014816164436818
0.0018984373820915
0.0020485389916012
0.0020956234495412
0.0022696646170726
0.0026825062839656
0.003189076083958
0.0034088046484385
0.0031705566254121
0.0028510296960037
0.0028910642455213
0.0031853572789567
0.0033779099583122
0.0034124333921357
0.003365854813222
0.0031494922497553
0.0026931361014719
0.0020781637956628
0.0014367364211897
0.0009650343318953
0.000788109953234
0.0006704485290134
0.0002987137356008
-0.0001665400495815
-0.0003668298901106
-0.0004189045775463
-0.0007374290171415
-0.0013566055544596
-0.0018827176401956
-0.0019850227195857
-0.0017214323386702
-0.0015230461349425
-0.0018380447787503
-0.0026119962144575
-0.003285801086623
-0.0034943994799417
-0.0035130733562429
-0.0038122672425338
-0.0044414187972859
-0.0050649793094717
-0.0053855932057757
-0.0053564282944803
-0.005174997838711
-0.0051893111940268
-0.0055688140656309
-0.005977220893937
-0.0058795410792392
-0.0052194703621665
-0.0044033407810304
-0.0036420374608404
-0.0027714766507482
-0.0016203396821756
-0.0001353949745861
0.0016029925313153
0.0031659946654543
0.0039723225881598
0.0039119347813876
0.0034183664028834
0.0029722350947271
0.0028157381547431
0.0028403193745549
0.0025719980728023
0.0017437807718706
0.000918281467559
0.0010136140161195
0.0023030806498266
0.0042969382716508
0.0063032946800003
0.007720645238902
0.0081536243081413
0.0076259258511664
0.0065245488259167
0.0052621744960831
0.0041197501222952
0.0032250259476414
0.002434636504903
0.0014411993949826
0.0002308519249948
-0.0007748751163541
-0.0012350850520399
-0.0013171625980858
-0.0013840289711672
-0.0014717197508469
-0.0013435211132242
-0.0008995651708195
-0.0002799180869596
0.0003172639483615
0.0007524519652115
0.0010014544119894
0.0011189233396358
0.0010127659154008
0.000450945925316
-0.0005241267123122
-0.0015518305002791
-0.0024672394010958
-0.0033723954239934
-0.0041744076704291
-0.0045943328258722
-0.0045334316187416
-0.0040173867572269
-0.0030902056123197
-0.0020284153441112
-0.0012036461807594
-0.0006222030778469
-6.37078401079999e-05
0.0004133989778682
0.0005582024788226
0.0003455768321091
-3.18583531781965e-05
-0.0003997832302477
-0.0006717970008698
-0.0008851896221883
-0.0011750661085531
-0.0015458512631569
-0.0018076940862088
-0.0018889391226103
-0.0019684892782948
-0.0021279245177791
-0.0021311983607354
-0.0017394831246208
-0.0010459805546687
-0.0003470314772941
0.0001601008422097
0.0004677224618923
0.0007345228307363
0.0011977898992448
0.0018449459777355
0.0022103355305933
0.0018793471497654
0.0011145527426953
0.0005486848995724
0.0004234149311495
0.0005422154383331
0.0006828631049119
0.0007126916414126
0.0006326503722305
0.0006512217182214
0.0008921495417894
0.0011682720434509
0.0013152133679234
0.0013592113968931
0.0011954868166087
0.0006724944552752
5.35308915003653e-05
-0.0002056985157375
-8.54842988369648e-05
9.65313221325944e-05
0.0002185337255529
0.0003541648812468
0.0004477731924424
0.0003292810789225
-3.1677897375362e-05
-0.0004036428873266
-0.000417015692921
7.37559212298216e-05
0.0007126345646029
0.0009385328721178
0.0006175902229779
0.0001515417520788
-8.12787781981133e-05
-0.0001181216689568
-0.0001663878903754
-0.0002503573559713
-0.0002476382578523
-5.38286885480595e-05
0.0003880046531602
0.0009732407101046
0.0013232048745227
0.0011181081927837
0.0005398024894431
8.60505011485204e-05
9.44991549000523e-05
0.0006647178395437
0.001650418438041
0.002527865807134
0.0027735835847298
0.0024672743145644
0.0020728423440544
0.0017839039098807
0.0014817133525102
0.000999698247753
0.0001779720052143
-0.0009191425988831
-0.0018196921283792
-0.0021493896593095
-0.002157459684151
-0.0023047362510536
-0.0026167452089652
-0.0028277614681213
-0.002885731797131
-0.0030316497357723
-0.0035287734692553
-0.0043697862347525
-0.0051636375925593
-0.0054529561603825
-0.0052279386362545
-0.0048858000955946
-0.004620674777466
-0.0041882139862966
-0.0033837667958476
-0.0023974018890693
-0.0015200279777945
-0.0008071243785774
-0.0001860267905993
0.0004580393877914
0.0014566719800778
0.003169647047206
0.0053906032002195
0.0073400449595903
0.0083965438379487
0.0084911322335966
0.0078632652825711
0.0068507827938396
0.0057832618134165
0.0047660989876688
0.0036947114148483
0.0024721242532832
0.0010303161033616
-0.0005435739420921
-0.0017203024675794
-0.001935875824123
-0.0014333273378193
-0.0010582662890255
-0.0011991165224241
-0.0015523877896761
-0.0017985763834664
-0.0019010000403182
-0.0018685351412284
-0.0016762789606907
-0.0013748717594312
-0.0011378429379419
-0.0012461919139256
-0.0018698638814628
-0.0027128247450423
-0.0031394407048692
-0.0028573052211931
-0.002212811039934
-0.00165013855525
-0.0011847941076124
-0.0006068616499377
7.65847546770445e-05
0.0006450473557981
0.0009427259885278
0.0009939155282121
0.0009973473937902
0.0012539722708318
0.0018396639733174
0.0023611137215774
0.0024064178750942
0.0021646558839252
0.0021515020100815
0.0024628224000045
0.0027465985400938
0.0027156327582246
0.0023611329153965
0.0018814219964629
