0.0010136140161195
0.0023030806498266
0.0042969382716508
0.0063032946800003
0.007720645238902
0.0081536243081413
0.0076259258511664
0.0065245488259167
0.0052621744960831
0.0041197501222952
0.0032250259476414
0.002434636504903
0.0014411993949826
0.0002308519249948
-0.0007748751163541
-0.0012350850520399
-0.0013171625980858
-0.0013840289711672
-0.0014717197508469
-0.0013435211132242
-0.0008995651708195
-0.0002799180869596
0.0003172639483615
0.0007524519652115
0.0010014544119894
0.0011189233396358
0.0010127659154008
0.000450945925316
-0.0005241267123122
-0.0015518305002791
-0.0024672394010958
-0.0033723954239934
-0.0041744076704291
-0.0045943328258722
-0.0045334316187416
-0.0040173867572269
-0.0030902056123197
-0.0020284153441112
-0.0012036461807594
-0.0006222030778469
-6.37078401079999e-05
0.0004133989778682
0.0005582024788226
0.0003455768321091
-3.18583531781965e-05
-0.0003997832302477
-0.0006717970008698
-0.0008851896221883
-0.0011750661085531
-0.0015458512631569
-0.0018076940862088
-0.0018889391226103
-0.0019684892782948
-0.0021279245177791
-0.0021311983607354
-0.0017394831246208
-0.0010459805546687
-0.0003470314772941
0.0001601008422097
0.0004677224618923
0.0007345228307363
0.0011977898992448
0.0018449459777355
0.0022103355305933
0.0018793471497654
0.0011145527426953
0.0005486848995724
0.0004234149311495
0.0005422154383331
0.0006828631049119
0.0007126916414126
0.0006326503722305
0.0006512217182214
0.0008921495417894
0.0011682720434509
0.0013152133679234
0.0013592113968931
0.0011954868166087
0.0006724944552752
5.35308915003653e-05
-0.0002056985157375
-8.54842988369648e-05
9.65313221325944e-05
0.0002185337255529
0.0003541648812468
0.0004477731924424
0.0003292810789225
-3.1677897375362e-05
-0.0004036428873266
-0.000417015692921
7.37559212298216e-05
0.0007126345646029
0.0009385328721178
0.0006175902229779
0.0001515417520788
-8.12787781981133e-05
-0.0001181216689568
-0.0001663878903754
-0.0002503573559713
-0.0002476382578523
-5.38286885480595e-05
0.0003880046531602
0.0009732407101046
0.0013232048745227
0.0011181081927837
0.0005398024894431
8.60505011485204e-05
9.44991549000523e-05
0.0006647178395437
0.001650418438041
0.002527865807134
0.0027735835847298
0.0024672743145644
0.0020728423440544
0.0017839039098807
0.0014817133525102
0.000999698247753
0.0001779720052143
-0.0009191425988831
-0.0018196921283792
-0.0021493896593095
-0.002157459684151
-0.0023047362510536
-0.0026167452089652
-0.0028277614681213
-0.002885731797131
-0.0030316497357723
-0.0035287734692553
-0.0043697862347525
-0.0051636375925593
-0.0054529561603825
-0.0052279386362545
-0.0048858000955946
-0.004620674777466
-0.0041882139862966
-0.0033837667958476
-0.0023974018890693
-0.0015200279777945
-0.0008071243785774
-0.0001860267905993
0.0004580393877914
0.0014566719800778
0.003169647047206
0.0053906032002195
0.0073400449595903
0.0083965438379487
0.0084911322335966
0.0078632652825711
0.0068507827938396
0.0057832618134165
0.0047660989876688
0.0036947114148483
0.0024721242532832
0.0010303161033616
-0.0005435739420921
-0.0017203024675794
-0.001935875824123
-0.0014333273378193
-0.0010582662890255
-0.0011991165224241
-0.0015523877896761
-0.0017985763834664
-0.0019010000403182
-0.0018685351412284
-0.0016762789606907
-0.0013748717594312
-0.0011378429379419
-0.0012461919139256
-0.0018698638814628
-0.0027128247450423
-0.0031394407048692
-0.0028573052211931
-0.002212811039934
-0.00165013855525
-0.0011847941076124
-0.0006068616499377
7.65847546770445e-05
0.0006450473557981
0.0009427259885278
0.0009939155282121
0.0009973473937902
0.0012539722708318
0.0018396639733174
0.0023611137215774
0.0024064178750942
0.0021646558839252
0.0021515020100815
0.0024628224000045
0.0027465985400938
0.0027156327582246
0.0023611329153965
0.0018814219964629
0.0015078422213476
0.001232583420985
0.0008962687329735
0.0006059946913994
0.0005747222562979
0.0005694569656822
0.0001797261221453
-0.0004691034050102
-0.0009372345129086
-0.0012053111846105
-0.0015918243214263
-0.0021664947522265
-0.0027145296549378
-0.003111798093741
-0.003459082931715
-0.003934423791697
-0.0045749666825266
-0.0051582185493806
-0.0053865905382114
-0.0052154755987107
-0.0048499446548728
-0.0044327983609466
-0.0039167971634529
-0.0031828728011199
-0.0020613655234012
-0.0003377301265602
0.0019226660345404
0.0040701511685363
0.0052679967616858
0.0052667591419353
0.00448888068073
0.003433371943454
0.0024404145452396
0.0018956450667441
0.0020690270406253
0.0027623860830681
0.0034586815353851
0.0036686814946388
0.0030961253172169
0.0019328204835078
0.0009568864318153
0.0008293424069592
0.0014187590902714
0.002113559765483
0.0024145861334273
0.0020763571879678
0.0012134871026624
0.0003315892142837
-0.0002108004336018
-0.0006449519666257
-0.0013509668193522
-0.0022779156823763
-0.003091706894445
-0.0035824715710993
-0.0037343989142328
-0.0036292726570451
-0.0033379791601983
-0.0027822593577711
-0.0018207088051106
-0.0005739226319302
0.0005364051525373
0.0011782060278816
0.0013530943549033
0.0012113512628285
0.0008640298320704
0.0004312556257471
1.43900661282877e-05
-0.0004393232335751
-0.0009573210375501
-0.0012185673476839
-0.0008184440004146
0.0001135918635339
0.0010131464495102
0.0015821383171361
0.0019365389346288
0.002170715481996
0.0022102065507155
0.001959887744201
0.0013746016824152
0.000580794383376
-0.0001245369047251
-0.0006326126747051
-0.0011065988101938
-0.0015738405702888
-0.0019131992037902
-0.0022306505289172
-0.0026589062832016
-0.0029750454946861
-0.0030099065674203
-0.0030538411979448
-0.0032448719874352
-0.0029799430638028
-0.0015369680014701
0.0009499363176183
0.0034872028444343
0.0050532595189106
0.0053258905676036
0.0047482169644695
0.0039913846860268
0.0033871112655541
0.0028854821444434
0.0023796963717311
0.0018552237791328
0.0013082297231667
0.0007467434314039
0.000244161090474
-0.0001883748403261
-0.0006984283947057
-0.0013162020391032
-0.0017106065309266
-0.0016131559500683
-0.0013839494124378
-0.0016485396355694
-0.0024205886822004
-0.0030944986724981
-0.0032609741627954
-0.0031225731909009
-0.003182480188587
-0.0037211467103057
-0.0044621803818038
-0.0048230999555683
-0.0045901271702732
-0.0039906297465257
-0.003117530086778
-0.0019485188162478
-0.0008607792052767
-0.0003054091410778
-6.76161909164016e-05
0.0004070918733281
0.0011538462110496
0.0017740693960852
0.002117890928083
0.0023887293282929
0.0027355533390097
0.0030207273321049
0.0029683755895144
0.0025497587097674
0.0021958772731353
0.0023995757472111
0.0030937562449683
0.0037197687168638
0.0039270743983554
0.0038816715073761
0.0038606761308113
0.0038983892809169
0.0039376696836384
0.0040164488398777
0.004140507781458
0.0042126074845796
0.0042145706159391
0.0042183342409426
0.0041531753254583
0.0038400493267112
0.0032651785947558
0.0025761851740651
0.0019125202325486
0.0013963928729506
0.0010557032195292
0.0007197850231036
0.0002621572654678
-0.0002312409051387
-0.0007622285270191
-0.0014529140671596
-0.0021319293826047
-0.0024980329812038
-0.0026954547985297
-0.0030338208114785
-0.0033147644686152
-0.00316596638021
-0.0027878619686809
-0.0027030623890658
-0.0029893094272636
-0.0032652337915323
-0.0033117985026148
-0.0034216844568883
-0.004125470803416
-0.0055905561217519
-0.0073471690816449
-0.0087629973594396
-0.0096899668773497
-0.0103736208963115
-0.0108696718359714
-0.0109650233569336
-0.0106141202131587
-0.0100001146709285
-0.0091261898580261
-0.0077735438465754
-0.0059669763912124
-0.00410139008827
-0.0025097811689817
-0.0012576674169667
-0.0003756975427621
9.0583130399968e-05
0.0002339576936281
0.0002133583334433
0.0002096124721046
0.0005332884544695
0.0012918146956756
0.0019361634620353
0.0018113240683816
0.0012058998289582
0.0013265861895776
0.0032502253623693
0.0070332753091867
0.0114898553409214
0.0148616747485373
0.0162117603648504
0.0161012170116509
0.015637144062343
0.0153078725678925
0.0150537545532373
0.014852709031926
0.0147561301515962
0.0146826232721927
0.0144622968612008
0.0139684909341376
0.0132044744381043
0.0123132380851684
0.0113441108625441
0.0100141886381553
0.007975554543768
0.0053337342563236
0.0026204838434535
0.0002370287160692
-0.0018124763709152
-0.0036582652787362
-0.0053674807319614
-0.0070288603555902
-0.0086908905736943
-0.0102107157294204
-0.0115505071095069
-0.0131458307721543
-0.0154384111189734
-0.0180655729232826
-0.0200050198096342
-0.0204630625294834
-0.0193392561614848
-0.0171311723106325
-0.0146408556548717
-0.0124625034594365
-0.010653726076987
-0.0090382030476525
-0.0075324997030565
-0.0060391735919289
-0.0044890151727736
-0.0030584006945186
-0.0018905327450043
-0.0007280644691024
0.0007511532285768
0.0024734549140324
0.0041287845164412
0.0054453427005243
0.0061415498695354
0.0059775310060384
0.0049912627034088
0.0035156627923325
0.002018471727667
0.0009543699200561
0.0004762239578768
0.0001948153699291
-0.0004510079451605
-0.001447730086332
-0.0020691936295627
-0.0015846109340938
6.0017029670685e-05
0.0022777151877214
0.0043376217775587
0.0057889389929207
0.0066346119951836
0.0071953312284797
0.007680112086293
0.0079470886437237
0.0078376213303624
0.0074910374935548
0.0070584459074968
0.006426795397673
0.0054529429681394
0.0040886063289461
0.0022358972553388
-2.52143629096153e-05
-0.0021515227426622
-0.0035191994935261
-0.0038936681768995
-0.0033364463533915
-0.0020848704948017
-0.0005857561310534
0.0008023163585231
0.0020114473030504
0.0028397351070833
0.0027681833278237
0.0016183295845251
-2.89845722728105e-05
-0.0014165132366881
-0.0023146754507333
-0.0029861712356093
-0.0036960383524242
-0.004377326201319
-0.0047568988469608
-0.0048064605950304
-0.0048490215132774
-0.0049723673518985
-0.0045994656396425
-0.003088941638371
-0.0006579945264459
0.0016784116391401
0.0030051944179355
0.0030568218649378
0.0021383939252146
0.0009964218412262
0.0005858216142269
0.0013835455973116
0.0029571936670001
0.0045650236639307
0.0059300399289316
0.0071100207380291
0.0080904070593727
0.008872944540585
0.0094759537997078
0.0096482642513353
0.0090702353843325
0.0078248216858415
0.006280592653542
0.0047395853848759
0.0033949861921708
0.0021889230372399
0.0006741707989382
-0.0014728908076779
-0.0039315777713681
-0.0061872099404741
-0.0082084971911117
-0.0102632644121411
-0.0123695896900389
-0.0142357582318054
-0.0155173771319252
-0.0159958841316239
-0.0156515312459373
-0.0145918441868902
-0.0129230066315872
-0.0108414786734938
-0.0087684902888128
-0.0070880523060157
-0.0057621886593552
-0.0044697351221823
-0.0030815208263969
-0.0017269098006531
-0.0004475627194925
0.000896094481876
0.0023694554348682
0.0038910413818485
0.0053699751234821
0.0066182661133207
0.0072513840337626
0.0070524512730713
0.0063122848705193
0.0055182320470917
0.0049228010317977
0.0045502138593641
0.0042578422476154
0.0037882391395605
0.003141692011949
0.0026811777578954
0.002558246445319
0.0024897772543802
0.0023052210849902
0.0021300985062286
0.0020095202690658
0.0019762136858085
0.0023229683121825
0.0032177993357653
0.0043294162887048
0.0052968642870075
0.0062254203231162
0.0073630803953219
0.0085704860116772
0.0093514856097333
0.0093002047503036
0.008469830592619
0.0072708548393053
0.0058960838550433
0.004028580588929
0.0014620061901202
-0.0011627747068242
-0.0027745194604254
-0.0030724672508737
-0.0028779142076008
-0.003197438932411
-0.0043116290023829
-0.0058602044281851
-0.0073793123427479
-0.0085498740950285
-0.0092277348139882
-0.0093892832671633
-0.0089201196681451
-0.0076028125748497
-0.0055103071458446
-0.0031556452154761
-0.0011206162738073
0.000175889316217
0.0005112350424621
0.0001673210086319
-5.94115116175627e-05
0.0003421229875027
0.0010723704842265
0.0015036932423806
0.0012252333994339
0.0001058333553933
-0.0016168794297482
-0.0033555167630602
-0.0046682761411245
-0.0055386819404155
-0.0059855132628121
-0.0058046212426581
-0.0048919698052164
-0.003517270535363
-0.0021857208049136
-0.001342749999757
-0.0010758635051989
-0.0010235849721638
-0.0007797261406658
-0.0003802840870707
-0.0001493684752063
-0.0001817952985424
-0.000322867607074
-0.0005361354864964
-0.0008644165722198
-0.0010837857719015
-0.0008397688490419
-0.0001184660328852
0.0008301423786054
0.0019583333754992
0.0033293445733366
0.0046867458057753
0.0056570286398341
0.0062578558877955
0.0067593591525223
0.0072609608232646
0.0077153632069101
0.008064590948859
0.0082100038284497
0.008114322724496
0.0077949136076667
0.0070327921210999
0.0055259501134981
0.0034815450591146
0.0015358355473122
6.12636460462511e-05
-0.0010109796321006
-0.0018957440187411
-0.0028404878044966
-0.0039193236160543
-0.0046695844286131
-0.0043761598575055
-0.0029222373153006
-0.0010415685653389
0.0003222242392479
0.0007601997206783
0.0007009093365233
0.0011063560057717
0.0025969492990292
0.0047592426251741
0.0065153739641136
0.0071289310386744
0.0066073583916348
0.005295031851104
0.00352461909965
0.0016490554699414
-7.18092685931565e-05
-0.0017830095450326
-0.0038848861918053
-0.0064319943541407
-0.0089695709018748
-0.0109909029141533
-0.012231750714485
-0.012593109228579
-0.0121584182578039
-0.0112341478916418
-0.0101515294073084
-0.0091091719826878
-0.0081447080504112
-0.00704945442144
-0.0055291329169343
-0.003628214681617
-0.0016743902356617
0.0001870640658801
0.001973338617815
0.0035705239378667
0.0048986438333454
0.006034908711849
0.0068316027354371
0.0068680827646593
0.006031419348547
0.0047010214022194
0.0032744108142401
0.0019295649161546
0.000814797311181
8.64378287986921e-05
-0.0002047987725154
-6.77360157347823e-05
0.0004402897060484
0.0010635458600434
0.0014209275084053
0.0013878592908395
0.0012345358637272
0.0012426465217183
0.0013181987701094
0.0011263726991835
0.0005196794422132
-0.0002846668996731
-0.0008975965019471
-0.0011085503109732
-0.0011269512226472
-0.0013659178149237
-0.0018341683895591
-0.0019558343445663
-0.0011772155657742
0.0004905244970573
0.0025507800706448
0.0042752996750259
0.0050190966575435
0.0047138524809751
0.003815962511208
0.0025134492991014
0.0004756442328675
-0.0024187206262126
-0.0056514177236583
-0.0084737664415649
-0.0103841998277012
-0.0113062256908156
-0.0114866079018478
-0.0109934499287164
-0.0093985215924494
-0.006369047299587
-0.0023709240760859
0.001692307623652
0.0053422804874658
0.0087056957598435
0.0121169806003652
0.0157583146751193
0.0193776522896099
0.0222144087584067
0.0234795277254531
0.0230009241754548
0.0212346788601081
0.0187165231331911
0.0157238079893545
0.0123677727928082
0.0087108847274519
0.0047986609732162
0.0007851500596719
-0.0030692109185645
-0.006722205067701
-0.0104124888621028
-0.014097725940943
-0.017150180811797
-0.0189194077187856
-0.0192656250058349
-0.0184227180994436
-0.0168159209754674
-0.015007603524415
-0.0132974693494897
-0.0114418792096493
-0.0090766696452481
-0.0061755146170261
-0.0030337091265936
-0.0001945694112228
0.0017495057572089
0.0026900847423163
0.0030496942409307
0.0030708887802478
0.0026016915073689
0.0017504853038457
0.0010536432316367
0.0007241522141226
0.0002657591222663
-0.0008981140960086
-0.0026480836396687
-0.004158564164794
-0.0046667163789148
-0.0042663086942177
-0.0037946652499022
-0.0038416489368491
-0.0041539008903283
-0.0042153525435248
-0.0040399036357325
-0.0040080422411455
-0.0042010208213015
-0.0043244610741511
-0.0040673614115289
-0.0031179600739115
-0.0011173102716625
0.0018613168159955
0.0050225243474344
0.0075264924300298
0.0091735860583926
0.0100783932742648
0.0101988129645835
0.0096118166016166
0.0087965058716815
0.0083329218594419
0.0085241964748486
0.0091957998055916
0.0096980061314165
0.0094439758838381
0.0084891059389703
0.0071938287034185
0.0055782420726985
0.0035506632471003
0.0014282570590927
-0.0002865989929555
-0.0013493582188918
-0.0017326239950208
-0.0015118439638413
-0.0009330182422283
-0.0003247197907051
3.72567733500943e-05
-0.0001314292649159
-0.0010187141778693
-0.0023599358000128
-0.0035141608821576
-0.0041296805426629
-0.0045132142568618
-0.0051658125170249
-0.0061237182388158
-0.0069113391091247
-0.0070206550227535
-0.0062738280841822
-0.0047627757787282
-0.0025826612442236
0.0002624998833908
0.0035661960390752
0.0065532773562282
0.0081713956799912
0.007981977160956
0.006456009361297
0.0042559463422146
0.0016948778365612
-0.0010338421819144
-0.0037431500374695
-0.0064997769900889
-0.0094742812836135
-0.012471629608181
-0.0147971985565926
-0.0155059116280924
-0.0140408204466235
-0.0110494782089585
-0.0081504699156308
-0.0063588247128142
-0.0052256951256004
-0.0039474427584355
-0.0026660167438422
-0.0021572300804617
-0.0026501587483001
-0.0033362739392834
-0.0029510752124779
-0.000788306044863
0.0028443657214057
0.0071660159263526
0.0116234372962866
0.0158339057221108
0.0192980215988264
0.0217337290389273
0.0234495754214248
0.0248417341988583
0.0256484209934866
0.0251465677213224
0.0229521499399083
0.0192028101784616
0.0141314533796369
0.0080005363097503
0.0013708644428169
-0.0050956276647224
-0.0110560604098203
-0.0163292370252589
-0.020547492165962
-0.0233546299074617
-0.0246998891165106
-0.0247075643923038
-0.0235524260661615
-0.0214950498755573
-0.0187320547207571
-0.0152967865715637
-0.0112236590995023
-0.0065939433700734
-0.001627203352839
0.0028755331727899
0.005684296814566
0.0063789746741417
0.0060027901015186
0.0059978411033663
0.0069678936637001
0.0087760531217406
0.0112167029221241
0.0140943296782292
0.0168435362345242
0.0183840912119987
0.0176185714628909
0.0143684384306518
0.0097512421482508
0.0052906391528547
0.0016756191102741
-0.0013707540118536
-0.0042436074844688
-0.0069500751959437
-0.0093520747604906
-0.0114141833363261
-0.0130908921809931
-0.0142475354378281
-0.0147469295086086
-0.0144422972624423
-0.0132311530928893
-0.0113744389372376
-0.0094987986270752
-0.0079412243902078
-0.0064003974856668
-0.0045269886533752
-0.0024618505478996
-0.0005972069410488
0.0007554555504639
0.0014133993943461
0.0014531594582528
0.0012405450392061
0.0011291089239929
0.0012766633146135
0.0015940788222765
0.001550440223483
0.000513447932438
-0.0011619924085417
-0.0019000491156658
-0.0003559435498172
0.0032175896336587
0.0073198141954126
0.010508494355461
0.0121785943400085
0.0124475727799025
0.0116585789464252
0.0101644907524044
0.0085478839445452
0.0075965018032567
0.0076179924872326
0.0079836197756727
0.0077767721206566
0.0067656825232005
0.0053994348159919
0.0040543507969514
0.0027531457012139
0.0015561960366705
0.0007275991608572
0.0003625611145408
0.0001274848322005
-0.0005509782102693
-0.0021578362678776
-0.0047205304680785
-0.0074672674739942
-0.0091013426765579
-0.008745455901137
-0.0065168499602422
-0.0032522502389968
-2.58333505487243e-05
0.002277768884771
0.0034112139071231
0.0036881480019726
0.0033620764566142
0.0024517521299433
0.0010766273001351
-0.0005649749196728
-0.0023624199863273
-0.0040474515726081
-0.0052222626841606
-0.005967312140643
-0.0068793239415723
-0.0082392469774438
-0.00964214554313
-0.010607581401006
-0.0111366766201725
-0.0115297229234251
-0.0118482874755809
-0.0116332144511074
-0.0102439597614496
-0.0076141048320103
-0.0045199427891731
-0.001872484354424
0.0001083606074243
0.001797482970018
0.0034594123169881
0.0049825040876003
0.0062270783418505
0.0072760861391165
0.0082623889976654
0.0091440988084847
0.0096739077881594
0.0095183086473514
0.0085927787990116
0.0073475572773301
0.0063344932127735
0.0054037520978254
0.0038711151763922
0.0015785865013594
-0.0007735789637244
-0.0023591229639259
-0.0027873881747051
-0.0020419762215087
-0.000273143903716
0.0023330330949863
0.0054001507504807
0.0079852612575231
0.0089048606616237
0.0078533890204779
0.0056907238789961
0.0033349885631144
0.0009720537592062
-0.0014680888038211
-0.0037575253434917
-0.0055970498635416
-0.0069806259755094
-0.0080839189808657
-0.0088573055194299
-0.0087874595806396
-0.0072340110578184
-0.0041909154965627
-0.0005467338021302
0.0026345122094348
0.0049087805061256
0.0063644715918946
0.0071024591730893
0.0071883819534565
0.0068666212015771
0.006357697034432
0.0055731821218462
0.0044325052391119
0.0032661602587221
0.0024311639028928
0.0017190174313887
0.000623186990714
-0.0009927189339444
-0.002860950625456
-0.0046926872871601
-0.0063222270563606
-0.0076655687325712
-0.0086567844987712
-0.0092336377636895
-0.009545535650541
-0.009970497382093
-0.0105040293398042
-0.0104546615798613
-0.0092272326951555
-0.0069518912480531
-0.0039821348545322
-0.0004860039664477
0.0030781030778262
0.0057930703413671
0.0069816808772289
0.0066866778604721
0.0054192144093957
0.0037674321998681
0.0021407691819413
0.0006037536244338
-0.0010104080387328
-0.0028172075401795
-0.0048392748060517
-0.0070757764977462
-0.0093275784879441
-0.0110889053393516
-0.0119199347895272
-0.0118588749823044
-0.0112224852289144
-0.0100548551385138
-0.0079721944830046
-0.0045166157299757
0.0004107005657968
0.0062512071616297
0.011793484199062
0.0158484795845636
0.0182195621691056
0.0197343085530384
0.0211965240829011
0.0226749285699412
0.023769257835925
0.0240584302510963
0.0233530915794914
0.021888633198022
0.0200943957043661
0.0180599629970932
0.0155862526405602
0.0126358149024519
0.0092640731936385
0.0054006377077102
0.0011301712922115
-0.0032418301793737
-0.0077321166473836
-0.0127668145286189
-0.0184023180688048
-0.0237844773112968
-0.0275370717863485
-0.02860333145149
-0.0269134003318637
-0.0234417170005651
-0.0194855518717791
-0.0157971761153077
-0.0124721284856092
-0.0094809391471899
-0.0069629879939939
-0.0050014301938104
-0.0033915939847676
-0.0017745214844145
1.35752043268865e-05
0.0016916236754949
0.0026537769853963
0.0025484128667225
0.0018203844628984
0.001382094074436
0.0015849429584522
0.001890620722464
0.0017517649759934
0.0013463000343155
0.0012211713241332
0.0016582173273463
0.0024967141000224
0.003201673766499
0.0032053223052739
0.0024731745161928
0.0014917721509321
0.0006499587707465
6.32369637754688e-05
-0.0001556987294221
3.20130648277474e-06
0.0003259120437936
0.000750484985883
0.0014795287583217
0.0025105605231824
0.0035560536590741
0.004502785156976
0.0054362070244296
0.0062401744007609
0.0066484141593362
0.0066666817900736
0.0066166979609198
0.0067371994842636
0.0068277852063119
0.0063042262450261
0.0047493894039862
0.0025165785458219
0.0006137275891994
-0.0001490287575135
0.0002436674618836
0.0012930203614891
0.0025351631654073
0.0036259557505711
0.004236633573846
0.0042205653977001
0.003631173570709
0.0022818384825015
-0.0003140849184364
-0.0041535491190162
-0.0082489063419635
-0.0112753452718139
-0.0124658578923336
-0.01186573052776
-0.0101478517797041
-0.008143160295053
-0.0062241187967779
-0.0042501967495972
-0.0021189246392886
-3.67901080531107e-05
0.0016149326553707
0.0023939022776474
0.0021671085670607
0.0015774322471823
0.0015222250381689
0.0019639394275108
0.0018790077677781
0.0005030157280104
-0.0018987400002344
-0.0044894519885452
-0.0066288113751942
-0.0081492094154494
-0.0090961010082301
-0.0092959303582361
-0.0083664407783953
-0.0063035901104388
-0.0038019417302501
-0.0017298507186014
-0.0005002466048785
-0.0001477946040585
-0.0006220065509482
-0.0015489590011241
-0.0019721306064414
-0.0009342600651617
0.001641074338601
0.0049890461907888
0.0083280568947131
0.0113266876794906
0.01398679861202
0.0164971657905137
0.0190772113719887
0.0216955071579024
0.0240058962219818
0.0254948674797958
0.0255690912239504
0.0238584807133563
0.0206474927746958
0.0166107602416957
0.0121274336335215
0.0073463866737473
0.0026335139849037
-0.0017298898811154
-0.0060128621751266
-0.010652210243906
-0.0156545457830886
-0.020563061377705
-0.0246016741048728
-0.0268315680813204
-0.026689678368492
-0.0245029163238165
-0.0212432154046883
-0.0177978404087988
-0.0145499206718219
-0.011524385168301
-0.0088382778350382
-0.0069515639872006
-0.0063117148847292
-0.0067607214852968
-0.0075690963697255
-0.0081237716716755
-0.0083227763994367
-0.0082400824133898
-0.007763489140986
-0.0067802682389979
-0.0054194551003147
-0.0038323454518621
-0.0020104216404047
-0.0001090763412608
0.00137167023915
0.0020559582758445
0.0020893423586386
0.0019339248589922
0.0020559226281268
0.0027062419202486
0.0036276353450516
0.0042191382319267
0.0043177926026545
0.0044992504204695
0.0054623942861429
0.0074276659042128
0.0099720892668545
0.0121462948980871
0.0131786889302411
0.0133265019054572
0.0134981711474808
0.0139819554517395
0.0142543333481926
0.0140338791134626
0.0137438226537828
0.01377424176261
0.0137760111743249
0.0128873308060641
0.0105884497932004
0.0073320434736426
0.0042449037310696
0.0021259500665259
0.0009084103087358
0.0001614955234081
-0.0002538168919953
-0.0002720012935049
-9.01128712504892e-06
0.0003389746047729
0.0007890863067682
0.0013928317215285
0.0019403724865112
0.0022135946980179
0.0023150730258528
0.0023514625748937
0.0020555370254847
0.0011130212802549
-0.0004088448438389
-0.0022257377017711
-0.0041245588329383
-0.0059903739702716
-0.0078611357014056
-0.0099646998792756
-0.0125785224323389
-0.0159250655162089
-0.0198950936785751
-0.0235009350955898
-0.025181464655149
-0.0242971919242978
-0.021792083514589
-0.018839470180063
-0.0154195311736266
-0.0106873910266382
-0.0042844249656703
0.0029698429864339
0.0093733278557788
0.0132843664370364
0.0140309014201674
0.0120247364319651
0.0082068447462353
0.0036178121808166
-0.0007715574179448
-0.0043429505618849
-0.0070424735647517
-0.009121981980505
-0.0106297832485354
-0.0111187693831152
-0.0097429254099449
-0.0058089167033844
0.0003741758939121
0.0071645760769308
0.0125135645850228
0.015415227251589
0.0162271039321043
0.0156564590781508
0.0140460751467358
0.011775709597391
0.0096029620974895
0.0081381674435538
0.0073053441845168
0.0064740988318316
0.0049611165610277
0.0026274216272186
0.0001718919056437
-0.0014651369052964
-0.0019831149680043
-0.0017120400429353
-0.0010863647847166
-0.0005078491967755
-0.0001744140857461
0.000305225078802
0.0014714528412966
0.0029364184683987
0.0034169439075923
0.0020395527239623
-0.0008742028247482
-0.0043060157699534
-0.0073405027811179
-0.0094444514773127
-0.0103352241895981
-0.0098732396417472
-0.0082315320352319
-0.0060509897265988
-0.0040388235623409
-0.0022929076160261
-0.0003583613903425
0.0019144091496785
0.0039467894898673
0.0050928325041505
0.0053787529129161
0.0052779395425981
0.0050480659611275
0.0046728056489123
0.0042425043798501
0.0040064125547989
0.0041515858081271
0.0046853984954476
0.0053272988719271
0.0055757392837908
0.0052704461877683
0.0049133658967969
0.0049994410625448
0.0053208431233251
0.0053100962190639
0.0047336103418988
0.0038334787947369
0.003048119329069
0.0025251794847364
0.0017898824708617
0.0002803823502437
-0.0018341941953338
-0.0040385438297562
-0.006488859620432
-0.009712269662854
-0.0133530103356647
-0.0160954095177417
-0.0169182228783995
-0.0158847376656682
-0.0137093854311686
-0.010951675528056
-0.0077128338835769
-0.0039801896948902
-0.0001516068863397
0.0029545436898219
0.0047034548147171
0.005122493557438
0.0047134800462028
0.0039934785487776
0.0033199379648435
0.0028715660643403
0.0025360702080949
0.0020302793521218
0.0013488872242452
0.0007540340503157
7.98473393092915e-05
-0.0013901799858398
-0.0038893421430364
-0.0064790283375724
-0.0078116699055598
-0.0072898771529564
-0.0054231743130635
-0.0034111698604737
-0.0022380094660893
-0.0018516913570047
-0.0014145744353071
-0.0003411082374488
0.0013177187311818
0.0032872930469662
0.0053093090566784
0.0071924367026612
0.0090260956130718
0.0110992262768343
0.013431280941744
0.0156339170615159
0.0171955228724119
0.0176728091992087
0.016803537405069
0.0146571312791614
0.0115116512737629
0.007571840094091
0.0030730973560688
-0.0014245406771296
-0.0052073287197968
-0.0078708031228042
-0.0094196847284194
-0.0100638449406567
-0.0101672029197228
-0.0102201819146569
-0.0105039084194743
-0.0108055178221325
-0.0107124171009232
-0.0101252638116798
-0.0092755134812728
-0.0084069553858257
-0.0076826660015233
-0.0071773438492
-0.0067329236478683
-0.0060709942475765
-0.0051581527706739
-0.0042271047085761
-0.0035517729178888
-0.003392147116733
-0.003762001863171
-0.0040450424521408
-0.0033131712684156
-0.0011111146473758
0.0023883287906069
0.0066168640572157
0.0105800529756584
0.013233394143935
0.0143857311737478
0.014663225439241
0.0143433460982236
0.0129225798100842
0.0100845850352275
0.006539979032757
0.0036359225696602
0.0023071682399118
0.0024357717531815
0.0031582286925848
0.0037547135711515
0.0040856276417614
0.0041525118083042
0.0036354161105561
0.0021711854698271
-0.000142535623484
-0.0028300176901272
-0.0055168585595998
-0.0081170898263481
-0.0106660376868355
-0.0131833404357485
-0.0155848512062877
-0.0175084653005436
-0.0183212044480557
-0.0174461994954594
-0.0146190465579885
-0.0100173189517041
-0.0045620144798022
0.0001613798476026
0.0029792823070551
0.0040827767028369
0.0045301866406739
0.0051411080846474
0.0061488125128764
0.0073806550647193
0.0084666707480394
0.0091842264613177
0.0095599186295979
0.0095013184193351
0.0088125895777195
0.0077385940273542
0.0068465562658877
0.0062056460751847
0.0052944127665579
0.0038188159297554
0.002124090468051
0.000743257344064
-0.0001241495372684
-0.0006197036022446
-0.0008468739109187
-0.0005933148534719
0.0004397566947486
0.0021943262557191
0.0043373337679888
0.0067831729913288
0.0097089652859915
0.0128432679312935
0.0150163241041143
0.0146717111528593
0.010835338595174
0.003782162326016
-0.0047854228471609
-0.012242290949272
-0.0165251765775441
-0.0176601886271083
-0.0174600024428992
-0.0174580077750972
-0.0175705386804109
-0.0168017706691982
-0.0145537254287871
-0.0110874942020304
-0.0072126180055839
-0.0036845626315193
-0.0008879702885725
0.0007471403642977
0.0004251648505699
-0.0022716889879891
-0.006540380468595
-0.0106903442441261
-0.0130494923082882
-0.0125863867804353
-0.0094337795938386
-0.0049385476186668
-0.0005452708383235
0.0033886271035081
0.0072325496508348
0.0108574903656081
0.0133969435111174
0.0141630427020798
0.0134186783503456
0.0121660208861804
0.0112148157172903
0.0105034814800834
0.0094766929844921
0.0080687030136729
0.0069510700424004
0.0066987128217612
0.0070633224273225
0.0072759633105605
0.0067891354547232
0.0055253857405381
0.0037177084436133
0.0018062940957921
0.0002474298882166
-0.0008524129067301
-0.0017447053726779
-0.0026252287439514
-0.0034907094322787
-0.004317472831109
-0.0050730986951925
-0.0058306936259625
-0.0071090656681997
-0.0095202970863992
-0.0128081044063201
-0.0158489160676075
-0.0177032094381171
-0.0180973561244037
-0.0170929198389782
-0.0149543780186921
-0.012115556801907
-0.0087824811481351
-0.0047893703228787
-7.04736332993406e-05
0.00496919643811
0.009641218813276
0.0134454567064521
0.0164347447515016
0.0190207179114531
0.0212124462440968
0.022329967041597
0.0218227233878632
0.0200064999922476
0.0175786329442553
0.0148096873283317
0.0116476336976976
0.0082072698097796
0.0046975616062658
0.0012320895959177
-0.0018270544099889
-0.0036693281077354
-0.0037072532328286
-0.0023007627470935
-0.0004542468386759
0.0010249712210102
0.0018414870806615
0.0020625018278869
0.001997035687329
0.0019934743816423
0.0021738558783914
0.0024285857759047
0.0024895109203158
0.0019855046354426
0.0008691114559048
-0.000337558199058
-0.0014324313437483
-0.0034125465778793
-0.007497691176073
-0.0133600599114538
-0.01909689796163
-0.0229496194986146
-0.0246721332448451
-0.0253192896840677
-0.0258706073052987
-0.0261142275098721
-0.0251196875882045
-0.0227525732893516
-0.0201318070682532
-0.018385050183233
-0.017402715212932
-0.0160224537400252
-0.0132142809790728
-0.0090516629346132
-0.0046175280110207
-0.0008668919923189
0.0023480781419176
0.0058226902509263
0.0096881622090538
0.0130994583742275
0.0153259430572784
0.0166203393885696
0.0177524310256677
0.0190888115389737
0.0203962767649656
0.0212197446876084
0.0212583350360404
0.0206728321285469
0.0200534879244708
0.0197423484734873
0.0193690949433089
0.018473055510511
0.0172428162818472
0.0162387737085584
0.0158057275506913
0.0159707156526767
0.0164171714839588
0.0165523771597395
0.0160313807203957
0.0149462646320292
0.0132186653645272
0.0104175069680776
0.0064996385716582
0.0021118831100566
-0.002077042384017
-0.0058428457563203
-0.0091486354705495
-0.011902996375911
-0.0141335346959749
-0.0162171631925123
-0.018724075599398
-0.0217969573750605
-0.0247426342588072
-0.0266909323203945
-0.0277210133455426
-0.0287562005240308
-0.0301440065988824
-0.030946237379592
-0.0300120290881498
-0.0273120761443593
-0.0238304246622129
-0.0205038980592248
-0.0176725632315219
-0.0152442307009549
-0.0128801247499123
-0.0101305457951474
-0.0067430227747441
-0.0027670100418264
0.0017488515110201
0.0069227265880274
0.0128331511507347
0.0192704791413912
0.0254942229577927
0.0301907317863864
0.0322218795518542
0.0316443520293487
0.0296193018702555
0.0273713954227334
0.0255487286865371
0.0242249510499707
0.0230951329819131
0.0219192152924103
0.0208485987944052
0.0199715708227946
0.0187616774277464
0.0165331149563722
0.0133190942089681
0.0099462137265908
0.0073750149804074
0.0060021033774924
0.0052374976868548
0.0037037643646814
0.0001773939814053
-0.0055586194035673
-0.0127496434123677
-0.0201771412704262
-0.0264640994632442
-0.0304053047802994
-0.0316009283722809
-0.0307546372615198
-0.0290580655516352
-0.0272961157068864
-0.0256487797903626
-0.0241032243770156
-0.0227734613838348
-0.0219387703004399
-0.0218514466101049
-0.0222338703923266
-0.0220201747205357
-0.0201102635170465
-0.0163780652871048
-0.0114881283524621
-0.0059316946262765
0.0002296483215208
0.0068800971587817
0.0135489530866451
0.019577251838313
0.0245903681899663
0.0287593038296613
0.0321502716981435
0.0339021084922871
0.0328868171781361
0.0292271337747373
0.0243008457018728
0.0192362989588926
0.0141967912436815
0.0091043719061678
0.0043265679120645
0.0004909888380606
-0.0020643114383917
-0.003565794144258
-0.0045423503493229
-0.0052825035133057
-0.0056947879977321
-0.0056974858937069
-0.0054079406514463
-0.0048522333315103
-0.0038576208710432
-0.0023956177328912
-0.000718617327181
0.0009944716826523
0.0028308988464737
0.0048436395153484
0.0068672660395809
0.0087541704460797
0.0104357187358672
0.0116476415592419
0.0120048957895058
0.0114163298782394
0.010056322686547
0.0080450641281167
0.0055117325738884
0.0026349777976701
-0.0007107269636059
-0.0048486598010591
-0.0095672042968898
-0.0139907139687661
-0.0173210375466123
-0.0194123609695337
-0.020772200847399
-0.0221309040448981
-0.0236259652063811
-0.024447263120204
-0.023796174634097
-0.0219758029432427
-0.0199219580514069
-0.0179269632001815
-0.0154594375887747
-0.0120950650276874
-0.0081538401756237
-0.0044029847559613
-0.0012742420580675
0.0015831203129296
0.004831227858856
0.0084876111539503
0.0117128037378046
0.0136899673698272
0.0144795126973811
0.0148896505780265
0.0157260963701454
0.0172000241668426
0.0187148170539041
0.0191252324244994
0.017666989722078
0.0149308316695496
0.0125703918409997
0.0117846517741693
0.0123605810913312
0.0131995171651521
0.0132622602187584
0.0119936820966485
0.0094036591397583
0.0059036433026709
0.0019286318003577
-0.002191219824023
-0.006149885585312
-0.0098010392417924
-0.0131006130899689
-0.0156489888557972
-0.0168277042012685
-0.0166257259892485
-0.0156995742543384
-0.0145087665615707
-0.0130276782169892
-0.0112584924486965
-0.0093959826253027
-0.00755910226476
-0.0058527962514852
-0.0046128728134313
-0.0042047309275618
-0.0044837671700222
-0.0045436636066918
-0.0032043694924261
-6.90314079005972e-05
0.0038640674212001
0.0069380894693789
0.0082790326653208
0.0083380959362229
0.0081004199475516
0.0081257246793975
0.0084425971231585
0.0090303472708494
0.0100907408360903
0.011801005412453
0.0137450050144099
0.0145622178624434
0.0126336111884498
0.0077623047064575
0.0019706173912746
-0.0021215519480015
-0.0036535594146013
-0.0037033681188632
-0.0034216899397169
-0.0027294098596452
-0.0008696721718597
0.0021372245923766
0.0048379000237992
0.0054730215491282
0.0037704415415581
0.0010893282993138
-0.0011766615501382
-0.0026519760265617
-0.0036172682094016
-0.004471134322385
-0.0055069409212466
-0.0065413769346264
-0.0067643474883938
-0.00535107822034
-0.0023043760383573
0.0012243776620981
0.0033944321974335
0.0029019118826031
0.0001352386347259
-0.0031880642019895
-0.0057541278301783
-0.0076316077466131
-0.009456412946039
-0.0113537996664226
-0.0130503986862835
-0.0144493980541529
-0.0155146269836867
-0.015899932896332
-0.0151809063524076
-0.0132708218602634
-0.0103407745699867
-0.0066722589147659
-0.0028510350563074
0.0002968631077518
0.0022249993014742
0.0029007694364187
0.0026703444384817
0.002271826924231
0.0026420584361713
0.0041867058524235
0.0064283456966942
0.00859045668021
0.0102968664695682
0.011687051619367
0.0129979376918151
0.0139493639260146
0.0137711355382361
0.0122469915063185
0.0103013842262599
0.0089039603152898
0.0078402542982875
0.0062408852146451
0.003931069888104
0.0016710388190404
0.0002915235084709
-0.0001045169663899
-0.0002447124570155
-0.0010341832294545
-0.0026348761596464
-0.0043000848606849
-0.0052540550988846
-0.0055213707547701
-0.0057347102934786
-0.0063263029234022
-0.0070335071955348
-0.0070402824865927
-0.00559807203252
-0.0027854143061919
0.000297429888149
0.0023839539178224
0.0031135886857129
0.00296886307749
0.0024013659422386
0.0016855949041095
0.0014538028722906
0.0024760612734442
0.0047652954419654
0.0073998536778591
0.0092116876545074
0.0094927432498589
0.0083791190026897
0.0066611317051487
0.0049780747015192
0.003416122285114
0.0020121662427941
0.0010023532007818
0.0003661484840748
-0.0001912475128546
-0.0007170513214007
-0.0010549496949403
-0.0012054291690563
-0.0010209796342436
0.0001475096404816
0.0028232590326341
0.0065057947123172
0.0097839666712077
0.0113689050296421
0.0110334412150484
0.0097334036330612
0.008822718956779
0.0089644709039335
0.0096941717078165
0.009984969529916
0.0091571776612016
0.0072384667602683
0.0045209563746632
0.0008321257056409
-0.004604054255909
-0.0122290908049577
-0.0209116363450162
-0.0281647818515042
-0.0322660552371333
-0.0339262960926422
-0.035175475335946
-0.0369409852355284
-0.0386102929100458
-0.0395731259261527
-0.0400018468102354
-0.040116187926128
-0.0394875881451309
-0.037132898995937
-0.0320244475751549
-0.0237421268987448
-0.0129345809052243
-0.0013357080016146
0.0085444846558822
0.0143208444233815
0.0153204606917323
0.0133866166095022
0.0116251991928382
0.0124310461114244
0.0167273404267384
0.0241159429731669
0.0329068082360031
0.0404590713518698
0.0444672287657345
0.0444041430600819
0.0418061289019498
0.0390135436843427
0.0372830912134805
0.0359648585652506
0.0336419216290198
0.0299527147509763
0.0259108733695001
0.0224815060125236
0.0194097097336184
0.0157247054380161
0.0110008065551183
0.005729911095774
0.0006563523104426
-0.0038912414847323
-0.0080663975650901
-0.0121007125666983
-0.0158173066049328
-0.0186022099806366
-0.019952281366062
-0.0198572966464784
-0.0186571091234267
-0.017024737400153
-0.016070235534078
-0.0167432976363385
-0.0189840121740282
-0.0217942811978264
-0.0238795388748954
-0.0240672127687112
-0.0218605617744204
-0.017965207195346
-0.0137065419595833
-0.0098397722429716
-0.0064063776789094
-0.0034295179538603
-0.0009747508245815
0.001372905848455
0.0044289102331606
0.0085150175210351
0.0127174006922474
0.0153432877038891
0.0155247991562634
0.0142670076658735
0.0133746913567556
0.0134352385743389
0.0135609739869164
0.0130864345853634
0.0125705791291013
0.0127349391238844
0.0131687684893645
0.0127092496572585
0.0106901835300232
0.0072767235040329
0.0028799625862234
-0.0022291940679665
-0.0078395914122904
-0.0135924225132544
-0.0187539743576765
-0.0223439307877673
-0.0239354550291348
-0.024231314935645
-0.0244822558058507
-0.0254994205059818
-0.0273252749662743
-0.0294043402187236
-0.030959202726308
-0.0315382084550002
-0.0311359009577778
-0.0296889754702549
-0.026794742263832
-0.021843302287639
-0.014042575721852
-0.0028761000688633
0.0105887878438204
0.0232033869145884
0.0314213005973919
0.0335841316144382
0.030567170999208
0.0248156794491748
0.0190309175200651
0.015134310705239
0.0137324012718942
0.0142851791547238
0.015776584356851
0.0173923153347836
0.0188547762560646
0.0202550874718067
0.021537806442999
0.0222434805716649
0.0219126373862149
0.0206410154246773
0.0190039564369066
0.0175016435198429
0.0163106059684943
0.0153893118639773
0.0143870098088513
0.012635618887414
0.0098822070657673
0.0069660369270559
0.0051072873554258
0.0045205918497741
0.0042161318947178
0.003074437495357
0.0007884075591319
-0.0021151014440496
-0.0050022528556388
-0.0078166723468201
-0.0108214982983203
-0.0138369189582246
-0.0163456314645504
-0.0182412887553311
-0.0198126878432363
-0.0211658674634651
-0.0222316084026027
-0.0230441039244215
-0.0235697594515499
-0.023623903535257
-0.0232149003542988
-0.0225770145796644
-0.0218077376794742
-0.0209115691214644
-0.0201160384024453
-0.019612671074716
-0.0190049530351521
-0.0175251833860702
-0.0149741447779712
-0.0121539057213024
-0.0100825341025264
-0.0087631203561918
-0.0069395067636272
-0.0033074854782167
0.0020473123790991
0.0076994290998966
0.012451426461958
0.0164388903123144
0.0203874916758146
0.0242959149466386
0.0274499044314454
0.0293239613250649
0.0298187943794417
0.0289743047273612
0.0270120849000533
0.0243607107591953
0.0213987934016565
0.0185386671845287
0.0164612251868726
0.0157368895564954
0.0162859597232543
0.0173834413574767
0.0179033041523336
0.016747248956958
0.0136128547949742
0.0090489391572248
0.0032952162949456
-0.004198937401319
-0.0133808385003944
-0.0224440017930096
-0.0289901266369712
-0.032142956289138
-0.0330636141928642
-0.0335511386981822
-0.0344154711091707
-0.0351363610430971
-0.0348063835894767
-0.0330423099791803
-0.0298813621523884
-0.0253029157602426
-0.0194553431264489
-0.0131587831652492
-0.0074695822318564
-0.0026359225449432
0.0019599205919597
0.0067333603521249
0.0113890640958928
0.0156009245904237
0.0194642312875291
0.0229615641985399
0.0255821829197239
0.026808351379798
0.0266561140251837
0.0256559545330697
0.0244783594640199
0.023427626676553
0.0222225666783332
0.0204538760832898
0.018074991761189
0.0152468707763873
0.0121230084808597
0.0089634148810219
0.005973875465142
0.0030613601633739
0.000237899233091
-0.0020810722493365
-0.0037627996207551
-0.0054624895894248
-0.0078558980016576
-0.0107910792128445
-0.0136185240655086
-0.0159679602313798
-0.017881358267559
-0.0194214121129238
-0.0203738388489606
-0.0203815488097509
-0.0194366190937839
-0.0181189997223412
-0.0170611816266086
-0.016194321825438
-0.0148252460429276
-0.0125073595379975
-0.0095717118197639
-0.0066862978496318
-0.0040789599792832
-0.0013578736185164
0.0019371634889746
0.0056709888837761
0.0090692161100432
0.011540724378013
0.0135372241076795
0.0160859528481717
0.0192340760199495
0.0215789404992144
0.0217746987447463
0.0200300803398271
0.0177983787293789
0.0163043717585171
0.0154297204616784
0.0139126235921747
0.0108672453581954
0.0069511007246855
0.0034641013051173
0.0006869022840055
-0.0019831966080124
-0.0046522072323228
-0.0067021590088504
-0.0076929719202147
-0.0076829624498164
-0.0068249108245341
-0.0052339663682872
-0.0032057197073117
-0.0011756557596432
0.0007200189909274
0.00296656866681
0.0062009058850389
0.0100757440046694
0.0127862145875811
0.0122216443662698
0.0076954927823456
0.0004184524361199
-0.00747432111427
-0.0140179756130687
-0.0179355366934485
-0.0189912939601622
-0.0181878612729477
-0.0171370751326807
-0.0168731863570416
-0.0174414699283462
-0.0185675016042599
-0.0202442829519198
-0.0226079134087714
-0.0255616599011936
-0.0285035503540262
-0.0304129815770331
-0.0305395754108988
-0.0289048663909685
-0.0257500413215859
-0.0209342266260695
-0.0144265285486479
-0.0068819728738892
0.0006802884100007
0.0072289574015067
0.0117842930334134
0.0141214291472513
0.0155882912978089
0.0183826701696698
0.0236280136769125
0.0303166120042872
0.0360938899636761
0.0390905437104484
0.0393120869420724
0.0383603612800793
0.037694994578589
0.0372688319136436
0.0359299022567267
0.0328689793351204
0.0284771096122344
0.0240074590502064
0.0205840586657696
0.0183640128290398
0.0164457071598124
0.0136051166418446
0.0092357419095762
0.0036970945770333
-0.0020342439675401
-0.0069243658785392
-0.0103822161335164
-0.0126169059976724
-0.0144552740340031
-0.0166035850143148
-0.0193055328045861
-0.0227502628153239
-0.0270719102194214
-0.0315529507716045
-0.0345269532672625
-0.0345978515315253
-0.0316744089473992
-0.0267408922868935
-0.0208790459643004
-0.0144162360659771
-0.007046224193698
0.0008740638913507
0.0075021225808532
0.0107441837465531
0.010132570989187
0.0069413089149891
0.0028665677086142
-0.0008312763088427
-0.0033742796020954
-0.0045215108534268
-0.0047785181251567
-0.00526638555471
-0.0069715666747735
-0.0097677942537589
-0.0122544179040786
-0.0129818428165883
-0.0119382437377148
-0.0105530611710449
-0.0101885108929399
-0.0108456360827716
-0.0113099837627863
-0.0102732392969533
-0.007306759240295
-0.0030791280392866
0.0012202614415162
0.0048344253399973
0.0078608050591815
0.010653424229003
0.0131240918543466
0.0150192816344039
0.0165597273546415
0.0182701947163984
0.0203330466909504
0.0223830662906259
0.0237180134625151
0.0237272550110573
0.0224546814028852
0.0205487811968848
0.0184404603248461
0.0160803714966353
0.0136101983951035
0.0115161681029047
0.0099552120068161
0.0086007235671904
0.007156883026444
0.0055084030341379
0.0035655517848335
0.0014191334427064
-0.0005324035972917
-0.0018799527285455
-0.0025347698038192
-0.0027980054472773
-0.0032539899792006
-0.0044220939904478
-0.0062785325653056
-0.0081862008146379
-0.0093710055065966
-0.0094067671201042
-0.0083554466159124
-0.0067083084706704
-0.0052296534006431
-0.0046644416433275
-0.0054588106929156
-0.0076592683371585
-0.0108688932701254
-0.0142223938840459
-0.0167488914801093
-0.0181352235877654
-0.0189724613232486
-0.0199493674935681
-0.0209996730377702
-0.0214007674728103
-0.0203281452962228
-0.0173155063936209
-0.0128684354842662
-0.0086812056968078
-0.0065059483311667
-0.0066609716590314
-0.0079872469939004
-0.0090486513269046
-0.0091542466259209
-0.0085624498232193
-0.0077983986556461
-0.0066009079898221
-0.0038641028339464
0.0011127330487342
0.0077182476525428
0.0145066426366092
0.0201191884007996
0.0237581083628919
0.0253728131250101
0.0255942937462131
0.0252520171349014
0.0248528810876022
0.0244350339234824
0.0237297970319503
0.0225582862235146
0.0213108528290752
0.0208716173880764
0.0217164868022353
0.0231169063072903
0.0234700411812987
0.0214209906341236
0.0166982042782754
0.0102674530850357
0.0039227346771103
-0.0008139366940422
-0.0040275574938387
-0.0073584815582273
-0.0120383519634057
-0.017276028988952
-0.0210824771288674
-0.0222897315013611
-0.0213664422182971
-0.019755822571817
-0.0187472846340437
-0.0185614846543757
-0.0182661736265539
-0.0166426071708319
-0.0131093943859746
-0.0081215336803788
-0.0030993524074362
0.0004520034094088
0.0022808618132161
0.0034065408441241
0.0045577976996345
0.0053916885614063
0.0054979680280749
0.0051690550983361
0.004684520824854
0.0035324445322794
0.0008414687611833
-0.0036036050229273
-0.0088817726158795
-0.0134318190241886
-0.0162339453617014
-0.0176401252162746
-0.0188591769818823
-0.0205424193831038
-0.0220341080178731
-0.0220029988482062
-0.019618858074003
-0.0151817029110588
-0.0098830450732201
-0.0049094624765571
-0.0004754082636412
0.004194670600519
0.0096353438815849
0.015147215476842
0.0195110088388899
0.0224380369486442
0.0247677495506581
0.0273687880203681
0.0301490132301425
0.0319509022905803
0.0313909230576941
0.0281284643935861
0.0232601479906871
0.0183267436664611
0.0141933060008239
0.0107981287209081
0.0074401632981429
0.0034100833744704
-0.0011780480628315
-0.0053844009335312
-0.0085123213228385
-0.0107038478383183
-0.0122996898359368
-0.0132329643235049
-0.0133209235116841
-0.0127058079948515
-0.01177541551111
-0.0108220744244213
-0.0098379756796155
-0.0086329471986292
-0.0072164134993478
-0.005952810703413
-0.0051526766863426
-0.0046368627177488
-0.0039515890389596
-0.0028962952499784
-0.0015365851067035
0.0002131354191005
0.0025989096942604
0.0055141280115863
0.0082687023123877
0.0099553055815656
0.0098749990891333
0.007807274506819
0.0043105601770002
0.0006631884883847
-0.0019203390136183
-0.0030880161320455
-0.0034140865707089
-0.003929085972163
-0.0054152885303573
-0.0077190717694344
-0.0098478661806596
-0.0109400260836643
-0.0108988954011147
-0.0101702127840791
-0.0093997147402401
-0.0091518352917467
-0.0094686916738693
-0.0099109320435434
-0.0102908062816187
-0.0109215659116572
-0.011897290050617
-0.0125430323579688
-0.0117927736726486
-0.0089759996154926
-0.0043490522388414
0.0009884420439319
0.0058574339159825
0.0097505888119908
0.0127438108031057
0.0149275360395873
0.0162925465853913
0.0169770042683147
0.0171774760326128
0.0168818441040522
0.0160375609642978
0.0148803623659032
0.0137067872430867
0.0123873492816663
0.0105356993364296
0.00818325661346
0.0059316338663977
0.0044161225984808
0.0038100747089338
0.00369078377978
0.0032744156438457
0.0021185232280663
0.0006388721636378
-0.0004520376251223
-0.0010392673371046
-0.0014652614772821
-0.0018422059749461
-0.0020417627091662
-0.002104953087518
-0.002330113406833
-0.0030534548209859
-0.0042180158758301
-0.0050797951022806
-0.0048687243190345
-0.0039041493075189
-0.0033463612956529
-0.0036251377201238
-0.003857035040357
-0.0031275058162665
-0.0017461150662641
-0.0007969891503141
-0.0006944967403419
-0.0006366067127556
0.0003070840555617
0.0018331443744259
0.0026617969678271
0.002184650589526
0.001170347891179
0.0004319292568042
-0.0005995426534061
-0.0032010792979979
-0.0074589290484089
-0.0118445414298326
-0.0148153564527947
-0.0161951183764073
-0.0167558076088724
-0.0170149137443167
-0.0167758376583217
-0.0155588250753218
-0.0133088576438346
-0.0106798268257034
-0.0083994188098224
-0.0064072012878693
-0.0040731390259472
-0.0011719622903986
0.0018897014143317
0.0047199441671473
0.0074292598617006
0.0105253976991217
0.0142890854976598
0.0180768055058649
0.0206071038170951
0.0212241986535159
0.0203836830932564
0.0187355691856176
0.0164544847731814
0.0136604441775587
0.0107574575559503
0.0080548132687011
0.0054611280688183
0.0027220280355388
-0.0001562332287638
-0.0027101378474853
-0.004346889706033
-0.0050637263464086
-0.0056362151217142
-0.0067537961424396
-0.008159865047972
-0.0090396191461996
-0.0091056183965193
-0.0088701710884276
-0.0089123537458723
-0.0092656381504334
-0.0094553513370313
-0.0087577224838944
-0.0065749833377366
-0.0030371273470214
0.0008894637474494
0.0043110418810417
0.0072087049730649
0.0100030105841628
0.0126977852322878
0.0147964657322468
0.015762616156328
0.0154085665168918
0.014036076753001
0.0121728647573764
0.0102256361402792
0.0086593369670418
0.0081263357225341
0.0087246253608369
0.0094322313681667
0.0089452482644911
0.0068305276379383
0.0034942464508515
-0.0005071758877848
-0.0047396417790612
-0.0088599286045166
-0.0126830577370947
-0.0162403654908443
-0.0196590335263928
-0.0228261271008113
-0.0250526598780472
-0.0253489733072504
-0.0233857443774784
-0.0200053144852751
-0.0164635664579276
-0.0133572720463022
-0.0105753284427609
-0.0080061227622224
-0.0058107336009504
-0.0040561247453544
-0.0024855683161632
-0.0007524936786686
0.0013071222366586
0.0036198413982591
0.0059275555885816
0.0079654700905445
0.0096554394237164
0.0109153366342016
0.0113214066569543
0.0103857796561273
0.0081643500728164
0.0052377062698636
0.0022814889754715
-9.49769283717393e-05
-0.001559900823703
-0.002354912457558
-0.0028897134668921
-0.0030824066289002
-0.0026844615402251
-0.001957839602917
-0.0013356738301652
-0.0007420138732295
0.0001809360155551
0.0015089288622383
0.0030668404567793
0.0046772588470411
0.0061356479888625
0.0071847329836771
0.0076974522186437
0.0078890824663767
0.0083106731236751
0.0094028212958345
0.010865066878199
0.0117279656103015
0.0113478753781952
0.0100950892769725
0.0087648187413352
0.0076166229591631
0.0064142105520254
0.0051350770435881
0.0040563469697321
0.0032155380358602
0.002324564280926
0.001215661555882
-4.95689879084239e-05
-0.0014024243346618
-0.0026846493430848
-0.0035121880131099
-0.003564215552706
-0.0028674406105273
-0.0017412492018141
-0.0006970697423069
-0.0001876289361418
-0.0001612512594696
-0.0002239657204682
-0.0004146024706463
-0.0012727907733251
-0.003049430503948
-0.0053900069939261
-0.0077554837909839
-0.0097640226766994
-0.0113229594260684
-0.0126322453459234
-0.0137868597060123
-0.0144708366354866
-0.0144817420383056
-0.0143193784874926
-0.0146736864846972
-0.0154449857503364
-0.0157080254382061
-0.0145863343264445
-0.0119475264179398
-0.0083678618551859
-0.004580653126511
-0.0009175467258879
0.0027105343865696
0.0062343483106792
0.009027631874512
0.0104068819549359
0.0105031760639918
0.0103091899751818
0.0107823898366384
0.0120875528558387
0.0136295400147088
0.0145742963188018
0.0145128870505523
0.0138790955211026
0.0134661551153803
0.0134084345593821
0.0131126907777406
0.0122548200724963
0.0111733705116659
0.0100943669226321
0.0084810611422186
0.0054063026740408
0.0005690115960079
-0.0050395276582121
-0.0098064991228747
-0.0130308582468583
-0.0152425627377163
-0.0168493802188284
-0.0174076221852284
-0.0166103839105202
-0.0150593967950513
-0.0135394615953305
-0.0121455308968518
-0.0104906785771154
-0.0083881945016325
-0.0060755269163098
-0.0038779702213269
-0.0017659870873795
0.0005931717479691
0.0032130484896056
0.00546543899662
0.0067372019057959
0.0072887796723129
0.008058779748143
0.0095854352550179
0.0114155450671921
0.0126172964419126
0.012632549193628
0.0116182758332612
0.0101770346966149
0.0087210961451487
0.0069767245269488
0.0043776236659288
0.0011125047057977
-0.0016830307611467
-0.0030640305489076
-0.0031862242579676
-0.0029150734341214
-0.0029205666197074
-0.0031827228420804
-0.0031253680131832
-0.0023627389869655
-0.0013082468669327
-0.000675834389777
-0.0005824005556346
-0.0006736665287583
-0.0008342211832375
-0.0012190276419233
-0.0018432883569442
-0.0024804750358441
-0.0027322696127633
-0.0021907497052536
-0.0008914468427789
0.0004797210390738
0.0011734200524107
0.0010979917944646
0.0008022737199627
0.0008892586033489
0.0014877522829674
0.0021269861154305
0.0021341215282723
0.0012389319517254
-0.0003373895735298
-0.0023846405144433
-0.0048960181195284
-0.007558015477742
-0.0095155307736789
-0.0101510708114074
-0.0098626814527077
-0.0095642274221699
-0.0095931662175733
-0.0096009040510245
-0.009302696311533
-0.0087874522615498
-0.008190357630887
-0.0074353326538913
-0.0062836909363414
-0.0046368892617344
-0.0028584518491521
-0.0014282884082928
-0.0001235530082567
0.0018512829895544
0.0047254212945851
0.0077731603807049
0.0101239527497061
0.0114386416628886
0.0119618120846383
0.0123433453916194
0.0130926711139257
0.0139462918899222
0.0141876914828259
0.0136749995676428
0.0130434541170013
0.0128212386905084
0.012785462182761
0.0123231304891572
0.0112307629282975
0.0100420722123373
0.0095001900765979
0.0097050004409254
0.0099665161436479
0.0095709721958162
0.0084540478959769
0.0070135622661931
0.0055360749319305
0.0039818993046778
0.0020925863357206
-0.0004570299982317
-0.0037075965833241
-0.0069771614844145
-0.0091593814178336
-0.0098733317820979
-0.0100696142992728
-0.0111967578062046
-0.0139868734852334
-0.018046060970504
-0.0221271141197588
-0.0248276203508356
-0.0255891476246593
-0.0250711967526816
-0.0243612779781822
-0.0240509254971407
-0.024008089824351
-0.0235171055300122
-0.0217485873347454
-0.018559422454869
-0.0145879057117192
-0.0103595294941571
-0.005893164884691
-0.0013637087537429
0.0026035346972851
0.0056436288701961
0.0082453955228334
0.01144353442814
0.0159281064891419
0.0211724147047252
0.0253770553961216
0.0267311793308627
0.0249510550929656
0.02135165454108
0.0174630858779011
0.0139671768335409
0.010929418965055
0.0084560754573457
0.0067374903946071
0.005673596811436
0.0048113648882046
0.0037274606883177
0.0024680643662014
0.0016125477177279
0.0017050839503954
0.0025146212738879
0.0032097073516915
0.0034636096921514
0.0039060184705824
0.0051675848213964
0.0068817826656907
0.0079053341558016
0.0073577343089498
0.0054641824318591
0.0033949841187623
0.0020201495250803
0.0010060217436003
-0.0004498705645796
-0.0024549903168478
-0.0045648892654035
-0.0064876223403768
-0.008031466579392
-0.0089396921467955
-0.0092905363637878
-0.0095854062909159
-0.0101539465501047
-0.0108631295747028
-0.0115045606082578
-0.0121021040002195
-0.0127096916039908
-0.0130538993480856
-0.0125436324915441
-0.0108304000326136
-0.0083548002491796
-0.0060102335632981
-0.0041724953190057
-0.0024386018993842
-0.0004584079095206
0.0014199038084229
0.0026027326004879
0.0029885337729368
0.0029477639261856
0.0028787639595808
0.0030903093768216
0.003774578185505
0.0047278106196798
0.005427662322409
0.0057047873252807
0.005982175540984
0.0066459049306478
0.0075698285334168
0.0083273622404799
0.0085196593569288
0.0080060666336961
0.0070709729872524
0.006144546302098
0.0053288042525328
0.0044923989180166
0.0035555364508036
0.0023063796643466
0.0004371574332368
-0.0018204852902677
-0.0036329176121557
-0.0044470684949858
-0.0044441529203549
-0.00399905060663
-0.0032209945609051
-0.0021962765577418
-0.001354201420262
-0.0013583614887286
-0.0025265189532496
-0.0043285265670279
-0.0056828682930593
-0.0059281553880465
-0.0053439062112649
-0.0046614570497922
-0.0043503858690084
-0.0044298606085218
-0.0045650063063556
-0.0041747369828485
-0.0028379130457981
-0.0008312670827275
0.0010940752305677
0.0026657895287794
0.0043062103997735
0.0061045113961555
0.0072463232213819
0.0070091469604814
0.005797637305989
0.004690010488026
0.0043446462220777
0.0046276481397554
0.0049664599309629
0.0049106949152685
0.0044589633645738
0.0038064202098356
0.0029885660702958
0.0020999895993407
0.0015004501891577
0.001350101668527
0.0013010525624247
0.000916050060421
-6.66488508066187e-05
-0.0019137823785908
-0.0046805893528195
-0.0077435019241122
-0.0101175434860518
-0.0113598085828846
-0.0118872058592714
-0.0123875002912524
-0.0130060744190743
-0.0131208213459071
-0.0120567026113429
-0.0100449424585112
-0.0081001113503158
-0.0067485332981299
-0.0053062827326211
-0.0028059036229323
0.0006474877642629
0.0038821541251065
0.0059056676686311
0.0068131052231966
0.0075640095961894
0.0091348049000377
0.0117019774532902
0.0143405368021155
0.0157079349676465
0.0152729766281068
0.0136913727348186
0.0119760182178346
0.0106900309411134
0.0098739574488287
0.0092692911514366
0.0085925259942655
0.0077676959158809
0.0067861954415518
0.005541392858758
0.0041476020418603
0.0030166543755941
0.0022189044234589
0.0013408696064398
0.0002966901670368
-0.0004799929873775
-0.0009834391770358
-0.0020102637940847
-0.0041940925915292
-0.0071550772688311
-0.009887682144378
-0.0117406314802843
-0.0128467965234755
-0.013687827777029
-0.0144727320772419
-0.015169479447009
-0.0159752519104478
-0.0172189157884828
-0.018676114476714
-0.0194706582284408
-0.0188920553044049
-0.0169524018217304
-0.0139964468257504
-0.0102478053486947
-0.0060169920746571
-0.0018621085725108
0.0018923388102598
0.0054350577882756
0.0088994667849832
0.0118862979103054
0.0138398022877392
0.0145303132937491
0.0140891512339113
0.013046157157059
0.01226270085123
0.0122783162180053
0.0127837830377295
0.0130444607653029
0.0126347849388256
0.0116562730371509
0.0104960411616909
0.0093284163293864
0.0078250479279036
0.0057453469156631
0.003671754201082
0.0024370765554514
0.0019689019681374
0.0015282564704187
0.000961358848752
0.0008925489747939
0.0016605751598741
0.0026543869958729
0.0028569457604737
0.0018649600385109
0.0002834158355492
-0.0009703839654716
-0.0017269626393495
-0.0026621776127702
-0.0042974242051558
-0.0063150531749286
-0.0080508178461614
-0.0092451743289686
-0.0100139148432015
-0.0104671487055836
-0.0107683392536407
-0.0112755610454917
-0.012179687471714
-0.0131973721151504
-0.0139339262075717
-0.0142588250585735
-0.0140861289540062
-0.0131961798006298
-0.01150234225226
-0.0091757272538555
-0.0065191694056052
-0.003969312459207
-0.0018977941810259
-0.0001173514921781
0.0020241512644223
0.0048852204167134
0.0081864112592558
0.0113193844528451
0.0137001302597068
0.01505010840732
0.015503280662151
0.0152566416001969
0.0143732094670966
0.0133017196652787
0.013056583451214
0.0141701327667862
0.0157392745807824
0.0160826768535289
0.0142884270306002
0.0109499072833309
0.0075651750494688
0.0052970506739071
0.0041572649503689
0.0033121035252246
0.002093932242731
0.0005291522197711
-0.0010344058434677
-0.0024047110057142
-0.0035149344487985
-0.0042825964192384
-0.0047599166347992
-0.0051995595308123
-0.005801689260415
-0.006679988734263
-0.0081678947362086
-0.0106533018284257
-0.0138835198235881
-0.0168988698656059
-0.0188261837274096
-0.0193999176942311
-0.0188400436862132
-0.017633595416471
-0.0161935737333282
-0.0144210368575822
-0.0119080481302154
-0.0086656245224364
-0.0053211363510648
-0.0027052391231812
-0.0014381385704315
-0.0014943902538289
-0.0019548707152759
-0.001662002731342
-0.0002892428733228
0.0015462541709196
0.0031421232055792
0.0043999573219402
0.0058295390677196
0.0080185986521991
0.0109022842325572
0.0136109877525085
0.0153273308241175
0.016134611979577
0.0166723787709611
0.0171484170439307
0.0170970508360487
0.0160147414558467
0.0138922058223208
0.0111613983896221
0.0083839732769778
0.0059818316608661
0.0040853772029536
0.0026234352374039
0.0015474080095261
0.0007777075193477
-6.1608477251031e-06
-0.0010651521746209
-0.0020253205355557
-0.0021288116317252
-0.0011964295149261
8.00037735147458e-05
0.0008323126958395
0.0007076931672133
-1.22242474539305e-05
-0.0008094992026822
-0.0015280986210983
-0.0023934161592049
-0.0033789146532454
-0.0041797564964441
-0.0049607269994322
-0.0062438315752897
-0.0078562093736961
-0.0089472167718246
-0.0092605924663759
-0.009532441960596
-0.0104210933959649
-0.0116673998195192
-0.0124947164001337
-0.0124975696328274
-0.0119855658262638
-0.0115082632589433
-0.0111455426702235
-0.0104438161193986
-0.0090271367014338
-0.0069794907312409
-0.0046065571491997
-0.0021873704725896
-4.86211706639274e-05
0.0015150088339767
0.0026207151087132
0.0038078981227549
0.005406971741937
0.0070782105849728
0.0081499546684072
0.0082014861575678
0.0072609444253601
0.0058402092288882
0.0048532902202584
0.0049996412054463
0.0061185445258238
0.0074898365092846
0.0085872619558397
0.0092042925010737
0.0092580220084173
0.0088656760691347
0.0083050646536157
0.0077744551231471
0.0074159708831476
0.0073373299234708
0.0073803307769523
0.0072745626996048
0.0071217656685305
0.0072100879111187
0.0073762585369148
0.0071035322148259
0.0061942921665876
0.0049511430199705
0.0038420369703671
0.0032411159420944
0.0032855405742367
0.0037523345653724
0.0041017552989868
0.003676885823621
0.0019939847872944
-0.0008689514031621
-0.0041610954196912
-0.0070507138513234
-0.0093759345754068
-0.0115284304817763
-0.0136230700150578
-0.015215345860649
-0.0159612932610158
-0.0161170668143708
-0.0161364740060366
-0.0161358017871168
-0.0159733448416418
-0.0154927121240203
-0.0145741722552355
-0.0133638915288121
-0.0124213053472498
-0.0121577555257124
-0.0122548172676794
-0.0120175926938207
-0.0110125694466823
-0.0091359760080166
-0.00650476938703
-0.0034263275848679
-0.000165475980119
0.003109998760303
0.0059681956206571
0.0077658864541284
0.0082874491246895
0.0079062118958617
0.0070896982316621
0.0061771213472409
0.0055158678914186
0.0053568427759783
0.0056430400901045
0.0060986169325015
0.0064694774263704
0.0067145532789418
0.0071061568530294
0.0080163482293522
0.0094510757284593
0.0109683554544347
0.0121974983728758
0.013255994742119
0.0145175149214683
0.0161013175963802
0.0176628345083748
0.0185624056830229
0.0182572055351321
0.0167630015884552
0.0147422790902695
0.0128587116053318
0.0110775321613812
0.0089697737227802
0.006572120949929
0.0043937669172281
0.002692510080853
0.0013082277224826
4.51845305954994e-05
-0.0012430571550654
-0.0026977156930929
-0.0042804104777032
-0.0057903866807064
-0.0070776300717335
-0.0080710194772534
-0.0088964834925095
-0.0100513517205752
-0.0118959049838477
-0.0139535295709686
-0.0153781439699342
-0.0160451215089646
-0.0165343492057085
-0.017173433464985
-0.0176880341682893
-0.0177382112900247
-0.017405483631947
-0.0170673202689762
-0.0168295954320097
-0.0161821079279403
-0.0145223084438292
-0.0120810488954444
-0.009884539398445
-0.0085602015708408
-0.007571395651557
-0.0059423899185718
-0.0034232616287563
-0.0005910845532532
0.0019370224841339
0.003966483147095
0.0055577256019744
0.0068243459937082
0.0078738124417971
0.0087130397864245
0.0093059647801096
0.0097896009133334
0.0104036716560809
0.0112152570735448
0.0120861143496668
0.0126777375789214
0.0123739248807201
0.0106984154777547
0.0080190634183439
0.0054633561777547
0.0041056599449067
0.0043454123830977
0.0056199072092431
0.0065650921373005
0.0061025759653381
0.0045276122852831
0.0029986546495717
0.0021167289105554
0.001635464825944
0.0013032772013362
0.0012666579759853
0.0016506238862193
0.0021637450385241
0.0022553076123555
0.0016712967341521
0.0008217429043607
0.0003850186666366
0.0005060847382398
0.0006749684534182
0.0004354478207778
-0.0001599684633782
-0.0008747970189194
-0.0016396087117729
-0.0023947935488133
-0.0029633353591966
-0.0033319574466862
-0.0037504272179279
-0.0043218165613657
-0.004802941162442
-0.0049765050671372
-0.0048416905647964
-0.0043393558053217
-0.0033465338228579
-0.0020121055005028
-0.0007340117906135
0.0001253638843401
0.0003304434452182
-8.18534218636139e-05
-0.0006435593393923
-0.0008186390304876
-0.0004811412595735
0.0001819588829832
0.0008827142057079
0.0012341892926554
0.0011324951820783
0.0012038816858345
0.0022807969893785
0.004463486092721
0.0071188321145055
0.009537092027415
0.0112037904365763
0.0117823477079284
0.0112736470514502
0.0101161283094186
0.0089820668454927
0.0084127971603724
0.0083908865579224
0.008109060359819
0.0064256040516762
0.0028278113268375
-0.0020644636590649
-0.0069601723272337
-0.0108044856819445
-0.0134291796532957
-0.0156250841155027
-0.0184637717868296
-0.0220971286625877
-0.0252105500429438
-0.0261696980594511
-0.0248089900572012
-0.0225848128719709
-0.0209198192429693
-0.0199674397215052
-0.0190069565819336
-0.0174570106905251
-0.0154341998738391
-0.0136094999130517
-0.012431329337487
-0.0114975315296265
-0.0099351149747829
-0.0071451776785083
-0.0029184340973445
0.0026286394676292
0.008875253224974
0.0149813338337159
0.0205373881284964
0.0254776719558256
0.0294908369520312
0.0321338990505106
0.0334568746156309
0.0340348599908319
0.0343468214408057
0.034235957686105
0.0328937969620576
0.0294452829954826
0.0237652231415027
0.0167187217780014
0.009570172251458
0.003298741238154
-0.0015894067499583
-0.0050173919380188
-0.007337904568168
-0.0091227641254248
-0.0107027298872527
-0.0119882697916793
-0.0127684107331795
-0.0129487197782348
-0.0124835731788396
-0.0114550575361287
-0.0102683388630597
-0.009314358928695
-0.0083991226578857
-0.0069687482563938
-0.0048533166897094
-0.0023836448349253
2.4576379870185e-05
0.0020529189973112
0.0034960781805597
0.0042698893589162
0.0042562356245045
0.0033629874907306
0.0018866158325962
0.0003112646437418
-0.0013406830933606
-0.0032941209502049
-0.0052120286210391
-0.0064044222247144
-0.0068101916207772
-0.00707291527648
-0.0076653532254532
-0.0084179641888527
-0.0088860447737502
-0.0089100811493772
-0.0087538805672942
-0.0086638338284804
-0.0083616602277827
-0.0072749231960748
-0.0053338481664301
-0.0031751489000189
-0.0014087554347918
-2.34778638627593e-05
0.0012787637800141
0.0024406491898317
0.003014877560973
0.0026764855508207
0.0016389893342301
0.0006380473391485
0.0004411356305836
0.0010935241640855
0.0017417514306895
0.001640597336171
0.0012087599411911
0.0015243627124702
0.0029163939947412
0.0046242955357995
0.0056762774831451
0.0056597027444399
0.0048550035328161
0.0039029057092215
0.0032284421376723
0.0028435956320397
0.002700140026561
0.0027576448192561
0.0026834619962397
0.0021302002318005
0.0013340477789388
0.0008850301739983
0.0010241693186328
0.0015964658389806
0.002433606031659
0.0034141645228887
0.0043415447198193
0.0049290617532905
0.0048274551120544
0.0038500704498095
0.0023500658290961
0.0010688637069181
0.0003783027881488
-2.58689509457317e-05
-0.0005091698499157
-0.0009683845978981
-0.0011680307780246
-0.0012520607237557
-0.0015703783481262
-0.0021832553344744
-0.0028096818628958
-0.0031359579876444
-0.0030425342825976
-0.0027400253606052
-0.0027053054176756
-0.0031292072655008
-0.0034673076011426
-0.0029711934805645
-0.0015486614340166
0.0002881724340863
0.0020262761082423
0.0033482459219592
0.0041413734621791
0.0046424002596528
0.0053233273927377
0.006540058702129
0.0082772607296244
0.0099054005480049
0.0103133273872015
0.0089084368553457
0.0063695172360535
0.0038183473981828
0.0015304813635831
-0.0009502160530218
-0.0038154887699928
-0.0067800512786216
-0.0096827511392066
-0.0127742364569578
-0.0162726710595715
-0.0197476503720959
-0.022135919323218
-0.0225831946210844
-0.0212211413244871
-0.0188940116470649
-0.0162213183226279
-0.0132006726407107
-0.0095917328735703
-0.0053240384700466
-0.0005918191940953
0.0040970546225534
0.0080421370222972
0.0109398367908106
0.0132805676134131
0.0156748399569951
0.0178810602827684
0.0190409567575322
0.0187152724149354
0.0171416540420296
0.0147832965766809
0.0121920269068982
0.0099083791242452
0.0079702606222555
0.0058832622004673
0.003356206647623
0.000736865900811
-0.0013111033393436
-0.0023659700453671
-0.0026878873344973
-0.0030977444218089
-0.0040305506434864
-0.0049226636060391
-0.0050381100735742
-0.0045294122472756
-0.0041020530106407
-0.0040095616794896
-0.0039636907033698
-0.0038173024108077
-0.0038704316507212
-0.0044518663232753
-0.0053266770024953
-0.0056567140517389
-0.0047357050039319
-0.0027472099351572
-0.00057705362901
0.0010947544203534
0.0022631319075037
0.0032215550258266
0.0040762281560891
0.0047151593025679
0.0049704480786751
0.0047033167109686
0.0039512635744233
0.0029774829704249
0.0018450630377475
5.84341521762996e-05
-0.0028222750607487
-0.0062552478427055
-0.0089721594931208
-0.0101310168066968
-0.0098275829171363
-0.0086946361947877
-0.0073533371315617
-0.0060486131471638
-0.0046633677009781
-0.0031633020040662
-0.0017670463410917
-0.0005500847709494
0.0006963115658128
0.0021453641853374
0.0038261164892616
0.0055686672347178
0.0067011913873132
0.0064213737009222
0.005025919708628
0.0041607281046118
0.0052328129124486
0.0079040983346231
0.0104688644204639
0.0114436898157014
0.0106831286970407
0.0092263081622089
0.0081912817053198
0.007783841557747
0.007412662514483
0.0066461038109346
0.0057309463182214
0.0051259942808002
0.0048799801678761
0.0046706515718123
0.0042314120291104
0.0035503390236964
0.0028062284874481
0.0022010731847419
0.0016515616537396
0.0006445790197669
-0.0012954361187345
-0.0040136373998246
-0.0068600016150605
-0.0092717814317538
-0.0110546515530068
-0.0124202436924502
-0.01385390439548
-0.0155668217708673
-0.0171512892492976
-0.0181209966465247
-0.0184579286334031
-0.0183310770806844
-0.017810638140884
-0.0170829918083959
-0.0163497165917615
-0.0153975782944323
-0.0137962554066962
-0.0114996540783425
-0.008836080777859
-0.0060142153739741
-0.0029472780488649
0.0004910020491881
0.0041558181289021
0.0076154088641208
0.0105723934625159
0.0132182718774161
0.0158263352192912
0.018048484928772
0.0191006444495027
0.0187169024005208
0.0174939082322357
0.016209544009823
0.0151907618139309
0.0144138209976099
0.0137710665087157
0.0130511904955356
0.0120279910463809
0.0107557726367028
0.0094742772286994
0.0081422702963116
0.0063924281375778
0.0039721029601641
0.0010057930277057
-0.0020149218706684
-0.0043851178262834
-0.0057086738458512
-0.0063097447762196
-0.0067256006584899
-0.0070214319871975
-0.0070650129393516
-0.007025134042635
-0.0071171453098576
-0.0073262576526212
-0.0076447831903007
-0.008091905803126
-0.0084990591545631
-0.0087663340931216
-0.0091179147616151
-0.0096319419611684
-0.0098517533221013
-0.0093676336845969
-0.0085585976736058
-0.0082912736665957
-0.0088225584742312
-0.0092334378769004
-0.0082203581582715
-0.0055062072220527
-0.0021575993361194
0.0007108973923691
0.0031849587668265
0.0061015414876734
0.0096289521851677
0.0128314508138902
0.0146091351676516
0.0146652365633509
0.0135962284226692
0.0124539125896883
0.0121560505256033
0.0127966270201266
0.0134918390215833
0.0133186261965356
0.0122990753212321
0.0110964709027314
0.0101100049338681
0.0093402650191504
0.008721589208502
0.0081156618416457
0.0072460438978387
0.0058441806895488
0.0037667284358949
0.0011560922472394
-0.0015092995087506
-0.0039580241986306
-0.0065601047468703
-0.0096165892154225
-0.0125409047979547
-0.0144935169089323
-0.0155411120708058
-0.0165144700108478
-0.0179080292271359
-0.0193814917248254
-0.0202564965540452
-0.0202521476734464
-0.0196606769276949
-0.0188018869873898
-0.0175410800632564
-0.0156827915111256
-0.0136339193978681
-0.0121035529475454
-0.0111662276227944
-0.0101631252280637
-0.0085561543640986
-0.0063667470005304
-0.0037384891981133
-0.0006330319923835
0.0028683732916528
0.006399610753535
0.009575227267444
0.0120820432836629
0.01360510412977
0.0141588074725591
0.0143756670604091
0.0149806974140178
0.0161088002656442
0.0173778294075734
0.0182543208586023
0.0182303929100355
0.0171772551290442
0.0156159236504752
0.0142675251118499
0.0134410684268761
0.0129896091520834
0.0124946855541806
0.0115040254674476
0.0100171798707187
0.0085437780206874
0.007346952924959
0.0061060767207459
0.00467043468262
0.0035263381718541
0.0030811086390776
0.002947426450045
0.002325552763687
0.0008912699531549
-0.0009117271082791
-0.0024725202899319
-0.0038760030298041
-0.005982585147913
-0.0094261705329833
-0.0136836791678068
-0.0174556371187696
-0.0198697099386833
-0.0209780042037524
-0.0211969778545566
-0.02075702335013
-0.0197578079665586
-0.0182823664977675
-0.0163024298458491
-0.013842862315834
-0.0112684067365179
-0.0090087680413316
-0.0070873446272081
-0.0053244421303575
-0.0037884088773312
-0.0026741848283453
-0.0020145298769501
-0.0017234881247841
-0.0016223940557995
-0.00143419365502
-0.0010091842823969
-0.0003506067103011
0.0006342824459944
0.0019585835013258
0.0032689426785176
0.0043560169606106
0.0057168771520125
0.0079572600290553
0.0108582825958607
0.0135358655158388
0.0152987398125334
0.0160246097605366
0.0159194564746268
0.0151986448636937
0.0140334855575303
0.0127463967362458
0.0118266089754706
0.0114701745032641
0.0112405841754941
0.0105506409034614
0.0093993939385335
0.0082675737499325
0.0073860812337879
0.0065569256593271
0.0056633117976044
0.0048448594382436
0.0040905287703341
0.0031578456216435
0.0020127271112172
0.000892394862789
-0.0001011870056023
-0.0010121338006854
-0.0017532426615382
-0.0023437903932504
-0.0032668833756003
-0.0051206007373585
-0.0080085963204689
-0.0114063911121795
-0.0144370532798919
-0.0164281526424463
-0.0174467041595604
-0.0180223066562487
-0.0183300570088086
-0.0181520783176852
-0.0174868596977621
-0.016534117658284
-0.0152910807303399
-0.013767007839498
-0.0123189535970991
-0.0112828148193992
-0.0105117663015493
-0.0095800405297498
-0.0082800525876033
-0.0068147341112636
-0.005554013538509
-0.0045214213597922
-0.0031711914366884
-0.0009303818923033
0.0020954435739356
0.0052701506781549
0.0081944018976951
0.0109379477218658
0.0135250969020697
0.0156050824942583
0.0167677726617633
0.0169212364893542
0.0162925522105238
0.0153230408336329
0.0145397739590816
0.0141581073917727
0.0138469498732776
0.0132681905201422
0.0126919582415555
0.0126574195248943
0.0132559439332253
0.0140977693205228
0.0146618841287476
0.0144270278986409
0.0129932304834445
0.0102894235891599
0.0066828611095327
0.0030306514717516
0.0003289559239336
-0.0012452194348659
-0.0026236472959381
-0.0045904254121878
-0.0067253994767255
-0.0081862268023144
-0.00892978082192
-0.0095423229972164
-0.0103676794894742
-0.0113287148041234
-0.0122998478903781
-0.0132804900223193
-0.0142564441788052
-0.0150323252644515
-0.0153251693267071
-0.0151246160151368
-0.0148089770605029
-0.0146999674513889
-0.0146698855768564
-0.014451522927011
-0.0141425884585036
-0.0139877439798699
-0.0136916405747076
-0.0123827189510751
-0.0094229572999939
-0.005036272775767
-0.0001420904976335
0.0041540891062952
0.0070367234807655
0.0084242733804558
0.0089817151954776
0.0094640109556379
0.0101453650003856
0.0108850741779914
0.0113665611019749
0.0112883747865834
0.0106810605988191
0.0098846750561438
0.0090395237421435
0.0080097628421718
0.0068294052153242
0.0056566494419194
0.0044473449606164
0.0032912509595112
0.002741332377833
0.0031989513524232
0.0043415283057418
0.0056118522838634
0.0068532046450273
0.0081058649110219
0.009146617120894
0.0095710359873596
0.0092488760245904
0.0085713213115353
0.0081514135471721
0.0081764319282361
0.0081587905623518
0.007481775162002
0.0060418352764534
0.0041661237626197
0.0021208114874561
1.94355299825885e-05
-0.0019428103610801
-0.003549735842501
-0.004806823611774
-0.0058250663523923
-0.00663889575293
-0.0075235443797939
-0.009183207858967
-0.0120009379331057
-0.0152755309055142
-0.0177339550386815
-0.0186329806555087
-0.0180854147590699
-0.0167017027756195
-0.0151655970173743
-0.0138378867940234
-0.0126527534969212
-0.0114276238234606
-0.0100070456460913
-0.0082052513427314
-0.0061102167604979
-0.0042442979782662
-0.0029010408225464
-0.0016860610909008
-0.0001914032097783
0.0013754169318082
0.0026823984095576
0.0038986620344373
0.0054007987196943
0.0071285338097935
0.0085143055836616
0.0090318325225572
0.0087820553254857
0.0084561303604894
0.0086202196913691
0.0091949646670652
0.0097938311635445
0.0102993302142628
0.010787683545204
0.0110750624147871
0.0107240944758399
0.0095010831464283
0.0075942512728188
0.00541222338084
0.0033631351792306
0.0017119664013614
0.0003873887820979
-0.0009214510852602
-0.0022127354040774
-0.0029817817684224
-0.0028673764591574
-0.0021586963293129
-0.0014434395129024
-0.001105987964647
-0.0012098441180711
-0.0014917425890565
-0.0015484683377257
-0.0012505084726553
-0.0007504191084139
-0.0001579723726212
0.0003480477437194
0.0003543446622901
-0.0002848208079781
-0.0011244828287173
-0.0017608362220442
-0.0023320181891
-0.0030349749348751
-0.0036310081731081
-0.0037610554344536
-0.003455783223895
-0.003139397538313
-0.0031988726322306
-0.0035399337325115
-0.0036287172725791
-0.0031298913850605
-0.0023817207207241
-0.0019928659974225
-0.0020972776423327
-0.0022994850904841
-0.002252729190971
-0.0019695241588356
-0.0016132162525531
-0.001310264547194
-0.0011598237598704
-0.0011333810496352
-0.0010146338283018
-0.0007167680495182
-0.0004746717156888
-0.00038533575148
-5.28276371349274e-05
0.0009218715106752
0.0024011506308773
0.0039148035177113
0.0050572970770489
0.0056258395684458
0.005748630016728
0.0058266707443152
0.0061439541428565
0.0067468448751345
0.0076361893529613
0.0086505639144813
0.0093794629284609
0.0096459739281191
0.0097421579998661
0.0098648646361914
0.0097845532496102
0.0092546703711134
0.0082002783013594
0.0064270931525807
0.0037353295346115
0.0004276365358279
-0.0027505135659316
-0.0053039935208812
-0.0074025574117755
-0.0095590948438024
-0.0119964311966065
-0.0143626035114118
-0.0160690629999411
-0.0168755002911617
-0.0170418952260008
-0.0169136830447065
-0.0165725957461188
-0.0160027300380664
-0.0153166073805584
-0.0145356079294286
-0.0134058705016448
-0.0118060513350383
-0.0100670144670617
-0.0084648755234646
-0.0067092147207233
-0.0043713813065718
-0.001536990247081
0.0012492824220163
0.0034138865465263
0.0047150788591372
0.0055026149438922
0.006488425781904
0.0080546983890104
0.0100184806820712
0.0119757661362498
0.013467697079441
0.0141428932530641
0.0142617644692161
0.0145836594114502
0.0152961636508328
0.0155821583751099
0.014637714192369
0.0126552422252211
0.010519773890308
0.0088666247205885
0.0076271143973909
0.0063632184365657
0.0049234073544382
0.003614622660466
0.0026455346294883
0.0017058718178513
0.0004238771745048
-0.0009830312927021
-0.0019113711952565
-0.0021126816067816
-0.0018801251094003
-0.0015812776833214
-0.0013576708909882
-0.001238770935281
-0.0012042261371764
-0.0011640154730691
-0.0011840085502219
-0.0016357535909871
-0.0028379952943846
-0.0046764195272301
-0.0066840633082779
-0.0082141140159525
-0.0086416385617232
-0.0079537378661139
-0.0070468158143732
-0.0069230269857355
-0.0077352095635022
-0.0088571449374351
-0.0095090197727917
-0.0092393751105347
-0.0082519151157479
-0.0071928861654321
-0.006313795532554
-0.0051957651527775
-0.0035164782041876
-0.0015502559313904
0.0002879230384948
0.0018818323937859
0.0032586466328575
0.0043631617494914
0.0050741267338191
0.0053409772031507
0.0053689123239039
0.0055631407026181
0.0060261418570084
0.0062622271065039
0.0057447935803063
0.0046504438288969
0.0036557642329628
0.0031085358461896
0.0027759661411323
0.0023402376732765
0.0017500395929834
0.0010922493057379
0.0004586966188884
-8.99249322602881e-05
-0.0007000512454065
-0.001682117733016
-0.0029872141702002
-0.00401458253956
-0.0042409426457438
-0.0037216293377053
-0.00283968071794
-0.0019904876648493
-0.0015143414606916
-0.0014916233857169
-0.0016454041846558
-0.0016364660374358
-0.0012552697471725
-0.0004365489328577
0.0005238654392927
0.0010460421176626
0.0009582161796713
0.0007184926439316
0.0006895761803713
0.0007292028990033
0.0006956956223799
0.0008165085768169
0.0013460503707301
0.0021687923520526
0.0028441613609091
0.0030004269197775
0.0027787932910243
0.0027878061277433
0.0033767925675098
0.0040985940536635
0.0041959720792839
0.00348355222077
0.0024481931843401
0.0016188947970491
0.0011589501958271
0.0009716040707989
0.0008759090194674
0.0007257855761903
0.0005953292694239
0.0006950294188689
0.0008773378784007
0.0005613928453832
-0.0005010436694663
-0.0017650735837067
-0.0025455041733459
-0.0027455971819443
-0.0027371143539824
-0.0029342558760693
-0.0035368715580885
-0.0043524647570057
-0.0049681652918742
-0.005206931365183
-0.0051243310946476
-0.0047164889406831
-0.0041160329298305
-0.0037763929474833
-0.0039477754776318
-0.0043081230576948
-0.0044484696682033
-0.0042951235341226
-0.0038666006149493
-0.0030964375530823
-0.0020763831124612
-0.0011638735518534
-0.0007202721627922
-0.0007607498187467
-0.0007771202944235
-1.50027111475686e-05
0.0018317651813642
0.004300804250455
0.006737933761535
0.0089810046742684
0.0111733591355839
0.0131005008412137
0.0141346052416609
0.0138570238894581
0.0124820650958395
0.0106902311094625
0.0092087418713981
0.0083191585835191
0.0074553126745867
0.0055651070340143
0.0022735826750354
-0.0015430608567764
-0.0045792104106855
-0.0061489108183238
-0.0063610475678711
-0.0057997368220456
-0.0051390611686615
-0.0047106512784055
-0.0044605443537805
-0.004331304267867
-0.0043162661511844
-0.0042610087912089
-0.0041122998016199
-0.0041427943389721
-0.0045037652798644
-0.0049140458955828
-0.0051158314057613
-0.0052330312814532
-0.0054610967084885
-0.0057272792093268
-0.0057607197759455
-0.0053688111580604
-0.0047261516176251
-0.0043620135044299
-0.0046054781173279
-0.0051227989270553
-0.0052993803317005
-0.0049331703095395
-0.0042427312120479
-0.0033906647146603
-0.0023749101252219
-0.0012821680554633
-0.0003038684046763
0.0004923752826209
0.0011964884093083
0.0019197408933837
0.0027719112834879
0.0037863407368353
0.0046873612920102
0.0050406025921138
0.0048794621017301
0.0048224721836613
0.0053389445169933
0.006244035341293
0.006977231632366
0.007013083554922
0.0061438628214908
0.0047498145793394
0.0035858226332066
0.0030898779323104
0.0031181051650471
0.0032025782786094
0.0027537690683221
0.0014626527754491
-9.53020505611223e-05
-0.0008165929538567
-0.0003811103817393
0.0003563497950737
0.0005043927299591
0.0001081129030921
-0.0001966852515811
-7.93734990364253e-05
0.000144161256678
-3.49750468824475e-05
-0.0006316327992709
-0.0011225047330487
-0.001173856210616
-0.0010919692841573
-0.0012882922621544
-0.0016090623983798
-0.0015632464000486
-0.0010010565482625
-0.0002111331741448
0.0004705122498682
0.0008011897578872
0.0006034518282685
9.94116760632457e-06
-0.0004673525000146
-0.0005111586084582
-0.0003895834726612
-0.0004371078846909
-0.000530171920809
-0.0004016949159064
-6.786188246201e-05
0.0002694474776086
0.0003849175479751
7.62405225919218e-05
-0.0006725489672543
-0.0016511869009151
-0.0025309777563359
-0.0028068696628575
-0.0020377523128699
-0.0005900875671587
0.0004175591001014
0.0004071301639856
-1.21863073954461e-05
-2.8569722493747e-05
0.0004083764175585
0.0008638672800248
0.0010434352509101
0.0009182031839381
0.0006134212345243
0.0003083242520379
0.0001323089233506
0.0001768840162998
0.0005243708499567
0.0010611913749185
0.0013688639955406
0.001078927935545
0.0002945403095383
-0.0005493601292304
-0.0011759995154302
-0.0016377835658515
-0.002116232447412
-0.0027537701474213
-0.0035353568896023
-0.0041216319142885
-0.0040288386647773
-0.0032288554524389
-0.0022667171283561
-0.001544192395699
-0.0008977135856082
-7.62105406076002e-05
0.0008673496798782
0.0017842462072991
0.0025389016629201
0.0029059328269673
0.002736936820605
0.0021519415148125
0.0014625150858153
0.0010741759543083
0.0012411244873797
0.001660714101705
0.0017301775717625
0.0013480625615951
0.000815381278723
-4.72400245626911e-05
-0.00175546572156
-0.0040248211045782
-0.0056499645643647
-0.0057801126693469
-0.0048171781474427
-0.0038887500707482
-0.0036743651735944
-0.0038292977529432
-0.0035010582882012
-0.0023329596462252
-0.0007977660522658
0.0004700496467496
0.0013815801257431
0.0022564143855635
0.0032079931103683
0.0039452722322526
0.0041299323812586
0.0037288323898511
0.0030238383760265
0.0023688962456122
0.0018408122802684
0.0011118455553281
-4.51679379146615e-05
-0.0011157322283081
-0.0011942600821083
-5.9008701611969e-05
0.0015761866313255
0.0028424054766172
0.0033181900438269
0.0031422579533912
0.0030081167443696
0.0037272176966912
0.0054396616299787
0.0074499356697806
0.0087936248024236
0.0087730502594197
0.007346587740927
0.0052826665758205
0.0034972863140301
0.0021285597040457
0.0007306147396044
-0.0007508197284265
-0.0018217835712218
-0.0022024845419435
-0.0022489468464882
-0.0025672721216037
-0.0033931485329103
-0.0043439068407221
-0.0047935088750122
-0.0045317678424687
-0.0039177809283413
-0.0033586285430223
-0.0029239172026622
-0.0025857171807364
-0.0024945481338665
-0.0027671736031575
-0.0032566934044632
-0.0037879919452091
-0.0043599255956287
-0.0048639354735347
-0.0049887370879668
-0.0047564272728575
-0.0046933345123532
-0.0050406510959005
-0.0052607468180057
-0.0047145793602456
-0.0033951972353811
-0.0017685928271713
-0.000303770760881
0.0007617400324623
0.0014784692644451
0.0019964341372849
0.0023592531873805
0.0026596998489939
0.0030469155859492
0.0032705644302284
0.0027638822829177
0.0015102491929396
0.0002171946518129
-0.000592069719294
-0.0010221465244119
-0.0012247103198096
-0.0010008353898115
-0.0001623897839863
0.0010631982715146
0.0021313235663396
0.0026560872308471
0.0028080068704846
0.003098294643039
0.0036579388141181
0.0039895839521786
0.0036377346375768
0.0028182803106097
0.0021142302575935
0.0018004414683912
0.0017606352876751
0.0018363891969184
0.0019129251900139
0.0018361288814225
0.0015802715054448
0.0013358291085204
0.0011729841656258
0.0008916662449158
0.000440240141542
0.0001189994745471
0.0001666883148534
0.0004895308748111
0.0008357688329192
0.0009279304903914
0.0005733871582549
-0.0001116335532294
-0.0008023097566088
-0.0012884985756002
-0.0014520464135537
-0.0012538205516348
-0.0010448550131609
-0.0013413919363213
-0.0020123662497302
-0.0023359609741905
-0.0020395809904456
-0.0016096461642102
-0.0014689985415887
-0.001457817384749
-0.001233663710305
-0.0007857685341383
-0.0004435319504634
-0.0004677920265261
-0.0006603387866788
-0.0005356299564781
1.14973090863127e-05
0.0004733674449574
0.0003768119431645
-0.0001008614386449
-0.0004301930221219
-0.0004215725069495
-0.0003179895157755
-0.0003533098283015
-0.0005248628586886
-0.0007091664610307
-0.0007486801860539
-0.0005480434567879
-0.0002833719508021
-0.000296208251113
-0.0006235353494378
-0.0009266800657165
-0.000942164602708
-0.0006773860734681
-0.0002847228550017
-7.79467551643883e-05
-0.0003775669786959
-0.00106395272483
-0.0016561265622521
-0.0018927286126516
-0.0018161934642814
-0.001505272729786
-0.0011914347064724
-0.0012444709801698
-0.0016310408767967
-0.0018486035741803
-0.0016471248480023
-0.0013137353522277
-0.0011048994883079
-0.0008736905473405
-0.0004018960718919
0.0001888287245221
0.0005079283279263
0.0003773676512306
0.0001821118735803
0.0005201978247696
0.0014353554033702
0.0022998610699146
0.0025899218175628
0.0024348613987554
0.0022300877379429
0.0020994184581952
0.0020231543905682
0.0021373147294805
0.002509164809844
0.002867171073283
0.0029300721130367
0.0027703173115067
0.0025601744551656
0.0023088126473021
0.0021199339307616
0.002280225985493
0.0028717643503298
0.0036864895419581
0.0045348356158643
0.0052670821872981
0.005673796076266
0.0056849127065455
0.0054505159254768
0.0051676587046479
0.005062959946643
0.0052648665252136
0.0054243150059605
0.0049778957631251
0.0039958090497386
