-0.0027735258779276
-0.0031614620559915
-0.0032638204506103
-0.0028852873503507
-0.0023074619079906
-0.0019154783339103
-0.0018107102486183
-0.001857005317704
-0.0018695287096333
-0.0017534712044179
-0.0015885408949019
-0.0015116102491424
-0.0014682794230819
-0.0012296720414533
-0.0007121916315195
-0.0001263594269328
0.0002439396931296
0.0002626623693075
-4.6730639041985e-05
-0.0004654061991378
-0.0005661696049013
-7.94031765818814e-05
0.0007089002309165
0.001263078866303
0.0014221124022846
0.0013801901693865
0.0012841600265738
0.0012005513058893
0.001168937724424
0.0010643493056282
0.000745056752595
0.0003192031867995
-5.3141135000311e-05
-0.0003510534294395
-0.0004677504017141
-0.000275655952117
5.24947195007294e-06
7.33273830639383e-05
8.60315254907044e-05
0.000380392667251
0.000897867241193
0.0013668494162181
0.0017450615977827
0.0021204201728184
0.0024587454759969
0.0026542532381811
0.0026305306994265
0.002370313947173
0.0019752163497588
0.0015706951708682
0.0010673271152699
0.0002417218757325
-0.0008601383861135
-0.0018503782123985
-0.0024179461774844
-0.0025767170906616
-0.0024221429849402
-0.001929726754918
-0.0011379150854021
-0.0002765007359486
0.0004353955572176
0.0009205726193826
0.0011481379584287
0.001146329092701
0.0010363897253969
0.0008556165312971
0.0005933243319506
0.0004890585574215
0.0008000229165395
0.0012589409859189
0.0013746128545082
0.0011520721495387
0.0009283126353664
0.0007970930294164
0.0006763980908437
0.0005216004039067
0.000194663399759
-0.0004013580173275
-0.0010122815851261
-0.0013099971744184
-0.0013283914946736
-0.0012644077079094
-0.0011405021943652
-0.0009404617661193
-0.0007773837760488
-0.0007676797043023
-0.0009564586071132
-0.0013488044352341
-0.0018349584791671
-0.0022170594446091
-0.0024537168205457
-0.0026871400090722
-0.0029369157981015
-0.0030249887081484
-0.0028956293344361
-0.0027124473408789
-0.0025226079305722
-0.0021486880514266
-0.0015538779901162
-0.0009650654278975
-0.0004908422801326
2.68844110751126e-06
0.0005274636228573
0.0008898711628244
0.0010237795837401
0.0010703490662912
0.0012129519686484
0.0016264076507999
0.0022958313736797
0.0028327600228688
0.0028812987424971
0.0025728384700074
0.0021802346232951
0.0017006762132053
0.0011404158367579
0.0007054947275531
0.0004665273189477
0.0003145359603242
0.0002662536882547
0.0003896263592748
0.0005906459338367
0.0007904095283138
0.0010424410869167
0.0012920240292903
0.0013394208279975
0.0011368646032622
0.000863948372408
0.0007147318985396
0.0007744503038234
0.0009975956652556
0.0012026788836944
0.0012364422116477
0.0011712077114496
0.0011565745940241
0.0011130381015612
0.0008274113418595
0.0003297670984318
-0.0001171649792907
-0.0004013357742056
-0.0006176609140423
-0.0007750216658802
-0.0008295237146316
-0.0009371049064545
-0.0012359559378662
-0.0015071850182011
-0.0014699000203052
-0.0011761529739981
-0.0008019678922944
-0.0004366109082409
-0.0002432860335191
-0.0003480698537273
-0.0005769357926452
-0.0007124776490677
-0.0007573237811542
-0.0006735400156368
-0.000346778339117
3.45922877268072e-05
0.0001083232388088
-0.0001437517587529
-0.0004635681794895
-0.0007289276330697
-0.0009364843426849
-0.0010414528019918
-0.0010614515581985
-0.0010916817589822
-0.0011376522821074
-0.001136075757329
-0.0010639014252324
-0.0008613571906295
-0.0004252272334987
0.0001817586083816
0.0007134572219068
0.0010085550611964
0.0010594644550953
0.000810434540711
0.0002040651984253
-0.0005090151868945
-0.0008657164528125
-0.0007509724209449
-0.000547379741761
-0.000589998978792
-0.000803850733341
-0.0009734900289892
-0.0010237682476373
-0.0010007725496118
-0.001038891720749
-0.0012222133722588
-0.0013445633606369
-0.0011232337864584
-0.0006382044747127
-0.0001369871783379
0.0003949392405496
0.0010469265591307
0.001741020107498
0.0024614323162776
0.0032124334035802
0.0036703822746754
0.0034799912200131
0.0028289278682449
0.0022081119993173
0.0018318533656384
0.0016803161787151
0.0017431216088549
0.0018940125487248
0.0018433680274694
0.0014083561230185
0.0006452930117713
-0.000255111819829
-0.0010564922701282
-0.001617848247134
-0.0020638974809606
-0.0026131296281908
-0.0031705541300748
-0.003350509910912
-0.0029977115018165
-0.0024387721670711
-0.0020939023018605
-0.0020271986861604
-0.0019521380153488
-0.0014848140558251
-0.0003982823837357
0.0010971517903919
0.0023672849954794
0.0029291204991928
0.0028731870581454
0.0025140614918369
0.0020115970146613
0.0015407229276
0.0012978853914585
0.0011877047004865
0.0010235661420777
0.0009661573581971
0.0012690663097733
0.0018376391944335
0.0023980285557584
0.0027589667003183
0.0027849404230737
0.002502109007967
0.0021415605698831
0.0017590138584087
0.001117263377971
0.0001789824017268
-0.000727405545337
-0.0014092827363611
-0.0020402905839609
-0.002788946592884
-0.0035715740195913
-0.004207389979816
-0.004585469690123
-0.0047096544798955
-0.0046966901577949
-0.0046433712051587
-0.0044616393687066
-0.0039882702280745
-0.0032744377152242
-0.0025982053077847
-0.0021542353745299
-0.0018813994145315
-0.0016081428703628
-0.0012018460051086
-0.0006124917185298
1.94670316206722e-05
0.0004077242438881
0.0005128888670366
0.0006565961799773
0.0010096456045021
0.0013684594932324
0.0016348761941866
0.0019787845823673
0.0024179036816587
0.0027930735002254
0.003086569447478
0.0032930174736502
0.0032675303237995
0.0030351692401319
0.0028249472289091
0.0026682154930947
0.0024245586996307
0.0021146883336671
0.0018040857092971
0.001410117703983
0.0009504276497573
0.0006470924056115
0.0005815616876403
0.0005738226920122
0.0004716778228067
0.0002904290074901
0.0001087425971276
1.76092067298435e-05
6.16709734459867e-05
0.0001226661785816
1.42286289376559e-05
-0.0002578396496444
-0.0005044833326039
-0.0006429384678095
-0.0007909068915966
-0.0010541178010346
-0.001406316949349
-0.001778320493296
-0.0020630922055262
-0.0020923490601805
-0.0018662207041652
-0.0016650170904915
-0.0016263208930909
-0.0014793890184835
-0.001036673408338
-0.0005500496066814
-0.0002725874927878
-0.000144520466771
-7.9175724259639e-05
-6.08364433949918e-05
4.94965389406813e-06
0.0001171136390498
0.0001022971668114
-4.67605539057824e-05
-0.0001710982250196
-0.0002972601340784
-0.0004822454458696
-0.0004903144849502
-0.0001283838135405
0.0003926889202974
0.0008241862868715
0.0012378232129977
0.0017388103631803
0.0021735156902287
0.0023157326960077
0.0021232816090818
0.0017599202466538
0.0014778076236916
0.0014013774796192
0.0013671783889808
0.0011186888308879
0.0006727679042831
0.0002960062918266
0.0001093825377817
-3.9873132292673e-05
-0.0002706796404388
-0.0005069090029692
-0.0007030103623735
-0.0009403766618555
-0.0012232096468809
-0.001477802112006
-0.0017377998295449
-0.0019839396821662
-0.001947288337984
-0.0014748341431835
-0.0008660031594309
-0.0005143438396876
-0.0005104502747706
-0.0007478313165554
-0.0010641050950201
-0.0013014717968883
-0.0014877899238015
-0.0017234246649171
-0.0018356915410746
-0.0016115729079744
-0.0012630203729288
-0.0011039213681204
-0.0010178254901658
-0.0007677175007052
-0.0004799249611409
-0.0003969533264746
-0.0004966260973256
-0.0005998051648102
-0.0005562034971759
-0.000266748736314
0.000229618118425
0.0007461001431989
0.0011672489730067
0.0015229016988091
0.0017923782113182
0.0018844775982592
0.0018544960789127
0.0018733512477462
0.0019347210751333
0.0018477028871242
0.0015676303965774
0.0012807900144519
0.0011065188934031
0.0009792874744981
0.0008783978312094
0.0009030226168595
0.0011002698293599
0.0014501285385453
0.0019100885970841
0.0022871992961806
0.0023417747208241
0.0021443232020353
0.0019522819501796
0.0017727252265127
0.0014939572806421
0.0012143217046645
0.0009801871242062
0.0005425544540602
-0.0002804796506101
-0.0013314887020373
-0.002262768035773
-0.0026535470244544
-0.0022506940924535
-0.00142670443964
-0.0009794791798093
-0.0012068245503135
-0.0016179528151663
-0.0016752640563146
-0.0013730711994909
-0.0010476779312071
-0.0009614329757864
-0.001052950114129
-0.0009549584787024
-0.0004209058391937
0.0002551196289272
0.0005452389397597
0.0004010001720759
0.00028757955611
0.0004899467867306
0.0007815558816854
0.0008483550115712
0.0006419851069261
0.0002008849111701
-0.0004849960099094
-0.001291849553413
-0.0019846673309567
-0.0024777368117545
-0.0027784066301764
-0.0028022296063716
-0.0025630544285073
-0.0023041007906244
-0.0021903175232925
-0.0021618489256382
-0.0021306870731911
-0.0019864521985868
-0.0015861936311798
-0.0010181226029471
-0.0005129613355944
1.16954774170675e-06
0.0007251644301286
0.001461243799825
0.0018553024221521
0.0019565564432799
0.0020290433143279
0.002114252722695
0.0021496196731666
0.002196489721722
0.0023411138020825
0.0026113592832549
0.0029884094798605
0.0033238938729246
0.0034109559344439
0.003261057304469
0.003053730273301
0.0027575082912316
0.0021485098552428
0.0012672669950562
0.0004887909532205
3.36465294973343e-05
-0.0002795556477661
-0.0006984317255578
-0.0012416406098762
-0.0018162845056139
-0.0023299148237392
-0.002634430578908
-0.0026724451577889
-0.0026553430587635
-0.0027607561240477
-0.0027790556260867
-0.0023976810883037
-0.0016415821228005
-0.0008094398136195
-0.0002414356285399
-0.0001684985401725
-0.0004651625213503
-0.0007154742729124
-0.0007493409559552
-0.0007367495001642
-0.000713051194646
-0.0005893159603736
-0.0005243655829982
-0.0006585318205762
-0.0007168136530917
-0.0004218348345526
4.47448943005387e-05
0.000396690791372
0.0006615595967181
0.000973147870881
0.0012859531195744
0.0014449891422535
0.0013606607010927
0.0011429070472494
0.0011148008101347
0.0015046098074373
0.0021165146540639
0.0025518754495904
0.0027158029428382
0.0028240972314901
0.0029790387830949
0.003076469783573
0.0031034528768936
0.003164895183021
0.0031849908518084
0.0029159996562078
0.0022597785525613
0.0012841863659414
4.02570353325905e-05
-0.0012863836066956
-0.0022804261261441
-0.0027364713305251
-0.0029144768264958
-0.0031289239110488
-0.0034641331269114
-0.0039235851621485
-0.0044094140713617
-0.0046799119581222
-0.0046579415701266
-0.0044620048817013
-0.0040196722862107
-0.0031726305839861
-0.0021273332656604
-0.0012512401622385
-0.0005967317910076
-5.90801072542828e-05
0.0003175553963533
0.0005107736119682
0.0006432657328822
0.0007696054379917
0.000837455074219
0.0008462098547948
0.0008045693886861
0.0006770181845577
0.0005425960999344
0.0005685639885889
0.0007070661233273
0.0007010327828992
0.0004909157271273
0.0003424780273851
0.0004840476931411
0.0008520976057516
0.0012438351885281
0.0014938900326175
0.0015022375762231
0.0013395300425714
0.001268769018912
0.001399467458875
0.0014923565636172
0.0013976165233921
0.0013685772072685
0.0016187072363933
0.001966245979865
0.0021494661743549
0.0020436248043069
0.0015276631993206
0.0006171917570003
-0.0003890721607748
-0.0012352552993991
-0.0018804330406823
-0.0022441550217366
-0.0022705399551904
-0.0021875751393877
-0.0021904273293614
-0.0020620855048613
-0.0015161510499483
-0.0006096301297802
0.000442821307359
0.0015049895864714
0.0024467037205375
0.0031381694515472
0.0034883187848684
0.0033203983090387
0.0024778140409085
0.0012458132041304
0.0003169277598907
9.39231228331596e-05
0.0002906300953968
0.0003870940723839
0.0002194102272106
-4.0526467275806e-05
-0.0002550011396436
-0.0004813625179407
-0.0008895587941301
-0.00158604491766
-0.0023842224171868
-0.0028347118327231
-0.0027344333018284
-0.0024348246044608
-0.0023309130241694
-0.0023133163285447
-0.0020339753489162
-0.0013547161511476
-0.0003452830503099
0.0007103790496182
0.0013051925912004
0.0012023528725015
0.0007718472168291
0.0004707437104762
0.0003661548416877
0.0003668066268164
0.0004089218924406
0.0003609772467717
0.00020379819311
0.000150463714021
0.0002365612456929
0.0001027876913021
-0.0005791870047742
-0.0017916796464354
-0.0033172602300722
-0.0048567901687862
-0.0060822956844939
-0.0068485888933023
-0.0072120894507408
-0.0071409430980228
-0.0065253629254073
-0.0055496175475886
-0.0046213856861955
-0.003753576718918
-0.0023884379240337
-8.34966208894379e-05
0.0028543787529466
0.0056108683977156
0.0075591476876575
0.0085856061952052
0.0089508228378925
0.0089932161454783
0.0088420080474951
0.0083971195158864
0.0076569938855865
0.0068301991050238
0.0060092966120243
0.0051357314846929
0.0043736615082713
0.0040132873311413
0.0039982356821684
0.0040097945447404
0.0038407101536783
0.0033554706219343
0.0024703051609545
0.0013682623472143
0.0002883540663904
-0.0008538167604932
-0.0021793694516276
-0.0034221564813405
-0.004196551183621
-0.0044007467355467
-0.0041584914590845
-0.0037085824128328
-0.0033771345049387
-0.0033111804817787
-0.0033106502026086
-0.0031505206713664
-0.0028642100539405
-0.0025749785987075
-0.0023530576159731
-0.0023290281856182
-0.0025966741688776
-0.0029035048694781
-0.0027690422958356
-0.0020547739612135
-0.001182607277772
-0.0006711145115128
-0.0006498350437197
-0.0009052294295215
-0.0011823290653158
-0.0013656309819872
-0.0015530350862851
-0.0019470893106606
-0.002534970212675
-0.0030390511221925
-0.0032695353737104
-0.0032041063064687
-0.0027495644712393
-0.0019036963884506
-0.0010097928777714
-0.0003465500665998
0.0002533305704847
0.0009928482105572
0.0017618503930168
0.0024265236177525
0.0029853600381293
0.0034019051184057
0.0036676889030721
0.0038410989066334
0.0037989191784347
0.00334825291933
0.0026847721683705
0.0022535198654055
0.0021570611429297
0.0021463583638168
0.0020683217921056
0.0019209249027348
0.0016467878390464
0.0012081183430674
0.0007166426853422
0.0002832552340736
-0.0001210405975187
-0.0005526929365358
-0.0009953560135274
-0.0014300098718312
-0.0018647009832558
-0.0022745511180292
-0.0026422243936502
-0.0029991410412991
-0.0032497192216462
-0.0031111451764031
-0.0025136830396056
-0.001845389843771
-0.0014545384104219
-0.00120233922938
-0.0008341078991861
-0.0003878965575938
2.46576950541188e-05
0.0003869608157022
0.0006234427987425
0.00071196407634
0.0008609120422155
0.0012424966791684
0.0017764491478542
0.0022898031013024
0.0025699537027391
0.0023982737164289
0.0018919361960844
0.0015041473781643
0.0013981173631222
0.0012304582625582
0.0007090920658783
-8.01219624736132e-05
-0.0009260138535058
-0.0016511284653646
-0.0020764910710159
-0.0021518310851369
-0.0020148423659196
-0.0017290441433462
-0.0011257868517349
-3.78100818262564e-05
0.0014304225949507
0.0028936510625763
0.0038580441343476
0.003997043348079
0.0034241858507089
0.0026206670298704
0.0019467235030851
0.0013813267087341
0.0009584906015236
0.0011556341067359
0.0023531263120097
0.0040885826143736
0.0053701381917597
0.0056026773934999
0.0048482838632082
0.0034855093071886
0.0019600972974103
0.0005735003876612
-0.0006772699582186
-0.0018760345419418
-0.0029330788556418
-0.0036907008148822
-0.004003172150789
-0.0037553179676732
-0.0031626944855299
-0.0027929533645396
-0.002924622215951
-0.003293538567272
-0.0036920845223814
-0.0042226036972634
-0.0048145189207573
-0.0051460191781203
-0.0051679825478658
-0.0051772538915361
-0.0053176453545651
-0.0053551842099862
-0.0049202471050767
-0.0038247971530463
-0.0022921784198718
-0.0009251461721864
-0.0002276681455766
-0.0001317123277861
-0.0001765059080399
-6.30647317844683e-05
0.0002388341269581
0.0008136459693301
0.0018060850261516
0.0030613737374466
0.004099537941745
0.0044773684800009
0.0039451656226268
0.0024572988943942
0.000390286160653
-0.0015146210053801
-0.0027744618884166
-0.0034727672661048
-0.0038660473139852
-0.004116068942219
-0.0043320700725646
-0.0044007523780144
-0.0039908773389946
-0.0030725474799135
-0.002059387560616
-0.001275108208723
-0.000710668411901
-0.0002238319421629
0.0004802240775646
0.0018281440626745
0.0039492901618302
0.0065308928011959
0.0092479523071205
0.0119756113518192
0.0145523557154684
0.016688587539388
0.0180837687166115
0.0184365355400148
0.0175145237108146
0.0153884762364315
0.0124523415608762
0.0091601205135894
0.005873560783271
0.0028730134906
0.000264305040524
-0.0021054535439075
-0.0044351436884605
-0.0067009707466479
-0.008772877263154
-0.0106875747819761
-0.0125290793409255
-0.0141318492258302
-0.0152063364353302
-0.0156316307970622
-0.0153551634881751
-0.0142613377623059
-0.0124109728251511
-0.0101472993953635
-0.0079013342558745
-0.0061738035793705
-0.0053918952934477
-0.0053145356504168
-0.0050260425709396
-0.0039312904237486
-0.0022577507620589
-0.0004522605756681
0.0012409656613676
0.0025991966997042
0.0034612417098599
0.0039008158569636
0.0040168036033352
0.0038065408575157
0.0034135460954296
0.0031450417152492
0.0031586155336611
0.0033808341122174
0.0036580274995954
0.0038239413755197
0.0038014418104746
0.0037165626210129
0.0036926482204227
0.0035611098362181
0.0030442490729949
0.0021695266084226
0.0012659975884876
0.0006602044672723
0.0006002810783346
0.0012734753381523
0.0025329467765504
0.0037473705992516
0.0043269276110848
0.0043059283047591
0.0040728587577654
0.0037651249484293
0.0033207237002003
0.0028116868312718
0.0023384537578714
0.0019058559945284
0.0015905575283881
0.0014511797561722
0.0012913027076054
0.0008860241424172
0.0002440748560774
-0.0005810400893795
-0.0015537203919794
-0.0024725469264557
-0.0031674220325086
-0.003735168982692
-0.0042044384360788
-0.004351141730243
-0.004168141581586
-0.0040226043890078
-0.0041032326182618
-0.0041685882921082
-0.0039489280776188
-0.0034264893467857
-0.0027287769132303
-0.0019928826092027
-0.001248611063377
-0.000346096653826
0.0008210208731863
0.0020330565804505
0.0029344080961862
0.0034650843960691
0.0038345400739125
0.0041086720014394
0.0041039108339515
0.0036863042605885
0.0029322735906328
0.0020127373051775
0.0011298038179656
0.0004648768271937
-5.61624149456897e-05
-0.0007844193684251
-0.001900250182015
-0.0031654606137585
-0.0042375398753305
-0.0048860035034595
-0.0049418244075747
-0.0045190664094048
-0.004159734592415
-0.0043273786137948
-0.0049780725557949
-0.0057843810845756
-0.0063418141423198
-0.0062608085284246
-0.0056606244530079
-0.0052698857983159
-0.0054264818659563
-0.0054775406440934
-0.0047712165698871
-0.0036831936193585
-0.0030593275084417
-0.0029848022909764
-0.002536511007396
-0.0007373805205411
0.002285837225443
0.0051776908530188
0.0066029907417842
0.0065461631973735
0.0061023283767928
0.0061351030684246
0.0064947638919415
0.0064529640511539
0.005565548882268
0.0041285774684478
0.0030151201163184
0.0030356596516474
0.0042746452145571
0.0060706625349135
0.0077313777862178
0.0090874483999425
0.0102105092937577
0.0109689573457726
0.0112205581530069
0.011116520382569
0.0108763095192063
0.0105364148239156
0.0100404389758243
0.009258785840302
0.0080146307882216
0.0063766975144182
0.0046250826717104
0.0027775275041514
0.0006173341577104
-0.001861533135626
-0.0045814505672546
-0.0076366996532086
-0.0107878362924241
-0.0131094198341934
-0.0137537095979585
-0.0127685902332097
-0.0108633558825883
-0.0087330243753724
-0.0067556336740501
-0.0050036342648594
-0.0034292588753412
-0.0021304097575238
-0.0013357857016679
-0.0011127073092573
-0.0013183670886368
-0.0018735707645585
-0.0028540815773285
-0.004262777347415
-0.0058956788891867
-0.0074885694664152
-0.0088875775532918
-0.0100852847557096
-0.0112016804344798
-0.0123421641167513
-0.0132857701856307
-0.0134674101557055
-0.0125732073850412
-0.0109938231541443
-0.0093730128968752
-0.0079346900093856
-0.0065267956263787
-0.0049891881699902
-0.00319859948852
-0.0009868004370699
0.0018533830058071
0.0054446689588767
0.0094377307302847
0.0129033134647753
0.0151526473170615
0.0164286831084923
0.017228095762534
0.0174136479956334
0.0166074033568149
0.0149269664598598
0.012821241908441
0.0106578642962007
0.0087188734197796
0.0071175831444026
0.005644192291152
0.0040987072227568
0.0027149529733167
0.0019519414888988
0.0019970346697756
0.0026562491043978
0.0035554734088719
0.0043366046113017
0.0048202069559426
0.0050516500004546
0.0051059833629426
0.0048813189849575
0.0041888970589202
0.0029782396120395
0.0013584886503803
-0.0004792026488845
-0.0022198983123481
-0.0035391860321178
-0.0044994734640462
-0.005552233995269
-0.0069054937782571
-0.0082748944600587
-0.0094511495362757
-0.0105970864592034
-0.0118390071286174
-0.013065782232152
-0.0141042208231872
-0.014673922601109
-0.0144120587840332
-0.0132562498983155
-0.0114795077837177
-0.0092937774544027
-0.0068186431913838
-0.0042958301558694
-0.0019856392041888
-0.0001157133481995
0.0009627477031942
0.0010900376030484
0.0008511079597383
0.0012849535651385
0.0029491239918363
0.0055329009665854
0.0082318129890293
0.0102537031996501
0.0111595485604325
0.0109606040469026
0.0099104908034629
0.0083223980694285
0.0066855943603037
0.0056515207811078
0.0055315155251775
0.0059129217207451
0.0060852440808482
0.0057922858327058
0.0053041543689674
0.0048613097309635
0.0044002516749173
0.0037781995993984
0.0029639967300312
0.0020954496553418
0.0015559067707882
0.0017532570433836
0.0026551421965743
0.0038286579403713
0.004897567059868
0.005577344859313
0.0055215058721846
0.0046152276122614
0.003140545980169
0.0014033110976144
-0.0004059093504812
-0.0020451813293056
-0.0034932601322333
-0.005184441075513
-0.0074143423657881
-0.009791966108402
-0.0116714636747321
-0.0127800787670295
-0.01321056245617
-0.0131749304936927
-0.012917890900196
-0.0126731575483275
-0.0126878247557687
-0.013252610233577
-0.0144521380806608
-0.0159113840087787
-0.0170858936597934
-0.0177392362563247
-0.0178606756786646
-0.0172929788642885
-0.0158646017162859
-0.0138175669507608
-0.0116084287440355
-0.0091399633131107
-0.0056238895215644
-0.0005612600576305
0.0053422141517483
0.0106219026883878
0.0145268445546086
0.0179152265443006
0.0223701563255934
0.0281906258120257
0.0336296759025088
0.0366178590508095
0.0367826056035912
0.0351146455236309
0.0322984129622382
0.0283076621933362
0.0231777963435271
0.0173550266475408
0.0114756444793076
0.0061025086379757
0.0015094031217147
-0.0021742806092129
-0.0045474292097738
-0.0052222760273843
-0.004677887824634
-0.0041597278934398
-0.0045487161585253
-0.0058338153494828
-0.0075989248767342
-0.009390036386287
-0.0106178636604431
-0.0106524543249155
-0.0092621092935297
-0.0069507509406155
-0.0048269230090386
-0.0038857913394836
-0.0041673576998949
-0.004778065131899
-0.0049584272286804
-0.0049354031224876
-0.0054999894285917
-0.0069899181155339
-0.0089880097047595
-0.0107794390428124
-0.0117471933536807
-0.0116050954034855
-0.0107582798182188
-0.01027413318715
-0.0110338763452485
-0.012955716860662
-0.0151523768163957
-0.0165568483405148
-0.0164503701407953
-0.0148541916512967
-0.0123661311259014
-0.009382333180668
-0.0058240626338769
-0.0017274234833644
0.0024790696942762
0.0063604017842902
0.0096705703201106
0.012307298415379
0.0144014746537104
0.0161155754163256
0.0171959605785751
0.0171960050907482
0.0161587269996802
0.0145703502076672
0.0127059462608247
0.0104720593493951
0.0078161450488788
0.0049897559319299
0.0024715092083071
0.000712135801211
-0.0001662020799592
-0.0003827507162744
-0.0001038849023218
0.0007835734237976
0.0023152922543301
0.0040579221421386
0.0053369489980581
0.0057666849060702
0.0053775885580846
0.0043956739912469
0.0031423660421534
0.0019395769387068
0.0008033509321585
-0.0005596024029898
-0.0022024546668833
-0.0036986821872466
-0.0046635034070191
-0.005172936140293
-0.0055758762383743
-0.0061867384584963
-0.0070510435057032
-0.0078289468124933
-0.0082058422722229
-0.0083666759089841
-0.0085547987674722
-0.008390522904762
-0.0072115772696352
-0.0047568369685675
-0.0011076563618924
0.0034543397372085
0.0081434827600752
0.0118303925784603
0.0138338260929509
0.0141984502631272
0.0132466020144604
0.0113271283414333
0.0089524455678124
0.0067469576812272
0.0051046861308166
0.003940841530878
0.0028147980459201
0.0013988111631939
-0.0001709065836733
-0.0015824337830458
-0.0029304132440693
-0.0046269090571897
-0.0066140886043842
-0.0080838473149362
-0.0083091501289929
-0.007491712398814
-0.0064672236715611
-0.005833850840093
-0.0056714928194633
-0.0057358319943682
-0.0055463690702495
-0.0046728195697329
-0.0032782755935499
-0.0020683902983616
-0.0016271561411818
-0.0021059182125224
-0.0033114416878113
-0.0047186520619094
-0.0057730287848419
-0.0064377466748477
-0.0070350233287546
-0.0076157999586196
-0.0080300616697624
-0.0083949128007557
-0.00894516148698
-0.0096362859350759
-0.0102136521659251
-0.0104480089998272
-0.010243863675848
-0.0097384352981526
-0.0091679592666383
-0.0085342129285422
-0.007748780210888
-0.0070594787283167
-0.0066030601966512
-0.0053515036591018
-0.0013276579828745
0.0065055139473255
0.0168368457451129
0.0268785646428221
0.0345520656442302
0.039616525324983
0.042802500220383
0.0442426370702458
0.0430871827293888
0.0387351522048914
0.0321110926371786
0.0251618986670212
0.0190358640102204
0.0133904316393948
0.0076520636383882
0.0021148812541449
-0.0025868548536038
-0.006277395668603
-0.0090356869613607
-0.0107591416403418
-0.0112587320632574
-0.0105692385800053
-0.0091950740403835
-0.0080640058198854
-0.0079530105462694
-0.0090345488960481
-0.0111730232930445
-0.0142345120949132
-0.0178531919027438
-0.021422336480389
-0.0244832421651863
-0.0266413382713174
-0.027234875474958
-0.0257738772860458
-0.0227043503870886
-0.0192521977177646
-0.0164313120524012
-0.0142610512708072
-0.0118545338633976
-0.0084653269056388
-0.0047190927732186
-0.0024836177185606
-0.0030738483432194
-0.0058462567030552
-0.0089697370382985
-0.0112188981995473
-0.0124321986884675
-0.0125081158159222
-0.0108222165527797
-0.0068878750332931
-0.0011314680710712
0.005255405359788
0.0111207659153475
0.0160243664719928
0.0201681818188616
0.0235940226175417
0.0257328988322546
0.0261404540029979
0.0252529326618382
0.0238305519513525
0.0221488637799718
0.0202997748525285
0.0186793935348615
0.0176481483285907
0.0171586711037241
0.0168835597313868
0.016315968077145
0.0149204440641446
0.0125831516055388
0.0096959050235966
0.0067114070004452
0.0039974093101647
0.0019355000581652
0.0005200196496574
-0.0009929780089589
-0.003376238111944
-0.0063545624631889
-0.0086701694795481
-0.0093324383681965
-0.0086669339026069
-0.008055820108452
-0.0086239602207463
-0.0102274585751394
-0.0117740945471972
-0.0123351581148701
-0.0116778953109171
-0.0099051109712624
-0.0071825773226216
-0.0040793957441243
-0.0016970565080029
-0.0009380252132842
-0.0017947489464728
-0.0036225156909712
-0.005735167116437
-0.0074386808792327
-0.0080682634918695
-0.0075256565244498
-0.0064687216794517
-0.0057372690338831
-0.0058205579746168
-0.0067328061990622
-0.0080632919331869
-0.0093075047226935
-0.01023168110145
-0.0106980501933202
-0.0104380208503715
-0.0093789405646529
-0.0077577527462566
-0.0056559278019576
-0.0030577624911556
-0.0005060543958159
0.0010998065744326
0.0015620298936149
0.0016308539558532
0.002086030063016
0.0029506063496442
0.0035863406026618
0.0033588014987334
0.0022922927998025
0.0011110045013158
0.0005567910650167
0.000820875151998
0.0017488129240422
0.0032291740298045
0.0050429537507896
0.0066390484726206
0.007542194347984
0.007909585333595
0.0083346620652053
0.0091810160839164
0.0104081273458682
0.0118861016390492
0.0135358713400237
0.0153183160856592
0.0173069428838964
0.0194829011954333
0.0213506477595969
0.0221652065494951
0.0215582811479363
0.0196136436823867
0.0165983431312358
0.0129449494294894
0.0090765658650454
0.0050228670181149
0.0005747282784125
-0.004314035750193
-0.0096530391462156
-0.0154676901306567
-0.0212528187510634
-0.0258474607885253
-0.0281725715682317
-0.0277335496254378
-0.0245300834338862
-0.019138406980451
-0.0128483469652183
-0.0071232450381575
-0.0027662942463508
0.0002792218676929
0.0024652978258031
0.0040766024418208
0.0049766378936065
0.004845880144948
0.0036653001723933
0.0018034979986795
-0.0004264938752834
-0.0030650403738591
-0.0062477970579128
-0.0098657651404528
-0.0135891779388167
-0.0169413643705338
-0.0191792777765519
-0.0195174336687971
-0.017871902378399
-0.0151014551598886
-0.0121973136471817
-0.0095250845369758
-0.0069600281319478
-0.004247980782847
-0.0011234389812453
0.0024561155472477
0.0061537462846444
0.0095746876159235
0.0126231835566045
0.0155702784267585
0.0189858343665396
0.0232081908576317
0.0274902779413405
0.0301929839603355
0.0301973845996424
0.0276598075621248
0.0233773331027179
0.0181277408973673
0.0126014923584379
0.0072898097920411
0.0024189300958661
-0.0016767635109347
-0.0043773566185591
-0.0052431178344012
-0.0043750246935088
-0.0022103730327295
0.0006648291793905
0.0034370721600528
0.0052361197693992
0.0055951086118608
0.0045425687162536
0.0021884369840356
-0.0015244390722492
-0.0065481714987856
-0.0124062140263864
-0.0182675219594981
-0.0232831027537404
-0.0269134026740833
-0.029064767484971
-0.0298267759443154
-0.0290618453280835
-0.0265234062396185
-0.0223664892840719
-0.0172082675164081
-0.011806232636381
-0.0069601760230131
-0.0033399291054286
-0.0010419402063323
0.0003461116242742
0.0012167714792152
0.0019879677002495
0.0034354664057392
0.0062473086295426
0.0103337464031985
0.0149614008146905
0.019316458299432
0.0227676189946661
0.0249179361339582
0.0255118817044949
0.0242400749525463
0.0209611402427249
0.0162476715189641
0.0112562877441981
0.0068525824222715
0.0031714907945876
4.21081380500812e-05
-0.0025023944749421
-0.0041392972097272
-0.0044858926178585
-0.003527995570701
-0.0019062946041945
-0.0004784735852716
0.0005799147020813
0.0019029954571267
0.0039121175951552
0.0060334831744
0.0072949421728501
0.0073179907294526
0.006249565622091
0.0040884365934234
0.000665220287035
-0.0038476768017246
-0.0086985553877611
-0.0127260745428338
-0.0148973243227356
-0.0150276064743136
-0.0138442318429889
-0.0122063733267321
-0.010561827802363
-0.0090262457605682
-0.0074231295741913
-0.0054204979410709
-0.0030987065711181
-0.0010379318741633
0.0004250989621965
0.0014288604370387
0.0018976456420686
0.0013499730859607
-0.0003561995297786
-0.0026047847586732
-0.0045165266188742
-0.0056321398775082
-0.0061306513038259
-0.0064431259140511
-0.0065342052684273
-0.0056752949176062
-0.003209673326325
0.000520064218469
0.0042328906397522
0.0066406843163215
0.0072583118924688
0.0065703270829886
0.0056435978468863
0.0053855923108334
0.0058763615075148
0.0064274123956877
0.0063637445059306
0.0055834583364063
0.0043537557381104
0.0029726793646654
0.0017441145834579
0.0008352493713285
8.24125258889387e-05
-0.0006544317319473
-0.0011048121087972
-0.001015657300684
-0.0006677032580811
-0.0005744554346907
-0.0010014772565963
-0.0018793411569195
-0.0027276566167398
-0.0027739763152436
-0.0016260019271533
0.0003613642271163
0.0026054124488274
0.0047880632026188
0.0067943386620142
0.0086674527099579
0.0105823774556789
0.0124416532716885
0.0136418385301885
0.0134854265192834
0.0115161531327322
0.0073363033379417
0.0006698259899074
-0.0079738500612343
-0.0169461991995367
-0.0241285072432366
-0.0280713632996911
-0.0285671973106302
-0.0262663321941281
-0.0218446230519764
-0.0155663386408099
-0.0075876173675383
0.0015264232195732
0.0108309188057531
0.0194634624941215
0.0266531487936613
0.0312217273127545
0.0317438290696218
0.0276695672779504
0.020000553536597
0.0107132677923027
0.0018235084445327
-0.005212558752896
-0.0098408047326869
-0.0122328261432666
-0.0126820817455593
-0.0115423969495336
-0.009654569580388
-0.0080931238778075
-0.0074064768979769
-0.0074879285810011
-0.0079128306026158
-0.0080912854456992
-0.0075186919503559
-0.0061161822877221
-0.0040819748293223
-0.0016430229697851
0.0006725874536848
0.0020278686562552
0.0021709889676531
0.0019891211285627
0.0025861140118603
0.0039292298148513
0.0047566553123889
0.0038322033354266
0.0012223906078782
-0.0016370641571691
-0.0031801047756371
-0.0030753373254687
-0.0023346523505959
-0.0021450193925955
-0.0028285501579834
-0.0039441769120515
-0.0049624092443848
-0.0055510894484641
-0.0055572012535626
-0.0050760442834381
-0.0042946634523907
-0.0031087143098963
-0.0013050802790085
0.0008233056075079
0.0025727951998197
0.0035245876789398
0.0037255360755591
0.0034243397571436
0.00298308595529
0.002716346688961
0.0026518757634513
0.0027214740205204
0.0029737606552129
0.003344395107816
0.0037557497876389
0.0046613716158545
0.0066909178090164
0.0094284342783847
0.0112794170356704
0.0109749025717147
0.0089206671509718
0.006923760095451
0.0066286854091507
0.0080859060761903
0.0098441354007903
0.010509570015271
0.0099162007813955
0.0085981467745101
0.0067190714146949
0.004145662361402
0.0012353675605465
-0.0011944333856902
-0.0027416867526515
-0.0038199571708617
-0.0050973873381347
-0.0068060225359215
-0.0086291105447014
-0.0100685668794091
-0.0109202457233511
-0.0113958637008498
-0.0115639518205681
-0.0107961640414451
-0.0083333242973563
-0.0044295665117084
-0.0004063985723014
0.002397413147526
0.0034116037579475
0.0029876735169471
0.0021696572432371
0.0018729730292663
0.0020060966570405
0.0016790864956042
0.0001474063070997
-0.0027424355191405
-0.0066295070396483
-0.0107937550530909
-0.0145495429319181
-0.017569362641712
-0.0195470943409116
-0.0198580580894988
-0.0180805965104886
-0.0146517334252404
-0.0106380924236357
-0.0070199340648289
-0.0042877729491639
-0.0024081517215074
-0.0010268452986804
0.0001693772433469
0.0013215963319151
0.0026442578360805
0.0044836771491483
0.0068918627996978
0.0093631728297992
0.0112307879439721
0.0121397417967603
0.0119642762116683
0.0106283675211761
0.0084184845831702
0.0062260087497141
0.0050232193522088
0.0051418237212279
0.0061714632124761
0.0073202520348353
0.0079199112359739
0.0079369290492327
0.0078381750925983
0.0077494900747851
0.0072744706738531
0.0063472078237307
0.0054998198074185
0.0050477564235632
0.0047021830085777
0.0040951827834326
0.0031998021274008
0.0023219412111531
0.0019139632511047
0.0021230139318767
0.0024951698351427
0.0024674210587298
0.0020026559803025
0.0014301660537027
0.0009677964625062
0.0006654664648742
0.0004540763199049
7.43507026782014e-05
-0.0006808112997951
-0.0015891571662111
-0.0022177482533589
-0.0025056379699168
-0.0027560289317879
-0.0030263037512973
-0.0028727007928936
-0.0018483211874045
-0.0001172190007492
0.0014783371109886
0.0019080610939398
0.0006458743366816
-0.001924715104199
-0.0048547137879134
-0.0074372237456269
-0.0094701825935464
-0.0108051332411657
-0.0111595169019918
-0.0104221407003764
-0.0086975331737737
-0.0061615142109305
-0.0032280007193339
-0.0004995602711474
0.0017116893368049
0.0033202762806554
0.0039343573568862
0.0031435700452781
0.0013497533357036
-0.0003300386730095
-0.0009904580064794
-0.0005373491826218
0.0003357865423323
0.0006404072508778
-0.0001276498140773
-0.0016692389942495
-0.003365550594081
-0.004674188731134
-0.0050072379531664
-0.0039456548433048
-0.0019162010808172
-0.0001322291215549
0.0004587035772953
-0.000128346853016
-0.001347231902896
-0.0028402430755574
-0.0045272510335268
-0.0062812371156922
-0.0078393126825896
-0.0090167726821919
-0.0098257974384836
-0.0102841243732133
-0.0101030816417433
-0.0086776704437596
-0.0056275236215468
-0.0014229106547776
0.0027484665201918
0.0057920722037766
0.0071982501716834
0.0069575719474807
0.0054951654537433
0.0036151843965686
0.0021542731024065
0.0017325750593167
0.0027234928869709
0.005044572944311
0.0082109803648224
0.0120247839418304
0.0166645875645989
0.0216147293040554
0.0252917338590335
0.0263725843509371
0.0249775328183529
0.0222820733127065
0.0194955071563639
0.0172299317211622
0.0152489844999533
0.0126921693263555
0.0088394799910786
0.0037794881346453
-0.0015509552875247
-0.0058557553222905
-0.008288551267431
-0.0091352375938723
-0.0095620052407266
-0.0104848789685805
-0.011905088319706
-0.0134480079749227
-0.0150537970038125
-0.0167407565747742
-0.0180791842155054
-0.0184665839940931
-0.0178038268265234
-0.0165117456709517
-0.0150627570401157
-0.0138262757620975
-0.0130719615691265
-0.0127405345012694
-0.0124128762652957
-0.0116593936655135
-0.010232416179745
-0.0080885097994706
-0.0055186994244697
-0.0029768901608589
-0.0006233060435819
0.0015626930211687
0.0033003202471605
0.0041753110359215
0.0041281474905613
0.003405744937625
0.0023892208245784
0.001682637888313
0.0018742097358001
0.0030570072046723
0.00490108715346
0.0070124262241407
0.0089077913411445
0.0100276239959353
0.0101825086382214
0.0097695533253882
0.0094100127600459
0.0095734369777846
0.0103998216361818
0.0114887321878981
0.0119799445605711
0.0112538596417377
0.0095577629664177
0.0077371093745428
0.0064304289881805
0.0056438321821221
0.0049110430709328
0.0037112416931342
0.0019633366027374
0.0002363091565119
-0.0008653575207888
-0.0015892058838147
-0.0027571493189829
-0.0045044601928988
-0.0059768584440054
-0.0063976720841282
-0.0057824083196458
-0.004622860489592
-0.0035007208271076
-0.0029196853529192
-0.0030441028633807
-0.0036415647220283
-0.0042834359576092
-0.0044265534863479
-0.0036708249245676
-0.0022689779797208
-0.000927507353025
9.14204528445741e-05
0.0011214399095873
0.0023541925538442
0.0036034166073268
0.0047066084388033
0.0054799861784877
0.0053317047479108
0.0035407061242015
9.7248811760773e-05
-0.0039844651261054
-0.0074065652658699
-0.0097253299466872
-0.0116298200940406
-0.0138825513631579
-0.0161519839872509
-0.0173092631221044
-0.016816112232271
-0.015321175094625
-0.0138017822356839
-0.0125550127863648
-0.0111509622400352
-0.0089409359743657
-0.0054719732512223
-0.0009068681492878
0.0037413479386426
0.0072755769743766
0.0093984495722571
0.010685674447933
0.0115315344356596
0.011761455693906
0.0112812000471106
0.010570931418817
0.0104839398725181
0.0115955246803501
0.013457928584554
0.0146487814662494
0.0139603068946719
0.0113029650331301
0.0073483539632919
0.0030195392991001
-0.0005520441705998
-0.0025582943923372
-0.0033284372991092
-0.0039424941916333
-0.0049431381701073
-0.0059496084912948
-0.0064676689346662
-0.006585127399324
-0.0067374826336905
-0.0068591468380269
-0.0059218209649592
-0.0028018579912473
0.0021094428627244
0.0066688599717931
0.0089036470995484
0.0089362976275046
0.0086065284533744
0.009470691737743
0.0116136485559975
0.0141543281102547
0.01629605787208
0.0178425600270247
0.0191076500907976
0.0204324714365524
0.0216375198611168
0.0219551268806161
0.0204629423577613
0.0165414146179285
0.0103749781328095
0.003361353263362
-0.0026565980026014
-0.0071651243892356
-0.011347701443874
-0.0162600037661702
-0.0214600212745463
-0.0258300743433464
-0.0289181817467085
-0.031027875544718
-0.0324605179404051
-0.0329977962599676
-0.0321792413921944
-0.0301449516566179
-0.0279028757877819
-0.0263813482338804
-0.0254374306766492
-0.0241228853409926
-0.0217540111015886
-0.0186420601044753
-0.015993955534581
-0.0148550889153327
-0.014659550583243
-0.0131082208224065
-0.0082019930722387
-0.0004221297038897
0.0075700111029381
0.0134240563006821
0.0170279717707458
0.0200896799154453
0.0241175286380702
0.0287239320003972
0.0317296379495111
0.031191307926444
0.0275426378163079
0.0233403206637077
0.0206506250556851
0.0192608536911236
0.0177837802244889
0.0157620144386284
0.0140584685887751
0.0135500014345532
0.0138833949713724
0.0135723886484197
0.011421589052067
0.0077421341848476
0.0038532906698988
0.0007092857176574
-0.0015282044704855
-0.0030797860176019
-0.0042915238904477
-0.0053896746820795
-0.0062133562510685
-0.0065772716157638
-0.0067624242960343
-0.007053993801772
-0.0070377180880661
-0.0060134935225371
-0.0039636776472969
-0.0016641403249053
5.05119877433115e-05
0.0009504743380375
0.0015436509009032
0.0026728909155554
0.0048627869277451
0.0079375333429014
0.0110656521390387
0.0129683144496051
0.0123536135836083
0.0087663680532672
0.0032050772847383
-0.0024700260289517
-0.006961552061549
-0.0101961953568461
-0.0126687641182795
-0.0147189840644582
-0.0166086492373064
-0.0186324396565686
-0.0207552503836027
-0.0225496387274091
-0.0236473836946196
-0.0239213932375385
-0.023379197793737
-0.0222154329346548
-0.0206275474806052
-0.0183527310684234
-0.0148450362064044
-0.0099840587254169
-0.0042099038545187
0.0018333482628625
0.0074263236055503
0.0119213181703559
0.0150436923515472
0.0167505152094057
0.016846438159866
0.0151380127656764
0.0118672614785151
0.0078102970983983
0.0041996145654049
0.002432628673481
0.0031776311124249
0.0056225936320627
0.0080906426027053
0.0094772513463277
0.009806473363963
0.0096100051164029
0.009298568050784
0.0091200599952048
0.0092119722312932
0.0094155495752903
0.0092349670116511
0.0082718978488595
0.0067845461976071
0.0057090029298224
0.0059050289491823
0.007211460761579
0.008447715560716
0.0087199153138216
0.008526940469567
0.0090159860194918
0.0103155832381999
0.0112416284244961
0.0105605272358964
0.0081386293984873
0.0050462000982885
0.0026416933066344
0.0012031217040049
-0.0004025512584981
-0.0033640147850855
-0.0077121732951309
-0.0127117149973604
-0.0175386728142466
-0.0210037547504521
-0.0214487114920743
-0.017837902911177
-0.0110398619385819
-0.0038226716496073
0.0007467073663079
0.0013698287345601
-0.0008672787843707
-0.0039651640481495
-0.0067924104016471
-0.009449780278016
-0.012749993171773
-0.0177067375132887
-0.0245722847905331
-0.0317075920947252
-0.036220479038257
-0.0365568174603736
-0.0339791086931892
-0.0308505911500173
-0.0279766649709779
-0.0243684063007846
-0.0192277805224354
-0.013291604371446
-0.008165296106979
-0.0047641919741658
-0.0024273625281698
0.000542629071217
0.0053811664831418
0.0120475172176416
0.019880772098172
0.0282400794077664
0.0360608730580535
0.0417361644528408
0.0442539232845975
0.0440486673270673
0.0424182890800732
0.0403976003692872
0.0381190407670249
0.03502036842429
0.0308510608429185
0.0263473215207378
0.0224646438604375
0.0192754602785798
0.0162438977297946
0.0132050650812737
0.0104551266557999
0.0082365989128487
0.0066397433899125
0.0057027536979505
0.0052353840672567
0.0047440899560108
0.0037550971360859
0.0021424363845583
0.0001103138519735
-0.002076708238274
-0.004350397765861
-0.0068414526712626
-0.0096124113780954
-0.0124641260046629
-0.0151111198879825
-0.0174884077792123
-0.019755544665555
-0.0221162865537098
-0.0248657760710095
-0.0283646031129439
-0.0323983387296837
-0.0356862870981151
-0.0367541045469418
-0.0354176190452158
-0.0330239375832435
-0.0313650067590967
-0.0314916179798831
-0.03296206045927
-0.0338545518212693
-0.0319248124869507
-0.0259963790683019
-0.0163494045422764
-0.0044513395228237
0.0074274440887979
0.0171305633434556
0.0235610384781584
0.0264312111853774
0.0256137801772816
0.0217489928357992
0.0171460737778504
0.0148103879728607
0.016145828503373
0.0199653655766925
0.0238617896807641
0.0263740024276124
0.0277543290149842
0.0287726198066393
0.0292116657334625
0.0279907517083393
0.0246286134369509
0.0200170135665441
0.0156245480331832
0.0123308212641801
0.010135467627823
0.0085455653256222
0.0069455290295758
0.0048990885890556
0.0024634211771407
0.0001122340761413
-0.0018288573591202
-0.003565282158123
-0.00566082824626
-0.0086611372562916
-0.0127205477558858
-0.0173576473091636
-0.0217972567476331
-0.0256125368838502
-0.0286391899207934
-0.0304814440955318
-0.03084320646562
-0.0301690374574334
-0.0292908603403206
-0.0286542684908365
-0.0282070974498149
-0.0275469264334345
-0.0260297843813584
-0.0233554042195441
-0.0200307524233049
-0.0166172309657596
-0.0126863509136461
-0.007205270653878
0.0001322458710549
0.0084874360088881
0.0167422365257842
0.0243656690519619
0.0312430124789698
0.0367765303941268
0.0395227715848267
0.0381706402402731
0.0330227502081194
0.0262884383814605
0.0207348092801075
0.0180439824513726
0.0183252986867917
0.0207588174745754
0.0243223352284176
0.027983732323644
0.030615758065568
0.0311272199579843
0.0289996663547046
0.0248036525150988
0.0198028271910903
0.0147136625988863
0.0092917204314422
0.0034837380090421
-0.0017322589407721
-0.0052221591261752
-0.0068429006029905
-0.0073705251834593
-0.0077694385674598
-0.0085719217483161
-0.0096324079516746
-0.0107675426531776
-0.0126761685535769
-0.016347312053675
-0.0213641940748644
-0.0258666546500928
-0.0286866044565273
-0.0308041104184554
-0.0342062472211223
-0.0396075331311088
-0.0456295061746325
-0.0502239734774519
-0.0526059530115789
-0.0533616936817128
-0.0527540096123859
-0.0497246119627314
-0.0429938607708652
-0.0326054765498433
-0.0199981056998666
-0.0070994502360677
0.0042486578956067
0.0126714345914211
0.0179054275427553
0.0208689497131036
0.0225965287354165
0.0234291101797256
0.0236756103273743
0.0244361444686419
0.0269096899543381
0.0310667178054292
0.0355392125696618
0.0387163419909364
0.0397692913140505
0.0388091837751667
0.0362160946637915
0.0320951078360848
0.0268167761169014
0.0217221325768072
0.0183762597728027
0.0171490499442673
0.0171098341080728
0.0170656466475656
0.0163159265285528
0.0148616913535367
0.0132413877141471
0.0118949209095775
0.0107166602101593
0.0094461779664468
0.008098886378299
0.0067076105020333
0.0051398801711296
0.0034521015158723
0.0019009544628608
0.0003519560815185
-0.0018497336370115
-0.0051416612639295
-0.0091157405065645
-0.0127751255589163
-0.015374568860293
-0.0171026439695235
-0.0190213554614482
-0.0221640315670901
-0.026545172981651
-0.0311702084717118
-0.0350414350110951
-0.03789572561156
-0.039955780268607
-0.0414422455483923
-0.0424957788258782
-0.043070668847459
-0.0426693920196039
-0.0405867118615449
-0.0365445158359167
-0.0308371673336742
-0.0239908818113304
-0.016452717422854
-0.0083226075120049
0.0005823760306322
0.0099913182902107
0.018784773529275
0.025867251733585
0.0310988547715221
0.0349390032333298
0.0375303604008295
0.0383793118113275
0.0367374118202171
0.0325294163629844
0.0272216781105682
0.0232804604476966
0.0222268913125425
0.0234170881046485
0.0248408894548058
0.0247453078725054
0.0225689049304187
0.0189726359480235
0.0152269645238708
0.0122737125874999
0.0102149490796694
0.0086901217309064
0.0075042185357697
0.0066794533442903
0.0061032924872699
0.0054559126682473
0.0044787772761533
0.003150294749712
0.0016599661393972
0.0003057033453001
-0.0007656649208909
-0.0018286552334954
-0.0034026304834173
-0.0058280093062756
-0.0092365846010506
-0.0136589176142644
-0.0187518688013674
-0.0237142511721559
-0.0277947423495301
-0.0306110700916836
-0.0320514635176898
-0.0324028639046702
-0.0323577272268451
-0.0323086388098383
-0.0318916449734251
-0.0305782769882378
-0.0283288963032749
-0.0254784584873946
-0.0223133458013513
-0.018718620418458
-0.0141057366179302
-0.0081284432696734
-0.0016067599371908
0.0039494981189192
0.0080288908228067
0.0117591150453892
0.0165949145027904
0.0227143905065189
0.028763094033689
0.0328602062562553
0.0339026595573063
0.032264967016164
0.0293743825810332
0.0265158912414782
0.0240154354121924
0.0214884535206992
0.0185759527965768
0.0152924471531922
0.011959787037818
0.0090567198977774
0.0069012478329444
0.0052936125171015
0.0037213070604719
0.0019772500199312
0.000293511359215
-0.0010143481246759
-0.0017176779512767
-0.0017560771469796
-0.0014070171154168
-0.0010594274800122
-0.0008065617005288
-0.0006211304654118
-0.0006365730565397
-0.0008575804877664
-0.0010657490616068
-0.0012587464502699
-0.0015265929467671
-0.0014271730179444
-0.0003097267974756
0.0016794740513713
0.0036083257296312
0.0047082685125049
0.0047279144977246
0.0034755327923007
0.0006073766724558
-0.0039224648352669
-0.009331127094351
-0.0141353535651175
-0.0171126457056778
-0.0182974521463528
-0.0188961004993082
-0.0201291715310248
-0.0222421998853174
-0.0245665889035596
-0.0262193905185735
-0.026605582145427
-0.0255467766358964
-0.0233416449214331
-0.0207701428506394
-0.0187666473082451
-0.0177622670073778
-0.0170632133658003
-0.0148612268231781
-0.0094249311253109
-0.0008469859808015
0.0086361719869297
0.0164360121753963
0.0213885283066885
0.0236758107959805
0.0238359949917523
0.0223972829278954
0.0201918767552495
0.0186961092154784
0.0195564082611102
0.0229659623270559
0.026665208391078
0.0276105002481436
0.0247046364432415
0.0191963444344194
0.0128860514841879
0.0069709384455121
0.002218334185011
-0.0009629351543773
-0.0028318119440536
-0.0041280030043712
-0.0053448381096625
-0.0062616183017309
-0.0062486949806033
-0.005107817339722
-0.0035741092310634
-0.0027830791320933
-0.0032078858635474
-0.0042990424315935
-0.0051442141598713
-0.0052361218686988
-0.0045891027232783
-0.0034182144290685
-0.0018811941231872
6.69784003791089e-06
0.0022724748775868
0.0046531595239776
0.0064728627367141
0.0072304489227834
0.0072467178031022
0.0073420427646212
0.0080169659547875
0.0092192635095959
0.0104637991110792
0.0108393969462247
0.0094297285657175
0.0060692302340483
0.0014320470265522
-0.0034894398506232
-0.0077741401794773
-0.0109627676493577
-0.0133739373817616
-0.0155707059508582
-0.0174946827163043
-0.0186448007329552
-0.0188816217780555
-0.0184629340116178
-0.0175597531608993
-0.0162370218548938
-0.0146342333376722
-0.0128071373208156
-0.0106069298015801
-0.0078611902705426
-0.0044759397687627
-0.0003912772540661
0.0043006657711004
0.0091695856772284
0.0134761333987272
0.016370806015395
0.0172045379825193
0.0159715963080058
0.0134756367352577
0.0107524175118195
0.0082773125346813
0.0059918599381012
0.003945229984494
0.0023291466085622
0.0008964776481312
-0.0009676472755909
-0.0034307580561845
-0.0059193426160216
-0.0076141537175892
-0.0079496423456023
-0.0069591715955796
-0.0054116878335405
-0.0042244685643253
-0.0036881750346477
-0.0036366015753173
-0.0039762053287685
-0.0044451755248893
-0.0043670859774916
-0.0033051203970665
-0.0015559114471213
0.0004346017114993
0.0027538392319302
0.0057808205046137
0.0093995113965032
0.0126021552252962
0.0140501056917607
0.013247094199233
0.011004627540734
0.008489103757148
0.0060607015134312
0.003356699292756
0.000188321563485
-0.0030811334096285
-0.0058822962734836
-0.0078215832968412
-0.0088013216119844
-0.0090054161152998
-0.0087517816368567
-0.0082244187835406
-0.0073523418372285
-0.0059842115833299
-0.0041246477933505
-0.0020320308068612
-0.0002004684555804
0.0009023141262562
0.0013069722018305
0.001501730528176
0.0016784798216295
0.0015597862994625
0.0013581743815572
0.0021117826496279
0.0043831609509442
0.0071884663960095
0.0087698817475037
0.008164412897235
0.0059206747458921
0.0035151758083003
0.0019988489140007
0.0012374678487491
0.0006676483540445
0.0003046443749405
0.000396376440417
0.0006281853432348
0.0004826921045311
5.25384875886417e-05
-0.0001402282670312
9.82146072307766e-05
0.0004578603649498
0.0005364601427546
0.0002111161467224
-0.0003112641789329
-0.0007197659903207
-0.0008301085233185
-0.0005450653283728
0.0002584590074998
0.0015560024259515
0.0029620835760628
0.0039881230274219
0.0045399893836487
0.0049091556430134
0.005258479195309
0.0054190785107593
0.0052241482540803
0.0046638748963395
0.0036299850301528
0.0018890654348812
-0.0006133395547706
-0.0036782829492233
-0.0069505781156783
-0.0099093608881026
-0.0121300960131775
-0.0136928176387633
-0.0148858012265012
-0.0155903472600455
-0.0155038614518754
-0.0147273512584285
-0.0136268756085699
-0.012453347596873
-0.0113978413278356
-0.0105519885943121
-0.0096339668658993
-0.008136545143102
-0.0057111096587475
-0.0021871066881401
0.0023769032296233
0.0072631928043286
0.0110672225402243
0.0125565440301823
0.0116002457077477
0.0092481647878425
0.0069495501471689
0.0055827854217044
0.0051323047083926
0.0052494569560518
0.0058602077055645
0.0069801030564888
0.008217026699282
0.0089551058743408
0.0089947350696218
0.0086087725124674
0.0080220339793278
0.007281717957682
0.006542170726177
0.0058613257403685
0.0047698483282099
0.0028088466625884
0.0005679326506016
-0.0005161907457832
0.0004815254035713
0.0031546728711935
0.0060386409706678
0.007442167034545
0.0065139195258141
0.0038178804463474
0.0006378116522571
-0.0021646696393714
-0.004398809876737
-0.0060917002317938
-0.0071042041989801
-0.0069949011667619
-0.0054226874158064
-0.0029989456749557
-0.0012946690217371
-0.0015294603929464
-0.0035912769732791
-0.0064955802739184
-0.0092088002069388
-0.0108944624215218
-0.011107930002379
-0.0101791480794211
-0.0090909187678147
-0.0087281716173263
-0.0092367429645513
-0.0099221804804388
-0.0095999717583783
-0.0073343563340776
-0.0032983754264288
0.0010193290521648
0.0037282013215486
0.0038902759145955
0.0021412857925181
0.0001567722799439
-0.0005530721939507
0.0003466173236709
0.0020975512688871
0.0040212680979983
0.0062304553047133
0.0087845424628246
0.0107819912795847
0.0111606957330074
0.0101006768816055
0.0089637219722756
0.0089789188746971
0.0101868784924697
0.0114114154066523
0.0112877183246933
0.0095473751578551
0.0071689742027929
0.005315085454839
0.0044494137082451
0.0042344846760995
0.0037958585109908
0.0023653599787336
9.92856768445554e-05
-0.0019924592185671
-0.0031231675881548
-0.0034355680756093
-0.0036742804186952
-0.0045574598334925
-0.0063704098999332
-0.0087781999293802
-0.0110887336713535
-0.0128858014443958
-0.0142228197284315
-0.0151262649864415
-0.0153145835864826
-0.0146625786562252
-0.0136044124221045
-0.0127036251139769
-0.0119713577091295
-0.0109105492444261
-0.0091522291678523
-0.0068369725379296
-0.0044373969905309
-0.0022961570721783
-0.0002727976349125
0.0020577292186301
0.0047824568981785
0.0075387439097289
0.0100521125740371
0.0122044567591836
0.0135772267523359
0.0137259832446389
0.0129519827118345
0.0121258795925503
0.0118458865123121
0.0121885413928624
0.0128685850392448
0.0132922605217081
0.0129313317266198
0.0118568921093494
0.010559420170915
0.0093324089723023
0.0081443541323904
0.0068703239374329
0.0053889795333575
0.0036870542968066
0.0019735964641896
0.0004849793007152
-0.0007791650861593
-0.0019556121201847
-0.0031090433179495
-0.0042692491372291
-0.0054629595684534
-0.0065672619829861
-0.0073444309817594
-0.0077567446824847
-0.0080448163558851
-0.0083623306561856
-0.0085717093081906
-0.008611927440269
-0.0088196861416868
-0.009531960557321
-0.0104430237668004
-0.0106269612859707
-0.0093068216480343
-0.0067213310202792
-0.0042684012074107
-0.0034477436721082
-0.004471810567614
-0.0062160993506795
-0.0074476574752946
-0.0076117063919001
-0.0067663528016166
-0.0055359001714723
-0.0048613376245885
-0.0051443217610124
-0.0058734943293323
-0.0063311643763387
-0.0061918792369118
-0.0053510719745802
-0.0037446988660869
-0.001490848353155
0.0010442031101075
0.0033357253211982
0.004961032923246
0.0060526681616976
0.0072788448822551
0.008975749694964
0.0106054195666936
0.0115354806233214
0.0119927538898416
0.0126843294243054
0.0137259637228362
0.0144960020620353
0.0144522909425443
0.0136477510913442
0.0124513566071893
0.0111275972520447
0.0097779155105243
0.008476097811326
0.0073427035002426
0.0064713395103361
0.0057319028396588
0.0047823828264532
0.0034973218246188
0.0021976202105727
0.0011901522115739
0.0003894693468839
-0.0003574862943954
-0.0010252719840375
-0.0016709260803395
-0.0024511399165467
-0.0033892270436708
-0.0045700745460389
-0.00625811675956
-0.0083624302676653
-0.0102230127727649
-0.0113141350690225
-0.0117850666959
-0.0121843108491088
-0.0130013804937674
-0.0143932418715754
-0.0160249975599382
-0.0172515763648338
-0.0175489260293575
-0.0166714188039603
-0.0146359508833749
-0.0118858258270701
-0.0091712187631377
-0.0068229608386381
-0.0043237605651674
-0.0009214960783503
0.0034705310095276
0.0081541917957547
0.0122385473370641
0.0151932143084449
0.0169593372761427
0.0177149857668949
0.0176155354909852
0.0167976205485605
0.0155488904807374
0.0141838909202629
0.0126292993793973
0.0105017068792156
0.0078659142966129
0.0054577027966122
0.0037657124264714
0.0024057307354659
0.0008012309440958
-0.0010624709772393
-0.0028190455598927
-0.0040677872689027
-0.0044859200264306
-0.0041846347304057
-0.0038440600820444
-0.0040230721390321
-0.0045679105889205
-0.0049767735488099
-0.005048842672655
-0.0050615644104075
-0.0054734929176744
-0.0063136543647398
-0.006881861788353
-0.0064998483543098
-0.0054915502393787
-0.0048101914645464
-0.0047743891091312
-0.0048470734681266
-0.0046270514286527
-0.004374996119682
-0.0043934343174688
-0.0043449045572547
-0.0035095993849431
-0.0016971429682235
0.0002644678340384
0.0011983759240951
0.0008798402755307
0.0004234599531112
0.0010203975653655
0.0024657468314268
0.0034627379971572
0.0033112790199949
0.0026297790038413
0.002345458903587
0.0026631093983282
0.0031724129324842
0.0034014142027124
0.0031917642421087
0.0029114721138707
0.003203546480667
0.0043133978722481
0.0058294447259371
0.0070466314676902
0.0074306891258703
0.0070736669690222
0.0068459774653424
0.0075862360237186
0.0090838252373298
0.0103780564871201
0.0108444892466193
0.0103791351992621
0.0088873637466655
0.0063514938036462
0.0032733074147447
0.000519948911446
-0.001362002375908
-0.0026281043435811
-0.0041367144620512
-0.0064793411037691
-0.0092341720551453
-0.0113900596154031
-0.0125986452526021
-0.0135899316696847
-0.0151723156842444
-0.017226251828108
-0.0189234159835758
-0.0195987342569751
-0.0191528829367019
-0.0178877576885225
-0.0161908228484344
-0.0141402663508032
-0.0113194590723378
-0.0073922692011303
-0.0029059074940325
0.000955852090758
0.0034590300894283
0.0047847327647108
0.005605195894145
0.0066041093801833
0.0081615148818207
0.0102015424743367
0.0124761177169248
0.0148363805652577
0.0169596368563132
0.0182509557156056
0.0183858699828291
0.0175321660027326
0.0159031063080774
0.0136009995172645
0.0109005877329714
0.0082315188644634
0.0059501558194484
0.0043165474011842
0.0034057920310543
0.0029621249206299
0.0026775005457903
0.0025507477441427
0.0026408650298721
0.0026799069500722
0.0023160445999701
0.0015575776329845
0.0006818521782302
-0.0001199296295659
-0.0008211226606014
-0.0014962015124842
-0.0023337608563246
-0.0034906444055582
-0.0047791194613784
-0.0057437107544855
-0.0062505291497048
-0.0067762448581822
-0.0078992298026122
-0.0096631294591464
-0.0115118161462725
-0.0126457308563534
-0.0125408471989251
-0.0114433030726284
-0.0102359233179224
-0.0096129194952989
-0.0096133858898128
-0.0099256574368627
-0.0101842097270582
-0.0100929569260434
-0.0097348353657732
-0.0095416309757779
-0.0096662883796762
-0.0097529261051431
-0.0094004520530834
-0.0084030935278845
-0.0066752393275082
-0.0043828155803474
-0.0018437973074632
0.0010112449148694
0.0045393451452141
0.0084248932241541
0.0114154283700737
0.0124474220176058
0.0117362338580424
0.0105219319634108
0.009921679393501
0.0101278295507506
0.0105861806730216
0.0108037923482565
0.0108919327844933
0.0113598817807671
0.0125728692642399
0.0144623012620466
0.0164937900654894
0.0177414035897039
0.0173268156883562
0.0152217114318688
0.0124582709742075
0.0100900732006341
0.0080984567176556
0.0058245693463238
0.0032279541768908
0.001041599851217
-0.0001859674398259
-0.0006515564791817
-0.001021415486336
-0.0018934921662249
-0.00338135600034
-0.005180334979718
-0.0070863840955769
-0.0091147703164161
-0.0110929297721546
-0.0127236325934264
-0.0140401456025974
-0.015172050544741
-0.0158044262710316
-0.015514324856796
-0.0144788080547958
-0.0133307453528173
-0.0124516973046808
-0.0116948419064134
-0.0106440866405322
-0.0089859322199524
-0.0066948873954835
-0.0039102026229213
-0.000811466650853
0.0021135037825124
0.0038875236787991
0.0037287102512699
0.00205589093891
0.0004052120836093
0.0001411432159487
0.0013968106609807
0.0032446283500769
0.0046305848341432
0.005152005664389
0.0052414090008754
0.0056398952121417
0.006459194148906
0.0068898391080976
0.0061874527837044
0.0047175407262546
0.0035384938138452
0.0031737089450595
0.0032480498185054
0.0031077576638811
0.0024580616307336
0.0015139596365767
0.0006069401704456
-0.000285444998909
-0.0012854782395094
-0.0020588228833086
-0.002162936917258
-0.0017402331612941
-0.0011088559018207
8.34670606463393e-06
0.0020014782498557
0.0043839104029987
0.0060233418800098
0.0062707390132399
0.0054824467568012
0.0045301498341868
0.0039624877023776
0.0036103359236082
0.0030091666563513
0.0020741806236793
0.0010847742599811
0.0001341905939988
-0.0009518144263274
-0.0021649763634262
-0.0032445239953318
-0.0041280094602698
-0.0050647743985843
-0.0061528094668779
-0.0071155158506081
-0.0077099315334879
-0.0080656220341547
-0.0084517990192114
-0.0089358544641251
-0.0093398238757474
-0.0093165926011249
-0.0085256185582017
-0.0069342605892514
-0.0047965259501284
-0.0023328746341195
0.0001615949546844
0.0020510853689451
0.0029053471156377
0.0032400235725318
0.0041019532641764
0.0059803036487685
0.0083861481994056
0.0102435094018065
0.0106881828392521
0.0098801866766967
0.0088840587387186
0.0084191670924008
0.0080950290566749
0.0071569184127171
0.005472977489848
0.0034935943549521
0.0016866718918939
0.0002628537964322
-0.0008024056708293
-0.0015824960618256
-0.0019535106247908
-0.0016489008510873
-0.0006596778425916
0.0005495091957104
0.0012820860558993
0.0009982674719232
-0.0004070477408387
-0.0024593544237854
-0.0042718385202574
-0.0051342549272524
-0.0050017496503341
-0.0042617617375457
-0.0031537358885765
-0.0017474999924331
-0.0003606163532725
0.0004696485670198
0.0004458610832268
-0.0002802389725444
-0.0011782715509513
-0.0015616469410096
-0.0011667747375333
-0.0005196496584203
-0.0002997237990401
-0.000558138868812
-0.0009683409100445
-0.0013966963301704
-0.0018402536032876
-0.0022821796878415
-0.0027983535267804
-0.0033579759959081
-0.0035948125987801
-0.0032157868126526
-0.0024329693734463
-0.0016710068933035
-0.0011190123624998
-0.0007257152009693
-0.0003255290714238
0.0002584428324317
0.0009472053131366
0.0013063094484567
0.0009452316140509
-8.36318029729698e-05
-0.0013968768210089
-0.0026145693668405
-0.0035152927889118
-0.0040457883017142
-0.0042030529812411
-0.0037588395340892
-0.0022570924872451
0.0003417069933741
0.0031034014428115
0.004736012172854
0.0048754792932577
0.0043681538711771
0.0042849392127013
0.0050554465109984
0.0064015034594003
0.0076183870684553
0.0080709373137559
0.0077442173615133
0.0071047487403503
0.0064534102068285
0.0058767951273777
0.005617286127064
0.005854932326879
0.0062686250331036
0.0062144233311468
0.0051798729916686
0.0030566596492506
0.0003076278451688
-0.0022643929809605
-0.0042006990736966
-0.005616320418733
-0.0067182870999962
-0.0075976837441025
-0.0084975378203351
-0.0096648884507494
-0.0108436739894273
-0.0113933763969149
-0.0110068081105477
-0.0100474205775259
-0.009164657635841
-0.0086732852656036
-0.0082256315092557
-0.0071002097472519
-0.0049996672306643
-0.0025464272510057
-0.0007505947399549
1.44664362562797e-05
0.0002572723729312
0.0006380434952577
0.0013744537320777
0.0024032392619253
0.0036897711340948
0.0052069478400583
0.0068222317709298
0.0081817455874995
0.0086643858221547
0.0078882705300441
0.0064239617456469
0.005453977366098
0.0055582064069568
0.0062496852363571
0.0065708893680342
0.0057700782496612
0.003780170275951
0.0013978283737189
-0.0003596494632297
-0.0011456486121106
-0.0012206003124224
-0.0008398377460176
-0.0001929984157976
0.0004477625841213
0.0010148989016971
0.0018077550943484
0.0030820490809683
0.0046504231070136
0.0059402952048344
0.0063503667391721
0.0056990825527247
0.004377465856461
0.0028290015930623
0.000960126424272
-0.0015226899563996
-0.004258308196045
-0.0062598743543903
-0.0069374466979481
-0.006711115316295
-0.0064824547639804
-0.0067939464285596
-0.0075441287520357
-0.0081642578962409
-0.0080207730756535
-0.007009424999875
-0.0057620129713796
-0.0049323706939417
-0.0044416803328334
-0.003826616626137
-0.0030656414025052
-0.0026391697248416
-0.0029722509943804
-0.0039715549414301
-0.004873138311248
-0.0046757325733892
-0.003029743433963
-0.0005072709247472
0.0020402991458236
0.0039747246785187
0.0049123421640333
0.0049221283701823
0.0045476931262524
0.0041773523296349
0.0036830665072209
0.0029792727084484
0.0024794517343353
0.0026832542402376
0.0036258511274177
0.0048754888978559
0.0058620137307443
0.0062342185415914
0.006065746532069
0.0056769071572726
0.0052826439013828
0.0049752761583551
0.0048896035418256
0.0050005423546957
0.0048297518192853
0.0038383659379446
0.0022142989726091
0.0008484453900136
0.0003589715468208
0.0004739916046639
0.0004758218669535
-0.000110327668346
-0.0013021631049738
-0.0027235600433646
-0.0038406813439686
-0.0043778027704053
-0.0044100020105792
-0.0040643764777526
-0.0035315702174791
-0.0032613950411183
-0.0035917788433112
-0.0043263955165937
-0.0050873404196646
-0.0057434082642951
-0.0062319884572475
-0.006448010043613
-0.0064568437332488
-0.0063897314813331
-0.0061727015014635
-0.0056526418936244
-0.0047749453698046
-0.0035255284314087
-0.0020667312934475
-0.000900276673904
-0.0004266063343826
-0.0004047199828966
-0.000256766138829
0.0002152218907885
0.0007349981923119
0.0009800804588947
0.0008046378848974
0.0001931914789495
-0.0007075381642589
-0.0014888581692178
-0.0015423064855823
-0.0003217964878086
0.0022952154987566
0.0057228383883214
0.0088185828122384
0.0106141204640149
0.0109583457079004
0.0103147049735573
0.0091702393548616
0.0079911277680469
0.0073877301989111
0.007697219636684
0.0085575643614602
0.0093084181471733
0.0096208978336195
0.0095281453972403
0.0090673639084394
0.0079970694338551
0.0059249862449665
0.0029727745266943
7.51012776836694e-05
-0.0019175135488943
-0.0031100164145057
-0.0040157801051193
-0.0047112033655396
-0.005111338757319
-0.0054345975919873
-0.0058327153972776
-0.00612630320196
-0.0062955930641072
-0.0066949514698221
-0.0074516633283852
-0.0080282547376334
-0.0076558930399084
-0.0061123745268754
-0.0040318073334513
-0.0024642948691768
-0.0020556744350896
-0.0026435449782676
-0.003688630104542
-0.0049360754064239
-0.0064414081599396
-0.0081249782218884
-0.0097201177775249
-0.011137526000241
-0.0124059508792635
-0.0131843603957684
-0.0128466858556155
-0.0112269936242702
-0.0089144024747145
-0.0067403927906311
-0.0051995783284869
-0.0042179644380051
-0.003290471654974
-0.0020155926741719
-0.0004443833768717
0.0012825082554987
0.0032428299753883
0.0053988063938615
0.0075072805861476
0.0095743705805396
0.0117942802100157
0.0140005081879085
0.0157765069709847
0.0169727068854535
0.0176099848936597
0.0175774998792277
0.0168672889538599
0.0157992394674086
0.0147075737678786
0.0136292358558657
0.0124092390314234
0.0109410742928309
0.0093235092421936
0.0078783118558278
0.0069084613614535
0.0063917996863492
0.0060151482534719
0.00545135765631
0.0044672452268184
0.0029241620812993
0.0009656050815881
-0.0008830053026224
-0.002148552654311
-0.0029358273660615
-0.0037195950161654
-0.0047416657478195
-0.0060573201248691
-0.0079928667767734
-0.010898697382712
-0.014455624291505
-0.017742593091725
-0.020007562840019
-0.0211767903150507
-0.0217826259124269
-0.0223972482007653
-0.0229339856799276
-0.0227489547418569
-0.0215354894171382
-0.0195607942288686
-0.0170147383307885
-0.0139372850011249
-0.0107775152771996
-0.0081692613420052
-0.0061196580528287
-0.0040092994470142
-0.0013293371892067
0.0018616491702691
0.0049590079416695
0.0071599848358887
0.0081078649674459
0.0082672159179816
0.008498658558748
0.0093856677099198
0.0110656657365774
0.0133582063176768
0.0157762846463027
0.0176530555559734
0.0185689962974419
0.018631501251366
0.018233427234676
0.0176094964243364
0.0166928930403489
0.0153120010846438
0.0134771772358917
0.0115609388595518
0.0101501982090698
0.0095427640577446
0.0094539362760252
0.0093697681531348
0.0090121577619796
0.0083887872285856
0.0077577908378227
0.0075473420900208
0.0078350353339907
0.0080562585928275
0.0077231595971592
0.0070522812973078
0.0063688437343513
0.0053904354608701
0.0035532012877934
0.0006304224133076
-0.0031312941880559
-0.0070982937421387
-0.0105508525038635
-0.0132405267220353
-0.0155066400964597
-0.0177433198790408
-0.0200247386423461
-0.0221897863664491
-0.0239538431028387
-0.0250603715315062
-0.0255835383526509
-0.025876112784674
-0.026058007238294
-0.0258505440941041
-0.0250433513512341
-0.0238019772948951
-0.022357049396668
-0.0206498348702882
-0.0184787434873406
-0.015863666570409
-0.0130800617652166
-0.0102921765684115
-0.0071622276760137
-0.0029058885669736
0.0029926838373851
0.009963754484596
0.0165284522965996
0.0214885367529882
0.0245942350463237
0.0259784341387146
0.0256858011672085
0.024074627985419
0.0219787122401143
0.0201214227654594
0.0187446280577326
0.0177508943752341
0.0168804316682676
0.0159972626721191
0.0153324328598356
0.0150752366749755
0.0148762557624832
0.01425750163316
0.0132366624843377
0.0120987957662837
0.0109377043837436
0.0097798552417097
0.0087521080175504
0.0078472926720411
0.0067889337805901
0.0052156928897574
0.0028707097429599
-0.0002377521606231
-0.0037119679308615
-0.006980695836123
-0.0097263907341074
-0.0119504760878674
-0.0137014581596464
-0.0150299245661208
-0.0161574290170465
-0.0173315111759002
-0.0184617917176724
-0.0191971406992064
-0.0193979683493419
-0.0192408771999064
-0.0188994228316563
-0.018484086241785
-0.0181907533878033
-0.0180714639298343
-0.0177660627748658
-0.0168056550566405
-0.0150037596663637
-0.0124124949793123
-0.009235408507949
-0.005774754228991
-0.0021316517557149
0.0017874900835526
0.0057140629756446
0.0089915926544895
0.0113301678065815
0.0130294128737922
0.0143967447503669
0.0154681663852308
0.0162030803378864
0.0165501398408398
0.0165088794780002
0.0162885478163087
0.0160889594427426
0.0157301896271711
0.0148799635016613
0.0135723254386482
0.0121853296233428
0.0110501002962615
0.0103090188072033
0.00995545981043
0.0098145324099978
0.0096315640397685
0.0092786455474331
0.0087569655388486
0.0080074323315734
0.0069120245073736
0.0055150203739946
0.0040660783092503
0.0027715536694119
0.0015894640461049
0.0002534499105333
-0.0015549654895653
-0.0038867573698491
-0.0063006150302008
-0.0082713921579367
-0.0098779086545436
-0.0116268073283201
-0.013636873032939
-0.0156230372149249
-0.0175619047338345
-0.0196579036564819
-0.0217603228319371
-0.0233420391263675
-0.0239050946331936
-0.0232384975013449
-0.0215973249877632
-0.0195877110069307
-0.0175614590765464
-0.0153660267880905
-0.0128788145258226
-0.0102775221569757
-0.0075587651037746
-0.0043159008822328
-0.000236862766255
0.0044624267027221
0.0091128720937379
0.0129274172621696
0.0154520602734412
0.0168848168016337
0.0178001106170937
0.018479500484528
0.018672644294841
0.0180064295597304
0.0164407305915108
0.0143413286183433
0.0122638873039629
0.0106172019367251
0.0093747930362629
0.0081500376464744
0.0066505523462253
0.0049244818292897
0.0030922283931435
0.0011915662724385
-0.000516235834653
-0.0015599281721023
-0.0018576484410447
-0.0018277604027929
-0.0017404990742798
-0.0014943966430501
-0.0010714358928083
-0.0007118748711755
-0.0007144954552283
-0.0013250993665963
-0.0025196699647063
-0.0038466238393079
-0.0048964315400721
-0.0057393165755485
-0.0064833457006411
-0.0068513063229493
-0.0066648708343416
-0.0062862392694145
-0.0062228675749033
-0.0066431823754654
-0.0073426417639192
-0.0078146301871467
-0.0074416399297727
-0.0059811892877629
-0.0038021333370589
-0.0015121312945669
0.0004403976335724
0.0017885185015905
0.0024812518408614
0.0028644379851819
0.0035381874559032
0.0048294011353125
0.0064919080555497
0.0079402959972577
0.0086513758384627
0.0084446421808212
0.0076511377106868
0.006936917202837
0.0066641856048209
0.0065222920464014
0.0060117780688295
0.0050304253399999
0.0037818256839221
0.0025088983061084
0.0014776937186792
0.0008032424468159
0.000283111512001
-0.0002641222394114
-0.0007460928149693
-0.0011085453665957
-0.0014392124145261
-0.0016573563548843
-0.0016218498197921
-0.0014710434174117
-0.0013731733127189
-0.001199254890022
-0.000835513103932
-0.0004510431899785
-0.0001823924304225
6.14486894462997e-05
0.0003229696825037
0.0004374421865512
0.0001989013754537
-0.0004811900254729
-0.0014833786828265
-0.0024653413920396
-0.0031118510272313
-0.0034368555662355
-0.0036796080706273
-0.0039591241457384
-0.0042286336981663
-0.0044876605040942
-0.0047907345477549
-0.0050784996152843
-0.0052333391051319
-0.0052736702147964
-0.0052729404115795
-0.0051816030898332
-0.0049791143124034
-0.0048206384255658
-0.0047702330904421
-0.0046669865579181
-0.0044570643787723
-0.0042543400683062
-0.0039868031307681
-0.0034826034310326
-0.0028423337040255
-0.0022450916382843
-0.0016414205795491
-0.001013925586687
-0.0005352318839847
-0.000257435635399
-7.75073298346081e-05
2.74272229240246e-05
0.0001371418705186
0.0005107920701582
0.0012377202599549
0.0020973153825548
0.0029301903067786
0.0037722065414467
0.0045966597648418
0.0052598848034666
0.0056245335759962
0.0055448238851435
0.0049840808311553
0.0043006777594762
0.0040824122225691
0.0045344214646469
0.0053117227124804
0.0060362321795499
0.0066719626586179
0.0073012631602761
0.0078377101626864
0.0081173386015889
0.0080737008572815
0.0077280332157943
0.0071745035936454
0.0065572236277625
0.0058506492633424
0.0047908394613238
0.003288175684291
0.0016982023834617
0.0004480695718492
-0.0003292115456691
-0.0007095615423975
-0.0009009596253775
-0.001172307482157
-0.0014986819888794
-0.0015243259419678
-0.0010986558049493
-0.0004361272996449
0.0002842378838053
0.0009759084749881
0.0014745526642793
0.0017960607926266
0.0022248222039034
0.002755576145226
0.0028924351341214
0.0022888326936183
0.0011591181378059
-0.0001042747923516
-0.0013809731254957
-0.002849102614479
-0.004785631337016
-0.0072999050201033
-0.0101512104235617
-0.0128676268001759
-0.0150017188512324
-0.0162242343240698
-0.0163880351358465
-0.0156891036348364
-0.0145723617803444
-0.0132608495168312
-0.0115446166874006
-0.0092506347896857
-0.0067096883366379
-0.004450186944271
-0.0026257740414628
-0.0010828796338211
0.0002492849904566
0.0013942699561203
0.0024648676991655
0.0034612823501418
0.0042280495934714
0.0046997466594832
0.0048325814609241
0.0044513015031641
0.0035828076707856
0.0026505336639768
0.0020542914667692
0.0019732455391448
0.0026074102413115
0.0039974155677045
0.0056374911957592
0.0067959479555339
0.0070951485959731
0.0064965364922421
0.0050918780222189
0.0032054672478775
0.0014042006518168
0.0001900814000405
-0.0002798803665921
-0.0002722807661637
-0.0002840734030606
-0.0005300061917584
-0.0006601294334397
-0.000267054870495
0.0004565014730581
0.0009228120872199
0.0009000037330716
0.0007085110688
0.0007438174942101
0.0011266286144438
0.0017960914593206
0.0026526855506216
0.0035802668392346
0.0045290521171311
0.0055499488996931
0.006619096162213
0.0076228056069132
0.0086521092070256
0.0099442029306026
0.0113484139943533
0.0122655962827657
0.0122079448014943
0.01101364764617
0.0086702638136836
0.0054434298467379
0.0020045013948324
-0.0009267631771578
-0.0029417223233615
-0.0040692346274453
-0.0048998152288396
-0.0062562462320536
-0.0083144708235033
-0.010413067893872
-0.0119439752625376
-0.0128895068187438
-0.0133684572128619
-0.013291156391513
-0.0126394473701232
-0.0116592739355422
-0.0106656682518544
-0.0098161431463686
-0.0090130248370228
-0.0080057493127589
-0.0067405001929633
-0.0055143995581932
-0.0045451450172239
-0.0035342959453975
-0.0020064457465686
-3.80328158855512e-05
0.0016916506458949
0.0026502295209061
0.0030381447492921
0.003578311211351
0.0048522142589934
0.0067382998456838
0.008314485751491
0.0085397000204449
0.0073130124243963
0.0056148364701213
0.0044219849577879
0.0038671177835572
0.0035497416770461
0.0031569310816692
0.0026763497141551
0.0023385997648509
0.0023079389637367
0.0023804520250666
0.0022811666652832
0.0020935421170673
0.0019654037509146
0.0017370621343435
0.0013115319686098
0.000946363434063
0.0008174191830325
0.0007545340246891
0.0006025652315536
0.0004066307061109
0.000197070523471
-5.0371823482812e-05
-0.0003123479424555
-0.0006101603581672
-0.0010280574476832
-0.0015003539926023
-0.0018167602883452
-0.001933048301341
-0.0020423158904347
-0.0022707394067467
-0.0025067435520668
-0.0025850950100033
-0.002473424077837
-0.0022444459199724
-0.002010949949274
-0.0018825916411366
-0.001839139136777
-0.001724007783825
-0.0015226598586534
-0.0014442421551301
-0.0015325720494259
-0.0015203835147204
-0.0012702821686676
-0.0009669699475697
-0.0007540054740204
-0.0005880768834647
-0.0004237791132889
-0.000201149637451
0.000153296115757
0.000523073383903
0.00072785444099
0.0008354622918476
0.0009641788977414
0.0009991422903833
0.0008662986925081
0.0007280172456411
0.0006538534642706
0.0005130859347149
0.0002959264643713
0.0001300281629851
-1.6330463471726e-06
-0.000227995326621
-0.0005838016343267
-0.0010237534372897
-0.0014464119171242
-0.0016432765232049
-0.0014916298341583
-0.0012016377089644
-0.0010974232070606
-0.0011773742813875
-0.0011373115345104
-0.0007802810147921
-0.0001788384829227
0.0004914611754394
0.0010428466189049
0.0013038187845383
0.0013295127344029
0.0014628411616001
0.0019137038605056
0.0024608564304304
0.0028101185299701
0.0029560166306971
0.0030061934890213
0.003023594813734
0.0031152359840366
0.0033035351541984
0.0034310372437062
0.0034924884959362
0.0037213212600022
0.0041573955571813
0.0045865668927957
0.0049225675782021
0.005191735471713
0.0053428959185326
0.0054475190940476
0.0056778271350492
0.0058094559780107
0.0052819095238489
0.0039782186031674
0.0024845298806289
0.0014793724169133
0.0011915563171665
0.001389464998954
0.0016209415005986
0.0015188835180867
0.000981793994152
1.7921417791065e-05
-0.0014172290116706
-0.0031863721116977
-0.0047759672222684
-0.0057524719145055
-0.0064045269193286
-0.0075707484985907
-0.0097084803351791
-0.0123330280036038
-0.0144418097241444
-0.0153518099994601
-0.015173873518609
-0.0146384658973909
-0.014352562544573
-0.014145122765018
-0.0133909340149784
-0.0119047517014562
-0.0100043758869052
-0.0078193782018202
-0.0052133280857899
-0.0022920263978597
0.0005685612462625
0.0030252626718209
0.0047977586445443
0.005729988497391
0.0059424602051586
0.0056335627389902
0.0049022801270715
0.0040200064248903
0.003483599286074
0.0035494692298102
0.0040508400317625
0.0046852708479223
0.0051601846710276
0.005283791051848
0.0052832243724047
0.0057410801620533
0.0068956140631448
0.0082829444626572
0.0092708937104021
0.0096736900746688
0.0097349892320353
0.0097665807817948
0.0098994745934559
0.0100423612685636
0.0100541362019547
0.0099715035967949
0.0098825855614058
0.0094908217496542
0.0081502906619451
0.005644258788112
0.0026363303873134
-1.79826469797706e-05
-0.0020984507516358
-0.0038052908653422
-0.0051455768493502
-0.0059711433476912
-0.0063027128505972
-0.0063348466160951
-0.0063277502127822
-0.0064544501930205
-0.0065674683036737
-0.0063630436955228
-0.0058409867901122
-0.0052454953988352
-0.0047107821211267
-0.0043805610155922
-0.0045194266435116
-0.0051041283448341
-0.0057320074291176
-0.0061533998021844
-0.0064074091695879
-0.0064276509648422
-0.0060745070205992
-0.0054864704829732
-0.0049070075109683
-0.0042630024770962
-0.0032497203246421
-0.0017183570931538
0.0001618685186685
0.00195576669107
0.0031554425730555
0.0035502861612303
0.0034314894815924
0.0032828486952537
0.0033378592747229
0.0035838181405394
0.0040095874520805
0.004554620937497
0.0049660361754951
0.005057111087477
0.0049758022884608
0.0048944560246384
0.004666444755665
0.0041356315006749
0.0034870278867365
0.0029819191872835
0.0026495229121244
0.0023729335125135
0.0019669269509634
0.0012525290718401
0.0003264841855533
-0.0004886408652756
-0.0010669063706554
-0.0014816849188963
-0.0017106902622315
-0.0017817418534211
-0.001922332389978
-0.0021795204024531
-0.0023009686121172
-0.0022290292705204
-0.0022119739886278
-0.0023169897217816
-0.0023359392206651
-0.0022005279260216
-0.0020900608071641
-0.0021624511823591
-0.0024225054636775
-0.0027584875981732
-0.0029980207514803
-0.0030602869374071
-0.003063428543962
-0.0031438732455671
-0.0032405770181105
-0.0032148786687758
-0.0030767817900949
-0.0029025362135267
-0.0026301844770893
-0.0021626987374859
-0.0015945733157014
-0.0010993749376212
-0.0006822874076905
-0.0002659229864596
0.0001274253913792
0.0004658155700854
0.0007741302156429
0.0010386331253787
0.0013054855628711
0.0017540961019839
0.0023579772546543
0.0027786389342447
0.0028834925457125
0.0029182563871688
0.0030155712008769
0.0030730866538541
0.0030875276504095
0.0030941651159786
0.0029992013326516
0.002864307382814
0.0029662004412921
0.0033290613937886
0.003660164682383
0.0038388685210163
0.0040172234879837
0.0042604849023781
0.0044557399059306
0.0045039269212513
0.0044020926671645
0.0042498002106997
0.004195656852417
0.0042075464221285
0.0039990112270384
0.0034106040638005
0.0027168114548039
0.0023010707604779
0.0021782926043441
0.0021042308620877
0.0019955152520414
0.0019105286846828
0.0017221062204975
0.001158389894954
0.0001054880936013
-0.0013971965263998
-0.003293997897395
-0.0053968114821932
-0.0073738352880442
-0.0090344687781726
-0.0103819194686109
-0.0114234502550249
-0.0122211138564394
-0.0128857298608854
-0.0132398651497921
-0.0128684465281359
-0.0116571209026849
-0.0098509994074327
-0.0076775375522993
-0.0053760676261376
-0.003305235020869
-0.0016043577673626
-0.0001262984218114
0.0010756790059469
0.0016816429926872
0.0016253392127747
0.0012177026808103
0.0007453354924478
0.0002936022203408
-9.93857750351291e-05
-0.000303576169911
1.0713973425491e-06
0.0012694795793676
0.0036652149874972
0.0066635277807863
0.0093042523023712
0.0108713474677435
0.0112387092000196
0.0106917559700868
0.0096202288955101
0.0083056742251779
0.0068016097649563
0.0050739078516612
0.0033883970922946
0.0023421287755053
0.0022585496589443
0.0027730818855993
0.0032434859602888
0.0033077237053977
0.0029535852261509
0.0024350382415362
0.0021170094314014
0.0020182350324042
0.0016808997643665
0.0007891322604792
-0.0004171464149807
-0.0014702387408047
-0.0020085975548505
-0.0019247981903833
-0.0016294975587466
-0.0018252878146096
-0.0026399862282076
-0.0034554134269407
-0.0038056459604002
-0.0038641409533592
-0.0039287562046779
-0.0039887288994159
-0.0039007320765984
-0.003655972985235
-0.0034831371141157
-0.0037786333474066
-0.0047157431554101
-0.0058792050274919
-0.0065440412945213
-0.0063048589470705
-0.0052180078281285
-0.0034893059313181
-0.0013783569377423
0.0006676214217237
0.0021545845619996
0.0028710945929761
0.0029026443062286
0.0024223925352528
0.0016795174344297
0.0010024112713177
0.0005355922523207
0.0001507453049199
-0.000240730765537
-0.0006016192524076
-0.0009971627610219
-0.0014422331787619
-0.0016222176445441
-0.0012462541959042
-0.0004388214935189
0.0005571487644376
0.0016212247834771
0.0025308732059625
0.0030735331677343
0.0034057135747543
0.0037951835752401
0.0042071343407896
0.0045302635949582
0.0048172969588856
0.0050155427249158
0.0048970524286993
0.0044073734954153
0.0037091742682428
0.0028919005692785
0.0019434048421924
0.0009150024900374
-7.77565246517929e-05
-0.000905907666904
-0.0014575764373674
-0.001787580475307
-0.0021619431102562
-0.0027547584907329
-0.0034074907472665
-0.0038661742975541
-0.0041063004961245
-0.0042281277692951
-0.0041948686298764
-0.0039171955980731
-0.0034707841197603
-0.0029980062584284
-0.0025322235707944
-0.0021060863213363
-0.0018015517210742
-0.0015329771549366
-0.0010947983091482
-0.0005052956042418
5.39527126560546e-05
0.0005505370304467
0.0009776270233803
0.0012028959774807
0.001273638186872
0.0014570995621814
0.0018044590398025
0.0021633420850061
0.0025758746160438
0.0031480072148914
0.0037180242582971
0.004066451298218
0.0041642632867991
0.0040012056737325
0.0035507037022609
0.0029835462072169
0.002570254242346
0.0024152893117537
0.0025079976925311
0.00282958858373
0.0032309177549089
0.0034368586631072
0.0032778874893612
0.0027387117674486
0.0018216397294885
0.000573562178001
-0.0008460947775987
-0.0023370994318684
-0.0039681980911536
-0.0056909454343792
-0.0071115423377098
-0.0078456579284858
-0.0079724516966791
-0.0078512740216909
-0.0076649519419357
-0.0074343104442971
-0.0072263945874921
-0.0070386598699517
-0.0067272021646211
-0.0062073837478832
-0.005446971429388
-0.004352438043971
-0.0030129784571612
-0.0017804853303866
-0.0008007626009952
0.0001203401146235
0.0010425270831695
0.0017963088228833
0.0023337470618454
0.0027051865921769
0.0029023260942453
0.0030678460961877
0.0035063645696256
0.0042959829786669
0.0052573057116358
0.0062605228936622
0.0071470814515764
0.0075261663632162
0.0070941019952932
0.0060516907684227
0.0049486475910773
0.0041904737537729
0.003725023539579
0.0030995740238268
0.0019540362881124
0.0006186934280049
5.51349413810134e-06
0.0006723433699447
0.0021808003804594
0.0035832171628798
0.0043094136987342
0.0043423547323365
0.0038458102327844
0.0030359574303037
0.0022187174232245
0.0015601687731507
0.0009614797267264
0.0003771427192356
-1.56087705998054e-05
-8.69657047688311e-05
0.0001258342933175
0.0005262308262583
0.0008703607395399
0.0007989507984639
0.000211619197396
-0.0006953294225792
-0.0017708240231205
-0.0029009190384906
-0.0039272179434592
-0.0049995865691471
-0.0065595747058154
-0.0086182589656575
-0.0105736833791105
-0.0118989444284635
-0.0124270638873143
-0.0119905131749314
-0.0104551330389581
-0.0081536978825044
-0.0058271490104203
-0.0040797997003435
-0.0029970091970542
-0.0021532547720344
-0.0009968551998138
0.000562559746325
0.0020030739458454
0.0028022738780033
0.0030409783422304
0.003174524155176
0.0033914614089426
0.0035121820690541
0.0034227827197235
0.0032908168017888
0.0033625998206017
0.0037463047797202
0.004306602215565
0.0046604445540863
0.0045347796202835
0.0042024089613829
0.004149692981376
0.0043136900872264
0.0041991092477593
0.003665928358089
0.0030117405570235
0.0024489270751056
0.0019892413838671
0.0015910084311761
0.0011549148064145
0.0006722049791934
0.0003640258234342
0.0003798429428101
0.0005879418365509
0.0008478770606848
0.0010870653355894
0.0010636871861957
0.0005693760703031
-0.0001557978156843
-0.0006673628473974
-0.0008609349483097
-0.0009441957670539
-0.0010819763368387
-0.0013182513619533
-0.0016330485782719
-0.0019211669968643
-0.0020796456813216
-0.0021527508309782
-0.0022533978899673
-0.0023875808019511
-0.0024828074974958
-0.0025052168938556
-0.002432370833836
-0.002231204780868
-0.0019922815247138
-0.0019190354709692
-0.0020225363825957
-0.0020544272871482
-0.0019229529549319
-0.0018552572636787
-0.0019620774760356
-0.0020354494917418
-0.0019047296030329
-0.0015747304413928
-0.0010310901131447
-0.0003127174258987
0.0003934892939335
0.0010086131974523
0.0016019169885169
0.0021160121381819
0.00246691911562
0.0027643149213812
0.0030297152688801
0.0030498767138858
0.0028284792798806
0.002699778690321
0.0027890052194765
0.0028602766785035
0.0027789563923879
0.0026930468737296
0.0027604361515521
0.0029669346620798
0.0031423601688145
0.0030910554088532
0.0028701728076973
0.0028552105526536
0.0032862922716325
0.0038879919690388
0.0041935146379751
0.0040796300047283
0.0037408613820999
0.0033395257112059
0.0029641541070579
0.0027434261777738
0.0026652720821687
0.0024030085671449
0.0016108820206411
0.0002568540756244
-0.0015183445525862
-0.0035370588495841
-0.0053760705365058
-0.0065057537631139
-0.006904928547975
-0.0071276288285653
-0.0076566537876696
-0.008528944495277
-0.0094656846951494
-0.0100810553231493
-0.0101806657392541
-0.009922759320439
-0.0094347501809484
-0.0085379524611099
-0.007185879788799
-0.0057124711619765
-0.0043230009350115
-0.002865557539092
-0.0013236078685745
-2.54884327378069e-05
0.0007463443623405
0.0009891730072173
0.0008758159009076
0.0006583883012057
0.0005338739254058
0.0004993080360095
0.0005081775011434
0.0007017682537574
0.0012322628625568
0.0019768303629485
0.0026989228806556
0.0033601905391143
0.0040175379423445
0.0045602790869384
0.0048212316699263
0.0048328387254607
0.0047353184102198
0.0045830596383365
0.0044832820693951
0.0047112716974633
0.0054102650655215
0.0063830586675678
0.0073349322054454
0.0080288887801328
0.0082158072547893
0.0078434025300929
0.0072288490199598
0.006641565154096
0.0059971990377887
0.0052197566608364
0.0044435602932132
0.0037288087203936
0.0030483952884079
0.0024602159488145
0.0018996160121497
0.0011243323654848
0.0001410667307396
-0.0007639064819084
-0.0015293424334799
-0.0023512287793424
-0.0032296788169798
-0.0039421731646055
-0.0043828548529141
-0.0046239146438851
-0.0048012465433043
-0.0051020660534828
-0.0056713512396597
-0.0064685546856139
-0.0073554629243772
-0.0082310250094716
-0.0089333028030344
-0.0092012659145094
-0.0089332771316674
-0.0083117697621424
-0.0074981241426402
-0.0063974345751846
-0.0049126103797408
-0.0032207374931006
-0.0015909870929087
-0.000161129500818
0.0009392504383223
0.0015973824330442
0.0020174723102359
0.0025920928408381
0.0033639149252712
0.0040224137915635
0.0043669077528514
0.0043786177706391
0.0040637828860938
0.0035456060449844
0.0030303179032623
0.0025895518334587
0.0022590482760646
0.0021406200407575
0.002119184795315
0.001893589601901
0.0014931330131401
0.001246878104343
0.0011846817543715
0.0010280947371491
0.0007239999557039
0.0004845607880642
0.0004004010358097
0.0003665535976646
0.0002671976803623
7.06591959856778e-05
-0.0001210912627162
-0.0001236805629436
7.91067141405175e-05
0.0002491497927908
0.0002039910850649
3.61239401598768e-05
-0.0001188624247133
-0.0003076446585618
-0.0005798978035179
-0.0008202346615805
-0.0009585504663031
-0.0010990805187814
-0.0012419145461916
-0.0012016461353426
-0.0010093514247026
-0.0009700616952556
-0.0011236412535208
-0.0011413613231532
-0.0008821512867981
-0.0005608182299293
-0.000386494165597
-0.0004344322742344
-0.0006619447394843
-0.0008034112042895
-0.0006116917017362
-0.000245075396921
-2.228848038751e-06
0.0001263230633049
0.0002487519640973
0.0002953411888447
0.0002582654178229
