0.998512164084241
1.01035059085264
1.06411945603053
1.09045731587896
1.07466233644584
1.06766512147799
1.0882779987839
1.08184129190293
1.05487595065291
1.09529960052362
1.16161460984775
1.06097338506931
0.733179784444601
0.339052430147157
0.0189611649460238
-0.209213085284555
-0.31012919815226
-0.217212912579992
0.0426001388772213
0.362743596892324
0.642575321515682
0.768287326923493
0.641827476545275
0.331030661967049
0.0480986868664385
-0.0999035116326247
-0.186314243459672
-0.262567655197846
-0.279200551298546
-0.234268644658091
-0.211025744074358
-0.255305755273049
-0.350162810306024
-0.47881160234215
-0.628008671343509
-0.788988105475708
-0.971465294882107
-1.14197045740667
-1.21124345433946
-1.17324416128816
-1.1362593415602
-1.13525683789125
-1.08357891554232
-0.969312030508214
-0.891009570378083
-0.860376393462222
-0.780784324104028
-0.622007589337771
-0.427578943900562
-0.203782833971155
0.0398099807828796
0.237787770318132
0.361772576805878
0.436085555662135
0.430263628206361
0.293023588749831
0.0598142635240491
-0.232741394143773
-0.638665700541464
-1.13364635043271
-1.47800111767873
-1.4306154521727
-1.0095336253806
-0.426570283648544
0.119374983111385
0.507988928529818
0.701202370156814
0.746312022597468
0.677910528498765
0.459474465195227
0.133770354034452
-0.109226215675086
-0.171417556786385
-0.193081155370174
-0.321874968917492
-0.503214059312415
-0.589088218203096
-0.488833143900328
-0.184146727813274
0.246857509315642
0.637672130043656
0.886946952968073
1.04507196272987
1.18514158685716
1.30035322949826
1.36034738601982
1.35046094005381
1.27002633439454
1.18055055396043
1.16364939494337
1.16702313794232
1.04832041208795
0.805675130446244
0.573543634312435
0.402996580453527
0.253309289122175
0.142224985916841
0.0984875632335312
0.0483663795184374
-0.0785123907275029
-0.232748584374951
-0.352666208701024
-0.450009067519378
-0.506007917849591
-0.453982377947854
-0.329857485289785
-0.254776227816421
-0.237000033616266
-0.189469713185945
-0.136015997903809
-0.190227590167614
-0.355428086588423
-0.524065813551258
-0.627075362842041
-0.663381157644259
-0.657379486927353
-0.65227951076932
-0.668140475379995
-0.666377295237408
-0.618284435922076
-0.544186587927324
-0.446450741348873
-0.315532411881921
-0.198284349266119
-0.113693922432992
0.040248225141976
0.320826206078296
0.584374587517678
0.671639657136793
0.617583442210004
0.545365111231567
0.524537599868673
0.605987756443205
0.783788991349063
0.899021123434454
0.796654901186663
0.544805240372586
0.313291353658909
0.147458647256255
0.0382608035606244
0.0466086901497339
0.17001419888993
0.253216279707035
0.189673375101073
0.0439683205441364
-0.128859366791681
-0.378162924617284
-0.685312219750829
-0.908451649557503
-0.971354792429432
-0.942197102759195
-0.910260362168208
-0.911530803242379
-0.944386988367146
-0.973121777638446
-0.958301562259416
-0.895482999838758
-0.774576111442833
-0.568955987200027
-0.328112149805056
-0.168090733015102
-0.119025044955096
-0.115183597488769
-0.138889609709977
-0.214917169771137
-0.300805850649223
-0.342255695222771
-0.355757085134517
-0.334287295946584
-0.224287835836073
-0.0856727480728478
-0.0595639029357721
-0.116948699923366
-0.0776839161686104
0.111665269315082
0.362590933115731
0.659833147039308
1.04479520398533
1.44328290807595
1.71375753076394
1.80092575472513
1.71280159325688
1.45743285886424
1.10062849697663
0.759150217294585
0.47420946771968
0.216888488378464
0.0155300214654005
-0.0665213249814393
-0.0312515797865152
0.101622246547546
0.328186572437248
0.543027807083072
0.559735990169299
0.339074195071042
0.0325175404237273
-0.221940193003541
-0.381271786375087
-0.422621395520577
-0.358459318344184
-0.264833613037084
-0.186719808761061
-0.108570134660981
-0.0457123397658443
-0.0230586778112799
0.0113105513027368
0.096483654494991
0.157694951908606
0.126601565337826
0.0317237092267231
-0.119013136114124
-0.353863285176266
-0.581488578643554
-0.640095039641843
-0.52460808427786
-0.366642766526077
-0.228503749335202
-0.100465093633697
-0.0186305757747849
-0.0169937729542826
-0.0526710592485108
-0.100324155108977
-0.214572111643223
-0.421479840942413
-0.674622692363158
-0.954363281794688
-1.26045897535955
-1.50868390765936
-1.59908487485814
-1.54745755294038
-1.40109456806274
-1.12090481118268
-0.677905991299643
-0.134014873431734
0.458935596814283
1.07792984217575
1.60672725875514
1.86957956257662
1.8119116462907
1.54318858738432
1.24632780480505
1.09264270874668
1.12503024567386
1.19641705077298
1.14887503646442
1.00984524358337
0.872944091629415
0.708735404660418
0.471216558365524
0.252415995204148
0.163581469758275
0.181778199118919
0.202364125312256
0.127120426657632
-0.0956336402027295
-0.397697048139983
-0.630499453389149
-0.774941444517642
-0.966344986567908
-1.22629862534043
-1.37463476855519
-1.31509186256486
-1.20154510068254
-1.20059418586896
-1.26235156345094
-1.22666188870565
-1.02308281733633
-0.717452534934527
-0.460442304055774
-0.368830582391389
-0.389104733727565
-0.367267037658101
-0.274752993997775
-0.204168146687321
-0.160178966540272
-0.0694170717801198
0.0386307350747469
0.0744418361839746
0.0536926782693903
0.0503906836972157
0.0789055892236615
0.13597478724731
0.234120281041763
0.337787291421681
0.40388895858699
0.469072442069411
0.553628967694116
0.568289240792423
0.464024821101515
0.342028101939341
0.298354456545997
0.32333593238498
0.408564096799939
0.548503916028621
0.631429692506613
0.5529348872876
0.414089462304657
0.403831248545447
0.534368561362247
0.657173997261436
0.669265929888864
0.58276661475221
0.47949959682164
0.470245461190543
0.587835778408889
0.698547846914246
0.664950576663685
0.573696832926427
0.618888388789497
0.803708804251346
0.9450245882125
0.919914332152637
0.76046668372611
0.57437163945613
0.464352695298122
0.459978991123229
0.511362194515477
0.595223675234958
0.741574945326131
0.900437117597936
0.931124199911542
0.786389430200254
0.55230604036103
0.28575699757781
-0.0234981476924618
-0.350596424209677
-0.646597764041282
-0.8959191634209
-1.07580173501075
-1.19107409259769
-1.38958041981193
-1.84086161043749
-2.47852589487109
-3.06611935693592
-3.4798707582907
-3.72844253194728
-3.79639423173651
-3.67634321681071
-3.44678385098636
-3.15109813676517
-2.71692959466511
-2.10253109006154
-1.3749465396411
-0.575877183550164
0.304981359034367
1.16292490419356
1.76991670782532
1.98113308673917
1.82185970037237
1.41869278389943
0.978573992710917
0.727622318157724
0.729078995755449
0.854849941663304
0.991616777318135
1.14367646350586
1.32728664559813
1.50830432223255
1.63676675554781
1.65972749504918
1.55734072305742
1.39340215159764
1.23843645358603
1.0844523270473
0.953715922382124
0.973133623445506
1.1824538763694
1.4140044060133
1.50706023503575
1.47407768137733
1.36646559219387
1.18736940288487
0.986879053317609
0.823986591768375
0.630780728725167
0.311512161706988
-0.0777265708035378
-0.418443433423145
-0.698767452745082
-0.948289497183934
-1.12803853048058
-1.21095927161467
-1.25422118599182
-1.30419333134197
-1.34128830145558
-1.35155100189566
-1.32860239866841
-1.21831188351918
-0.988775531091442
-0.697585113832392
-0.385843629856318
-0.0206055249603142
0.373665356659077
0.667560004151667
0.754045217748434
0.594845032594069
0.18538844876776
-0.37665329508051
-0.869708048685905
-1.1229824739552
-1.12200131279029
-0.907987757261874
-0.540469521493197
-0.16205799959251
0.0925482966697424
0.234874542871161
0.326139387775089
0.348486782825774
0.305705862475736
0.287201996487763
0.312231951971066
0.290169051939002
0.204422563104203
0.151975979528648
0.184138190269651
0.267805091749603
0.361441794672709
0.403619107909015
0.322411099558425
0.15558255068102
0.041795801544799
0.0301327531711649
0.0360039029593337
0.011164732329885
-0.0056286801569848
-0.0112900720486977
-0.0362517450346721
-0.0350671553632928
0.0532674254968497
0.174029176381791
0.21949347528122
0.155522308064911
0.0077880953234959
-0.177034216411952
-0.329311003590774
-0.418852829159439
-0.481289416575803
-0.499884444667792
-0.386402134056606
-0.16824576700225
-0.0265175234981461
-0.0640347485614728
-0.197636741168624
-0.312739107981839
-0.363110825088553
-0.33927747032003
-0.290989125317216
-0.31856460180627
-0.427981985863839
-0.502132053894184
-0.479334024741389
-0.415081471665804
-0.353648314155472
-0.297726922538028
-0.269260965783462
-0.252161677494891
-0.154470570104096
0.0522176542097666
0.266221211218595
0.40666660483162
0.489967049994787
0.512014164394049
0.429463856237022
0.301926988638551
0.279103383968389
0.413549841494091
0.630659521269647
0.858046287683071
1.04049320253295
1.10028728241803
1.01698455630929
0.854390512034044
0.647163015147138
0.409457111899655
0.257096633412749
0.314850609655106
0.509624312683915
0.640346162776079
0.616565945592274
0.496222129598561
0.371743104791722
0.309481225351276
0.301042062180692
0.243575636687465
0.0699952418459198
-0.144341624447139
-0.308594369877771
-0.446868545783227
-0.605341869111874
-0.762175516652229
-0.888390987670182
-0.952392181645168
-0.871886479120383
-0.623740414779087
-0.342718726592689
-0.163579306578999
-0.0720615910274177
-0.0197976269767831
-0.0170019487072008
-0.0173430180928014
0.0857022476522583
0.253164463786081
0.283244540566923
0.0654995566842666
-0.323984382025991
-0.779503248180988
-1.20377224301668
-1.42445525831314
-1.32271016312207
-1.02885117967776
-0.792850294298423
-0.703716765552642
-0.670542475682587
-0.592621653147426
-0.443404404115464
-0.254809609202225
-0.0642824170998518
0.140389498681467
0.371982255634649
0.546418767217453
0.561588519625725
0.458862289627499
0.35851426435532
0.282104905618574
0.184770431634234
0.0728623489472286
-0.0353374425062294
-0.130880860943856
-0.119494022674379
0.0976711522733946
0.405953493502253
0.568838864540409
0.542030499562712
0.469274119698341
0.417560431920505
0.343746003138508
0.249600755283472
0.174885704734279
0.114872271693117
0.0754029394199659
0.114741596091766
0.252777765274934
0.443954088677998
0.66998386985632
0.939867537497822
1.20112096597486
1.36777127295591
1.39974681957065
1.27712038562839
1.01208380530027
0.746960246460972
0.655537431403424
0.690325999328926
0.624193664463739
0.358817432280167
0.0018626384919815
-0.324886595144384
-0.577254709442222
-0.75391042686471
-0.8980985378215
-1.05514785593137
-1.18609148308455
-1.23530435243075
-1.25215074576186
-1.30436261752692
-1.34876806025867
-1.32546058685365
-1.26220592764575
-1.17325718115941
-1.0032375991145
-0.745567408300663
-0.463203508138555
-0.184043567316926
0.0698258487234697
0.212899384371715
0.2198213821012
0.22298571778915
0.345885760184955
0.54826156799623
0.729576058442677
0.844650828758826
0.84370035674425
0.659592006329355
0.334615352935479
0.0225386043502386
-0.185224228775752
-0.316601870483011
-0.406071665135791
-0.447769328683989
-0.432190478317829
-0.343038185845593
-0.181235014608802
-0.0232075764093751
0.0467095393708796
0.0461874748387836
0.0342952041721784
0.0218474526797078
0.0368005476611982
0.140112834548757
0.290842711208169
0.350591587439773
0.26489927754196
0.0874009746760557
-0.146258514201074
-0.40275117393901
-0.582983666930091
-0.614395137603933
-0.509652088323317
-0.265204595083683
0.12505887928576
0.53605202274841
0.817328487688658
1.02697358101093
1.34283169520863
1.78896585642577
2.23103143781363
2.53832111855207
2.59484097106206
2.287992420614
1.63617929930843
0.828653099449038
0.0637191230370739
-0.555228666857339
-0.969598265124568
-1.17046205828014
-1.25176123883723
-1.31079388842717
-1.32725596220044
-1.26986497953939
-1.2357408158849
-1.34537775173839
-1.58460533377544
-1.84124169168045
-2.01564369399877
-2.07825602642759
-2.10208609787445
-2.19103162039663
-2.30925726030031
-2.28481323209083
-2.02063842568025
-1.56401629015401
-0.974593553138992
-0.290149492200338
0.414211232400801
1.08398852825352
1.72104987014243
2.25697969233447
2.54812092474021
2.58366966243571
2.50791695465564
2.39189230399877
2.18958382239772
1.90717244731082
1.60311851496515
1.27645691489014
0.940670633814336
0.710981359947117
0.665644020204275
0.732497874748436
0.810317972117768
0.871814470396415
0.895623703955409
0.850115553719603
0.77645317600398
0.736164248593458
0.675453518488488
0.491444878950819
0.202526508325202
-0.0858264386268301
-0.326604278915202
-0.538182521220364
-0.749580458322433
-0.991883130471975
-1.24837227196303
-1.42991846504458
-1.50667238153284
-1.58729008443261
-1.76174521824265
-1.97871120673468
-2.1538012324117
-2.25416634813495
-2.23768037603961
-2.07143155339468
-1.81789242989747
-1.56021432636866
-1.29141283069988
-0.999480972002889
-0.756971287582938
-0.613946871181436
-0.51506995524977
-0.384112925750232
-0.185579033828551
0.0747697519114915
0.301985366030393
0.356920875857612
0.25271169158975
0.176121146791119
0.24438073123158
0.403170962062734
0.597094706879498
0.847534752266063
1.13558796342368
1.3872942159926
1.57673145666023
1.69180305152394
1.65435376387794
1.4335111109246
1.15262746196207
0.948801579572026
0.849798028857432
0.87489610790232
1.06838519686636
1.36126181966612
1.59311364108292
1.70576620831886
1.75810049128369
1.78978615307722
1.80865240711506
1.82984463550621
1.82962294536239
1.75915462495478
1.62933962783617
1.46676813669187
1.23487972542816
0.927257947914203
0.636582440234978
0.41655374821199
0.215715483368368
0.0088664097582551
-0.196342057066726
-0.489444571282481
-0.96582574344275
-1.53921945976253
-2.06107287703531
-2.53703894131006
-3.03043766764125
-3.4801058162877
-3.78202872888847
-3.92270661827692
-3.9244345286152
-3.79717442617123
-3.6059125141655
-3.44551813404146
-3.3217158267569
-3.17471003547424
-2.97647918420695
-2.67381810894817
-2.13890071210958
-1.33529875467152
-0.42200004816967
0.426598967866147
1.16485380200378
1.77805388142416
2.21857336624982
2.48314580888228
2.6120874564979
2.62329769500567
2.53478492140727
2.3683516231933
2.08472896210136
1.65165193983391
1.18429510678452
0.854035758002265
0.677144977624558
0.539829050699772
0.366321440997746
0.147977241879866
-0.0750491741820879
-0.176155087932461
-0.0306693360095322
0.324151859999583
0.763179730117785
1.2575852141228
1.81481011416879
2.32453250327862
2.62730961753735
2.64428315079119
2.35292410901849
1.78424246654787
1.11016456643426
0.568172192124358
0.240580006229108
0.0393349376463506
-0.0987698135070174
-0.161245792691063
-0.179552900398545
-0.242095202021234
-0.416840741462837
-0.748718856757827
-1.22115767048461
-1.65761653497898
-1.83523016690346
-1.74131692854675
-1.53719630052693
-1.29009111660247
-0.94856783511157
-0.532348805465739
-0.146388837464193
0.144791736943085
0.32898267527471
0.406777808985123
0.402512784564119
0.335213475315605
0.192070191703681
0.0102327868536172
-0.102260802839177
-0.113765796525689
-0.12048870485247
-0.200657297361829
-0.358722628334721
-0.607218013868172
-0.932102169823508
-1.21387540992067
-1.33235729077057
-1.27280819002431
-1.04208140796348
-0.638763276829456
-0.175852244252799
0.162851600196171
0.345470012786198
0.485214703483286
0.60722727205516
0.631584842994785
0.568147872834058
0.500602405503084
0.406692002123244
0.21777842552541
0.0075042374063798
-0.0872450179285003
-0.0736822619038106
-0.0756420094623603
-0.174855428518797
-0.361113544558435
-0.545110454026781
-0.60700685411991
-0.52697975991491
-0.423268674613121
-0.394997895658318
-0.430720057245625
-0.504761168158591
-0.614321889190164
-0.70908886769316
-0.732646246222205
-0.708916818313477
-0.671067305203964
-0.590582982446176
-0.465263001061292
-0.344994091215366
-0.220159551715873
-0.0393524246841819
0.173371612513229
0.383385282744673
0.64466410409949
0.966280330424407
1.21819060440174
1.33100283432079
1.42713525634957
1.61882849572354
1.83897474185602
1.96355054727779
1.94096248985286
1.7515998073006
1.4058255757198
1.01371380804209
0.713484339784145
0.534271698402708
0.438236424620454
0.419371591852025
0.441236185525873
0.38807628956792
0.1897832795033
-0.10631393319952
-0.433689713439158
-0.761898350106412
-1.05772570090107
-1.29402297089295
-1.45841419269388
-1.50301075462824
-1.37747322344106
-1.12338502492648
-0.824705501596629
-0.509356759186036
-0.21343596742034
-0.0277209153099214
0.0430333018440949
0.110478443706301
0.191701108693758
0.163120532336405
-0.0051524527240585
-0.183409333452616
-0.283716083095395
-0.329332643933808
-0.347933321586518
-0.366672804770875
-0.441231065654883
-0.563507830829277
-0.644076020954836
-0.648366673298344
-0.613383599178835
-0.520764283912799
-0.325114251634993
-0.100034234975114
0.0231758276682408
0.0457292946615467
0.0697086665220989
0.12458370412188
0.175194705304745
0.223541760479804
0.270605072422217
0.277023154608411
0.25020082256224
0.252795673406889
0.293570909439821
0.332282216658424
0.366110083358496
0.405975402268172
0.444328723595189
0.510779824476972
0.637499783750806
0.752247370819843
0.75699584301592
0.687305984711531
0.64182731876782
0.62343703842971
0.58351208617675
0.517563462013738
0.424215699339025
0.302682742092964
0.221171561399406
0.231745715594656
0.256999818154008
0.226853356785677
0.215988640143802
0.276122285063784
0.295230160846737
0.187218997079551
0.042910756115573
-0.0426259011107507
-0.114854987334481
-0.229283520083416
-0.341174193033285
-0.400986442506748
-0.421706050298483
-0.411949424990188
-0.360930654707974
-0.296441826217784
-0.265092678247903
-0.282364085428319
-0.34719908690532
-0.426269212095539
-0.42565883203406
-0.306493795526893
-0.191457750354925
-0.216483008779818
-0.354719937954689
-0.508701735249789
-0.651677950541643
-0.782260492592636
-0.88909132459861
-1.01449329430233
-1.2043463940334
-1.40468836715415
-1.54799943405009
-1.66439159946603
-1.78051905948817
-1.83964065230346
-1.82099374231991
-1.76975314953108
-1.65574569649076
-1.39924716292353
-1.0451727716062
-0.716496015961784
-0.435091870326753
-0.156578093153894
0.105541458339785
0.321502370832575
0.498067241367569
0.618192680996464
0.662608548772506
0.710097669697691
0.863063904269214
1.08480274735951
1.26263486079541
1.39050036473048
1.54044448559112
1.72170193860236
1.90263462916665
2.0779729355745
2.21511706226675
2.26230790232736
2.26519452746546
2.32081876123353
2.40930912301036
2.43233157505325
2.37839230168634
2.3044026246319
2.23108047840732
2.16804976005347
2.14286836754352
2.14022311651949
2.10937611656102
2.03100465219943
1.89346463539492
1.67796536708743
1.43292603591383
1.2214487813752
0.957634914686409
0.496915929827353
-0.0984930415889138
-0.618365613120937
-1.01379760791719
-1.42032914886638
-1.92252002127777
-2.48605464197939
-3.0344671440083
-3.45603428938605
-3.65671021303623
-3.68881977990823
-3.69694654684611
-3.72370729570068
-3.71294415742133
-3.65689960471415
-3.57339910849072
-3.42130439274225
-3.21510288094823
-3.10100439003672
-3.12804434997027
-3.08906582536462
-2.78195255230492
-2.27792645275308
-1.75844125959231
-1.22489270913984
-0.514075086819185
0.468083313524567
1.57632265893119
2.46619555886053
2.86504606715092
2.83080365268828
2.66172966560411
2.58201040888978
2.62266709441937
2.70721898210112
2.69373238634596
2.44053304273664
1.97756602293145
1.50935725819325
1.17845159297354
0.96781211946839
0.841010991256171
0.796157299473004
0.805562995372951
0.855233344935408
0.954459392818476
0.997006372380128
0.793568622347339
0.353195790998993
-0.0737233033386381
-0.326410601704114
-0.505465689600683
-0.74675219259414
-1.01467287085057
-1.18549136119275
-1.19764728671716
-1.08775753894927
-0.966830977247006
-0.93179191682242
-0.937027707625126
-0.837648638375686
-0.593261645635613
-0.295102111112244
0.0029428128127415
0.308809926743095
0.592961114547081
0.842773959139321
1.13367741608193
1.49418079566667
1.81804118624428
2.0136885803584
2.09372127216001
2.07218490004418
1.94076039492057
1.74019427680746
1.49335521430403
1.12358322295962
0.578946355946766
-0.0541181581624148
-0.650030693064253
-1.13318159135373
-1.44898064725433
-1.60909712618908
-1.73979561365621
-1.92651733603803
-2.08605192407646
-2.11827082677493
-2.05365077431837
-1.95732929946623
-1.8436196701476
-1.73561145454325
-1.64872277967122
-1.51324615368404
-1.27133411644847
-1.01001494526579
-0.839207101196586
-0.709398013908194
-0.514655917531105
-0.296358969330978
-0.197477452793284
-0.293002709875599
-0.543688125396761
-0.801051266009394
-0.845383448519226
-0.582037594838795
-0.183721914217658
0.10681907815794
0.241770412648591
0.322636105040369
0.422007224879535
0.548933558743743
0.66355150414624
0.686139452781564
0.600420333231836
0.504041009985154
0.460925524677558
0.427751984160409
0.416532414464852
0.551697814031052
0.886188814062854
1.35095862624243
1.91650273579089
2.60038416928608
3.32701510471962
3.96506776393383
4.44783674744504
4.7293181217559
4.74830918228709
4.53138924493624
4.18182462416411
3.73315700793043
3.18823487222153
2.68288944389447
2.39733311479565
2.31377851023465
2.24514790110973
2.07529131193488
1.81854418028101
1.50687421627199
1.15358327594358
0.749576232691903
0.218764743275036
-0.509489414603243
-1.37820481427154
-2.30773651799684
-3.36185052318965
-4.61482942239108
-5.93905631334908
-7.11353225787276
-8.05822666885782
-8.83506804349364
-9.51615864524919
-10.1055490826654
-10.4752877917109
-10.3755785676977
-9.61958848474618
-8.24372231137581
-6.45813845477002
-4.54049271578824
-2.76892027961952
-1.30350119626723
-0.157782031365212
0.607337145879957
0.845520492186057
0.67005632417371
0.601457108312904
1.11188823255914
2.18702285673215
3.50071421071167
4.80927878746448
6.00833457262568
6.97336999587196
7.50737650563191
7.420889215346
6.68051697507749
5.54279498915736
4.45820233772249
3.73661817316977
3.37169540771755
3.21841353663391
3.16763831498923
3.09909985361891
2.88416083284138
2.52301385050599
2.13685696139977
1.83529512060752
1.71727834517349
1.89342327044669
2.34416790822729
2.84864329749822
3.15246839355012
3.11592870881147
2.7019597865507
1.95948800003846
0.998315583377414
-0.105167029975161
-1.2783366331818
-2.29730898750765
-2.88194840955858
-3.01733373705023
-2.96323347184942
-2.9057133851312
-2.81028170364222
-2.61161004462175
-2.34486293283759
-2.10192801043915
-1.97552621871992
-1.99157359798043
-2.06840802711143
-2.14653104954692
-2.3071495765371
-2.6045407126942
-2.87960563687751
-2.95109951728549
-2.90132467920874
-2.94718478713446
-3.09499394111172
-3.12400108415372
-2.85400582767551
-2.27732045399576
-1.50299209532205
-0.683403316930012
0.0691447222647858
0.716837927689692
1.18432822533226
1.31194916066818
1.04712827746668
0.568757548742005
0.12832823985773
-0.0979301799227103
0.0056998922255696
0.434612125966045
0.975726462232579
1.37881807287663
1.60324001357907
1.7636937993877
1.93123974390687
2.10106644548933
2.2170954433972
2.15098609870537
1.81857533983248
1.35766461657124
1.04415865509423
1.04655751803223
1.36709995209498
1.91947734961635
2.5490988834787
3.08442625394913
3.44039279205839
3.59397347947827
3.49939299111522
3.14679248913259
2.62552716399837
2.0093523320324
1.28683426455258
0.507272785726724
-0.162016048879654
-0.638527991479592
-1.00224053501334
-1.25693834775489
-1.234535592936
-0.884369903612422
-0.467577808489017
-0.331687186768977
-0.618976159041154
-1.25405147272474
-2.1267383016338
-3.26699501736239
-4.81862726332814
-6.73723955069195
-8.56777019371158
-9.6989075961971
-9.79896911088179
-8.88716586248704
-7.16189824663056
-4.97828625583719
-2.8308950048623
-1.11016378306598
0.0867626276000124
0.850917076003923
1.29388244517491
1.49489252852672
1.49011025380969
1.34542620742273
1.27765870630363
1.51925009020613
2.00027699575716
2.40456344244281
2.60053085322165
2.76154016269847
3.03158846315946
3.36014770809587
3.73124962210552
4.30890090276563
5.25427561221653
6.51090105760046
7.76940065005225
8.56001347641599
8.47418387960971
7.43621621186024
5.71971110035485
3.6795016887197
1.58982293511542
-0.296176112713365
-1.75765055993638
-2.71046816565205
-3.1735347097454
-3.18524393482295
-2.85577342686844
-2.38969698783643
-1.94822061629887
-1.56933128013827
-1.24978462422077
-0.995491604405794
-0.78293384181053
-0.562494949695958
-0.309243839974572
-0.0676319857517831
0.0072718234440493
-0.283570583234868
-0.967602059862603
-1.83866669741964
-2.71120606128228
-3.58667983082945
-4.46833994661859
-5.21300831699682
-5.66841505993915
-5.76090917050476
-5.40643748085783
-4.55852132116353
-3.36659373631804
-2.08665228985239
-0.847911241189971
0.321275804400058
1.30185514875468
1.92029266376983
2.15956337352282
2.21016307754763
2.34450719998666
2.76772584252949
3.45264485594677
4.08627996209076
4.3321711266882
4.14174506231652
3.66765211823567
2.98137072164037
2.0941322700844
1.16969527218367
0.516583184002584
0.389947626272698
0.833370997766107
1.60085040100404
2.22943421645678
2.31774804253095
1.74858578778946
0.643783378769831
-0.7355683367557
-2.01438468307856
-2.87897830655205
-3.33915185384663
-3.65551815272298
-3.99075700878857
-4.29709658915994
-4.49037058003338
-4.53774445163112
-4.41423353075609
-4.10415306083704
-3.60160193168136
-2.8837627438157
-1.97532010674788
-1.00556780384555
-0.0918671394497459
0.753264001769125
1.49251395022032
1.98316884674008
2.17020185840835
2.21490495563066
2.28447088466109
2.36510267184435
2.41560789304028
2.5277468186161
2.7837353190174
3.08545951567631
3.22778090466115
3.06730326868247
2.61491109031031
2.0308219001934
1.49939699027303
1.09283169490056
0.802317879697025
0.613243707652864
0.442904480327109
0.1569744551079
-0.191846966813969
-0.296942864612201
0.0844377044732194
0.897546104542017
1.95001545505144
3.09976548350248
4.20302363681757
5.04772188571285
5.40014096174027
5.06198810431112
3.97639033604613
2.34590912508211
0.493623262690351
-1.43376716122043
-3.43814547308027
-5.3590286701091
-6.83758055976539
-7.6187076233
-7.72468354091325
-7.37024520228217
-6.8446013455236
-6.37533056804009
-5.94872937616136
-5.35028880927034
-4.491381657727
-3.5807106455128
-2.90768436043879
-2.60812993576419
-2.66267052022815
-2.91926599671504
-3.07469256554973
-2.77962295125996
-1.78548592029525
-0.016190971755412
2.29181156499606
4.48922878028517
5.85825210153922
6.20979233397986
5.98478772061915
5.73989228746976
5.69136000725891
5.72840082412951
5.67771203110202
5.49596316227057
5.24808294826114
4.96947563251499
4.71781100913485
4.78503500191774
5.51044444846948
6.64354754845202
7.20461629690502
6.32360637673473
4.07807776980871
1.32786144698538
-1.07997195679215
-2.81543512979443
-4.02574147754857
-5.01193473075825
-5.90852499752896
-6.62055671205403
-7.04212167549043
-7.22343828406142
-7.28387463199709
-7.30881330636166
-7.39731540466995
-7.65491444210805
-8.07027796607348
-8.50680604923337
-8.77232512063798
-8.56822556140487
-7.55632489224701
-5.74009819874443
-3.62335700162987
-1.73111475944856
-0.102042493746034
1.56866088937738
3.44122360618077
5.31801903987388
6.78657053631026
7.51874132922171
7.52653270600586
7.11461731218982
6.55249057625065
5.90920375596974
5.21292697397308
4.55910406693755
4.00421596653259
3.52027248482496
3.07908972580532
2.68678774759736
2.40545253270376
2.39596936317703
2.77957681120806
3.40819492458746
3.95414509593252
4.24313212440809
4.32532281291141
4.26010294285202
4.01535933533974
3.53081960857573
2.74421424079153
1.65034165314221
0.448303890780654
-0.521417145221285
-1.12656660938152
-1.59327838339344
-2.21884577060398
-3.10234762984197
-4.18390898634688
-5.29573211889765
-6.12538515556788
-6.38008352956027
-6.06864133962793
-5.49901246284265
-5.01874996078088
-4.82270685247618
-4.88777243576863
-4.97883322678463
-4.77783606932508
-4.06913296527629
-2.84206831499079
-1.33847749630153
-0.0196310345948242
0.698841440904928
0.756409396181523
0.383707137732108
-0.220131850287849
-0.958053157273889
-1.64344500088372
-1.95885102782359
-1.6315915491936
-0.605447517649776
0.881232183610512
2.40532001032768
3.68993854085246
4.77393512484745
5.72400077226534
6.35345668002523
6.45323023693141
6.13619563660154
5.69170508299424
5.224247390446
4.67704670001368
4.09545357131938
3.61911845117281
3.26885209454477
2.91529336259841
2.42542339194125
1.76163706074972
0.964337886811496
0.0162671038481144
-1.28019872789457
-3.12511768901837
-5.3622270269694
-7.49768650635381
-9.12596269868839
-10.1409309134696
-10.5616967549868
-10.4305446545062
-9.90235750239562
-9.2257093007323
-8.60773951820823
-8.14254935663318
-7.7532816724077
-7.17147522006787
-6.13696270207454
-4.63368835433742
-2.80855257209846
-0.767558531880902
1.39355229290326
3.53714367201072
5.63477819376913
7.76694900724259
9.82929067825596
11.4583714993322
12.3564645813054
12.4882935523112
11.9333064023079
10.8076984913664
9.40057424233698
8.15656573816636
7.37508029225295
6.94749425253351
6.40128562122504
5.28136125406454
3.67973224418889
2.36202244447148
2.08505808000118
2.7572804234903
3.54577429680507
3.80071046308736
3.56726558877843
3.20690405274728
2.87026314315744
2.45547181097962
1.86073573173707
1.08137698102773
0.0598299776470329
-1.39181729880848
-3.3356566026418
-5.44536200376089
-7.25284487645776
-8.6324735022957
-9.76768145892965
-10.6899123067209
-11.1948508757128
-11.2060457177648
-10.8970438654448
-10.4398009907276
-9.86840866271621
-9.1758786019118
-8.41175556466022
-7.75183323833673
-7.49533781690527
-7.82613290811399
-8.54825191750742
-9.17777716854622
-9.24228823734006
-8.41554003251375
-6.57638690454765
-3.94412487685593
-0.98590781036367
2.00950047147374
5.09474337882265
8.21685154618513
10.8190548226303
12.1449207483776
11.8428316617981
10.1418721611188
7.60315316550984
4.88132093075343
2.64187996874479
1.48047804278715
1.6977374888932
3.05447975582678
4.91531404430652
6.82948329164754
8.83593746837768
11.0147831186724
12.9664978759443
14.0415588874619
13.9742694619627
13.060455000319
11.7701116435506
10.2940129128448
8.42260866004845
5.8804277332884
2.81704969767621
-0.173454587268135
-2.5774934055271
-4.29402087458199
-5.42539024574905
-6.07094291362668
-6.41677043522586
-6.74317471359048
-7.28208765821824
-8.25834958293881
-9.94541621238588
-12.3442301715913
-14.8539484757379
-16.5804607287974
-17.0271607242103
-16.3315367176095
-14.8564470953557
-12.7061019176371
-9.66152237639811
-5.5426642068539
-0.619284769686989
4.41253604777141
8.8861650632514
12.417110827763
14.6704013302082
15.2545110365093
14.1082533032833
11.7350044601956
8.78702981798327
5.56379159567954
2.07653132778788
-1.53605287256188
-4.8069921144646
-7.14793494739131
-8.26516843073569
-8.37824854397169
-7.96633431008612
-7.33320347797166
-6.51397178354693
-5.48452760905255
-4.26637359059911
-2.91899074686136
-1.60655683336098
-0.581760352406654
0.0093120224854692
0.209539517208605
0.139724875311135
-0.0247131337052242
0.0091077704682725
0.574744001105534
1.94314268678354
4.3339658292338
7.7846145657842
11.8316432728158
15.5284389780552
17.9821345461037
18.7817821204717
17.9148687390258
15.6037467257734
12.3653872509497
8.92168381485267
5.8086427670961
3.13035506600594
0.670546630533596
-1.87149961919482
-4.62615498682496
-7.35156099340613
-9.57098114463242
-10.9912332657476
-11.6652039523836
-11.7480994633904
-11.2822054331685
-10.2441972984071
-8.70614001441504
-6.99334071728621
-5.68441240201829
-5.25628245429252
-5.65645373364447
-6.37248864910872
-6.92307942792465
-7.1541334798233
-7.15645077323174
-7.06577759956141
-6.85857417991275
-6.26388426912097
-5.02056450039878
-3.23304877953881
-1.26756150505533
0.684630428650485
2.69582880982452
4.74829629927453
6.51697829109007
7.58329022875755
7.79161067386883
7.39071661266176
6.84497126235923
6.44091941460008
6.05485193461648
5.38187718098835
4.36266870144175
3.24462700511166
2.26895862385974
1.48894702173514
0.876664629651407
0.434684864573162
0.191475547055949
0.165123157053995
0.331929045919938
0.671058729612668
1.27833923459801
2.27536374111332
3.48170978557209
4.37158992301694
4.53061192659979
4.01541130801805
3.18024803030737
2.3410742990471
1.6625408211999
1.16224223994562
0.756100501304148
0.399434554049231
0.134606590154816
-0.0513902731564519
-0.24296679438292
-0.404444706171388
-0.375883507116366
-0.103096879839675
0.311838890395736
0.749706661764799
1.05429186978204
0.935977924593001
0.104138713008604
-1.51149663941869
-3.71901141006338
-6.09999729792414
-8.04626907322437
-9.00890254485261
-8.866602764299
-7.92460481180156
-6.53852804266355
-4.93250203691883
-3.32679010624845
-1.92348295107505
-0.714643483515503
0.479773930346673
1.75015439928172
2.9756366800885
3.92165642818515
4.40462797322246
4.41507407696496
4.07083278862158
3.41370761353019
2.3518899769873
0.856164408520601
-0.901846397652596
-2.59663284019658
-3.77512742480477
-3.93888728029705
-2.90701605904113
-1.11798601661208
0.62114702522594
1.67476169096577
1.82901350721156
1.22740278329466
0.213903720905839
-0.893648337706687
-1.94061395697261
-2.78298851989313
-3.15955533528759
-2.93956568478
-2.36113714140563
-1.80526035318526
-1.47994430836198
-1.51026568206592
-2.11061660494319
-3.36787945282081
-4.94998028666709
-6.25633106884239
-6.82950326643358
-6.53364085266759
-5.4162883433144
-3.49451277017107
-0.727528655192947
2.71384282964848
6.2151860636166
8.99995868808799
10.6578375240005
11.1914569303112
10.6691642051259
9.20281846773488
7.21857292207836
5.38647067592578
4.26309915031458
4.1978276937606
5.42797965893356
7.90860631757272
10.9910001025116
13.4578122656086
14.1012470549216
12.5548677864717
9.70975670483874
7.09403969018881
5.59752928532706
4.86564982494706
3.94625760264029
2.26203004449077
-0.0948892861501204
-2.67317898586773
-5.06204027008769
-7.13484156054489
-9.02565341848611
-10.8514647796411
-12.4783843712912
-13.5777917175668
-13.8484809192128
-13.2041415798727
-11.8861176729827
-10.4065781492739
-9.23817117950146
-8.54449282336064
-8.28486657429887
-8.41508384178882
-8.76218993499371
-8.8620024843174
-8.23231120022396
-6.79195363570841
-4.86361652474505
-2.84763972252201
-1.01342664401485
0.466337608695513
1.40098632199568
1.57843463316471
0.95407534048631
-0.178981454812244
-1.32292802290496
-2.05413623145432
-2.08492482593417
-1.20697165811148
0.59576812942684
3.03375777602749
5.64777576947161
7.99429083881016
9.71044731352074
10.6168672683362
10.7798209541139
10.2889773204718
9.06000640233353
7.0885291556824
4.77112138530511
2.71626778985346
1.32338408001067
0.673527555757228
0.612154156101175
0.778379391385783
0.817346488826007
0.786519888697782
1.14889893883558
2.17977533535451
3.56933719261167
4.75372823303838
5.4385462066329
5.65985229476084
5.50212184086181
4.91553736795456
3.79820020403966
2.23707565179974
0.626435969471561
-0.561148796355972
-1.13641901140475
-1.26123733034678
-1.21973152423522
-1.23649721459675
-1.47712503275859
-2.11548676039817
-3.33371193695287
-5.14452950226127
-7.15098875140859
-8.66652585272293
-9.263158917363
-9.08787466000716
-8.52748147309334
-7.76670464779096
-6.79256905128535
-5.55954227413274
-3.9654510734015
-1.87489835236769
0.653211407165954
3.2392511799734
5.32802513113418
6.43427072028245
6.37199039174571
5.40955624789049
4.1725621680558
3.26768388324608
2.93044859734571
2.96529645966996
2.95734893952669
2.62582454859071
2.11522760985563
1.87753557285897
2.11470558670791
2.41398300324642
2.08617989757966
0.787181792022379
-1.27707465767394
-3.5967912419468
-5.69087797001933
-7.3084566433442
-8.36361306112799
-8.65188194020178
-7.78698365949058
-5.59739075010855
-2.50598473738008
0.611546396409033
2.91671787181099
4.02934819252894
4.19970318562353
4.10759027108651
4.30644290209523
4.77061187674704
4.96522014016957
4.27027108091953
2.42469585975906
-0.15393529256248
-2.47816626431482
-3.70649659542566
-3.78531019739671
-3.21243777859332
-2.31728418968936
-1.03881112450094
0.728093160638363
2.81195270234413
4.64710967566945
5.31695035657545
4.00462108422176
0.745502811087893
-3.35437304702248
-6.86648574628437
-8.9991207697009
-9.85893859295876
-10.0125693677981
-9.85539442446887
-9.20737931602977
-7.45493594088851
-4.2025177968574
0.172529369399931
4.60798768645159
7.98088075346584
9.76913358273621
10.2715121486087
10.1926916991687
10.0135133069886
9.83270214922129
9.65563444147626
9.48982445184021
9.15244876941743
8.29708024117526
6.71674719617147
4.52235620113296
2.14401012621914
0.253699721466866
-0.599703966627568
-0.519032085961982
-0.238782184698599
-0.420803175771117
-1.12969144847106
-2.04988981524515
-2.98702341042903
-4.04446373422146
-5.40784747211786
-6.99615602780995
-8.31045103761167
-8.70409386879607
-7.88202606356
-6.15047127429048
-4.23772580918586
-2.91598151236222
-2.62270025909598
-3.1794950596537
-3.85576463742905
-3.88412266515903
-3.01259583300151
-1.63618141941597
-0.552214877231624
-0.544567221294377
-1.89089625470451
-4.10251896891739
-6.21995069743572
-7.39924150704594
-7.27925081012812
-6.04609291400981
-4.26004573858891
-2.39299805936965
-0.424498632091882
1.93258929646706
4.64552227675662
7.28952849023959
9.511584477991
11.2191268969609
12.3235006631574
12.644790281234
12.1370553488833
11.0074697202019
9.59456647090753
8.22315230222511
7.1208430059987
6.38946835912891
6.04140622431961
6.00172902275263
6.04279647264991
5.83038738978418
5.12288324260363
3.90054478725048
2.33405949019617
0.707056142813808
-0.70798722215773
-1.84561473825547
-2.89291361666265
-4.05378284981634
-5.35397440125554
-6.74363641197095
-8.23101432364614
-9.85234586760718
-11.7063506677636
-13.9920315773839
-16.6689538618554
-19.0631495301071
-20.1789747761683
-19.4671183942809
-17.0631595642082
-13.4153109812648
-9.03223905116646
-4.47892319321983
-0.213015543338955
3.6305303104754
7.11077075000004
10.1656935684572
12.5458838157628
14.0265342639044
14.6291139118132
14.6439910217056
14.4044090005273
14.0212415701101
13.3613075713693
12.1775946890297
10.1640571754265
7.1146112508957
3.30175821397409
-0.443811629871201
-3.28267216469089
-4.94052536007083
-5.6953372398544
-6.0309601646933
-6.36514602142542
-6.80390210085428
-7.01908243017299
-6.61250448631257
-5.69468638539888
-4.87960427587789
-4.67562406853663
-5.07134214439985
-5.60684867962966
-5.5589886922492
-4.17657631195136
-1.10415383656315
3.3482060293988
8.41904145434717
13.2373872124807
16.8498761021249
18.1444535424857
16.1833905353822
10.9913787362169
4.09311628100201
-2.09833280692819
-5.88409021143405
-7.3382434747194
-7.72513947636232
-8.17600303815881
-9.13314443881594
-10.5707642641762
-12.1344283445481
-13.1729148899409
-13.070471551045
-11.6242340182789
-9.06509130993996
-5.85910420271938
-2.46586532237272
0.919161003224169
4.32698842507966
7.54945907809988
9.92054816533241
10.8861538393574
10.6700032288415
10.0307797901294
9.35419492980872
8.23184980197969
6.0106019743929
2.65731428638873
-0.967149178741665
-3.68100992460704
-4.80603294402648
-4.40774049776656
-2.87101412936532
-0.523982599605128
2.3016155206196
5.11595346907116
7.27690479447357
8.0904904213076
7.1379583127424
4.81311983388247
2.37270177638292
1.07056727629188
1.18484361442095
1.97349664656365
2.44090026146318
2.05286823374126
0.908800505057555
-0.543939979828083
-1.88751893917596
-2.8609645596183
-3.31781774527964
-3.34642178863388
-3.39358077801892
-3.9331619764234
-4.9348821475102
-5.87125532594004
-6.25533185886799
-6.01241164989182
-5.39469333170177
-4.71624885224997
-4.17902380306251
-3.90845479499309
-4.13307300310013
-5.12676092174366
-6.70980712848861
-7.90203647153457
-7.45797857126838
-4.89896350773003
-0.879080184564278
3.42337361846498
7.02943994417541
9.33705629976433
9.9821960151746
8.81826318425335
6.09942641634311
2.64683525495051
-0.371213048049943
-2.10249844457794
-2.51547065516827
-2.19435668790605
-1.7581094365311
-1.57352046837012
-1.83352123687786
-2.66977194369536
-4.12638483885473
-5.97827018381026
-7.57158832494942
-8.07388477869115
-7.07935547750228
-4.84173342737347
-1.83880002554406
1.61599298809108
5.19049831341891
8.27627936118947
10.1918526648911
10.5828913868598
9.56052392432622
7.56082192788821
5.15915562806324
3.00681788526955
1.83341367728878
2.23408993983999
4.19162551603684
6.85781944694745
9.03431480071796
9.90675936271762
9.26095163134026
7.23489649912616
4.22453625531427
0.948662985812468
-1.78984614148469
-3.50088430101548
-4.05746458004055
-3.55237818630248
-2.38788520714995
-1.3515168363894
-1.21939734577082
-2.13679247357663
-3.44597737347033
-4.21970815291634
-4.07671056662929
-3.48914578291215
-3.22598205057297
-3.60416979009426
-4.43621965625306
-5.47448684810746
-6.52231084753548
-7.22841431413693
-7.21605646438962
-6.48169877116423
-5.40540466731483
-4.27912621508219
-2.88157534065277
-0.547479393724778
3.18513928545532
7.79709629514618
11.7409375672345
13.3793454399489
12.0129391897241
8.11140366048788
2.91370380143527
-2.0505590867527
-5.41236146484035
-6.39187230685904
-4.96768262968781
-1.71664245685281
2.4134808174156
6.26033500697903
8.64348054909048
8.63266834997449
5.84479859807654
0.744558955456723
-5.33898753438574
-10.8081554395705
-14.5934016562406
-16.3561130990529
-16.1674814444799
-14.3690478881372
-11.6291884429621
-8.69976531896287
-6.03064079651758
-3.74959564180359
-1.85018573018143
-0.170136132118341
1.65362035643186
3.9153610923715
6.50280856616758
8.92598797230511
10.6829950857708
11.5822755871563
11.7268004560014
11.2296490344409
10.0710100671071
8.30381741767958
6.22419156540452
4.16590645266114
2.24831900354018
0.460670105674016
-1.14309672913599
-2.44541516628207
-3.33819916132954
-3.73596567798269
-3.62242974455443
-3.07755851331971
-2.1612649439337
-0.876042075816216
0.59065789982743
1.75289301562659
2.24344117135962
2.24882008373864
2.24794629931475
2.40106469298759
2.44992112654717
2.12958381931991
1.43085400575501
0.473081334673737
-0.719451884631107
-2.20397291479726
-3.79032231333878
-4.80888526345698
-4.550525035504
-3.09878274490966
-1.46124614757866
-0.672665376253062
-0.916266524598132
-1.61914107974529
-2.22107618030604
-2.71212498513816
-3.49535901520164
-4.84574063674163
-6.61301294418353
-8.49650239456279
-10.4131487450251
-12.3286870708698
-13.7637863568991
-13.6759926042422
-10.9010546609062
-4.85678081968461
3.80242381771476
13.0458519154743
20.2645574221282
23.5874944974104
22.6575380686439
18.43599472978
12.5436919841322
6.63843730183984
1.9100999359391
-1.16170530920956
-2.60685391915433
-2.61789168952196
-1.49494497406855
0.264463212441994
2.11901462480096
3.77823339834404
5.30010393252058
6.94487100765719
8.89057033568381
10.9419174874007
12.5166156063442
13.0394943864508
12.3942060220928
10.9919258558131
9.39396415096368
7.78113697134452
5.78169936593019
2.98135062653636
-0.41719629507308
-3.72823385534394
-6.56410701904843
-9.08961930073807
-11.4787852052459
-13.6054332331814
-15.4094434323416
-17.1541294332574
-19.1420559026821
-21.3930019859116
-23.5627779507574
-24.8889308400912
-24.3152395887391
-21.1288507337757
-15.6763071234973
-9.27781909530617
-3.31080847296042
1.52422935463748
5.01109543637781
6.79881773274156
6.36921417349943
3.69254473245341
-0.357923842360334
-4.4456764672677
-7.51141348355076
-8.99830572017575
-8.6777759026656
-6.64956292042777
-3.39056611950665
0.577724541088073
5.04073268099867
9.84407798490248
14.3962131535504
17.7339775524206
19.1439010729303
18.6500581911201
16.9320031084676
14.7397276145345
12.2677701120673
9.13183880050753
5.04139284472207
0.394637143768115
-3.86295002225361
-6.8627518761937
-8.33796920221747
-8.74594773883832
-8.81944588303118
-8.76661195274035
-8.00712062418367
-5.89462189633332
-2.5040341966246
1.48574878224164
5.3821141455452
8.71232825147152
11.2359696623338
13.0806572681076
14.6089486030231
15.8120963864991
16.0331734225824
14.6391066598159
11.888074011358
8.85892986213953
6.51966317810503
5.00004919843538
3.73768648010617
2.18326768859816
0.294403599761771
-1.57941894108633
-3.10560881905395
-4.17975717428971
-4.90667895839821
-5.52370628010793
-6.22328665348638
-6.95313945606231
-7.52420498400124
-7.94621508542955
-8.46703442181134
-9.25767723134591
-10.2300003367387
-11.1234748669505
-11.5723696802266
-11.1281745522019
-9.40728083607415
-6.27286717132351
-1.92758439893287
3.04184087195587
7.79062531223115
11.6131376651668
14.2022559187809
15.4166507317908
14.993226757085
12.7317575719667
8.88608840796418
4.24875263063472
-0.115434151164554
-3.33860495173613
-5.25520561559019
-6.48880735691298
-7.82545770975221
-9.45751244414051
-10.9414311070072
-11.7571904962171
-11.6874880988279
-10.7900974824473
-9.30313451248429
-7.58305282776231
-6.00866784157446
-4.97019385304299
-4.86943033629432
-5.85203934652339
-7.49361263403195
-8.97909293797515
-9.67070496400931
-9.44088017089091
-8.54156206201607
-7.23825760153201
-5.47474428236058
-2.85919335761742
0.92687800974035
5.73599060916995
10.983814256281
15.8128664314204
19.1302766650298
19.9709385786981
18.3382401643438
15.5702135536134
13.4505629678423
12.7698647097364
12.7345879719206
11.7495324131991
8.80587319951476
4.18586758169187
-1.05458157643483
-6.01577921779939
-10.2462578158863
-13.5156963739502
-15.7887839700071
-17.296495912295
-18.2037745378133
-18.2731416332193
-17.1939289713639
-15.0787893897186
-12.2328526145077
-8.60699337240278
-3.95703084880698
1.49755819378862
6.91061867188816
11.2594036542828
13.794208028663
14.2786203278428
13.1138608895669
11.1797262977205
9.32009506658439
7.90558469437765
6.93681857753775
6.55241085828505
7.28973579572966
9.66126037425791
13.4590602794755
17.6593163375744
21.0747395647945
22.9570556262927
23.0310895764095
21.3252284370003
18.1111564494135
13.7601184510922
8.59957853419665
3.13256790342267
-1.70793063556717
-4.97512701928913
-6.5686251858684
-7.55898669416844
-9.60064564757489
-13.9420578044546
-20.683995020867
-28.6788657088156
-36.1028239371134
-41.2563015034726
-43.0497665671112
-41.1278938275712
-35.8735181828997
-28.2237098650741
-19.2050036159449
-9.62170835297889
-0.250599225183411
7.9428010582999
14.117735852172
18.02872158959
19.9952763969471
20.4451204531176
19.5833672264008
17.5236572794549
14.7742318147271
12.4836551563788
11.820900565422
12.8589785963297
14.2564627185968
14.301727624937
12.2955654411904
8.93595423947155
5.53511283908372
2.9656441430099
1.25876977338285
0.012577436425641
-1.02266273385936
-1.81217726014416
-2.27428762797409
-2.48094936631057
-2.74733794856689
-3.5925769630968
-5.35977511100903
-7.74079941197021
-9.92947476634368
-11.397638932722
-12.32189014768
-13.1469031386845
-13.9082371931382
-14.0412200086009
-12.7076331973228
-9.36179891298277
-4.30212446771731
1.18270104956907
5.35608892023151
6.94081257471481
5.73440736215592
2.61904399284199
-0.948570153488863
-3.6930684533359
-5.03915078718191
-5.0369173525259
-3.97510135610953
-2.21698675610154
-0.283480433422166
1.14018717659965
1.39646484417896
0.209272808666989
-1.96085745497607
-4.01887758381362
-4.99135851331382
-4.71444337476495
-3.64435014583701
-2.12375190207693
-0.0457818724194507
2.85258157559087
6.51847389343202
10.3378982727385
13.3571283711306
14.9046008376456
14.9910714887639
14.0391509783195
12.4583442674891
10.6991366028423
9.44771605190404
9.3721379197835
10.6821916702986
13.0650072678907
15.8795618937196
18.2177756533525
18.9890953685374
17.3950485797736
13.557980058
8.64175516701949
4.22253588736131
1.37172438090067
0.144925110809964
-0.212516993441331
-0.634548385711234
-1.68740455822894
-3.37468255642716
-5.36914187756232
-7.57186967489909
-10.4269141014451
-14.4211448053271
-19.2660487575378
-23.875362317495
-27.1642220173048
-28.5895297694096
-27.9936409503146
-25.3889008797172
-21.0925640130597
-15.8885127453772
-10.8940383598299
-7.15814850656338
-5.21664418832434
-4.99968592637075
-6.22354766347272
-8.6289003659965
-11.5046568658471
-13.2162217917696
-11.8626487825743
-6.696587749918
1.2690844663337
10.1329823277022
18.4098268801099
25.4045026163102
30.5643746174774
32.9800454629543
31.9165120720303
27.721402167836
21.7871373834187
15.5365613661605
9.74576185045724
4.80174099045582
1.01105598857231
-1.64480035495129
-3.62170406441949
-5.30863778135579
-6.6357177530642
-7.41443331163224
-7.84411399505142
-8.39644449652117
-9.21693315092875
-9.83161757522371
-9.59431987449771
-8.38843588922022
-6.69626053861393
-4.98499012876607
-3.34800976869441
-1.84182658768529
-0.772754709674515
-0.402116592364663
-0.65339196986461
-1.30860739865485
-2.21256050551154
-3.06581680505971
-3.2446769655909
-2.16223045817034
0.0364181917195308
2.17917409977327
2.76264496734767
1.27201213885998
-1.26908710283987
-3.31115800195086
-4.16459821841138
-4.09776605961298
-3.41336672048318
-2.07072368576857
-0.192179723191335
1.68047855124748
3.12285989740052
4.36149906925887
6.07025312517238
8.6986295393022
11.9899504205786
15.0436684944807
16.8760155852787
17.0292135189826
15.7089836390626
13.5026871395897
11.139042605329
9.37236687550513
8.75854975507823
9.39108449594054
10.8356717458489
12.2807033385054
12.8484141957895
11.9571715675294
9.40661164041004
5.13371153336544
-0.814126952339732
-7.88119203439068
-14.8789371269677
-20.5660175067907
-24.2900447527869
-26.0710620360886
-26.365338005012
-25.8456428026805
-25.1755547492388
-24.8816284433228
-25.4003253988209
-26.935522923274
-29.0381002454546
-30.5937609162596
-30.5488419560029
-28.5382044874277
-24.5982932725706
-18.4398867348735
-9.38463365457684
2.78039719343816
16.8871603572136
30.3723311921116
40.3147508397956
44.8517233710474
44.0935091806987
39.995574278084
35.1926336041293
31.4441910776859
28.8313334936866
26.3767890288511
23.3276588199752
19.6754690039732
15.666919298832
11.3627336002215
6.85001089619745
2.54050083660484
-1.01107720365932
-3.53818970128803
-5.2860267803801
-6.88224508109091
-8.94414506359431
-11.6947062862968
-14.9151177701116
-18.2068651221181
-21.2326498712937
-23.8341562677057
-26.1094314344669
-28.2960658264566
-30.3603550215202
-31.6639432635258
-31.0823441518568
-27.513647524046
-20.5935079508553
-11.3144765053749
-1.84628670621089
5.73491160003309
10.7216971528117
13.6822892501582
15.2833891971629
15.6261626957583
14.7972709907876
13.6485730465177
13.5896169446358
15.4159459684574
18.3622370310577
20.5119808633265
20.3383859188941
17.8271088932302
14.1210620401951
10.4193327527961
7.38828589545568
5.15003593137799
3.29818325754004
1.05274572874054
-2.16383727190263
-6.17152200508648
-10.0784292474152
-12.8402951651233
-13.8591637348773
-13.2337255149907
-11.5152859094976
-9.28982801943632
-7.09746830351662
-5.54235063893799
-5.00595502223589
-5.17282705182887
-5.17930193741648
-4.29874282275243
-2.29753829613969
0.665093668896306
4.05600468272909
6.99446220584797
8.75988791602865
9.43742240180987
9.82687508907805
10.5221084185645
11.0895418745472
10.2769354305613
7.18671003950035
2.30636506523325
-2.69537660762495
-6.25020537397557
-7.95964971853614
-8.51437388242981
-8.79809528771874
-9.10115398661389
-8.99530938040304
-7.86699411418306
-5.61277541014809
-2.77316075591457
-0.002106575206125
2.38800490400343
4.37263273184726
6.07756082364988
7.78002214471001
9.64150520732825
11.2325665235454
11.5921972800986
9.95842757635733
6.3909979749595
1.75601313507889
-2.74521069681065
-6.17837536801872
-8.28857248180163
-9.35363718084197
-9.59619619220696
-8.8492513695189
-6.82423133775502
-3.55551760253559
0.456946781256138
4.3844138408289
7.24244712080776
8.0518707435904
6.15310574086107
1.68101885199428
-4.23564771214776
-9.9442185572608
-14.0520381423591
-15.84244306646
-15.3270139230573
-13.3504958736374
-11.466254500236
-10.9853549936588
-11.8232777724778
-12.6292655916391
-12.2229372333408
-10.5494820414523
-8.17415736419963
-5.44465761027704
-2.48091079455209
0.488869243013739
3.29324516971816
6.19553108258018
9.73522679925486
14.104609069312
18.8320756140019
23.1503058452719
26.5366190668733
28.7668282148216
29.6147349956791
28.813338800982
26.3565424528017
22.6934008806829
18.6528822413328
15.2231751792657
13.1310644813985
12.3495186455454
12.1181709638679
11.6036695018109
10.4202386622894
8.5138852957205
5.90259668500425
2.71642859578177
-0.728263305588983
-4.03941296669425
-6.86917790423025
-9.04254852406483
-10.821736994654
-13.004836066883
-16.4981866453545
-21.7001646558133
-28.3244721296783
-35.6381232893585
-42.6286089442693
-48.0089246727111
-50.3678543774707
-48.6294242937094
-42.6909924445194
-33.7768950144809
-23.889206158756
-14.5425302777153
-6.10529231599861
1.47600634684962
7.67947134709197
11.6100386269457
13.107823305599
13.249038506397
13.5920702514328
15.017140761216
17.342427671483
19.9241668609919
22.3527336838264
24.4814803226071
26.1442241732593
27.2291790930124
27.857211079031
28.1136093313021
27.6793469747091
25.9592109934717
22.4680672355389
17.0375338947909
9.95711673400035
2.0394185675362
-5.72021692875552
-12.589112603231
-17.9862717295379
-21.1547830490001
-21.4976953175081
-19.2579174783236
-15.4241368261533
-10.9417866389557
-6.36738827122158
-2.17557433317943
1.13629246344299
3.36255020795065
4.66881713456134
5.25875107353318
5.20824457591578
4.78717427224892
4.77228633445871
6.00441732345251
8.33219105879003
10.2691605077664
10.1753119509128
7.64723008517845
3.33548148058678
-2.2399841668538
-8.88972001985964
-15.8684382975007
-21.6435632368551
-24.8538866185391
-25.1398354266023
-22.9790205551854
-19.1231582934172
-14.3862352550792
-9.69795114103404
-5.90917663355003
-3.2550611189731
-1.1304230001238
1.23621584203746
3.85549286186843
6.05605948019023
7.49625362196897
8.68737829384511
10.3956831125671
12.8300621533444
15.509583186089
17.6915400168767
18.8789589477477
19.1155654759517
18.8515014774934
18.4366670525853
17.7616469712679
16.3957829554282
13.9396905246397
10.278518243028
5.78170177972169
1.32804543143745
-2.14461943940671
-4.28505852610956
-5.4484557464285
-6.15750215634569
-6.53090488881376
-6.26406692382536
-5.16399704067651
-3.68745166638336
-2.84068783787387
-3.45743790752953
-5.58894594249345
-8.48336837375057
-10.9341618175978
-11.7858492393317
-10.5712265175165
-7.82510850033594
-4.62174449036964
-1.88711926222844
-0.305360891733068
-0.49299815990569
-2.69150741883829
-6.35878970427136
-10.5075498971498
-14.4862652264763
-18.1622765166628
-21.3336847560906
-23.2393852758527
-22.8609365364205
-19.7057462356142
-14.1941685613428
-7.32676714193664
-0.21608157261828
6.03163301136599
10.4687102135885
12.8440026525414
13.8810417414134
14.6537722222064
15.7066694711131
16.8894720763043
17.6979168871989
17.4912596146973
15.777863968642
12.7223269631264
9.14715909978863
5.73874526302884
2.43372356513191
-1.28877284915452
-5.73566487827729
-10.6064777474902
-14.9303999598602
-17.3947477493649
-17.0994911798012
-14.1374211119755
-9.42124963537109
-4.15070980340394
0.465992288326711
3.46467936469411
4.69625047220166
5.12024421483039
6.0714901929258
8.01212130803789
10.1992273770468
11.775342794251
12.9514927754446
14.6503069620628
17.0112208511025
18.883190024984
19.1039701251861
17.7734474683618
15.8420328146187
13.866586761402
11.7099755511109
9.23016352350709
6.73748089373521
4.76450735995491
3.58593825298676
2.81921088219386
1.40222165038835
-1.67412979148925
-6.33352008857623
-11.319974079065
-15.3213260156447
-18.0096505032752
-19.8295834476849
-20.9492214867797
-20.7200209738425
-18.3358362144728
-13.9562240356385
-8.92467335998374
-4.76561087607893
-2.16849417860188
-1.02626022936649
-1.04728863390167
-1.89535095909136
-2.84844138787916
-2.78773258845757
-0.899888313763201
2.44101520280641
5.62650386701639
7.05075542811673
6.56452973352268
5.43279168963532
4.76704420752208
4.36555972051053
3.21334687210854
0.684248852977298
-3.00326443096506
-7.18311065722113
-11.2585395383755
-14.9014794756879
-17.8798308358881
-19.6962995004922
-19.5528720685258
-16.9607142656861
-12.4091155722783
-7.196602073666
-2.50308159627419
1.29576810617563
4.41500081786342
6.91918485237184
8.37639286900546
8.37590082574495
7.28576527969169
6.21378665385389
6.1491546409462
7.30996688280088
9.28113600283658
11.4825684062315
13.3793288470653
14.3616926219726
13.5967451259199
10.3224001569014
4.66104014406937
-1.94840979989575
-7.57034625983426
-11.0794826516797
-12.4184509174928
-11.8263604518422
-9.39321162552812
-5.37093225623982
-0.441139782954217
4.51445095526699
8.84837010676493
12.4694931112774
15.8270774297567
19.3986656908182
23.0234514331245
25.7722417582466
26.5553384479503
24.9313036245006
21.4219586544141
17.0687966261657
12.6242337803474
8.18218964646986
3.61872922251259
-0.823452659648653
-4.69437443643443
-7.98782146362057
-11.2179218057727
-14.7295083338996
-18.2152707565873
-21.0688949577107
-23.0763606027644
-24.6523716896893
-26.3905912283519
-28.3283405357796
-29.6258664438055
-29.0280854596262
-25.6789122430902
-19.5762305970995
-11.5307637326663
-2.94783106763351
4.45528068037989
9.09684052091912
10.0943766671628
7.72531099111261
3.4522558383308
-0.791678254518412
-3.73905014532474
-5.29216854899569
-5.83944463693352
-5.24024958968042
-2.68003210630878
2.52990816316448
10.0793134996573
18.4512003638315
25.5000800704522
29.4032722694998
29.384390619604
25.9291270948231
20.5788633469397
15.2800230995461
11.2918062866003
8.3912117793205
5.37442223103963
1.509193641785
-2.71744903066623
-6.32258996165457
-8.92094405124834
-10.9492100517205
-13.1166503342863
-15.8228782475931
-18.9022757244161
-21.6902924632663
-23.300199502057
-22.9578362804227
-20.3139438550262
-15.6408192676223
-9.69006618601044
-3.22344949443757
3.34141470504233
9.8903754932473
16.3780840569111
22.5706865094158
27.7921839659108
30.9754791417954
31.2026133625812
28.1933635028012
22.2537423827059
14.0956308531569
4.90695454649547
-3.83202978581793
-11.0714387564022
-16.6924180034496
-21.1673648246068
-24.8067164280563
-27.2334435585057
-27.3309226937626
-23.8838999796804
-16.815606928837
-7.91540775139061
0.0934181883061073
5.51392286954273
8.64198156063307
10.8214675351884
12.8235171901411
14.2511763852607
14.2724268127027
12.6348498332926
9.90679119906956
6.92657893026473
4.24739935634811
2.06429491416463
0.375909335979457
-0.920015289435607
-1.96819640571662
-2.96876811211766
-4.32724779673601
-6.60093059629021
-9.95223870318361
-13.6492504537781
-16.3929874597737
-17.2591631828741
-16.2276148497928
-13.7745318857929
-10.0993669250618
-4.95852100965257
1.68198541983139
9.08066851143445
16.0473804003717
21.599080596276
25.0123654149622
25.6917886588952
23.6653859410429
19.9877580392146
15.9717509335213
12.0697465097637
7.94565180592606
3.40437916424976
-1.30750860084806
-5.96444219902923
-10.5146504271324
-14.6472438181983
-17.5320489491821
-18.1895070446066
-16.2100886059579
-12.2674129748067
-7.89009074822491
-4.49387269846095
-2.60752308346055
-2.08587740678674
-2.70468407286886
-4.13657353233409
-5.65123138533588
-6.50031374725558
-6.6404287561467
-6.56190546431532
-6.24836906293584
-4.78737298685505
-1.45130841338728
3.01317627747887
6.68397229491248
8.20146569434964
7.87950907945417
6.88771437640446
5.65483923528523
3.46120038817352
-0.485338143359687
-5.84332744726805
-10.9531275927629
-13.7103664365526
-12.8095810866165
-8.46407125144077
-2.06613014342827
4.82045697936157
11.1481428530012
16.2791171660076
19.5881259528087
20.537202194108
19.2634071049182
16.8652089904345
14.6892369609584
13.1142337749961
11.2189793340799
7.91303631247621
3.32587380432576
-1.15144583611262
-4.11109237550543
-5.14978192655032
-4.78414560890689
-3.8019529499118
-2.86133507658098
-2.47656046147352
-3.04307727997938
-4.60570966516329
-6.56338354653977
-7.90266293768141
-8.0156447465751
-7.17869235698111
-6.02299800728693
-4.69803578300382
-2.80533916926031
-0.0581833780147958
3.18091992782458
5.96197973365872
7.31140898159822
6.92928827685334
5.44801143802936
3.89998306195879
2.83710280620271
1.95355398499824
0.519099747195492
-1.85350389251117
-4.86277747783307
-7.94290851969542
-10.9132655315461
-13.9266362596586
-16.7688459192028
-18.6678503123359
-19.1098661714911
-18.5658987477591
-18.037667693248
-17.9642596363207
-17.8126734681912
-16.6903237713208
-14.1972153791956
-10.6975645954082
-6.84331257681787
-2.89591543104222
1.38161912688189
6.2180800812184
11.514778240677
17.0873865047706
22.8021684076078
28.1357152993152
31.8013359543625
32.2312056730111
28.6879594806622
22.0166204703522
14.2786896764738
7.456644364343
2.34166406993651
-1.40281984283004
-4.27995266979319
-6.26289979224574
-6.94166312181463
-6.07911688772215
-3.95897807147798
-1.28009433060553
1.29073865561822
3.472590430873
5.25045893194653
6.52697730333099
7.10963661108444
7.07250813564915
7.00961780114659
7.80035197253362
9.88576681413902
12.5402401786647
14.0098289893605
12.7902088502463
8.8769724259456
3.5507420720386
-2.01075415421845
-7.58323673984797
-13.4199004702075
-19.3784454562737
-24.6893621231426
-28.3586411361682
-29.7030909519641
-28.6529455878423
-25.682726328193
-21.5904472644085
-17.4191131986023
-14.2491584646928
-12.4972421931204
-11.3429656989426
-9.25899973292602
-5.288082534755
0.360091530887004
6.90833023857683
13.8240311843949
20.8244021654657
27.2479637952765
31.7737080567598
33.0458482384256
30.6585934683073
25.4938788441397
19.153695153365
13.1123805849215
8.16744628985193
4.35219846056238
1.34645141461128
-0.940452406293823
-2.38437488551483
-3.35093159850631
-4.95203395448535
-8.0836188172602
-12.2372026298243
-15.5927643207531
-16.4003384813557
-14.2691502886207
-10.256183137489
-5.89729129139081
-2.25053179092812
0.154593237754526
0.796113165546391
-0.7775721133989
-4.14933533684241
-7.80241803077043
-10.1480832972583
-10.6621634877878
-9.88930775257468
-8.64927751424505
-7.44035693957197
-6.34393684231325
-5.21367199614161
-3.9221478494417
-2.48145393707553
-1.07200730083919
-0.139333675104687
-0.297395490578511
-1.69965747892593
-3.4682514696236
-4.1298352268061
-2.71982251488412
0.726073889289049
5.55649066209716
10.8734220434299
15.5329610996741
18.3216845211142
18.4886316507113
16.0828769682329
11.7437762380305
6.26607901036471
0.421780970810071
-4.93423004794425
-8.88646818012728
-10.811694479229
-10.6251970863326
-8.49424182894754
-4.48113612729641
1.14535851956557
7.34292491058176
12.6570489135937
16.4409031687237
19.3527070824855
22.3156831472124
25.1238103956199
26.2632526172518
24.0893070600194
18.2092108945872
9.8657414917666
1.08500353957112
-6.5281693529698
-12.3465345602617
-16.5326506469733
-19.582320826282
-21.8711411287104
-23.405068802287
-24.0353230477615
-23.8867691433238
-23.3555913994447
-22.6388819402126
-21.4014260897473
-18.9051405574065
-14.5070498068898
-8.33594818879311
-1.58769889959327
4.1868896170831
8.27458710059808
11.1156312016467
13.5336110058837
16.0137635297975
18.6001475575764
20.9405825002368
22.3150840710379
21.9930943883022
19.7539182209256
16.0119558724014
11.5337900541915
7.12237612935224
3.33056292638825
0.199493372442328
-2.65605611582925
-5.54149477918298
-8.29713756330601
-10.4267166617749
-11.481402645315
-11.3271160991155
-10.1897460812276
-8.4932479887707
-6.64711026604508
-4.97091637777906
-3.61669034871787
-2.37928815916821
-0.861598531823933
0.760941331574004
1.30091074178578
-0.573465529627982
-4.82052938537631
-9.55922979492959
-12.3402398546871
-12.0871203880939
-9.95556073918402
-8.2636571783989
-8.48483909027189
-10.2813754762476
-12.2871587726274
-13.3350777420382
-12.8499627313596
-10.7398773007149
-7.46379536144935
-3.88537138181074
-0.466516535269483
3.43116968599135
9.05660472798866
16.7690966092092
24.9452001602052
30.5716183974501
31.3192677993487
27.2738378838702
20.6087580167371
13.7022395118632
7.8563251567406
3.53244081742155
0.91115725719027
-0.132618158972592
0.0052427550886305
1.15182953347621
3.46191921872856
6.7397793281157
10.0043440187357
12.1169617286851
12.7282561387903
12.3146407599918
11.3617837365369
9.94081971430184
8.22180581248758
6.83899965588488
6.14611231314493
5.33438531633661
2.90153659081572
-1.9963439020309
-8.97940949889533
-17.0225695103997
-25.227361140541
-33.1727502978235
-40.6989361184203
-47.1423829280531
-50.8970160196239
-50.3623390650372
-45.4290697611671
-37.4862868220195
-28.0192693074745
-17.8614307093578
-7.61382055881702
2.28427150427599
12.0714833902274
22.1669058582803
31.620828208233
37.87532442109
38.8561264625974
35.0747086456498
29.2299563545327
23.9184358553814
20.0313171134981
17.0926470537977
14.460398584489
11.843411402346
9.03931847655584
5.84285360487868
2.37866886293773
-0.812151117492456
-3.18082078197734
-4.55641891690707
-5.19500047384857
-5.63483191120839
-6.43027061883492
-7.85808644528456
-9.90183917721687
-12.4866281169976
-15.4883937670113
-18.4195014616015
-20.2587331406974
-19.6780031783942
-15.5200986693435
-7.44142910054763
3.48722734925205
14.8366026341755
23.839740595075
28.7206638809563
29.3347766675902
26.7797682744005
22.4711779612253
17.4833930074423
12.5081850439801
8.02754828193707
4.25046629436535
1.07052520967626
-1.58008664181209
-3.44149293195815
-4.35504526720323
-4.89713995098649
-6.07649294975854
-8.23405312872223
-10.5909017689747
-12.0805312168992
-12.4291917124791
-12.3067192575119
-12.5492908791822
-13.2864109254941
-13.7761190432073
-13.122427207445
-11.16047647725
-8.54916369262371
-6.00048223482218
-3.5366122853809
-0.555168312087559
3.37912054221934
7.80144665907772
11.4688874119432
13.2963740922832
13.113773911949
11.4860333673788
9.05190285761999
6.24853753496161
3.45791248383058
1.04620878174115
-0.846190494746309
-2.45553778097677
-4.18895863356588
-6.09585028850934
-7.58265100821239
-7.98339299830653
-7.54891032103689
-7.55923930581408
-9.203748489709
-12.4651654261038
-16.1605194167675
-18.8137961995576
-19.3537933660331
-17.314428402934
-12.8689386233941
-6.84873916733365
-0.521713981186226
4.99383262110109
9.33148119531942
12.8697682745973
15.9838164952567
18.3923810311124
19.4794455489196
19.1766446584069
18.2006132772006
17.3918720298078
17.0350787154453
16.7600984375145
15.8497594704588
13.712251962458
10.3629217123137
6.53103016400424
3.17633390013199
0.852859810295958
-0.484909097548337
-1.18891280216767
-1.56656060409689
-1.85280464400563
-2.41992502338724
-3.69497232088238
-5.60352096677771
-7.3042778979396
-7.88759064285232
-7.30803291100495
-6.33610428628827
-5.68532185917555
-5.51063431010732
-5.71147895371216
-6.36999395097324
-7.69942485602254
-9.61199063085861
-11.4910784091386
-12.589619898199
-12.7123865617457
-12.2729750663657
-11.5135794920086
-9.99134866430793
-7.25745123672292
-3.88120782384585
-1.27209051581663
-0.320674850142311
-0.420478625248918
0.0493765407202129
2.25976712073567
5.86378438355617
9.33146584421105
11.3375538924651
11.7717166648716
11.4907011558197
11.3868250240464
11.7465150245877
12.1876660191439
12.067339525524
11.1324703547656
9.8071062541607
8.68187912519784
7.80748368492696
6.73081003918442
5.16162597526648
3.33117844148141
1.61556140931729
-0.0655553020428819
-2.30956103996377
-5.57580878697413
-9.53523890532739
-13.2473690532868
-15.9213819175371
-17.28676244181
-17.3671787585755
-16.3424314211424
-14.6945584889639
-13.0373726002557
-11.472876147577
-9.26258426847674
-5.4657481158129
-0.117065706254131
5.19521033802182
8.14778046296937
7.47768240505717
4.14971073042088
0.635337109282413
-0.975584551106769
-0.136088748284219
2.40188699536981
5.37605204894178
7.69909131372263
9.02799308060044
9.85952594766552
10.8161670528444
11.8687388727848
12.4975215773688
12.5185388239594
12.4728445889796
13.1413734554114
14.6824876236741
16.1781897285293
16.1387517800746
13.720688196038
9.50895739960181
4.99356332353251
1.31131344977713
-1.42287292118989
-3.69532222073893
-5.77872205479985
-7.46860637911934
-8.55386630012264
-9.30768396213269
-10.3230427744102
-11.9513153387211
-14.0588467623849
-16.2011823103903
-17.8149790552838
-18.3853245423572
-17.7881774249408
-16.5309878060064
-15.4303150526358
-14.9438686418219
-14.8148409846913
-14.2331287646118
-12.32209629814
-8.8335757173859
-4.66625264245504
-1.47741842645717
-0.416597866174436
-1.19250455749968
-2.45900943001293
-3.07143940178262
-2.92539919164728
-2.58971479137627
-2.18619798095802
-0.866311803724631
2.34634774293876
7.30094377756512
12.6032237902582
16.6886250710067
18.7492001954712
18.77131840653
17.1524654049466
14.456301525228
11.3907303887247
8.89179882921862
7.96815291465946
8.99383936644835
11.0227554485715
12.2112312907823
11.2377232067409
8.22902384642227
4.31615826304052
0.608082515551485
-2.30263498860928
-4.2152044040505
-5.12831876855598
-5.23791351075781
-4.9280092467828
-4.48479990150493
-3.67231181076879
-1.82069215828735
1.29458468555676
4.73184024698457
6.96515596701204
7.31086178702683
6.53866422200287
5.98455212433132
6.22812551896476
6.7268387514265
6.60572955947157
5.55156723280619
3.8022377591969
1.5063059308754
-1.44740656938217
-4.89672016445182
-8.13648325466701
-10.4609787356921
-11.7489330267472
-12.2436215741771
-11.88346736425
-10.2050782327972
-7.13040139596342
-3.74672995710263
-1.89295310688606
-2.61121096501318
-5.0772924083207
-7.30349941669979
-7.84698981038937
-6.72775476795617
-4.96053545440458
-3.54182657558797
-2.80423933493313
-2.43941436632059
-2.01566001607123
-1.4669892888864
-1.0794049125813
-1.12395795640552
-1.6550110340393
-2.55363743341985
-3.50825908786675
-3.96254061192658
-3.34830964470378
-1.5479850338629
0.833870065741282
2.67701336643958
3.00133678731925
1.65268019681947
-0.654970533673732
-3.03712212390483
-5.01398536198581
-6.31920545905224
-6.49603449461735
-5.06973405051331
-2.09450845796184
1.65422002911108
5.07766195544641
7.4119758506194
8.63034758846354
9.23082115173054
9.69008906590684
10.3054051211925
11.4529339556367
13.4729345607145
16.0605594894041
18.1006423825727
18.3384018052533
16.1117711493266
11.5558150429431
5.45901853129339
-1.09665707943684
-7.26761692712122
-12.6471012766988
-16.8327832032817
-19.0684976743977
-18.6851965623591
-15.8378492034951
-11.5454705890051
-7.02036933913005
-3.07258155393609
0.0136180182405355
2.35358688442604
4.33515721940349
6.48939755034941
9.2206500284815
12.4109125280842
15.3303058055603
17.1980666543531
17.8159581449937
17.3836307570371
15.8075468233863
12.6777025599306
8.01400627748303
2.59172934896425
-2.73858600960766
-7.83431979535912
-13.0962618207123
-18.5671238248292
-23.4672560632495
-26.8157013750936
-28.3507760342791
-28.5048922610692
-27.5281415894749
-25.1172335399466
-21.1055276744763
-16.1600087062386
-11.4781520864186
-7.8553674295211
-5.14241090260069
-2.57448246216664
0.380832923274604
3.51403861038762
6.26376269126331
8.5187333275424
10.8078316261743
13.6769636980275
17.0675062750161
20.3383779002165
22.7421773956929
23.8841233219893
23.8987245063167
23.2221625978857
22.1193319454802
20.5063090286238
18.3155435309816
15.8698127411605
13.7125436605733
12.1217380922714
10.8934875029579
9.59678832293864
8.00512764847277
6.18938301430741
4.09197699516806
1.19209934585007
-3.04914887436978
-8.3895108176965
-13.7179995564716
-17.797888915591
-19.9940484461429
-20.4719196572063
-19.9370774237163
-19.0626313382158
-18.0212606945921
-16.6714882620895
-15.0899600841501
-13.5691536896536
-12.1786969970432
-10.7710606219472
-9.39396174786756
-8.27159461009272
-7.31253967741838
-5.90722025673609
-3.32288615616118
0.667134466974506
5.3735960023882
9.37021934550892
11.3269907016373
10.8502595723624
8.50027889650679
5.11748017284971
1.35727541804775
-2.25790409339218
-5.26630483336646
-7.42207050613065
-8.80646858997701
-9.72588030547096
-10.4516057371853
-10.9111946889141
-10.6105896286711
-9.00828597821385
-6.05997406852421
-2.40888701517356
1.00824488122465
3.74896660793654
6.34972748054937
9.67690012858653
13.5462156948814
16.4408559425764
17.0771463587605
15.8824864607409
14.3650059592471
13.2961160919957
12.1280896092529
10.1231136349867
7.50299280304127
5.28816648393933
4.2176469168859
4.03907197203994
3.89564797236763
3.26611271768428
2.37021465585039
1.76506553903471
1.77438993114711
2.2350905767278
2.55936045683444
2.11634937270196
0.794425993953538
-0.861572605402713
-2.22679346045968
-3.16512176532363
-3.87551412239513
-4.43572563785542
-4.75619660840792
-4.76271627413538
-4.37857989290113
-3.51811259634563
-2.28078797871945
-1.00964692016205
-0.130258032017647
-0.0809682809486414
-1.21162139062452
-3.36950843065403
-5.6575702956869
-6.96951942166611
-6.82548609807969
-5.56995297159329
-3.90083808085797
-2.42333932156733
-1.555662680952
-1.54240328784101
-2.34803577580932
-3.58013183625684
-4.73673518400187
-5.66123291103585
-6.62255074677778
-7.83073737050996
-9.04721683879012
-9.79569306287303
-9.72189510287306
-8.6058975761961
-6.34160070671185
-3.18785786856326
0.13322529693434
2.81989505582203
4.4495601179555
5.10618198550703
5.30562803247854
5.82275077730903
7.2595742079457
9.54091316021488
11.8745626527593
13.243562099823
12.9658698347651
11.0364523312201
8.18338957174561
5.48006673053354
3.66473559053988
2.78225919873051
2.4162614436462
2.11338925830621
1.64823184641076
1.11420717815979
0.800405404607734
0.878018954492807
1.21684803109673
1.54136977795391
1.71359055969917
1.86429844005669
2.28414682594668
3.12194925178333
4.18722577855217
5.20189585343926
6.21388770367636
7.4878213620608
8.98881893841051
10.320006012554
11.242909989144
11.9336355932019
12.5466856837082
12.6416227720373
11.1384136099295
6.9258833178756
-0.248541694985824
-9.29899817008728
-18.2670802226878
-25.4384144033676
-30.1281485036832
-32.5355734041137
-33.0554528209671
-31.8403056512855
-28.9886650090392
-25.064976046376
-21.2056255845516
-18.3688501912857
-16.4506627973839
-14.5018320213711
-11.9173596528504
-9.04550316859454
-6.46217318984113
-3.95506120076007
-0.510202513862962
4.62115566209537
10.7802526258886
15.9002610299811
17.9536994016008
16.574645921253
13.2072061000139
9.79823670220661
7.58105718350917
6.89582991533482
7.56543764858662
9.14455904782502
11.0205748346356
12.5642944580909
13.304392392801
12.9965188527958
11.5566129507182
9.01802426374995
5.7013251649805
2.41201293057063
0.206119668470851
-0.278498612461361
0.703151489545389
2.20121536159611
3.23742544170184
3.39655524010027
2.96719182828947
2.58398187586816
2.67314381149717
3.23194543676
4.18636962114189
5.84355507017434
8.71079580398552
12.7008630308588
16.6005650799481
18.5643664876965
17.3988403517909
13.4928969410625
8.4176447667708
3.57600788252612
-0.649297935390993
-4.51804972368601
-8.13160178909856
-11.2081183961944
-13.3804128068942
-14.4781343388606
-14.6247353164141
-14.1795090227516
-13.5375666181729
-12.9680246718385
-12.6304507230365
-12.5910175793472
-12.7353631638526
-12.7949693602027
-12.5447662251198
-11.9487608534086
-11.1964884777127
-10.6452532883174
-10.4914128626682
-10.3382233253211
-9.33197607688422
-6.92642727715153
-3.32725131342234
0.898067088156724
5.30097822832456
9.44878032451504
12.7114600830102
14.5330277217315
14.8146273373714
13.83454529676
11.9026029620288
9.22080800954159
5.98680961744831
2.55974696380285
-0.458078658854052
-2.39588495304618
-2.89955361409106
-2.16510647235115
-0.830407946499024
0.313258056997243
0.651194586789768
0.0368884962830642
-1.1611575111127
-2.33093767569057
-2.98389359521026
-3.01808537815915
-2.76639585633984
-2.67751726219934
-2.82267770417459
-2.84400211000608
-2.43698325221863
-1.64640647755822
-0.661818575004473
0.349750281113072
1.19420920979694
1.85260984102353
2.81158034978506
4.77714053229927
7.85482641614576
11.2160978271977
13.718271218447
14.7898683493941
14.66883888615
13.8554621877072
12.5024637687242
10.489904852415
7.98844150558696
5.58186469699412
3.643765897698
1.81711122815774
-0.645800200971066
-4.12394901729165
-8.34473354522407
-12.696160597157
-16.6157633655744
-19.7136806281888
-21.6639373681368
-22.1272209543585
-20.9375780921357
-18.2936345095582
-14.4826405657036
-9.48742101445735
-3.33969443918453
3.07406418875559
8.09523992534081
10.477239067754
10.2915005229938
8.64900533640736
6.80885149878734
5.48906258561206
4.60512864259999
3.47261874037547
1.3812670982208
-1.88711331883353
-5.90660616985926
-9.75082600543496
-12.3919135730363
-13.2675190570914
-12.5105008234038
-10.5509345382533
-7.67118905255155
-4.10426012510596
-0.307373892083992
3.20948966875198
6.29032326578888
9.11005545862048
11.6670434049632
13.4511938129009
13.818367072041
12.7852718280643
11.3228473503159
10.6087560870489
10.9502654423265
11.643411676682
11.8717215020617
11.4364451761765
10.5909996000308
9.55165898883902
8.3378675098222
6.84739825391114
4.94462933423147
2.61479129378321
0.138543529855735
-1.93146051832809
-3.07232912356846
-3.20048177957871
-2.82073750608882
-2.65179762134477
-3.07060958865648
-4.03400909240331
-5.4109864313905
-7.01734896358874
-8.33625755913699
-8.68213754885131
-7.86200125907595
-6.43745960376312
-5.1966168408685
-4.4798152172378
-4.03621635848807
-3.44792871616646
-2.66381818244203
-2.05376418750159
-1.90870096761461
-2.12039072662607
-2.56587007155901
-3.54754388596021
-5.43098226319306
-7.88947795207045
-9.87343547534566
-10.4369949937912
-9.46312164009903
-7.60151118573801
-5.62998719826963
-3.85713991347226
-2.08280508703282
-0.135389217194011
1.68390418163285
2.8616757319409
3.277761404942
3.34615717365781
3.5900540081586
4.1907961006575
4.90735369712089
5.4164286340489
5.7764410713654
6.39382718588977
7.33542545467765
7.89383181230152
7.19759930043131
5.17950735104914
2.6725242832351
0.622825256129493
-0.61044327141807
-1.29959238274443
-1.87660663893583
-2.41454531250619
-2.62514590678259
-2.42661280507154
-2.28529281448036
-2.74921571537498
-3.77867202123981
-4.74440605784871
-4.97364711911772
-4.15043751905286
-2.31104015232046
0.376096555290912
3.80480461404008
7.85998661828354
12.0446207810529
15.2818307292088
16.4063174595054
15.0496416651805
12.0115876004082
8.66595098366161
5.90230892975251
3.58388221550923
1.06508357070392
-1.8271156677624
-4.56183858271243
-6.64903382793701
-8.22591018784365
-9.71186641081207
-11.1771392605472
-12.23335390567
-12.2810364867105
-10.7235213414893
-7.27129820578795
-2.37017672732218
2.71145120595344
6.4407304690797
7.89370027587637
7.28928837091467
5.70712537587748
4.17093199955302
2.99821230511417
2.04607208934519
1.31758103125997
1.04477397489931
1.2898179695192
1.6928538446494
1.58338606082541
0.31083504502387
-2.33220674524829
-5.86448868620942
-9.35446352431409
-11.9677801069006
-13.3260014970401
-13.5204120321488
-12.9424244486578
-11.9649270897348
-10.5919214131043
-8.53678032413685
-5.80839138755208
-3.01286807870406
-0.802870498638026
0.845833577197994
2.53929625266972
4.67404447784494
6.93558797773693
8.62699780559273
9.35309229936925
9.23387218809151
8.5269537560957
7.35228462691635
5.8941896574344
4.55249366066859
3.68340393874849
3.45093081370893
4.04950394915939
5.62529930538211
7.69532699067761
9.06660246925125
8.76895410684286
6.964195392191
4.78390594710537
3.38268100053129
3.08537262097347
3.18132764579997
2.53564016783857
0.598716353408622
-2.13665950490568
-4.64334447599821
-6.15386530641306
-6.47673275864902
-5.86525302300169
-4.80110139501911
-3.77438104211142
-3.03616710552044
-2.45729254514571
-1.64302375346213
-0.304498206352209
1.35139067792758
2.68093556140442
3.24081650626876
3.26632711571294
3.26772218691115
3.30643981475178
3.03582753393251
2.35114975434335
1.58766836987288
1.04931731012435
0.606129367945489
-0.208210374573998
-1.80326475116488
-4.17226336651338
-6.85307633497227
-9.30489710095851
-11.3056311564615
-12.8883106957092
-13.9712955670536
-14.2207941063747
-13.2674894518888
-10.970590355188
-7.52978700602335
-3.48211219629414
0.358609548126128
3.09918431666968
4.23925778550885
4.18072123075177
4.07542025976344
4.84627745117756
6.40179281506233
7.95232986872106
8.83346787701978
8.74007964515364
7.48366778070689
5.05962283241565
1.90627400993245
-1.3311147262399
-4.34587083853627
-7.22268934241607
-9.96539109793236
-12.1922367843243
-13.3032853461182
-12.8733099913094
-10.9749186717349
-8.1743871899972
-5.14205504614804
-2.29275652504462
0.188423548814941
2.24667604160632
4.1306728918441
6.46722802252766
9.78561346574778
13.8458943083115
17.5327013508612
19.5381706556958
19.2958043638386
17.3640184726112
14.9447262268242
13.0728276753095
12.190337424713
12.1105686410189
12.0783601794248
11.1579387747252
9.05760471002193
6.52268000545596
4.59100300282502
3.54191756182111
2.81968642522161
1.83411818199043
0.541250153030874
-0.701111181858342
-1.59391409348998
-2.15710300983477
-2.67336908038708
-3.52472793650086
-5.13120590477968
-7.87219461174047
-11.7234968997478
-15.8619464976582
-18.9251022837284
-19.9252516482535
-18.8736998385178
-16.5583696120413
-13.9655075609192
-11.8859422867971
-10.7085152439629
-10.404459427174
-10.7480826476844
-11.4688476086808
-12.1508556212369
-12.2478582684632
-11.3948741755798
-9.54821837153685
-6.6808610878679
-2.50723188475297
3.24980762282
10.1954800911882
16.8638517903899
21.2070244951515
21.8726759142527
19.1949127957976
14.8885347944456
10.7835408508885
7.82716815869376
5.99791510208572
4.87402415988021
4.29861131632198
4.56319894182932
5.8850448344506
7.80517699529739
9.33722533324093
9.68539434801418
8.64242766425493
6.42386761623294
3.43198642156507
0.161877466096916
-2.93674269282923
-5.56962320592449
-7.52311392575522
-8.67152978430484
-9.21652260664874
-9.68714160817515
-10.4630863141037
-11.402810782635
-12.0157478242703
-11.835738561495
-10.6315622953446
-8.5105386159888
-5.91119148529227
-3.38930820952874
-1.38570072371682
-0.187981738185547
0.0238609981899136
-0.818072737389006
-2.64381990013097
-5.16312317796112
-7.74419640427222
-9.51636789324584
-9.76999082562631
-8.29481267872352
-5.42283276255454
-1.88686861522654
1.48440636623413
4.19799279611073
6.24640157426179
7.77830174017646
8.78449784201407
9.17162617346043
8.91768616951777
8.09368253789646
6.97078924732214
6.11288334108209
6.04047582226367
6.70979002973489
7.55253259129263
8.06893918536774
8.19909971992164
8.18261592127061
8.30323474092561
8.70353962912128
9.20407064082269
9.34643044511305
8.77897036421416
7.5560238874713
6.02315933845864
4.55005029404201
3.40979577685466
2.76168956347254
2.63669339859831
2.89040030747361
3.13383555915461
2.83582977786944
1.72537688313858
0.122451759581393
-1.26831604823004
-1.91835813213443
-1.81532305420238
-1.36704737398549
-1.03911366725046
-0.979100825299933
-0.946645881580505
-0.669619085522162
-0.207203613498921
0.114191819054262
-0.0169456242757305
-0.777040654689426
-2.18345967905883
-4.06895700814275
-6.22882778980436
-8.64569455808638
-11.3854292896933
-14.2071716079696
-16.4288085941156
-17.2770638258074
-16.3981408315189
-14.1582179495569
-11.5512754866911
-9.66725485900574
-9.02886244530679
-9.40659975337997
-10.254474591924
-11.1700312402103
-11.9305978498277
-12.3441114632369
-12.2256263893441
-11.4510207872563
-9.98870220015747
-7.88769621609993
-5.18741290961009
-1.85753040958678
2.07921112681178
6.40909405984387
10.7873328854286
14.785228432283
17.7720029254784
19.0428709194536
18.404427514818
16.559893745788
14.6788234794471
13.5402426593977
13.0635517584329
12.5366248117413
11.2958353588939
9.30499856199351
7.08801271783783
5.11162090133058
3.36502664826876
1.53310340865255
-0.617560610083313
-3.05044081976158
-5.47738411878878
-7.5302463278744
-8.99944128351705
-9.81619136473651
-9.67561890888014
-7.86703069053292
-3.83267715654405
2.01306621142419
8.16443144056064
12.803683702703
14.7908781585039
14.1426766388224
11.7569108067494
8.69194779491485
5.67815250227998
3.17775041236313
1.52671126809
0.748310117797824
0.427011671349036
0.0707980841496549
-0.417248352927961
-0.748601126398623
-0.657159354561927
-0.171875970583429
0.50644905060705
1.28032735856669
2.16890011044359
3.04115629862912
3.55429962475001
3.51105220072526
3.07683115446036
2.43192379789684
1.39766409935857
-0.374535169088659
-3.00925088775258
-6.33239984150027
-9.94300915936263
-13.2215631388347
-15.5285142878378
-16.6090105594248
-16.7518176958024
-16.5234149833611
-16.36809198204
-16.3409748159392
-16.107881559726
-15.2768741935256
-13.7688384676014
-11.7265041987454
-9.08021633322306
-5.51189110158836
-0.99475039332702
3.8393743838003
8.00720619165611
10.7589577800036
11.8959245588918
11.7134306595204
10.7114049466619
9.32613770533075
7.90060938486449
6.74050206094383
5.98398567837119
5.46982798944336
4.91702650899988
4.21011800869525
3.45461652592546
2.90164638808012
2.84515122561249
3.34350904389497
3.99167784096536
4.22973897210775
3.91182012410446
3.35490825539959
2.90857533048003
2.73029432314534
2.83035787045465
3.00989014343034
2.84851510613693
2.04305874445643
0.750996762247157
-0.523407844958677
-1.33398931719863
-1.57409736116521
-1.51317813955368
-1.61719219345345
-2.21501328232344
-3.26342535936181
-4.43895421443785
-5.41023983943574
-6.00887907620992
-6.24605961527303
-6.21234864078616
-5.90860313443382
-5.23426907206018
-4.21366735108372
-3.0619315703235
-1.87619602849757
-0.453177702166546
1.40246486133661
3.54929855009478
5.64345867826538
7.48264164578929
9.12439631840881
10.7307608007815
12.289954770195
13.4495795398244
13.7365049748113
13.0180355528295
11.6217679172762
9.95302187495495
8.14258176626957
6.10015947886196
3.7660801315499
1.26825446807254
-1.13313006866532
-3.31149917514868
-5.44519459384073
-7.7305301744529
-9.93602550016097
-11.4828861619901
-12.0053064477087
-11.6468649797089
-10.800903644441
-9.74081744157519
-8.53465799219109
-7.19595879543803
-5.87247971520876
-4.89801171534605
-4.59587066407228
-4.99815533374699
-5.80786465390564
-6.56996070975315
-6.73613998530281
-5.70003763963679
-3.14019136196631
0.53508983024514
4.23790474691738
6.81585779177108
7.68889665253307
7.03092106579488
5.43865737715265
3.43116802976894
1.28740186976453
-0.712069688757927
-2.19617582688781
-3.06946266297554
-3.79937343136448
-5.1005658350854
-7.32667234642946
-10.1701782419483
-12.821026982107
-14.4247232506865
-14.5738127167282
-13.4195958843514
-11.2809911899433
-8.24781871287268
-4.23204990325246
0.690949836577006
6.00073315592378
10.7381714057731
14.0099149327941
15.7310339488797
16.685848108618
17.6047712915255
18.3973362126039
18.5492937322558
17.9761282117499
17.1028927448282
16.3022897966491
15.6124491437924
14.8684363878414
13.8214156867329
12.2404794453547
10.1216898437205
7.74175553105525
5.4071927383174
3.20835896738486
1.03835382991144
-1.21438197738299
-3.50674322874986
-5.66895267835407
-7.6004525665822
-9.36804432897465
-11.048640788216
-12.5562185048268
-13.6833885497737
-14.2332277351161
-14.1080620959579
-13.3980430950924
-12.3761651297325
-11.2846380181574
-10.1664369085247
-8.98406707064897
-7.76164032576105
-6.50994967609036
-5.18926919774237
-3.82780131787593
-2.47983281022554
-1.05104772016669
0.559383330458791
2.1108089624068
3.11069585761937
3.33771918684806
3.05678593214538
2.65921528808293
2.28970913760058
1.87781222267608
1.34358246372635
0.683447540526877
-0.0312320585265215
-0.663239128480632
-1.04351283698681
-1.03536009323369
-0.643776367672893
-0.113979957803621
0.187938577893368
0.0864037688913465
-0.314558414806479
-0.886731913486559
-1.62819321232231
-2.49030204771668
-3.24575376501913
-3.62204451188251
-3.48278712845371
-2.8927514451931
-2.05964077806108
-1.11038228245615
0.110769005430617
1.84344848907167
3.97145044544627
5.98883097495649
7.4339650595494
8.15558810050642
8.17377281750585
7.54336653523934
6.42466585753825
5.147409931852
4.14411088798193
3.81686302604899
4.40917120810936
5.9707939727389
8.40063303831871
11.3721440868243
14.1751367956421
15.8939482947102
16.0079079837911
14.7663045106646
12.8516431189788
10.7817988003164
8.71178235444999
6.59640431938285
4.36645253029363
2.06356127396246
-0.0939424890869906
-1.85166929496904
-3.13916779458811
-4.12116881137856
-5.12223430542556
-6.51236153021914
-8.49693862463154
-10.9908728285942
-13.8336914371504
-17.0421357176038
-20.6287856520506
-24.2478688105331
-27.2706930700498
-29.2245104917348
-30.0389710898651
-29.8934814974094
-28.912510351857
-27.0444152884337
-24.2794184261986
-20.9174087633067
-17.3860531196243
-13.7551780949582
-9.69804944384117
-5.00189456543352
0.155405010851974
5.47869140594313
10.7485989980209
15.5607705955265
19.1578634413623
20.8965826561868
20.9692037376456
20.4813442158797
20.5930097498201
21.4955825235252
22.2889398407198
21.9099760901434
20.1146343806084
17.5153127021291
14.8493023794086
12.4373161595773
10.2535209024862
8.22811609406293
6.41961552593816
5.02056449291506
4.21721131586416
4.01665466480507
4.24349673156645
4.65354604198788
4.9718897295109
4.94336085089916
4.4913022838151
3.72219458319422
2.68372995905977
1.28557159494503
-0.460395676242743
-2.30135754127573
-3.87419337329638
-4.79437268165783
-4.7085916274483
-3.58824588649449
-1.99358178726053
-0.81060630412082
-0.668141028448473
-1.62723437073155
-3.27406571554157
-5.0145194431052
-6.41055265156931
-7.31445622706245
-7.65290341397415
-7.22703857375663
-5.95860331862581
-4.28420687217187
-3.03672912905307
-2.82558033372305
-3.59272487491889
-4.75009105536248
-5.67854347210829
-6.15513641298691
-6.39403466968072
-6.70648619330466
-7.19147803322034
-7.77990061133303
-8.39634497218846
-8.94222582456834
-9.27262200613915
-9.32412955905057
-9.16418146164602
-8.87323188017165
-8.48788528113681
-8.01992321683268
-7.39349126517742
-6.42992313641499
-4.99990571539785
-3.08367122716365
-0.654666452267346
2.25352533393086
5.29313164775165
7.903612209753
9.81962196602982
11.2959586014248
12.7331975134295
14.2087063904323
15.4131745384509
15.9432888257498
15.6143788076951
14.527387041422
12.9173426582026
11.0530698185771
9.24637394636833
7.71752067849121
6.35617742827929
4.82333303680921
3.01166131756365
1.22644269750926
-0.180895377085936
-1.14941716957719
-1.78957373639484
-2.16364398978346
-2.30746909932007
-2.2882541940088
-2.14189089572417
-1.85897940066028
-1.46425239036107
-1.07570944140489
-0.929539486714084
-1.3004918698491
-2.2361080095931
-3.39560462200755
-4.31811148332057
-4.82203112189936
-5.04291411791247
-5.20223753336902
-5.44458196025093
-5.74600957834751
-5.8886591646896
-5.6755067752307
-5.21351135095884
-4.85343781870555
-4.88093973765136
-5.35343363789502
-6.06104511733355
-6.50569314604166
-6.16322693429924
-4.98623436314204
-3.5010965644218
-2.30068486071773
-1.59797625721673
-1.28308060744264
-1.14432644338797
-0.928083434388076
-0.393175741322395
0.540898483682446
1.77279617444223
3.19550423052631
4.81364841493184
6.64529558306779
8.55146576999317
10.2026144355159
11.2620996627853
11.6342718030183
11.4707987746599
10.9254867016942
10.0485497612895
8.9459989838724
7.84377978936381
6.92169280178627
6.19205091929292
5.48640661305047
4.43708430739774
2.64596809123705
0.109517385614958
-2.62665378573388
-4.89913040415616
-6.40185918462805
-7.18633036917619
-7.43771510804882
-7.3864709485919
-7.28669701825865
-7.38799706698756
-7.94125354854827
-9.09312682137055
-10.6519945195772
-12.0944200824389
-12.9231385983327
-12.938890838673
-12.1847899921308
-10.8233431001908
-9.10732109703965
-7.31695107164531
-5.64148192380216
-4.11823495250177
-2.65685189956798
-1.14931510687958
0.365320345472316
1.69973041992251
2.7921080054713
3.87661409173594
5.22147523796046
6.84499872161767
8.67724492554816
10.7666969578464
13.0439886553947
15.0951284869644
16.4544847971711
16.9510570892056
16.5963247074846
15.4113834678769
13.5981244112629
11.6553168828218
10.0547960693318
8.82740915887568
7.5720196319244
5.89891279601269
3.86502255912716
1.91665919820412
0.376808150290774
-0.834237010031848
-1.84274484859349
-2.45041741136449
-2.41750241553492
-1.97568737520698
-1.80321761820055
-2.55269789912347
-4.48322633287431
-7.37512669480642
-10.6917045972489
-13.9344128212644
-16.8710146469485
-19.368467764442
-21.1563343326848
-21.9567901136928
-21.766035883098
-20.8259704876234
-19.3674986072465
-17.4774097794814
-15.0905816589588
-12.0070365666111
-8.07727704400064
-3.52964337477898
0.941270998903586
4.49607372933335
6.62935662270902
7.49421660240798
7.83191307109968
8.45218067345175
9.69681567984198
11.403410664134
13.215102219964
14.7748199668305
15.8315116085334
16.3952347478117
16.6489432874701
16.5686683689052
15.8427353347202
14.3183868041792
12.3348718939846
10.4527353939912
8.91785629611913
7.43778670978127
5.51334579626046
3.11664094723892
1.01735041947474
0.196187545117391
0.880614816612784
2.3227700448159
3.49090326212661
3.82879449310634
3.47101363961621
2.93261176484702
2.52721245695358
1.99607267861882
0.830294549298216
-1.04068408215343
-3.1451744033725
-5.10257411088434
-7.05073888208585
-9.3311373996433
-12.0200614733434
-14.8747134168353
-17.5221372468765
-19.6587813455432
-21.2674198349469
-22.6479551411914
-24.0684228867191
-25.3790968302091
-26.0457883391191
-25.5303329427877
-23.6204390165283
-20.4407224435567
-16.1709012649415
-10.8423675193696
-4.55275266648191
2.21641104651386
8.74613757705107
14.459877179575
18.8926063272986
21.5062536574716
22.0671561604347
21.1982923794282
20.0778919847036
19.4423284991543
19.0863097480867
18.3312936311011
16.8062935579976
14.7877144129357
12.8917095272424
11.4737646411906
10.3819364240148
9.31102423942218
8.22982500559473
7.32398900595081
6.66289670933703
6.11129552316374
5.49857805478319
4.74037984463036
3.85769362211138
2.94786192929056
2.04411041001252
0.985609984347951
-0.439890058032949
-2.21232119876482
-4.03414367299256
-5.53873409718781
-6.50954540709949
-6.99686076946109
-7.24270568472655
-7.41308708320759
-7.49329809730179
-7.55461389468415
-7.91873415103825
-8.82894526985055
-10.1017687006127
-11.3046411502601
-12.1683983563007
-12.6926224885375
-12.9431977286698
-12.8371004851639
-12.1337363746881
-10.7220064738951
-8.89072073716766
-7.06467231773628
-5.25929597756359
-3.14193388086015
-0.669022311471182
1.75855769036047
3.87281003026169
5.8503481868125
7.86007306232534
9.59935291651583
10.4874253972095
10.1936439359015
8.89724430856372
7.14804710529415
5.52780849294696
4.34826106165865
3.57824926262419
3.00166379222918
2.43262034548324
1.88702872934523
1.62990344959012
1.94014551730473
2.75146266611181
3.66275715669837
4.32768058632581
4.64495819763003
4.59497747240218
4.16345034560792
3.44747704089299
2.61911845957954
1.77182778709597
0.913743407840894
0.0271530655854086
-0.953958272305016
-2.10498021474151
-3.38963475578605
-4.67837299277513
-5.86164237399318
-6.84751210831356
-7.56629052133469
-8.09091403912515
-8.57047962566295
-8.91878999065763
-8.76365527690196
-7.81352844682327
-6.12550969090026
-4.01609691903727
-1.89653425513081
-0.14893792632102
1.05696081792108
1.83408084838429
2.37140703387066
2.7429649936624
2.98776307222819
3.20271426743305
3.43612887655111
3.64154826557135
3.8166092425005
4.01336285603922
4.15300269745621
4.00138916291714
3.3697371605129
2.23998045761385
0.757261784091925
-0.783287776924758
-2.02627763092791
-2.73767253678762
-2.86023931328238
-2.41046091987787
-1.43380922143474
-0.0540868880072203
1.50987092096782
2.96899814773683
4.04014297393972
4.60745099230074
4.77513698423554
4.66708442944348
4.29821802003872
3.77252015449096
3.40849289454418
3.45129422153333
3.79147358234713
4.12866088011485
4.31197253912775
4.44832877696423
4.76104273170465
5.31526794062995
5.81081993950062
5.78169123226538
5.10894389731805
4.16799524257766
3.36736125055645
2.7512015849298
2.15137458445253
1.44280117592868
0.460420104415999
-1.08377896205444
-3.34769900218789
-6.10746047592608
-8.85696490027792
-11.097378899993
-12.5687771360179
-13.3216506448326
-13.5456685875323
-13.3160626624195
-12.6186894751916
-11.59617269538
-10.5917690627526
-9.93715677967259
-9.74461015706285
-9.75214918904677
-9.30942572439911
-7.80420504435687
-5.30503066337497
-2.61677815704098
-0.596184016159999
0.452235243089895
0.760393435963789
0.791748874189215
1.041748230477
1.921347680979
3.61624192359902
5.92267008485154
8.19915553617411
9.69875796595689
10.1744512154964
10.0576170785601
9.89391028327325
9.77622634044183
9.48656227163673
8.96392425988644
8.39013523599962
7.95090468395061
7.70970504605611
7.62934364202871
7.59754478184653
7.51257042522389
7.37118405150939
7.14729215827005
6.62694921971732
5.56570906480125
3.99941530020438
2.25580887811206
0.711504128314178
-0.380559494668183
-0.966281119051738
-1.22853264640101
-1.49540824052557
-2.07024412559616
-3.16834976853365
-4.93809085873696
-7.45333403279708
-10.6768743272711
-14.3360738363092
-17.7163497185417
-19.7423659470373
-19.5561839617199
-17.0584345048439
-12.8758804851858
-8.01820829973212
-3.57923369264998
-0.318405228622956
1.7367532569535
3.02862258546075
3.72028262472794
3.53100086840822
2.37732853173728
0.793351033098982
-0.44596237652668
-0.888157941199941
-0.532350126953508
0.358725049045549
1.46564772291291
2.5622340845187
3.55121481310662
4.37879709363966
4.99997432697375
5.43783452200724
5.75225409305506
5.94015458387035
5.99046047976862
6.01511612328394
6.19685086738206
6.6146509245702
7.16786912052
7.62621532577338
7.77318323658561
7.58731237997761
7.24257890247569
6.88015481932129
6.49237783409671
6.06210107643441
5.63162625041194
5.18019737347319
4.60008559115165
3.80812920691404
2.74692405557911
1.35542175117537
-0.304452631251845
-2.00330622997349
-3.55421152185264
-4.9234616135009
-6.06441748001257
-6.85531602465851
-7.29626766280622
-7.61258380040347
-8.11246111093426
-9.00351386700667
-10.2574337085816
-11.5539701363016
-12.4690954223736
-12.8234761213468
-12.7718109920951
-12.5352533996036
-12.1813066787816
-11.653486759349
-10.8168916943535
-9.45820000339282
-7.44342612587458
-4.9145790936595
-2.19007898406088
0.528027041001886
3.24952983541726
6.0145228192607
8.63132402347141
10.5737963095841
11.2891571725998
10.7872826465565
9.80232464094956
9.16378153920426
9.08329862917782
9.16705074529804
8.95433567802529
8.30096345082173
7.3906470872507
6.51463261917088
5.78357795620235
5.04336327343901
4.12503236000059
3.07969713650025
2.07553424234439
1.19183877854837
0.414676445965458
-0.276224593804275
-0.878641454090345
-1.34561265802204
-1.60304451940443
-1.66274148167121
-1.66068736146014
-1.72142494209258
-1.8651794901556
-2.0797778847136
-2.35495248647401
-2.60325980910841
-2.70073702778498
-2.68022880070868
-2.76392474978471
-3.1481436733363
-3.82214635812378
-4.55747678695362
-5.00481315874215
-4.93096160137528
-4.47055744750196
-4.01323845258425
-3.77455426829039
-3.6165047983809
-3.28310095063238
-2.63512425940652
-1.68514721505516
-0.572399680910383
0.525871795677728
1.54761898418524
2.54706141554047
3.54635415355677
4.5100105331066
5.39966912303229
6.08381476788012
6.29608677100409
5.87084320147616
4.92523118196276
3.70240147770261
2.39060063382216
1.14519547527585
0.0773361466691024
-0.810499229288109
-1.49667280252494
-1.8088730194178
-1.63497589260523
-1.19727156220668
-0.910225634968864
-0.996596581462441
-1.36138902867641
-1.76790685515524
-2.02671399804072
-2.0681347940876
-1.90613266531673
-1.53235856857463
-0.911513146833766
-0.130271305011291
0.615700769157831
1.30442432772859
2.14918877732964
3.21803084827394
4.20439605302326
4.74167716771959
4.77726465975312
4.53267299256016
4.23323517793656
3.91482277938086
3.39563676981882
2.4578078759435
1.10077292547421
-0.465079951168764
-2.0567109482686
-3.59154378061482
-4.95442503928392
-5.98196092345274
-6.5686552972897
-6.67479266385096
-6.32584714864765
-5.71430141032919
-5.16971346041157
-4.91840278687173
-4.95447195643069
-5.14572679910708
-5.34704778870389
-5.43931672563816
-5.35445856713725
-5.01397271238353
-4.2260987791834
-2.8024223799495
-0.851918451436151
1.16569413070568
2.74051237025882
3.60545432370148
3.81670550691497
3.73804036433161
3.89569907347073
4.6113928114445
5.72333417959478
6.7328885931436
7.16845791178052
6.8303703477709
5.90766435163688
4.90275032227529
4.22584516236574
3.82489492902225
3.3618981902529
2.67798767753564
1.91025713625217
1.26190821768795
0.841335742836361
0.643452370983118
0.562922088737293
0.479978610067006
0.359489819846902
0.218553885248428
0.0746053867369768
-0.0156736668763202
-0.0169358737262938
-0.0738970891345008
-0.419555071431877
-1.07876691687056
-1.83807186371584
-2.48479894738143
-2.89613642198873
-2.97595995373606
-2.70727201038622
-2.21713326018504
-1.67718025974811
-1.21632574271668
-0.941583447867473
-0.853785394002715
-0.711112577060899
-0.216837802401916
0.568672955965264
1.19399422829356
1.25124193381777
0.691021602701076
-0.265433270143
-1.32712777117637
-2.26149111231614
-2.98838865645262
-3.56523669892914
-4.04789684272014
-4.41292582993706
-4.58884224257845
-4.49608671482412
-4.12456131538553
-3.60715877536661
-3.07855604803259
-2.44417516128206
-1.47818072581282
-0.164545567612732
1.24014715450309
2.44793505261581
3.26516377400947
3.57239011899092
3.39440482494093
2.94610637040449
2.49254940915899
2.22444916368501
2.261576922013
2.60612294097456
3.0841055965424
3.47830399964631
3.69972074300027
3.75061923734421
3.63407078048221
3.39496564504239
3.12187485755235
2.82304798041042
2.4129560403569
1.85298440328288
1.17359009474516
0.368539865853052
-0.570278338756688
-1.54551463788017
-2.43880383366333
-3.22277636165814
-3.84813743866333
-4.16645725413869
-4.12226612075488
-3.8791308520208
-3.63649349402286
-3.42999592438969
-3.1272983425152
-2.50438922291236
-1.39188387791482
0.117153788631799
1.67899112142981
2.99919041107984
4.02238859674684
4.82619393588528
5.49970231991041
6.12105278990133
6.67252821832799
6.96344660940255
6.73618915207549
5.82817532065797
4.2490058993597
2.24619532514982
0.269889515302898
-1.31925526213654
-2.49828813749469
-3.42949701456259
-4.19533908031051
-4.83714639714715
-5.49340440738998
-6.30710771419491
-7.27703959342506
-8.28538742249085
-9.15766164797053
-9.66189024390975
-9.61412257118842
-9.03994829779928
-8.11644750679048
-6.9783687512672
-5.70986530344871
-4.44131820231586
-3.28353631978397
-2.21426917474189
-1.10542964723211
0.225382134139998
1.96247489848203
4.09116489389542
6.24815377634075
7.94870261924773
8.96082878805127
9.37235409186838
9.39121644594265
9.17373902794973
8.7574316801228
8.11259773666793
7.29778579630729
6.47309079002504
5.68550001669004
4.81662032909464
3.8598105489782
3.05253152225731
2.60421099442558
2.44140600546589
2.27130278453228
1.76944430036997
0.760594730725592
-0.627316169770557
-2.05409066391992
-3.29800272960799
-4.36695280113848
-5.2570141010005
-5.83912461984844
-6.06708197292675
-6.07800620342844
-5.99327710913447
-5.78422662633776
-5.37418928119948
-4.72381264679375
-3.83082805234286
-2.79545702873067
-1.83353210468102
-1.09218378773487
-0.525031038912934
-0.0181699003258343
0.479539576800502
0.967001981420314
1.37881933274684
1.57929863210534
1.50776884782861
1.27802748635882
1.04115474523019
0.852722129643986
0.722162412546923
0.643190241878385
0.5528033655842
0.404608571674141
0.252542574668122
0.143189754425619
0.038732146819148
-0.0352616567761496
0.0686352738965398
0.417788631173166
0.900353012529252
1.37472147382541
1.75014722976691
1.94131976734589
1.92683076979244
1.81337207405032
1.70713351195371
1.59974550526078
1.46248690021245
1.32371304945559
1.19183360471811
1.04717704841617
0.940374054238164
0.936942110589268
0.956744560431571
0.830345658589254
0.501209921761294
0.0541998476454766
-0.370195804942158
-0.598401004257783
-0.521629151194895
-0.259380609507811
-0.0517988454561227
0.0504881417920864
0.20676739536973
0.503547648040714
0.826247685185597
0.988201557317364
0.870972386661724
0.49075620039758
-0.0220812318689043
-0.571859509865201
-1.18030282279752
-1.82618051810669
-2.33107238994622
-2.55252376087849
-2.56520500861949
-2.54958916347594
-2.65861170323601
-3.02052423225413
-3.63334888608285
-4.22003528331518
-4.40863961046877
-4.07859068889897
-3.40838721255745
-2.67762532632852
-2.12489639466399
-1.82641721020052
-1.59401718356202
-1.16458193018648
-0.578936482152853
-0.192666502750329
-0.248309810720532
-0.619393874701089
-1.00892527156588
-1.20282262540926
-1.10512557087554
-0.713523330272219
-0.101154774777529
0.65880072928805
1.50344135689102
2.28613581944821
2.79796352393302
2.91983457671131
2.67297265360628
2.18164538744555
1.67677097670859
1.40510284675381
1.42529624191546
1.61554295339256
1.91492937841593
2.38284147285981
3.01041812500778
3.64295110155125
4.07151616751541
4.10353993697674
3.67053388736457
2.96681273738834
2.32387918325376
1.90181133622964
1.68368312582661
1.71019710588039
2.04077149593434
2.54129340016305
2.98542503658596
3.30776378535685
3.55005395439856
3.6756075655996
3.64359749928248
3.56722707462512
3.62523846423768
3.85979721937305
4.11763012059035
4.11778019931787
3.60142300833821
2.54813128475893
1.21189643046556
-0.168743615280283
-1.59845017845274
-3.14926784327754
-4.70240049170272
-5.99851446906382
-6.84200192375275
-7.20281866914652
-7.22706323374804
-7.15557877381102
-7.15243418102168
-7.24072868683268
-7.39532520745911
-7.55894997284238
-7.58349634090989
-7.33970272763818
-6.87829294669399
-6.33712936904479
-5.74094147736242
-4.99591314460072
-3.97897384016305
-2.59446506137547
-0.930600211130977
0.617624073571984
1.58742568180567
1.80073805430408
1.33787298970961
0.35039771997038
-0.841396286623485
-1.66798975015845
-1.67897257538246
-0.962621331465116
-0.0345225853428666
0.619223096145387
0.830517619065265
0.774697994879183
0.847183882634142
1.40026971311937
2.49889094035791
3.96138928003329
5.57856499266574
7.18192897304274
8.57590450166998
9.52881338679892
9.78367954033315
9.07606273306364
7.32269708893486
4.86583143040185
2.41063258729131
0.651770584895789
-0.0788988165743424
0.0570689317609018
0.565570811329676
1.0301574720335
1.38755590231591
1.73668564621198
2.02468188721658
2.10454773772101
1.94920387769802
1.59390877211412
1.00682291826117
0.207526872097191
-0.618079133343389
-1.26777834523949
-1.68565023037821
-1.9222695043519
-2.04424187346538
-2.09093980420616
-2.05342439047797
-1.94968065524133
-1.92861807653356
-2.15128539735217
-2.55400011092587
-2.90369595697578
-3.09292706849234
-3.19746865150127
-3.26775133866273
-3.27903910613113
-3.2575970988479
-3.22254018753867
-3.02809620506084
-2.48583112871178
-1.62924083968498
-0.704824791334313
0.0582473918518188
0.596425574123523
1.00809104990723
1.40365720592934
1.67627326496474
1.52844566117016
0.8680512732964
0.0467726931658204
-0.44794321700262
-0.434623554930304
-0.103720002367447
0.212776084603166
0.294323672202456
0.180731432883719
0.0805539386714273
0.0929152195410409
0.13157630222295
0.142243351665866
0.186632436373836
0.279652307695634
0.367455291089391
0.46833361072081
0.61793655858423
0.720936289298445
0.662559463756549
0.496497786387731
0.361465356369969
0.309088994359893
0.327574176862752
0.409219424616614
0.500731589117893
0.508823443403372
0.421779492470311
0.320599533830971
0.247975000150609
0.15906597779483
-0.0249243754195366
-0.379663451455674
-0.892076509748433
-1.35599632325259
-1.50640373907695
-1.30290997331385
-0.930065195913835
-0.538214836730719
-0.152446867252754
0.220754136907469
0.553699638670646
0.79890274946991
0.858221373900466
0.675410819681314
0.381545126159436
0.184484208223818
0.117422476556289
0.0491324541369097
-0.106437670795319
-0.324203825042807
-0.526235400849269
-0.613379197184182
-0.543506993902812
-0.39852004598898
-0.244326298916955
0.0156194135951143
0.483521585161485
1.06419428140426
1.57419103137967
1.92683589639278
2.09227552356742
2.03566237033616
1.79636564270303
1.47991241505018
1.11820941718963
0.685731766570212
0.260024651915231
-0.0041825553817388
-0.0643975711097875
-0.0186605000043872
0.0131224330860594
-0.0693911181482629
-0.319253290207782
-0.653437048020285
-0.903551223945317
-1.00513093035537
-1.02466281134611
-1.02792265935698
-1.05011707828168
-1.12356009562485
-1.21928779716163
-1.24933364357509
-1.18678189054129
-1.08442695930522
-0.99034764202797
-0.954366050242423
-1.02168088304434
-1.09281159122929
-0.943661247565974
-0.524859450590736
-0.073836778174538
0.176717511792401
0.220975538034029
0.160407471202025
0.0701466006149985
0.0220831095675955
0.0722309700863385
0.213846124793352
0.423625153764236
0.6830192818603
0.912966546792468
1.01554101564045
1.01475370930137
1.0294156807304
1.09930510796774
1.15848915727182
1.15089181905867
1.04185386727822
0.779089496081456
0.401111575598649
0.108924712346999
0.053813499185369
0.115764791326957
0.0384347753730043
-0.268047659261675
-0.635994484062051
-0.790849913273785
-0.585029873741501
-0.146123295425233
0.246902666214206
0.457705092327396
0.550962585942612
0.573635517027884
0.48021550896474
0.287056065864921
0.0953142750719805
-0.057492750171217
-0.215185036872327
-0.399782131678581
-0.60005381493846
-0.793186661269854
-0.922060050743455
-0.954752432533327
-0.95703049036864
-0.975511761131456
-0.92364134299552
-0.72857353740312
-0.470729475774324
-0.247637543946293
-0.0567476692290995
0.0859619672157863
0.102279066741819
0.0211799592572677
0.0106098742145702
0.159948979410542
0.377518706735191
0.540770308837352
0.610702249879247
0.591812135267092
0.500337792770985
0.352878615383849
0.122147853891142
-0.201516941774113
-0.47520453483355
-0.49849117122549
-0.274222495843082
-0.0092957385335669
0.134706287086034
0.149262781300798
0.104262429335006
0.0917318728828153
0.164450076905823
0.263893459763108
0.293088423639432
0.243798921572523
0.155287210431032
0.0379013555081558
-0.0616571473172523
-0.0637344174072612
-0.0054266174058933
-0.0009019630213001
-0.0185991082825508
0.0677071308426716
0.214357496448063
0.258408323722943
0.190615356300374
0.122996818884076
0.0653767597351471
-0.0331833694906749
-0.118484825591414
-0.0947077364211696
0.0371602435515878
0.211827466626074
0.363958045562466
0.414944968379533
0.326864218303863
0.1893710069134
0.126274259232292
0.12856831849791
0.0922985173659699
-0.0340577311846093
-0.233100590008993
-0.449526798238325
-0.572790996756944
-0.519026520778921
-0.358335023835732
-0.229659660167498
-0.161836430123609
-0.104622170992297
-0.0490953992538978
-0.0048191729138745
0.0318931011245993
0.0269141251704473
-0.0430525598308109
-0.0971408316764643
-0.0585154238609061
0.0024948050049382
-0.0138784442652395
-0.0783729488847359
-0.122702498412195
-0.148369970510618
-0.151430459789248
-0.100747621974462
-0.0376530997081174
-0.0354413634979771
-0.0707050729147393
-0.0746389330517368
-0.041727951035447
0.0166654538902354
0.108196967018313
0.184751835864126
0.176016831430185
0.123015537946454
0.131131377721742
0.206939590112541
0.288339252277104
0.377448766607281
0.481189523465392
0.503076651466126
0.374089687497946
0.209113694928676
0.166158265079978
0.228099797927007
0.247398293667136
0.12851405695145
-0.0959396974273366
-0.291645394779746
-0.328098155635436
-0.22730991170329
-0.146370948706294
-0.167721880295902
-0.221504661409244
-0.23420174622511
-0.204074706121941
-0.135493421429357
-0.0515770331907083
-0.027518790046666
-0.0752159516394802
-0.0917262582183899
-0.0430328732050654
-0.060122240180226
-0.243601554277541
-0.511097347117849
-0.703100678665697
-0.723150202534811
-0.584731087678989
-0.4274036532154
-0.416204795625118
-0.536235614714036
-0.593681038816756
-0.47286773467612
-0.254405271676202
-0.0547086237745971
0.0917153359787274
0.175473552977474
0.198573651030266
0.229908591404822
0.340381352493143
0.495758172324402
0.615619350826551
0.674812840691851
0.670324698675239
0.606750248622281
0.567773702966785
0.645936215649239
0.780294994685707
0.831071758158274
0.79310877917012
0.773547676615203
0.814840906719624
0.871619775642902
0.881383408766141
0.77663795413741
0.527654965904123
0.206355334451001
-0.0841034832537682
-0.314596942576671
-0.494726444966348
-0.628028675901852
-0.750403133345656
-0.870397548282695
-0.867963443387778
-0.644948939163465
-0.345401962818933
-0.211168019572083
-0.271795958078219
-0.366129632559728
-0.379356244274435
-0.308297273612202
-0.211142310723202
-0.194978877652815
-0.322502189915653
-0.482434630091172
-0.492152513192878
-0.338591583995528
-0.176856831245031
-0.107915423798386
-0.0941391135923162
-0.0619389389700496
0.02220598132416
0.122792995658241
0.127430444090982
-0.0240808822236514
-0.196142119790319
-0.199208338291625
-0.0448980840347931
0.108712030701437
0.187147628354241
0.20891279775429
0.176662827119098
0.101012220948757
0.0240715429291371
-0.0449594764636553
-0.0982208484187386
-0.0601827761876543
0.0978033175329143
0.250956827641048
0.280537598046422
0.226614155511259
0.164364145450135
0.0843115252703991
-0.0213728241228288
-0.126364131045087
-0.25278986445954
-0.414838576740317
-0.51831677493163
-0.480700778287815
-0.364581378497717
-0.262026719476604
-0.178069519734089
-0.122682325018569
-0.15426053583802
-0.255035353042729
-0.318279782805871
-0.301685895670178
-0.251961406157142
-0.18261351346517
-0.0795088430054142
0.0040630684945477
0.0121733139687066
-0.0010171345545841
0.048322765858835
0.148786076130722
0.236147663844715
0.276660860144128
0.273900080958816
0.277093891154824
0.356783810587311
0.500374406079237
0.611958293483252
0.661777192532491
0.71420850192972
0.793743937637033
0.86491247687724
0.923731881227711
0.975074777204488
0.984032827963429
0.958150648552804
0.968723094331267
1.01923787796483
1.03469968350495
0.997098534546051
0.923415862284761
0.757645544732069
0.474510787482098
0.199052873807086
0.0452354050806926
-0.0408661596846124
-0.13942903129814
-0.213624953530557
-0.215650882009058
-0.186530954989753
-0.179732880083737
-0.208146855407545
-0.284976096989003
-0.405383191102122
-0.510141219613488
-0.572900089376262
-0.665909433581117
-0.842050861086382
-1.04238690627474
-1.19876309684844
-1.30658850355031
-1.35427971702148
-1.33493722134134
-1.33826542031048
-1.46898893401023
-1.69020528982726
-1.87538519104722
-1.95624419710743
-1.93371893468087
-1.84080954302033
-1.7430914140094
-1.67308366519503
-1.5714211611368
-1.38375950068109
-1.13634633131089
-0.833038177735485
-0.419659451500261
0.0753574036538534
0.541324159508716
0.970305412836676
1.44804160575551
1.95393429077618
2.35280669309534
2.54133036711577
2.45600309653121
2.05940717107725
1.47130206498776
0.976876306910291
0.770544840116794
0.793830652693278
0.878621667530926
0.923715544663621
0.906935455523027
0.857270940334267
0.835984583252974
0.8528629917651
0.835551567704722
0.760932304791991
0.719526567090133
0.75600608122146
0.76525280521009
0.631349278766422
0.362166383934109
0.0580254364270294
-0.153800333842792
-0.190702540675091
-0.109562931872338
-0.0484251631692121
-0.0316615361221715
0.0275987534457693
0.125173942399007
0.147671895919098
0.0525551116880678
-0.0970325385701948
-0.241502415738974
-0.344898364383628
-0.382834987066988
-0.392889514097038
-0.44305687474169
-0.53635965231046
-0.650504352973614
-0.800554565611456
-0.942778674248178
-0.949345703975945
-0.791932673646352
-0.588635084275938
-0.409667287992958
-0.239240686605136
-0.140444057571277
-0.214465154487964
-0.38759140793349
-0.465763846934532
-0.398146364867939
-0.296873567840244
-0.235268725180281
-0.207792973202439
-0.230377087365865
-0.309322937383058
-0.371880874038272
-0.353620322510999
-0.281088655254602
-0.206777718870225
-0.155349789324287
-0.131953915043001
-0.0881207640545434
0.0529374896913129
0.250832333774956
0.348976828820398
0.290081311584661
0.184834118762534
0.129801756222919
0.109009581428451
0.0785230340011735
0.0160207205597946
-0.0820839256573719
-0.167554747700372
-0.177930359300809
-0.132848933378852
-0.0793875575446589
0.0154560388301043
0.162922090314611
0.241859275895481
0.170971869595216
0.0695423494941384
0.0852618112024907
0.197746204931488
0.303508694184604
0.349032319640579
0.32092299207711
0.246272243632151
0.214460271419792
0.27521451554511
0.349267295662508
0.346197344175803
0.291235203754448
0.234258748990495
0.154989486120357
0.0665819980669149
0.063899792102789
0.159639644138757
0.226614058609185
0.18188987057656
0.0747067324136663
-0.0373686081740562
-0.143314084052963
-0.212876515738847
-0.20559458218451
-0.128538660842226
-0.0291070972179052
0.0239499403643399
-0.0220069132973956
-0.104621623339661
-0.0735480119526156
0.0892685154321565
0.214152004350548
0.193154197088262
0.105175603532521
0.0326836955798754
-0.0328533696045485
-0.069153735168752
-0.0247376759097129
0.0576807128716519
0.10126225550004
0.117852006172051
0.131461634985116
0.100930921827207
0.0255367159245319
-0.0184686908610572
-0.0100601215582391
-0.0075880853419081
-0.0316543573781089
-0.0655804915652862
-0.137368628366101
-0.258300419177765
-0.340183410117892
-0.307926067607416
-0.215128269997823
-0.143152267472189
-0.103806836074647
-0.116628857116593
-0.216521810136756
-0.323899861134807
-0.286411537489053
-0.0910591397458462
0.110722614839064
0.179214362386708
0.0851843536583003
-0.0990722364302069
-0.238853764457598
-0.256188976022806
-0.219065453911845
-0.214890381894853
-0.203005333956386
-0.112539760638066
0.0255976783050443
0.160436526586553
0.294137193595202
0.388381109214114
0.360091268121698
0.220217107364472
0.0658988823723845
-0.0497187677146245
-0.107375881674604
-0.0716410942591163
0.0279722191629341
0.0913797461401074
0.102673750981062
0.142308863346616
0.214298350195873
0.224941793721517
0.139581557850954
0.0154781257020854
-0.0966480414648901
-0.161566743480676
-0.131149039686687
-0.0232787819593039
0.0482572533699489
0.0179743771499663
-0.0514059982801194
-0.0876477092293414
-0.0835942705179773
-0.0366695486400925
0.0465271292894908
0.102994322964095
0.091001463113596
0.0539375221590328
0.0310621240741464
0.0172440960053955
0.0422372944071154
0.139364308164557
0.24016366596841
0.252354474297455
0.196349287214305
0.137812402854138
0.0814252483562138
0.0271017893829254
-0.0027454556701409
-0.0440074453013342
-0.140590500023023
-0.215949591130533
-0.168061049560056
-0.0454365599138363
0.031892276127497
0.0410257101108713
0.0242116449629605
0.0050539752035411
0.0080615622993092
0.0374612223956418
0.0313875482865806
-0.0351535520372806
-0.059477224287912
0.0343900689917214
0.135152048682253
0.0854084022619316
-0.0985657036186076
-0.270591421249562
-0.331059668840961
-0.279042656091653
-0.196165179779732
-0.211604516220842
-0.356104413374157
-0.481294302584567
-0.466190373525394
-0.396880142775988
-0.379648321761393
-0.341088861420867
-0.190336301578534
-0.0053428769000637
0.0926355142901523
0.0938112772427997
0.046715978561719
-0.0065466973125208
-0.0245439933102042
-0.0113917606013443
-0.0243031533808751
-0.0647318231732069
-0.0646190366274572
-0.0101470918544586
0.0588853186463769
0.147054565801254
0.246736743315549
0.271632292886009
0.201628931061741
0.15897470429335
0.2136315294484
0.285582809927307
0.323305208638709
0.378970747844517
0.457175173857892
0.486637086817518
0.463551060162248
0.455879851819222
0.482296270008809
0.524835890139172
0.601031980570776
0.698950020999129
0.734582236647318
0.685537205062759
0.650338877914944
0.686518800020738
0.717021855150799
0.649345328222128
0.470764413642322
0.228483081089035
0.0115454264158545
-0.105381552770135
-0.165537678252256
-0.281516680009173
-0.46670041119764
-0.639417977525953
-0.760875933388941
-0.830720359438376
-0.824482588244469
-0.769446052758847
-0.768952278778427
-0.844979394823096
-0.901151387276039
-0.905108697062236
-0.932998370131068
-1.00388267753097
-1.0401826462697
-0.979800028322625
-0.798849012780304
-0.505898160602086
-0.211300319514099
