1.42020159720732
1.26766004941986
0.99599551144861
0.563878038021204
-0.0179736053927375
-0.652136639039056
-1.18006258120221
-1.55463212872747
-1.86192191567004
-2.13045459792745
-2.32376195439534
-2.53932812766903
-2.96234587157699
-3.57910483630334
-4.13778795331591
-4.41282415742486
-4.36647789459524
-4.08570916022498
-3.69591130760177
-3.3005259955957
-2.90196556492212
-2.41671760871405
-1.81037140356755
-1.14162386552409
-0.463457161884584
0.215255035341715
0.888668957149076
1.57891812738241
2.34027389965685
3.13324467828184
3.76271282307786
4.00295824065501
3.72945158182431
2.97794316351923
1.99008897374416
1.11725375948749
0.548731653001957
0.208616711672437
-0.041307734635889
-0.257708004677949
-0.480747797595339
-0.716549333992861
-0.830189782916079
-0.651039206201443
-0.175386028772927
0.462532207212208
1.10617804666894
1.55443780623445
1.62888419019719
1.40232484138866
1.17685032926186
1.14576669389706
1.23706433402481
1.30045389377638
1.27636527045662
1.18818223016327
1.10701486678183
1.10778377399521
1.1851263984385
1.26324026656412
1.30917443252956
1.33250945966973
1.28102869185548
1.09031168752251
0.821539626295342
0.58345329841523
0.353482008984736
0.025210186359516
-0.440858208695364
-1.02062917475522
-1.65337102317547
-2.20175843604919
-2.54649462373566
-2.74040888413133
-2.90689193149926
-3.02973124823193
-3.00929096944999
-2.84744052534868
-2.63293111944574
-2.4331740420778
-2.2820521112094
-2.16664202249338
-2.00586747058184
-1.74931693604195
-1.44236330828919
-1.09278855750405
-0.605550244365471
0.040399291619148
0.709098629787676
1.28629591241264
1.79041952019463
2.27948267458633
2.77732122080171
3.24584057855056
3.52585431208558
3.42753095975494
2.98851671956774
2.50192562019729
2.20350886357896
2.08085752819414
2.03157013736456
2.0056863328155
1.92645618125829
1.66398198141756
1.1653370453447
0.498635716035339
-0.214927622030687
-0.822528263739937
-1.20524032716547
-1.42651792124622
-1.67524598223812
-1.99120516865707
-2.21064465837252
-2.21311353160346
-2.05717795131042
-1.88392095718556
-1.81982646810616
-1.90283033074016
-1.99591685880268
-1.88237146712027
-1.50901611764241
-1.00137636534995
-0.445493598718328
0.161873464120967
0.779151944934841
1.32139015982435
1.74633824041688
2.01326966866744
2.06460075261806
1.93473925904827
1.7366200784776
1.5042283293846
1.20825012032661
0.923398407920615
0.8106511226715
0.925369326258813
1.13963080059363
1.22362930105495
0.963699599059389
0.296109942211626
-0.619829680076219
-1.53869036656078
-2.34327240241652
-3.03499113355003
-3.57997213794689
-3.92056904752473
-4.07470824009397
-4.07379906777191
-3.87642654526064
-3.44770407331397
-2.82662426497771
-2.06778722879635
-1.22303843432479
-0.359979592253491
0.497052271305201
1.34803383474575
2.06855121201937
2.45603590892428
2.48802250591114
2.33083390737974
2.07517087122095
1.70043362627818
1.27718033632913
0.937642374628012
0.665462433481056
0.339672781613039
-0.0536334865914295
-0.414625843961875
-0.664267963021271
-0.791755940168472
-0.847370007186164
-0.897566092105064
-0.894522018540051
-0.652757994327408
-0.0649522699442035
0.755015276242688
1.64474773963856
2.57379356467329
3.52729099841677
4.3370338328952
4.7750483406687
4.75932154395168
4.40480625089252
3.94020935295632
3.56736831566771
3.28976660543134
2.90414111897707
2.2532932914294
1.41689118000864
0.601997743279222
-0.0218562018802341
-0.361415088869782
-0.453884800654984
-0.489410251756175
-0.626824559561558
-0.836696831054705
-1.04255178791056
-1.28186063762322
-1.6045275185413
-1.9683895438357
-2.33212596763739
-2.70905614827735
-3.10619316683152
-3.547284233038
-4.08594457239641
-4.63509717606781
-4.90739333269886
-4.69984230566125
-4.12172873563602
-3.43360265931159
-2.80815351838725
-2.31255258914487
-1.96494848221241
-1.74577113531736
-1.63329119096411
-1.61617166715897
-1.64014627467889
-1.63343507797561
-1.60883537102915
-1.6074966978293
-1.52490297293726
-1.16048598406198
-0.463347658552552
0.434031016030522
1.40667530690203
2.37191367722847
3.17305983115057
3.62605231303875
3.67098984796099
3.39178979155878
2.97294023108925
2.66014286911821
2.60616737704628
2.73631226379524
2.8859926478197
3.00453759614806
3.10621092209648
3.15586959763489
3.13699083247338
3.09928557961599
3.04602396253191
2.89860014980077
2.60038095951478
2.14714263749742
1.56646334112055
0.964543750358107
0.478894486525787
0.107572839233808
-0.270048063933037
-0.68405051314179
-1.06506552583068
-1.41352906676063
-1.77883865569889
-2.12227200408392
-2.37826844707915
-2.57725795612674
-2.76159108592451
-2.87122217649272
-2.83518498551988
-2.69289020577008
-2.54668996365135
-2.47899559321877
-2.54033015897052
-2.70550481127684
-2.83111035698344
-2.74300981198322
-2.32519983046397
-1.4899476454193
-0.23203239205346
1.19513605358017
2.33040639900018
2.82839604970135
2.64343511870976
1.94761180012525
1.02749729085888
0.188772405443177
-0.409780915712235
-0.806754466322635
-1.09466488199942
-1.33970781695609
-1.61399149756803
-1.90462833870687
-1.9963039912335
-1.63551674085853
-0.816738750085887
0.193781972162992
1.05486279932635
1.54077336593525
1.68463155802494
1.75103793674836
1.93041118058487
2.12980531680397
2.2147100184431
2.29820308283343
2.57524070705734
3.00147159327518
3.3255158569511
3.33586802415901
2.96885902419784
2.32272438154538
1.66103344326641
1.25101215174126
1.12382981117678
1.10629660088739
1.05762682526539
0.927476934500973
0.679889659926741
0.340859710747942
0.0069604984138165
-0.330350123812029
-0.808721700243956
-1.44094613954798
-2.0099186332894
-2.27572754994123
-2.13924312618293
-1.62168736511193
-0.850809014263282
-0.0593823500632889
0.499869332109537
0.636809897117871
0.273168433899652
-0.483119849509709
-1.38794001225305
-2.29872850422297
-3.23828446256447
-4.14041299092005
-4.75662210361076
-4.93711541061158
-4.79134198879326
-4.493290249921
-4.13485627013382
-3.78884403458407
-3.5136501808753
-3.29522219940944
-3.10224625749122
-2.91742691848066
-2.63620681906769
-2.07810242059961
-1.17559800033513
-0.0200511537630328
1.28972672154816
2.66633696923331
3.91432677923892
4.80591013623364
5.28397518200415
5.43308710819648
5.30969777158324
4.94952021353378
4.45195720828599
3.9431243290596
3.53923245299894
3.34491871664051
3.33525815210288
3.2826604272135
2.97115183682628
2.42417823545135
1.80753394269885
1.24034584320286
0.799532686731832
0.540121139796719
0.414052553121106
0.293159389408878
0.0863109741666973
-0.262532020184283
-0.790641749087119
-1.40118772301612
-1.86598886813908
-2.05571721817969
-2.03717053234077
-1.92360190837147
-1.8077203453588
-1.80434435300014
-1.94541822473047
-2.07716303201502
-2.03300330817612
-1.82791307158479
-1.55817517913979
-1.24733885049403
-0.918265561841552
-0.677220411325546
-0.612249618650203
-0.718928644875223
-0.968105831374334
-1.31231874814039
-1.62879333301378
-1.79991260264097
-1.80914920012189
-1.64636051181692
-1.23696284031135
-0.582100341407408
0.161291873325868
0.820066386069774
1.31217714419769
1.61890078895404
1.77185814423399
1.82657052984202
1.77674082870134
1.6001855269043
1.41473693682618
1.40779469562491
1.58017188748141
1.73221223842863
1.70121301710797
1.47750641708026
1.16198620966645
0.924856000456116
0.878907340793992
0.920639370553977
0.866312607111994
0.754441308729086
0.794081146572103
1.03759290690373
1.33378363242418
1.56068122179165
1.69793502923209
1.71753889398453
1.55978229696014
1.18130038956492
0.577721032419535
-0.140028673894606
-0.696751294839896
-0.864130538033916
-0.735133406070508
-0.605350280600092
-0.607333654160527
-0.657423030401284
-0.690122575334702
-0.72988012529998
-0.810455157825387
-0.99189350254589
-1.35598432151495
-1.88176248911669
-2.44865856491337
-3.00430760349451
-3.6000680961664
-4.26219649447191
-4.92722236702484
-5.46132488701083
-5.68950412848544
-5.48471559999055
-4.85026025221527
-3.8629243437001
-2.6198079562182
-1.3182478078776
-0.22662643622803
0.546802437512955
1.11435770239612
1.59057559707053
2.01124152236985
2.49372846596439
3.25366489980291
4.39752669502937
5.77744412815705
6.98610783318493
7.47830553112744
6.92652447724117
5.56884291697984
4.01509552254086
2.63136206828257
1.30243376043902
-0.176458213551341
-1.72220624891658
-3.03842025766519
-3.86058264730258
-4.09616288461913
-3.89911033854144
-3.60659009187227
-3.46617760060158
-3.43596292285948
-3.28398578439683
-2.81169781459436
-2.03828387520947
-1.3096379112521
-1.1158813663354
-1.60515391590797
-2.37805552353777
-2.90594652651632
-2.99699175694094
-2.74580710104449
-2.25902007680011
-1.58089737651567
-0.701532174215311
0.486544335077623
2.12016564429432
4.18137330062732
6.39373117421234
8.26071343126524
9.27632448988275
9.29289550948414
8.66102564642861
7.83840742087823
6.94920687146249
5.89205119232545
4.69387938501745
3.49685285304756
2.30694498005221
0.979531114385277
-0.577079742400412
-2.26874388804398
-3.80575678735209
-4.79302044932857
-4.95671534456684
-4.33565922665314
-3.1905240040043
-1.77422276771818
-0.267242439695533
1.18584369425291
2.48618551143573
3.49784039251828
3.91619979485188
3.45544715067506
2.26441019387777
0.956020152597379
0.117575681972207
-0.129070616012055
-0.10191423170349
-0.190549640348634
-0.508501794147687
-0.910357447888174
-1.34851977297711
-2.01510103819226
-2.97166720076464
-3.86976537264639
-4.3084979526159
-4.30098784047264
-4.14701109435856
-4.01793361642276
-3.90253037801539
-3.84338584369096
-4.0431475181706
-4.74582761467479
-6.00814005070701
-7.53895124761764
-8.82897305360471
-9.4664941485395
-9.21932225900501
-7.86924041794698
-5.2661838986714
-1.66708341482402
2.15959224753078
5.27066219121195
6.93881716823254
6.85035745220122
5.21022309739847
2.67511587017766
-0.0082507228296569
-2.32661029478788
-3.97135173364376
-4.73261801034124
-4.5759022057244
-3.66777849778158
-2.24162916568812
-0.532298320310087
1.23976103763265
2.98433401657729
4.73055593944837
6.36804182496035
7.57364273834758
8.13197164245236
8.16482767422845
7.95231964698715
7.66225126039564
7.26372436965235
6.58112235803822
5.48843537971131
4.14579028069337
2.92307004673963
2.0214587532112
1.32904507857351
0.676629415044889
0.0509895313833331
-0.44334736537103
-0.652561228444537
-0.420059655827544
0.28519314615173
1.2877825276316
2.30194470586126
3.05540326070781
3.33294761423252
3.04286728848161
2.28817504742332
1.28900767257339
0.24384053173637
-0.674997558100218
-1.31306630005995
-1.66980804211427
-1.94484472490249
-2.33000351304104
-2.8514321594618
-3.44549995232686
-4.02070791217222
-4.42848131742151
-4.53740498164529
-4.33010223830852
-3.84327222492971
-3.13321823388903
-2.37395096657774
-1.7889721205241
-1.38678195036661
-0.955461372669217
-0.396276006845099
0.10182900540189
0.259134458114756
-0.0366162555517164
-0.643474501286602
-1.25595061395815
-1.62733319611022
-1.70266748335691
-1.47375618690303
-0.850003639520519
0.146104725808405
1.21557473982504
2.03692429033718
2.5523823991972
2.83502200330802
2.84518401629805
2.49755765266286
1.83218041050145
0.983423751130366
0.104887552628253
-0.586826979533175
-0.846723305579255
-0.59766899852371
-0.0326022843075797
0.491768054763565
0.624944153443799
0.20144534491685
-0.636145681819915
-1.58088688539543
-2.46933288884501
-3.3214847236513
-4.11398240941287
-4.7250946162053
-5.09636218086954
-5.27524687395596
-5.30814819685159
-5.17927272495155
-4.80715484584412
-4.09469785291138
-3.06778036223491
-1.89866879030481
-0.69076110755745
0.60642871812887
1.93389768692127
2.992249224255
3.5573832126781
3.72984694084982
3.71193714182308
3.52060882222987
3.05586932467019
2.33607546158043
1.59487290033333
1.16830324095815
1.21987808782889
1.55220347821005
1.80455305040475
1.84109369185744
1.81169127361811
1.8732679517997
2.03432672726557
2.23106870110256
2.35595704482119
2.25647750404933
1.90697609616207
1.52377328821722
1.33051831966666
1.30473566535278
1.31024240896279
1.3384495516707
1.46661479720798
1.69449163424685
1.9135222628512
1.96187640397204
1.73111259315969
1.30295353680615
0.907945131846633
0.696588652693099
0.661971735007395
0.773415786518243
0.999885700686651
1.21438768045159
1.26315553903349
1.11583367738581
0.830462488810014
0.459650256812975
0.0891864619779588
-0.148822677291266
-0.162829487793294
0.0926692221940036
0.630186136910413
1.28303547901125
1.65991921406015
1.46476171150365
0.802476097281128
0.0307776003459373
-0.605953856370325
-1.11963804274978
-1.68750045992436
-2.49290090570971
-3.54541340999636
-4.61647485602836
-5.43673217157225
-5.93280477191253
-6.18663213276433
-6.25720116316811
-6.15136056522754
-5.85338170153639
-5.30189460266937
-4.47711359316191
-3.5259110753207
-2.61769431244703
-1.71546211789277
-0.704332201162567
0.318841080563415
1.09301165776456
1.45877940916496
1.43266960149932
1.12826644099972
0.716082445803107
0.359329067347461
0.132410568181165
0.0614365581616736
0.177367250103746
0.435391124081891
0.693717111092796
0.85585385128007
0.909609662234994
0.829441477216077
0.650607697333266
0.625236917842601
1.06680401457402
2.01875705185592
3.19701122319185
4.1782279316519
4.56015104926242
4.11257572602553
2.93269408694771
1.38932517987392
-0.126822079354003
-1.33551697449591
-2.04502031129394
-2.20302243607538
-1.95023231249809
-1.46212691867129
-0.78338671344067
0.0590815318307223
0.891201178423084
1.46725706160503
1.61462095252798
1.27975613646574
0.595897472417028
-0.0979172703140553
-0.475215310794563
-0.442211894365117
-0.0668777239676582
0.549845632571006
1.22120808627464
1.68887338066999
1.83357385669475
1.76482482320775
1.67226676110603
1.68694782579076
1.81884627868066
1.90780713090857
1.73288983719904
1.25496940496531
0.639858631231922
0.0565794647255336
-0.374457435818647
-0.521076808074111
-0.36859829007558
-0.134791063229372
-0.0576151603194484
-0.162448526049716
-0.366356109935364
-0.655017666838014
-1.02868484149338
-1.41405518500622
-1.72205682654674
-1.8780754777313
-1.78015131059335
-1.38368971388172
-0.826625554607638
-0.309565495164312
0.122491007752594
0.539788227159179
0.960660531641844
1.38649488376104
1.91462040893899
2.66705786911455
3.62681875426709
4.56708706749705
5.11797462207167
4.98825386679353
4.19401518561969
2.99863308734842
1.64676951085545
0.294408221439339
-0.895394548065623
-1.83683043331091
-2.64095659846016
-3.42117800831367
-4.05581468411216
-4.32704930017333
-4.17507044975044
-3.68893625590289
-3.03967630342466
-2.54073136392169
-2.56884732354162
-3.30136353923659
-4.61884020632227
-6.22667648526602
-7.76089753862662
-8.87983686549732
-9.38808360540745
-9.21781873157439
-8.29672227368027
-6.60668640204627
-4.37525892560451
-1.99338769679256
0.299861553008578
2.47624132681206
4.45915217370114
5.99675960751177
6.82386968414545
6.84250355228575
6.17445400154456
5.10258559355456
3.8991025645766
2.71226062358158
1.68640714786648
1.05157239677795
0.92486561167416
1.17075553077049
1.61978966640385
2.24677946336521
2.99079297678275
3.59953359358746
3.78932246430968
3.43264874653633
2.59311254662469
1.55100740654545
0.736336125968088
0.438454095212824
0.616563569556765
1.06605281099028
1.61365119475664
2.09900724159191
2.38701624656768
2.47035840069203
2.40409648229878
2.16485214317137
1.73205249138262
1.23337906414325
0.850858004123882
0.639065631692378
0.524700738586033
0.40651246117051
0.204476874784264
-0.10142123240178
-0.450889987995096
-0.782951080142636
-1.09754959431626
-1.36643211321257
-1.47812677120469
-1.36035242084165
-1.03847708410382
-0.517727002628692
0.223824556378849
1.08525350891842
1.85926388116125
2.40389895372975
2.66120615653507
2.58368363023231
2.18882343639011
1.59436233278961
0.900929905987612
0.143452802183615
-0.629824175476895
-1.38869067173563
-2.20941655286228
-3.16707801192802
-4.18884093869398
-5.13714626009119
-5.93239692491715
-6.51411557840238
-6.84932481107416
-7.03469284895093
-7.20467037832199
-7.32797455026675
-7.27381042535322
-7.02508404104806
-6.63885140880395
-6.07235822890588
-5.21163031305975
-3.98958774640078
-2.37282775122933
-0.371748890016952
1.80762689553308
3.73420353755031
5.00295003192538
5.50117810220547
5.44390453392716
5.22167936013366
5.15675343578633
5.30470497826799
5.52370370756689
5.72000709458639
5.87322369576512
5.85648704044845
5.46957983942516
4.67054092186375
3.61114942392623
2.48499552604105
1.46484269912282
0.685524558187794
0.170973156310762
-0.132944333674876
-0.223135134505756
-0.0566653577849283
0.321016571377077
0.789183001283265
1.22079886169085
1.43927547865025
1.24903491357956
0.624735042213583
-0.246963638528666
-1.13982836483384
-1.85971560602495
-2.20789333006231
-2.08890582293301
-1.63261320292466
-1.07866706843392
-0.606844543404301
-0.332361260967251
-0.312083566643181
-0.481735056229475
-0.711822385923258
-0.948023742314413
-1.18929683161421
-1.39227092213749
-1.55641239928589
-1.80717885581656
-2.19759129559106
-2.53559941549916
-2.61156243137831
-2.47314756930616
-2.2862656751289
-2.05974875360591
-1.67687304147049
-1.09905218873122
-0.442181584409108
0.0841684190046838
0.315223682514118
0.268737676184671
0.104652506776973
-0.0397445980466386
-0.0598316015762944
0.194805601918802
0.789638755498835
1.52852944535878
2.09332519075176
2.31410524235265
2.20094740327591
1.86310086845816
1.51441408417397
1.39002211981142
1.54726333673235
1.84920651901255
2.13869703260451
2.33076354152442
2.42059383411225
2.49975502334885
2.65278486754567
2.78454743905921
2.68811148625218
2.28785655252385
1.6530317511454
0.815305621261173
-0.202290633508579
-1.18978064736302
-1.81721956946252
-1.94383388678902
-1.73624701243345
-1.50217394966101
-1.48688832958435
-1.74347731388672
-2.13375341139889
-2.53087779957359
-2.97269130667666
-3.48074939605366
-3.85066278761902
-3.81987296040971
-3.33540543753272
-2.51472622381573
-1.50644363133884
-0.518451370916932
0.192061588591609
0.487783320796997
0.434289754831773
0.221672960791461
0.078761745957758
0.160464593749316
0.417267206032423
0.682202721834827
0.906875690594958
1.1369436928729
1.29027871166095
1.20888066404605
0.909019170237493
0.562537538552785
0.291798009910197
0.167144066677312
0.296355207095895
0.72421951557897
1.31402816538556
1.8492949727683
2.18804667904673
2.26975963698847
2.07084648510344
1.5968517172125
0.859036142058963
-0.109136152135373
-1.15387226993766
-2.0303105550716
-2.61594736868068
-2.96444310728089
-3.1057118953909
-2.98539302390289
-2.62978573503527
-2.16118309680357
-1.64426079093642
-1.09685641859503
-0.609795208154141
-0.308861335713856
-0.258823182193731
-0.460461885941951
-0.822036138020596
-1.14279134781039
-1.29215140246322
-1.3558202007624
-1.42583142020382
-1.33921357538438
-0.819777880794134
0.19344964568231
1.47982137198487
2.70238413975619
3.58903073055117
4.07214938995832
4.27589836746811
4.31435375431278
4.19279286830644
3.95574021836037
3.76201091990115
3.7289154269422
3.84059488146675
4.036903338558
4.24159487886517
4.31560543354204
4.15723591705288
3.83578265302801
3.47984601845999
3.09353510400581
2.62203353267991
2.09106717896209
1.54440081387757
0.964782682903402
0.335891301009843
-0.37165528106177
-1.28416297606261
-2.49712477053939
-3.88545714567346
-5.21206289994793
-6.34115736192947
-7.19647192065041
-7.64118990126697
-7.54856932905213
-6.92059225668547
-5.91924077800542
-4.86837840561433
-4.13269990790346
-3.85586367231725
-3.91669685765382
-4.200727018774
-4.7026097179088
-5.29919122481943
-5.67657290169576
-5.55774782085428
-4.82149698317516
-3.4420666973044
-1.52689182639642
0.632579913122537
2.68229655668401
4.29236890696956
5.12343274063812
4.97834996290885
4.09608830243663
3.07885360457354
2.42344569814932
2.24750434727513
2.42913088444256
2.77778599619914
3.07517244414936
3.18661331231774
3.1779673765916
3.21071903047728
3.36010732087043
3.5893725747838
3.79098988713191
3.82272659930839
3.62109535902379
3.26289537807284
2.82968322805661
2.3128066000229
1.72539697106028
1.14493097345441
0.578676245239972
-0.0270051898645697
-0.595538735948894
-0.919500202132729
-0.88561818221336
-0.586138387061099
-0.243532875581411
-0.0896573394613328
-0.196776230206242
-0.371735298367707
-0.358268083481921
-0.14275012266309
0.0919038644819744
0.218422187071578
0.160602952992802
-0.229331495731895
-1.01800761499001
-1.96736950194757
-2.65879445726185
-2.83725066560349
-2.58227625243107
-2.21316497772892
-2.04830939647512
-2.16633157042613
-2.38807737456624
-2.52673449543192
-2.55506760546312
-2.45637660908741
-2.10100372328847
-1.43890596433595
-0.66475745758641
-0.0308459240270366
0.406757941071905
0.784808910203291
1.27347541156394
1.9230546543689
2.5883282008334
3.05085954382205
3.2355112752467
3.18573080985658
2.8666563447706
2.21263830521136
1.34031067692188
0.484114240312591
-0.239602052138557
-0.811939373110266
-1.16026555034934
-1.2258016886034
-1.0776508052167
-0.811960871120574
-0.444839343371089
0.0137597363866138
0.485490722595756
0.849246794057543
0.988410576263293
0.887070604388346
0.711223139403218
0.64777405798883
0.640980906303319
0.461810948180218
0.0327434439564193
-0.504978288707102
-1.01410038252535
-1.45285751821819
-1.79129369789485
-2.02067663530669
-2.18251103781809
-2.2592313229777
-2.17615876326671
-2.01544488163393
-2.01167021127608
-2.23034987595545
-2.48379512531766
-2.63173990018962
-2.72091148354726
-2.78449399503545
-2.71739812537936
-2.38228609816436
-1.73057350437356
-0.864825773261247
-0.0252957882151878
0.597082821367391
1.04813902842966
1.49201905298837
1.94811032257582
2.27941558548216
2.37394615119973
2.22131524429933
1.89485825884721
1.53715977087726
1.2805598173665
1.16826897717021
1.22161554542556
1.49425497565416
1.95153979952031
2.40644922487069
2.66445396242474
2.63058829101622
2.28071071800442
1.70278921930216
1.15020250367164
0.856455193988552
0.800753612737393
0.812863820707183
0.854627000926838
1.02784069961052
1.36721818896903
1.78198720714385
2.14025560405049
2.32002157779644
2.27736378675764
2.09847242816333
1.8660091264367
1.52624923425276
1.03412648728285
0.501820384636396
0.0333142673171911
-0.425764194081858
-0.91572347440315
-1.31658450430209
-1.49479499596903
-1.42905672244366
-1.1272709798073
-0.570438372994736
0.24388183238202
1.29339462279835
2.48861397960564
3.56659635470991
4.15757921897278
4.01051838526532
3.05181195428051
1.31988406917174
-0.947301563658509
-3.27554216793308
-5.2469132380232
-6.75085437444428
-7.8207119531266
-8.41722299529843
-8.53171196131593
-8.31837754392053
-7.9718415578115
-7.59657332285717
-7.26011587615471
-7.0231806857906
-6.85338024466981
-6.61451850566385
-6.15946650639674
-5.38124655257009
-4.24908483336773
-2.85756645033619
-1.35096126407415
0.191117219889489
1.65548262667353
2.77721663572756
3.34856453117968
3.48051209133485
3.48588522307808
3.63525908834516
4.17295293775846
5.35654655351697
7.23567493103026
9.44707930218877
11.3308540810625
12.2513283697626
11.9060496529947
10.4657920943034
8.40060489589808
6.15745972165173
4.08838437091391
2.56265935213189
1.83041907666358
1.74858242449373
1.87550756319288
1.85286021281381
1.5761400607895
1.10470603839525
0.547572764534839
-0.0598558114781407
-0.826040266946151
-1.83370324791224
-2.92968053489163
-3.86082354434208
-4.56647353782191
-5.1419829538221
-5.60123969026427
-5.90599917209299
-6.13382066344293
-6.36099795491706
-6.44869457848468
-6.1670516877452
-5.480151646657
-4.56735849782556
-3.6256848070092
-2.72051359637566
-1.77994712042649
-0.74512259081792
0.256004726281002
0.984223907772816
1.33958835139388
1.39397460387394
1.22960070522301
0.95033924077981
0.776682323366234
0.886990950465274
1.20625131597151
1.51547632859353
1.67662151967114
1.63644523924637
1.36273164472874
0.895736645939178
0.354291891282807
-0.138777185134787
-0.447016061640371
-0.422250633945717
-0.0573961666105446
0.458737366349334
0.963190753403544
1.50024069407515
2.19803497475976
3.04977704293994
3.86114316546844
4.36960390237736
4.45729178728027
4.29841789333027
4.19481967282755
4.20051422126018
4.05263161847622
3.52232146686297
2.61193682195677
1.3571667401544
-0.242216831855466
-1.96253303760056
-3.32725125052266
-4.01346633606568
-4.12345373911486
-3.99202514935401
-3.87074153058335
-3.82701653251943
-3.84760200151394
-3.97595736463378
-4.27385832381696
-4.61348438826577
-4.67117808989581
-4.26474539576703
-3.5449701114062
-2.725608429738
-1.81536068039715
-0.751554586229588
0.395895306112363
1.46859440312157
2.30194905901443
2.72619001808379
2.65411641446638
2.16969310321248
1.42559259146672
0.539535849851317
-0.344468803754118
-1.07116009773771
-1.63047010862814
-2.10972378956371
-2.42903607599824
-2.33439228692503
-1.73893441500648
-0.901133922945609
-0.1874817446743
0.226923918183292
0.401049846035674
0.481111597929996
0.539875366847775
0.55527100381201
0.58130591052188
0.838848576060141
1.47843800504818
2.35735622942544
3.23323271832841
4.04688315807574
4.84319558867275
5.58222976143435
6.19255415697762
6.64789530794841
6.86631254449143
6.66275739341261
5.85481204869222
4.34895819555018
2.22424359434316
-0.156874016192098
-2.28389022439196
-3.88431371482688
-5.03465752824395
-5.84398538329652
-6.24695165569907
-6.14980910480666
-5.57018362247333
-4.62622613923942
-3.55534116214364
-2.67765016293228
-2.16624100430762
-1.89388304420803
-1.58948780378004
-1.08269857589269
-0.398000339500556
0.269217336666353
0.691853491461704
0.863078892816037
1.06833511670097
1.57706112830819
2.33203413105763
3.04806625870733
3.48928353490438
3.54360566272231
3.19357573157174
2.55158739063923
1.81834942225349
1.12988463633067
0.484988863869693
-0.221429544179847
-1.13433542650674
-2.3022939499135
-3.58109090388186
-4.79193575408249
-5.91700252814197
-6.95045998257221
-7.63107848874157
-7.5316916945671
-6.36791709668511
-4.1283642495817
-1.07562915449638
2.26883264590637
5.33111341917492
7.77268708964864
9.4558442040789
10.2209838319875
9.96556636985278
8.89972705002843
7.48994110610665
6.15504703024153
5.09208929419228
4.25919659791331
3.42583710354811
2.3741565133212
1.15422110477786
0.0806704761702306
-0.533522059516069
-0.58979896645347
-0.250097128559727
0.0853608172050001
-0.0667416479625259
-0.948009989836683
-2.37923830069685
-3.96324603155358
-5.4181410723908
-6.72488587169063
-8.04171502708789
-9.41034532754955
-10.4683461415641
-10.6362196897015
-9.73471035099545
-8.2329919326822
-6.77497137479895
-5.66815872530725
-4.90062446025325
-4.38720739767028
-4.0632248864264
-3.8849746396205
-3.81043526073208
-3.74493005439109
-3.57887746755085
-3.31218760139123
-3.01835819020794
-2.68072557179353
-2.19160019250551
-1.4479591648553
-0.321430994086769
1.3159310837797
3.38957236878578
5.61940606425037
7.81623740487744
9.95239700380535
11.8579939638808
13.1199705635687
13.4181624247981
12.7866692230238
11.4870503078245
9.79829061076295
7.96205340296385
6.16563184630066
4.5254068862867
3.14027912433706
2.10934588701516
1.47686931046573
1.28136604238247
1.63698733162646
2.57285735003265
3.80224767025756
4.8214754606672
5.2229183721072
4.87150292420519
3.95376076762198
2.93243115869837
2.24904823141418
1.97803545293543
1.87668263179119
1.69365801030021
1.25344739925342
0.381665049295076
-0.992770668419788
-2.69889849737081
-4.40468162231903
-5.77500214533703
-6.58716242210715
-6.89229398928902
-7.04462886207456
-7.38220527805603
-7.91449427195656
-8.43313252498128
-8.7920117059462
-8.96052727629149
-8.94220276329167
-8.73282676634112
-8.27070768056159
-7.44840081354474
-6.29549746412324
-5.09133571850302
-4.1583645505425
-3.59322943673877
-3.27035330826426
-2.96457319372251
-2.38510132530526
-1.31025183054177
0.137369225189931
1.48137169008748
2.2572063379131
2.31634087572924
1.83919463144159
1.21171791484186
0.808092594774678
0.728826922113951
0.782568717607171
0.73158029516364
0.439374118027835
-0.127719520565822
-0.811273769792906
-1.2470561538413
-1.15797397415701
-0.585731245797387
0.277464251867139
1.28735194309499
2.27614461446104
3.05179698144622
3.60225094249002
4.09365336629476
4.61654127819731
5.11326744265699
5.5109150788196
5.73566931543633
5.65794487217225
5.17373411022475
4.30824217658938
3.22901721673722
2.25137999198929
1.75379359524186
1.88643530871525
2.38331872512907
2.82309421398154
3.04039290060967
3.1637477160773
3.34462605132247
3.57682462599654
3.68861701362302
3.44437390141753
2.79104423469199
2.03699303614062
1.62982121401899
1.73793859874554
2.14136993313142
2.45361471456485
2.36953926298502
1.83471939013764
1.06413558419898
0.313293174047134
-0.332430870744839
-0.841540293259341
-1.08658971871628
-1.03541975908191
-0.957652824087218
-1.23648535899062
-2.07940010734627
-3.4975944420695
-5.35634214276165
-7.33423646182175
-9.02837271943522
-10.2088453114105
-10.8845755234816
-11.1449689415273
-11.0274151757619
-10.4704242041906
-9.33823642856122
-7.59427912476855
-5.48931792510756
-3.47608388777158
-1.89220953817549
-0.725820401681453
0.385602317262827
1.92745693113557
4.09529676694965
6.5120065024171
8.48679496776709
9.59358067412658
9.84767539580229
9.39142310638063
8.31517111063409
6.77291299418843
4.95976462542627
2.96916893343022
0.911012594016712
-0.903314853066796
-2.13484778238378
-2.7160962722609
-2.83413879971953
-2.73373613871962
-2.64241900211286
-2.74147190455958
-3.06931852893625
-3.4707262318266
-3.65902540796346
-3.35117940363005
-2.44385857843073
-1.09493580439503
0.411704946241612
1.8275790909593
2.93708004602204
3.59130870812337
3.86970593161449
4.00835647195712
4.0428438737893
3.7254308894915
2.88691333892343
1.67068531967563
0.359462287178982
-0.807760292425192
-1.62230571872488
-1.95450376222593
-1.89491803052623
-1.70497485073199
-1.59815580500972
-1.63891629829356
-1.7762854341823
-1.88111565627033
-1.85130847206565
-1.75253434117668
-1.75363729711737
-1.92753451038685
-2.23084907320753
-2.57537914818894
-2.75251572920648
-2.43323537942379
-1.44865039915122
0.008427258905964
1.54154328043842
2.80175781358306
3.61907889040631
4.08164339772731
4.44957031173386
4.8270129127048
5.01140913567161
4.8026666129555
4.30597466306258
3.78831680132202
3.38432935044987
3.04146199694979
2.62489667614373
2.03646461813618
1.3267109368395
0.674305284642522
0.220515277526913
-0.0004929067090056
-0.0152550453968902
0.0393341942238315
-0.104768820938826
-0.601673964835535
-1.29210353648653
-1.95129466579148
-2.64244516283954
-3.59922121983755
-4.81466562597046
-5.92796627245899
-6.47952403373791
-6.20267171684419
-5.2019834218908
-3.941903840365
-2.93808663163203
-2.38980514659863
-2.15515903406244
-1.99726025611496
-1.76663979663044
-1.47675722731608
-1.28034833451882
-1.23544122701659
-1.10565089631557
-0.585773770338232
0.324185627869533
1.37128361329577
2.38148410772437
3.33929713790742
4.23911111843878
5.02105506961131
5.58742637271608
5.86236226631104
5.95368078589622
6.1511961894416
6.54343642097214
6.75884189002969
6.31546894443361
5.08119179699355
3.22056457197833
0.948395297469721
-1.41566391106383
-3.35412676145463
-4.37913422133872
-4.3328227422576
-3.43774421084023
-2.16102409196725
-0.999904208817094
-0.230985320335608
0.13861563429634
0.0857235309953514
-0.659235513754958
-2.39774792439004
-5.04484753669464
-7.96478912145182
-10.1756092612337
-10.8345695186655
-9.75197684684466
-7.4401263885102
-4.60121660522919
-1.7029044008476
0.952605374068953
3.10960060504512
4.70845674141345
5.91458272446385
6.82770753767335
7.30251438451374
7.13559652388991
6.3402156974562
5.22648599807245
4.22641069974991
3.54986443532235
3.01432918930388
2.3239925143977
1.43854915219697
0.518006094207387
-0.341984606758514
-1.10703363083427
-1.69784713671043
-2.1197342404883
-2.58654783058557
-3.33607425739169
-4.37929984577719
-5.49492725963542
-6.3938110826461
-6.89513034784711
-7.06692058630218
-7.21343099157968
-7.63625446929013
-8.37470265174479
-9.14196675190301
-9.40697334003112
-8.59122641058289
-6.44818680422921
-3.32794804685056
0.113527012993769
3.46320582110714
6.62045332707017
9.42771661156899
11.546970623625
12.7204135665431
12.9657992639959
12.5121889810358
11.6332996098041
10.5229910205506
9.30420596909471
8.1157915273091
7.0361918094563
5.89799468572003
4.4243620997997
2.65808668955856
1.0310091867101
-0.0953540419260539
-0.762006595200264
-1.24088557269912
-1.73322461879853
-2.26863422967613
-2.74876104350287
-3.07142417055912
-3.24657221448275
-3.32118125724755
-3.23564737497367
-2.9290762874085
-2.53980850182465
-2.28611225069661
-2.16167800925249
-1.90958952030248
-1.24321905748352
0.029674381578998
1.94842641042447
4.25566367155548
6.42759447758187
8.05745108705595
9.14346305802509
9.865672489667
10.1601293604486
9.61477330129113
7.77248668504261
4.57882310905687
0.581912995876264
-3.39377278126568
-6.80964246713828
-9.58060833186303
-11.7893491949516
-13.4549472086418
-14.536682697946
-14.9839870408348
-14.8543393498669
-14.4910389914943
-14.4065408598009
-14.8533251103334
-15.6583981703508
-16.4820218820096
-16.9469594189421
-16.489805958247
-14.4742854798233
-10.6804114871973
-5.58187463182574
-0.0902504079804854
4.94905316340476
9.13851995829987
12.570476031243
15.500523665928
17.961565753827
19.6942365624934
20.3564723692786
19.7383502619083
17.9170876067173
15.3382782194961
12.6247204049771
10.140737140167
7.78782656014708
5.27759556365085
2.49608228150223
-0.403415650918012
-3.09969969965586
-5.2926934057518
-6.92486553603152
-8.15617358005859
-9.04802402977576
-9.45381224958584
-9.30705909060059
-8.78104754837094
-8.06537275450478
-7.20251177278704
-6.19417181201763
-5.04254083727491
-3.6328696911873
-1.73431547813163
0.84576230593571
4.13585538111398
7.92519045255911
11.7489165009712
15.0096071140503
17.1159956457797
17.5252552042775
15.8911085879189
12.373008352007
7.7076494627904
2.86586804828293
-1.33565619123971
-4.42088304558949
-6.3395847062257
-7.40141685715062
-7.95940694132806
-8.16122649503473
-8.09250171769097
-8.01446003256243
-8.25220570479978
-8.89289643891324
-9.6869133161549
-10.1161714738626
-9.48818174366619
-7.22056460915021
-3.29792042037976
1.5467311472167
6.13762150422797
9.36689163475592
10.6397417833513
10.1081163921852
8.5119275429055
6.71690852295027
5.34166497709651
4.60627219706672
4.29723155219512
3.99329917904853
3.56330991459306
3.33869148514429
3.62923035962617
4.25839565960197
4.747430043302
4.73901778390069
4.07495114003216
2.68212158650153
0.593549236538578
-1.96253869559777
-4.53481503157454
-6.54079093219236
-7.57609601988016
-7.73988701182881
-7.52228320607536
-7.32826226716755
-7.25382404622517
-7.31523856063913
-7.70173127344066
-8.7089601234702
-10.410599066854
-12.3372675493938
-13.5430491289241
-13.214688930922
-11.2968583123114
-8.43277289174367
-5.40230990362687
-2.82796958429727
-1.20440241183601
-0.70774570592525
-0.907298093905435
-0.985171159004842
-0.319002600196269
1.23217229649663
3.42078702304525
5.78042062651971
7.85635600400219
9.45850705331929
10.6549407299538
11.5366755513496
12.1103931133001
12.3653971269813
12.3107333035874
11.9865170065732
11.4690880727166
10.7390352226436
9.5442975922295
7.56615412990304
4.73634160794052
1.30734089209789
-2.27223657800163
-5.44262838791405
-7.6832793140364
-8.77474351287794
-8.87193311897292
-8.2975692407926
-7.32689940837784
-6.07034033140835
-4.40417366623346
-2.0947469806879
0.867274410298687
4.13434520521576
7.26778232749184
9.95323672995487
11.8664434844698
12.5951215484048
11.8961745670626
9.88197124353877
6.89616724832164
3.44279469924371
0.259627710894451
-1.88856848790231
-2.72058895905021
-2.70898362712294
-2.79979585224166
-3.78017988342102
-5.73485025277627
-8.07079491881529
-10.1455129981929
-11.79446324714
-13.1689499486983
-14.2648213013343
-14.8109629099319
-14.5081323227714
-13.267885024302
-11.3351975359819
-9.18426377476366
-7.10933316344147
-4.94058417442682
-2.36623532483267
0.511996323023702
3.15023602879819
5.06862794704787
6.27260124200733
7.2209939721349
8.42387377995177
9.99882368876145
11.6138484889519
12.9012212803178
13.8028716141069
14.360487224856
14.2849327818419
13.0014992742227
10.2006454655622
6.24872093784792
2.0201504721673
-1.65582622956968
-4.41836995601138
-6.29646301822939
-7.30478377384057
-7.33212694169552
-6.48101512926531
-5.21213051654809
-3.95506386244542
-2.80484430883704
-1.75049034154991
-0.934707121522063
-0.500438922186823
-0.370239521231838
-0.321639724516427
-0.178745135024606
0.103623210250127
0.430929823596539
0.604490455561487
0.416717822490709
-0.225966710404166
-1.17197970330306
-1.99468303651505
-2.24500546707505
-1.77385334205555
-0.647261669622733
1.15524972900974
3.58777297738436
6.1262352545258
7.9452712120228
8.53129606830689
7.77064979240105
5.54042472297628
1.73123631453046
-3.23078449375358
-8.25377135981091
-12.1372082746341
-14.180728874321
-14.3648837578722
-13.1713437484715
-11.1952060449759
-8.7670699546266
-5.94716656986657
-2.86597552451241
0.0999962578215559
2.51542096259456
4.10720122299731
4.83585630754547
4.90285856770471
4.64853038974254
4.32185522877815
3.96086728257815
3.50680563850066
2.98078322299347
2.55928467382026
2.45128806097238
2.58005390886019
2.46674348765403
1.69689562225233
0.474799456761618
-0.546763007854072
-0.915792831959986
-0.618602633074271
0.131213728499007
0.992854328654948
1.54225556667091
1.54288917981706
1.09992767740816
0.414355062999851
-0.430745480524066
-1.35351740063634
-2.17233932413437
-2.70767116319934
-2.82386640002144
-2.37826366682975
-1.29219961210781
0.379526368205232
2.5768798880277
5.27177552200922
8.18857656686501
10.6739041978056
12.0958986107121
12.2744432900185
11.3784161507917
9.57092840039661
6.93942266283381
3.6996259580441
0.334366241664608
-2.54268667682343
-4.53849614727798
-5.69602711681589
-6.30387042372819
-6.57911257462495
-6.6309822610604
-6.57120184463075
-6.50026351256898
-6.5264267084901
-6.86620460610236
-7.65053601484922
-8.5184028443347
-8.72243018927056
-7.82233862522716
-6.06594849812033
-4.01288436999601
-2.00689810208298
-0.0665315741212849
1.88265143639307
3.69909462233674
4.8946795229838
4.91055622356456
3.59999376713789
1.38206595693801
-1.05128880217009
-3.08112981661452
-4.31718092163692
-4.63145994895287
-4.09757968785252
-2.84995218606719
-1.03322607686095
1.1018103238458
3.15888064210273
4.69519213003574
5.34224060679731
4.99353549005336
4.04571324101445
3.24575673223314
2.99279701694023
2.89233820825387
2.22858053710902
0.779887544074616
-0.952565646347139
-2.15871320371875
-2.27730489059517
-1.33758030334404
0.139687354704951
1.64122621021034
3.03024021682661
4.35885863955071
5.44405322243344
5.80794351565568
5.07874793520183
3.42218455801215
1.50879883697462
-0.0254289516073143
-0.994314393471259
-1.41552174181672
-1.12619382778716
-0.0649803540328145
1.23705505635192
2.00292013766958
2.0835004807854
2.10042255031192
2.71997575146191
4.06687545672234
5.72648231157538
6.95560564104123
6.95276732258429
5.3013255155491
2.27735897191696
-1.35469028904171
-4.81067076480523
-7.57650262523612
-9.49585304976721
-10.725664915274
-11.4998745124384
-11.8943190302373
-11.8548121569779
-11.3142173687947
-10.196397295962
-8.50819353750511
-6.52270820181014
-4.65004826252882
-3.04855385905693
-1.56685880797989
-0.0989053447853842
1.20343555276628
2.10659318239985
2.57087118375957
2.82311058213585
3.11037914798974
3.31944025328912
3.01386369846347
2.03796450322804
0.851859345875317
-0.0336163500844192
-0.731480557669272
-1.70000717504097
-2.87610843634278
-3.43968553211086
-2.5932806037268
-0.548189862807623
1.3856806020505
1.91148550356866
1.01906692970679
-0.0281133218439369
-0.0069050425882907
1.20679822703481
2.87349944413771
4.25151781724283
5.05560628663293
5.44993768939509
5.87808697644932
6.70549787728117
7.84071147767165
8.79005956418172
9.08618691492368
8.58284538074876
7.49054528048683
6.30065242975194
5.51798318294531
5.27176451189928
5.23515787462236
4.94050086854853
4.08537388226726
2.66279977135037
1.02773941040399
-0.236287713621165
-0.739941727005367
-0.596636073949249
-0.289565932184614
-0.323685215747231
-0.936291293825678
-1.93482366215628
-2.86100702382817
-3.5083990575551
-4.21274429797597
-5.48385202159553
-7.43565829462231
-9.62344456344243
-11.2491327793618
-11.4622530949906
-9.70230490043439
-6.01556422487118
-1.18423020165756
3.43369978472181
6.43768891371985
7.17588748807195
6.15028878418987
4.44882506104189
2.72621798919164
0.908626395026022
-1.21634667837862
-3.51555630831568
-5.64016265668428
-7.27253406662013
-8.16179082777805
-8.18070623887054
-7.43825612566592
-6.23410219307136
-4.90112896856225
-3.6750789982999
-2.60300468696256
-1.62226152494769
-0.850273814701203
-0.663222069775093
-1.32138160726538
-2.66634592864997
-4.31637267334243
-5.93411771456166
-7.15796945802859
-7.54271845763938
-6.81793039027262
-5.114793148232
-2.82020683575469
-0.245014945418357
2.53755987960838
5.51433579860505
8.36129601475501
10.3546288034744
10.8247178552891
9.68512591504564
7.46641650857534
4.99063054874223
3.06641147099025
2.16595208884514
2.10444781957574
2.1871801725939
1.90931752883132
1.44371644880814
1.35770418828078
2.02501584762037
3.40982004824993
5.23894982974025
7.27287685725932
9.47433626960769
11.8419420848568
13.9796746784378
15.0330235701891
14.2791658637691
11.690538993142
7.8417838213652
3.48197617918692
-0.66750782679689
-3.93466402898291
-5.87071901149311
-6.57833489149411
-6.79762680801374
-7.38671296571917
-8.51332273973596
-9.4998398386388
-9.6344287102933
-8.95007203008368
-8.04979763038277
-7.44544662657774
-7.26156633519718
-7.24568731120892
-6.80192348812701
-5.29231291260822
-2.54164005534105
1.09089146352561
5.06700169032644
8.73285903131949
11.1374852713316
11.4258516469821
9.69714753540055
7.13391841532104
5.00203380416498
3.61764017339063
2.33284586835199
0.349992069097436
-2.49783034130708
-5.60774876452017
-8.1466082536352
-9.73287819344984
-10.6079722087356
-11.2506411215823
-11.9226962027974
-12.4886162210255
-12.5665937828702
-11.9214423082272
-10.7324983689249
-9.41504079335946
-8.30183357121264
-7.62206112304741
-7.50927316761879
-7.68207682718909
-7.29059745470409
-5.48398698746399
-2.17921085315158
1.87255487872181
5.74344930658168
9.01210284792651
11.897565619826
14.7396520736743
17.3251686184308
18.871471201037
18.7485152527377
17.0187267341119
14.2029837598602
10.8115389557505
7.26880733469934
4.03311171902535
1.48981864781601
-0.281945952937963
-1.51289461229765
-2.45431451801043
-3.08883356701906
-3.18244512508369
-2.66800103074519
-1.8849775947669
-1.30759484956826
-1.12856132932364
-1.29501126485634
-1.82412045823855
-2.78388286851676
-3.9860816257017
-4.92773877773035
-5.05837146827435
-4.06102335880706
-1.9823824162741
0.879322124756104
4.29480561635331
8.19675594888074
12.2897093901821
15.7408625033517
17.5289236329316
17.0917258010569
14.6164779379376
10.9074252163679
7.01957888890217
3.74144899741527
1.24806255259697
-0.724803930208041
-2.4569327751253
-4.07541381976942
-5.60145476107075
-6.97764228384549
-8.18510877041137
-9.45248933212897
-11.2037612532113
-13.6884714956568
-16.7070556706818
-19.6727155034586
-21.8929865314961
-22.9160617958328
-22.730266977611
-21.567256020298
-19.5110202202047
-16.5074736575944
-12.795098963293
-9.00644291133467
-5.64292288375369
-2.63840065721505
0.396309606782575
3.58727503724317
6.4842733199117
8.2737642235809
8.44007167602344
7.38068330633506
6.25435206091493
6.04325386295801
6.78910992075029
7.81117957565751
8.61250463634278
9.48101330829201
11.1249953474579
13.7190853815098
16.5130334592893
18.5538435859169
19.5746801704253
19.8920979908799
19.6811223524981
18.8109496675415
17.2976625793845
15.4635078537294
13.5707191271156
11.5385129272095
9.07615279171265
5.99991338004637
2.41572220590612
-1.39070617513765
-5.21066519939245
-8.91846729301946
-12.1930486776973
-14.5073414988011
-15.6154359929166
-15.8843569750601
-15.9243763621714
-16.0141150327213
-16.0617578552589
-15.9510580695022
-15.6709073395375
-15.1820119443412
-14.3428872486305
-12.9326458217847
-10.6589332943697
-7.23763553154927
-2.66198638910487
2.47430523409936
6.99065660891453
9.7314447476549
10.3392492739206
9.3142420435878
7.29718105410605
4.58652342763369
1.44003704539908
-1.56171972277012
-3.75601892906286
-4.8291383796407
-4.87362649246177
-4.21440297480032
-3.28636708404881
-2.53036612702999
-2.30434912039369
-2.83647541942396
-4.05557801326733
-5.35361862601526
-5.71128252939971
-4.26512395384443
-0.811927080602557
4.09563550759627
9.36405493447217
13.7588595195884
16.3838495969572
16.9736571877419
15.8384569463986
13.6199708736043
11.0425436957583
8.67745592631555
6.78234302781118
5.32180435933689
4.07519479663705
2.7179372351219
1.01903138390435
-0.866321565123915
-2.46124089870791
-3.46878219711555
-4.03902836213668
-4.47654909455564
-4.95247486958227
-5.56053152527294
-6.31592404140101
-6.95533090653184
-6.97021470576289
-5.97369060458791
-4.00393900010011
-1.57071614601164
0.500375353626331
1.4503794590891
1.04727431611125
-0.294232577518767
-1.86141886738199
-3.11538962839973
-3.91734304549421
-4.36646227227581
-4.4269698413669
-3.8919774266039
-2.89246840074391
-2.14714851622623
-2.24432806818948
-2.79550120843268
-2.77601269306762
-1.70076179031415
-0.0818261242552008
1.26871549239727
1.99349409882651
2.1494594981001
1.77024324750078
0.811979047561353
-0.442147364064508
-1.1719414089099
-0.55631880571617
1.34135466444768
3.43303293147827
4.53255071074782
4.26941448604474
3.02073527847597
1.32616695138129
-0.318525863142427
-1.34038456736787
-1.17616435091574
0.384939055499346
2.93103488947973
5.51187419005219
7.1662628213431
7.53260118832938
6.92283381899102
5.85161439465997
4.66948541816812
3.53728099695784
2.39389709897034
0.935973227937427
-1.05595882368035
-3.33810860642145
-5.36891241481217
-6.82724361826889
-7.79121000385366
-8.45016735012067
-8.76731287010221
-8.40845790468345
-6.99508681585981
-4.50139842102417
-1.40447906208943
1.58735648441734
3.91517978884303
5.32896422463568
5.87147910586942
5.77472787296767
5.20060324383785
4.00962918119965
1.95553136941808
-0.828766452150442
-3.6960604521357
-5.85272444655364
-6.72407140714774
-6.04271808811274
-3.84525836833418
-0.500143484993292
3.24731619039115
6.26471085602377
7.32129385826489
5.8004964639648
2.24350188157132
-1.9781838026827
-5.59372356770406
-8.06053069266659
-9.49192533570296
-10.1910579662481
-10.2462425624195
-9.4835883433457
-7.74606692814832
-5.13290509656656
-1.98749861074449
1.18933446441646
3.8576618955996
5.75766054768087
7.15358643620965
8.51730255873795
9.96121029521948
11.1974429522146
12.0028676292643
12.4923249628261
12.946911853419
13.4928280367869
13.8731074305548
13.4789240369869
11.7948320682878
8.97246871391881
5.87536025325517
3.45325817761034
2.0759949151979
1.37659367120476
0.589001103823381
-0.861810586567223
-2.90733935415915
-5.0122481953691
-6.83400904031954
-8.48938147212954
-10.13213039229
-11.612448552476
-12.7257486472972
-13.5845013072487
-14.6095445626494
-16.1906053223951
-18.2399587628613
-19.9505299757746
-20.1481686379071
-18.0945028315066
-13.9917600307951
-8.7947113597847
-3.65141768746564
0.645579773298697
3.96663057198425
6.6183927536569
8.69121833076291
9.75772337186476
9.3755885709901
7.76867369640567
5.81941530661418
4.34525311978901
3.39577226600009
2.31127204622044
0.577264206699116
-1.39800095035554
-2.50753680760726
-1.94409892223982
0.172611714661404
3.07006318844307
5.89424138570329
8.00566584137755
9.15490700804974
9.63033184875144
10.0097961597612
10.5392329361223
10.8202008453823
10.1911949827984
8.41286443781277
6.02335108474299
4.01458420871928
3.07235183584602
3.16885203341327
3.91394860049979
5.01735105632221
6.19488857178903
6.94352263171688
6.81190744663129
5.80469331466092
4.29408525003755
2.63008485410948
0.965328308397032
-0.640705852898636
-2.00734456050901
-2.70463885763491
-2.31270690659008
-0.974871155665373
0.469250519077957
1.07802165469614
0.440749864506142
-1.28625441360415
-3.73379513247843
-6.63880555247302
-9.97222444101536
-13.7577940535376
-17.6703737175923
-20.9615029514018
-22.9994281775474
-23.7996400848807
-23.8305436515714
-23.3716473278529
-22.2549907479382
-20.2141520109698
-17.3268791066942
-14.0265448725286
-10.6672937959903
-7.15724140117824
-3.1650588367881
1.32229443434419
5.79992416301834
9.57742339013206
12.1862806020044
13.5850402580573
14.1624862241426
14.4605630049646
14.8071952636852
15.3766215014269
16.531629666566
18.5917502863197
21.0657291586986
22.5989546620041
22.0663957223255
19.5164455836474
15.8717564376884
11.9823589092908
8.17020803871159
4.45592764056901
0.924420271492935
-2.16483768072613
-4.49680444068043
-5.83854325310558
-6.11845761678889
-5.52520332823991
-4.54994740097673
-3.76477196270407
-3.45095163431313
-3.46898405935138
-3.45697617657661
-3.08409272445619
-2.22028701069773
-1.04058942069872
0.0851605952267562
0.95178983276354
1.66848295956997
2.30134610370463
2.54980170194037
1.98043367985142
0.376390592144748
-2.30782500955261
-5.97008438639708
-9.99783971721978
-13.1462959935727
-14.1598818902121
-12.495125415758
-8.41062770580956
-2.71800693524943
3.22410370851218
7.52381046120215
8.46542671346614
5.74041383124595
0.910079422808812
-3.77173882573514
-7.12912298667607
-9.49545627572804
-11.5637297758195
-13.3311014580462
-14.2125526650337
-13.6570330714163
-11.4883509165061
-8.07430153367214
-4.32318984536728
-1.13182031707774
1.38367197697213
3.91037900263636
7.07073963458975
10.6554649627384
13.766813605022
15.6042462926414
16.0601074757872
15.6379992721162
14.8963213335747
14.0450872031187
13.101743615712
12.2921832049621
12.0672699336774
12.6814329227974
13.8737992957021
14.9901029332779
15.3821885696213
14.7283761505242
12.9815328902758
10.0289446981985
5.62283217969028
-0.165017362981528
-6.58820948238912
-12.5425810372737
-17.1672086611136
-20.1449454937801
-21.7610301986899
-22.8367918573285
-24.3121939191994
-26.6487382210576
-29.6838919527397
-32.9647823341829
-35.9116624539714
-37.6375177506737
-36.962580000991
-32.9211486993137
-25.3998303843376
-15.3802217345835
-4.5827161502008
5.24580377931577
12.9647895616868
18.3605713733925
22.0691618148071
24.9676576066645
27.3177467436037
28.5818650224635
28.2794305335648
26.7799115034082
24.8821999279159
22.8220742888449
20.2063018370005
16.8854568404926
13.4121525563291
10.5427182489273
8.58206523832524
7.26779919017392
6.09860078650781
4.73525648715168
3.15010632492305
1.42629603786382
-0.442383055465441
-2.4341503864621
-4.36926086401055
-6.1168392483775
-7.81537732739988
-9.69528666025855
-11.7209257664952
-13.4598399237927
-14.2371241808577
-13.4541313825345
-10.878466121684
-6.65525067864169
-1.15889096639932
4.90885111621796
10.3678990003773
13.9851183715065
15.2192746186358
14.3316223789277
11.8726189187413
8.44763643301395
4.85929675771128
1.92130481362537
-0.0295882097470806
-1.18881606957087
-1.84417816726776
-2.10275660697804
-2.01680089452203
-1.72487987729043
-1.39913181956465
-1.17604756935393
-1.21580160621139
-1.82169686972482
-3.38622558668813
-5.96966391774088
-8.84229044534117
-10.7249672274581
-10.754614347401
-9.16772707677145
-6.96532923174473
-4.99052577253102
-3.33812300407298
-1.59359809790106
0.386415984587652
2.13543082080978
3.25950168929048
4.16221636688531
5.49853323548446
7.01032570976145
7.57117049016495
6.4294000473588
3.79423391515012
0.120056266064519
-4.52682430113432
-10.0570709140059
-15.6932385481238
-20.1256343796534
-22.3860688412749
-22.4810381843036
-21.152580034074
-19.1594451532024
-16.9500435416486
-14.8604467570003
-13.1779367422647
-11.8665562405913
-10.5145220790914
-8.68357393734334
-6.14260764484029
-2.82954720184878
1.04658139019866
4.8322368926414
7.73959230169412
9.46515503619422
10.2926641920454
10.6053721328209
10.5416049143503
10.1047359196065
9.43851737450628
9.02353763502891
9.55597079578537
11.3434156343469
13.7916846412929
15.823105459029
16.8835639804819
17.2752671401348
17.5019505753135
17.6524033049433
17.6001463108185
17.5613513799177
18.0913236175054
19.3994206054527
20.9071584289952
21.8141050709036
21.9969139939227
21.9165031642974
21.6304254126583
20.3792704181455
17.320413907505
12.3968824490123
6.44686554975005
0.686400455489988
-4.00360780072683
-7.57782206779301
-10.6268308374132
-13.5627363495404
-16.1075298929956
-17.6442038233524
-17.8455263490585
-16.8469022565461
-15.0712530613624
-13.1252600866511
-11.7790596396444
-11.8695611657829
-14.0475962283151
-18.2951273164064
-23.5062794802032
-27.8507375604334
-29.9450789356007
-29.6832314375488
-27.8781338366801
-25.3004117509445
-22.1539155751931
-18.2665010824628
-13.6340741997169
-8.7829142814206
-4.52421339918836
-1.29740915606899
1.12664930526482
3.283595879053
5.54160333747424
7.94374210872632
10.2184984301303
11.8741345402704
12.4751004935103
11.8995998583635
10.3504845309588
8.30022299569575
6.45230841352504
5.43597213611266
5.34790210354245
5.76331562474014
6.27948736711931
6.8708128073216
7.68606972340461
8.74003180673025
9.8895571058154
10.8749315650981
11.2161257635151
10.2646542407637
7.68183841984895
3.95389897832461
0.287375825210554
-2.12756886234838
-2.75323347528602
-1.71905351390373
0.432933147392776
2.80096217641541
4.30631327643646
4.38756254867847
3.50150821920628
2.58658668680501
2.09214587747146
1.78934861085306
1.31912713279979
0.57623471543023
-0.262993522739206
-0.772710940975413
-0.529225258015767
0.355274696261579
1.08508027345697
0.822341317865574
-0.563774378089391
-2.47291766007133
-4.21838702139295
-5.65288615924811
-7.18376856231432
-9.17381206605765
-11.4060286456378
-13.2226010031162
-14.0342000189295
-13.5315731489969
-11.6380107218889
-8.61641566804764
-5.2017716867249
-2.37177392710481
-0.841355962613676
-0.659719399783109
-1.14742587891184
-1.28908915327459
-0.41324043106944
1.49257758186886
4.20812697310742
7.75036111000192
12.0602033610311
16.384823009529
19.4560050115545
20.4271436947998
19.4920606500996
17.5865166556748
15.5589798544972
13.5591911966735
11.1609662808251
8.09273144232242
4.79619390588602
2.19314114808831
0.921328436745583
0.792063310466286
0.929907824315533
0.488323237991145
-0.684171499405345
-2.13365110755307
-3.53138243036635
-5.06556508325847
-7.02841117753538
-9.31648353466825
-11.5037710110556
-13.1778004792477
-14.08525729639
-14.1463975030326
-13.4232679438848
-12.0016145313239
-9.95898019659812
-7.49134511899683
-4.8982046863176
-2.38941383117135
-0.139244067143814
1.42361141789113
1.7276667857296
0.687434828941485
-0.956416738605094
-2.10581347060092
-2.06842664659188
-0.909990863912136
0.7129024008175
2.0343395163033
2.71119322416396
2.98678787108916
3.30107483577134
3.79306690289735
4.24073039510616
4.40307324100141
4.29103353646231
3.99443003648806
3.20974319221846
1.16809060120605
-2.61588767754208
-7.52548021255605
-12.0612239420456
-14.9162647816999
-15.7096947139136
-14.8727849454039
-13.1510560134328
-11.1313705367514
-8.96505475725017
-6.50495246953636
-3.71468018619769
-0.819918294453111
1.87687735895153
4.10768881747444
5.63639794647377
6.39623792312796
6.59531617504113
6.52564269615869
6.37303331072464
6.35664149400536
6.8832505182225
8.32313337718351
10.6401545199221
13.3091775764233
15.5435267604469
16.6490639005589
16.375109887781
15.0208844520721
13.1243087428982
11.0200803080523
8.67896169542093
5.8635812292002
2.4727892799043
-1.08675353030534
-3.95245755591275
-5.50081930181895
-5.94567782655689
-6.0245108404303
-6.21165085746702
-6.45893064062937
-6.51975808215226
-6.24150434700801
-5.64164079280841
-4.89792813167178
-4.20356885733144
-3.54877098004961
-2.69006100209197
-1.29245192525534
0.945559965429468
4.11644369854619
7.88273846137984
11.5751960552677
14.6510360476826
16.9180848728511
18.2097890488472
18.0243734717588
15.7063685745622
11.0391924442436
4.61746891619526
-2.43451760723028
-9.16878682918246
-15.2410573806306
-20.6796900831425
-25.4040928799643
-29.0784659274185
-31.2739494806683
-31.5775614029547
-29.6657539383963
-25.5290822032301
-19.6480364647521
-12.8808081311404
-6.23485460171212
-0.653638000790333
3.31908131910828
5.80908164589623
7.36923046738467
8.40209546299709
8.93390404950986
8.89755959988678
8.43550578747325
7.85778225087667
7.32315925638352
6.57183248481193
5.09093278933947
2.68902308288213
-0.149693349823912
-2.5763846341114
-3.94519481585049
-4.05648663876436
-3.10345256376866
-1.54466202614687
0.103887140429589
1.4226407023074
1.99822077399171
1.40979257034995
-0.354984937203356
-2.5329921147444
-3.94010878250154
-3.74154698216782
-1.79117524767907
1.60607668104262
5.99768269627826
10.9064350042308
15.8875375126135
20.4836273696617
24.018502904829
25.5404196796515
24.2356046962191
20.0952208824349
14.2596242832742
8.61124349753634
4.6963871561412
2.7389252963861
1.65766131513835
0.0885723340873158
-2.56355196392905
-5.86564153198927
-8.8910974299881
-11.0203143765892
-12.3234037163924
-13.1671763135103
-13.5608094791434
-13.085045960283
-11.3376425832339
-8.13232800374047
-3.38330494655952
2.72994640170404
9.36285138488657
15.0689445406072
18.4884367935257
19.073381502958
17.2800057955075
14.1066786921633
10.3568557332452
6.29563130283316
1.93132752041843
-2.58163731458188
-6.86279863249858
-10.4388970029534
-12.9580204056588
-14.4924224471616
-15.6098102073953
-16.9025381923763
-18.4448061882493
-19.875256982628
-20.8743295728003
-21.2888012632009
-20.9223899256535
-19.5756682418582
-17.3307458670678
-14.594212938731
-11.8386296941824
-9.36498332965557
-7.24209479594364
-5.39897360277216
-3.74336779831686
-2.12320326150553
-0.2910834818906
1.75293347234249
3.35822210320336
3.57448000407939
2.10147877622419
-0.312545615468293
-2.45387729036411
-3.4373632899742
-3.02094073569053
-1.43517261064005
1.02892853788741
4.27614780029109
8.13646625881337
11.9356525911466
14.7011439901329
15.8968949744859
15.7729169009217
15.0515797866417
14.4670055339843
14.4228412375501
14.7316481143559
14.6746838043642
13.5331570839829
11.1619627875325
8.13316123636814
5.46035342416043
4.07789384177408
4.24696864665738
5.35139950798437
6.44148496788226
7.01935200344317
7.20805312117238
7.2839249708364
7.24944224164188
6.83304339954768
5.84436759853749
4.59447657746696
3.84779324422394
4.07796575950801
4.82690764557926
5.14799487997405
4.72535367625657
4.2324656156722
4.423818526531
5.0676507799274
5.03468501837872
3.48026657582215
0.709987272814626
-2.34842113888077
-5.33297761883066
-8.63640957909943
-12.3935415467354
-15.836280411217
-17.9865160564292
-18.7275905832113
-18.9059983812904
-19.4212956805317
-20.3093488542367
-20.7255763840996
-19.8284224461884
-17.5635159802688
-14.4054667556418
-10.4756248324164
-5.34969560509546
1.09848230677078
7.93964957248299
13.5323760206738
16.608871438389
16.9964677661401
15.3863526232521
12.4995416941937
8.56242480151826
3.71814562300639
-1.17346602821204
-4.63374349541637
-5.78518357646058
-5.31142268651664
-4.98394772584268
-6.24233649284955
-9.15726635348815
-12.5146917261802
-14.7708618647982
-15.0007943801585
-13.1011946701786
-9.40651686521847
-4.45311186523018
0.934134555900298
5.74660216281278
9.25963021023278
11.336158353966
12.1319239769633
11.4812700002336
8.72848890671825
3.45641261381411
-3.52206207621782
-10.2031374979222
-14.7023865470868
-16.4455173800546
-16.0426005689925
-14.3433232165971
-11.8409462397177
-8.73894796469707
-5.28407993896659
-1.99853844947245
0.431801684843587
1.63608459581972
1.94887417172042
2.23313242482356
3.34737370480055
5.79882799057086
9.61484677565407
14.2194010061471
18.5369923258321
21.5169789942686
22.6215231188723
21.860457762784
19.654680276377
16.8009124242119
14.2581469388033
12.635336989322
11.8463694181623
11.2979234456553
10.3980733617533
8.94303006738754
7.12435281959991
5.27337759596318
3.74232019146494
3.01007083213273
3.54970393773508
5.33674113846182
7.69885459823667
9.8548998079181
11.3870347173653
12.0417755547125
11.3879623870089
8.98269229305733
4.84168550096853
-0.331065703562943
-5.39017270196569
-9.36185160302028
-11.9681837725636
-13.5676148567385
-14.6585426220679
-15.5891255850283
-16.6301253857962
-17.9713971376619
-19.528898383624
-20.9433283722628
-21.8252790104566
-21.880409817239
-20.8990185178699
-18.9190943142292
-16.4307765859498
-14.1752015123378
-12.59063625181
-11.4861604020467
-10.347601779683
-9.0031021685778
-7.81923561063025
-7.00983187107176
-5.95371586100269
-3.70683831543626
-0.210273467696097
3.45533115757293
6.01403671393228
6.7642584250867
5.52895397111892
2.47614415072972
-1.84010029964465
-6.57729979199538
-10.7874848207241
-13.3916158339509
-13.288302910652
-9.92933384411959
-3.81917494020522
3.67316967556606
10.9648189679647
16.8285828646762
20.6609990812473
22.4330483564374
22.4380868464155
21.117770939818
19.081705465169
17.10195757929
15.897880730148
15.8128052058375
16.6036856598402
17.5301115062191
17.8053882113221
17.1471943039484
15.9340119240003
14.8127212932856
14.1435996729492
13.687881345161
12.690681918477
10.4456419831936
7.06215297715641
3.5503143209707
0.810789252713946
-1.4379462401684
-4.49849835388332
-9.45621007286873
-16.0877444244868
-22.720663390256
-27.0558260162636
-27.5003719517159
-24.166800412304
-18.7681260485079
-13.5382753910325
-10.0875756155233
-8.94409694784902
-9.88311799791651
-12.5440597968512
-16.5523296356225
-20.9787532906928
-24.0605962181215
-23.9528541697411
-19.8568780578757
-12.406232262477
-3.24042920246006
5.63186462408356
12.4456923732569
16.220667586038
16.9577351829528
15.399489280385
12.6488847077284
9.84802092339382
7.87138385115717
7.09345699717134
7.36971196481824
8.18626311507718
8.94648833904415
9.43522946831842
10.0781828407682
11.4293520741551
13.2581749844354
14.3962844465451
13.652931924302
10.819576407399
6.84833262017731
3.17739574474705
0.708503052312377
-0.823920287122002
-2.47025137372186
-4.96248657626098
-8.02358566263343
-10.717267666097
-12.2794198632092
-12.5537318719225
-11.7726748729935
-10.0724736648483
-7.30846258171308
-3.32057154631418
1.7844194428265
7.61113072837615
13.3862676523338
17.7647176936683
19.2317022249997
17.1895341843011
12.5336371699701
6.93563805142299
1.69228407894929
-2.71622245923492
-6.38230002075167
-9.61331297343386
-12.6153595900128
-15.2715524395421
-17.2872842252116
-18.6227346729784
-19.6570904521058
-20.8679968621527
-22.4199784303879
-24.0331245263468
-25.1659739495968
-25.3417557122628
-24.2779980859986
-21.6635305076846
-17.0458859401608
-10.2716677229057
-1.99289721775903
6.52393409911945
14.1018750836375
20.1059296812776
24.4186923525318
27.200156488852
28.5976075566341
28.5664260068215
27.0025371194636
24.0437966322754
20.2066184784339
16.3171688728485
13.2931329684045
11.7131624611966
11.4522291041158
11.8958312057488
12.5340807133671
13.1389810031356
13.4093511891239
12.8159878469957
11.0128891256642
8.28903776419737
5.4217860524798
2.99316250876181
0.905441592148848
-1.30151638173337
-3.69941944474212
-5.8025038525831
-7.23003510503136
-8.21994081588944
-9.27335486347932
-10.614252781173
-12.3084353318393
-14.5732624351711
-17.4824850872237
-20.4899438851473
-22.6470251085679
-23.3341452624868
-22.6662515298909
-21.2555967089516
-19.6031157583698
-17.5675341634381
-14.4064338409766
-9.51672280358797
-3.2656220978281
2.87480143587855
7.06883830259716
8.28346753179193
7.07781964729119
5.21283384139813
4.19058102478836
4.14064778191731
4.23761758417123
3.94439050697843
3.44728292892001
2.9593978897184
2.0862286261783
0.187912657082452
-2.73334064285999
-5.82075844565325
-8.18594420604583
-9.66033213115661
-10.333475529683
-9.52890944130679
-5.92702536167976
0.986020563103583
9.90411170969834
18.3185488221283
23.9559066018959
25.7252011174731
23.8865464811965
19.7137453935976
14.8090821703397
10.3691928884068
6.83716015539713
4.05340614450872
1.70517958417224
-0.246645218039493
-1.57655901296904
-2.27516799221773
-2.80942869958682
-3.65756870550631
-4.73932006340641
-5.60829858020391
-6.13993360324956
-6.72594797236692
-7.69764401611794
-8.71368167357826
-8.91325446634852
-7.75841880343811
-5.57149452197008
-3.00400883631852
-0.114300742061037
3.58556859051238
8.14480768398078
12.7099310904162
16.1715639594488
17.8569049121786
17.4818658578569
14.9862726977895
10.8564273346952
6.3182621780059
2.6334229246964
0.0238978782184824
-2.4711938374973
-5.86113387041515
-9.95714354571857
-13.3504299602455
-14.5806682277089
-13.2129825086042
-9.87202245573639
-5.57701914696014
-1.20955353395651
2.65003749467509
5.66595454750226
7.49615752430375
7.57588206701076
5.39430246078824
1.12096424212203
-4.23528804818113
-9.47794493412682
-14.0062183444265
-17.8665377240824
-21.0120773420492
-22.620144382181
-21.3965431985094
-16.7489911226776
-9.59129120937243
-1.86050441817271
4.69927069973201
9.22673474518612
11.4597337498707
11.1455765582495
8.02101526442909
2.48911441701749
-3.84740124762929
-8.69026491574581
-10.2621425810771
-8.00143414112226
-2.36903876913274
5.39740152130937
13.288153099165
19.07905825319
21.5530505888583
21.1102800312335
18.9951980665128
16.0971841086608
12.5655251045574
8.25200757634215
3.28223218919638
-1.70462469716204
-5.82011878315158
-8.53058296466526
-9.99888711663894
-10.8094871217254
-11.4678417305565
-12.1371878455461
-12.6283392236406
-12.5955229648674
-11.8848745059963
-10.6866896473357
-9.32046143561485
-8.0463547140302
-7.09858802818633
-6.54990189202887
-5.99330473750504
-4.7007730914397
-2.3330952572819
0.723357590948521
3.86955764264976
6.87794707698999
9.73213385534011
12.0682952961215
13.1519003519722
12.5767647829991
10.8346271089449
8.95621398471409
7.58625242313125
6.57144525357572
5.4031557824391
3.84113021289459
2.15485563251533
1.01557993196925
1.09944363155905
2.48313459483748
4.4264005001532
6.03465111235022
7.12911847376224
8.17608289839907
9.39069840148353
10.2750008905916
10.1367422082682
8.83645388481471
6.94777638756436
5.28542652346422
4.26625685804987
3.67410974241558
3.04607081432446
2.2129537595379
1.42319736576149
1.12626668700509
1.74867347817111
3.43863943472404
5.78160616201408
7.83345679464206
8.60287638842186
7.63504518811427
5.29297526444322
2.47097320762386
-0.206446947499702
-2.9168571379318
-6.08999741264895
-9.41042906076792
-11.8829854405038
-12.9991770940072
-13.4136574342859
-14.3313656536516
-16.5304537988443
-20.0379288385042
-24.4249520867528
-29.1819898546506
-33.8207544048479
-37.7397274032375
-40.2231820085275
-40.772815297119
-39.3851289704983
-36.3647278387189
-31.9375648329627
-26.1349232194672
-18.9167428010879
-10.3832580515541
-1.16889674638861
7.32947923504194
13.6654499973852
17.7089945083457
21.0817544432098
25.8678725365531
32.7841017281278
40.5104965466729
46.6482363286281
49.3512876975137
48.1887489052055
43.6949464342519
36.6051464084666
27.8612527653353
18.8512183241258
10.8149834637348
3.97151842107606
-2.25474402136553
-8.11246062429808
-12.99228959708
-15.998035484635
-16.8035296692907
-16.0048854443212
-14.7420304877632
-13.8230184484311
-13.1149966264188
-11.8345162443111
-9.28585605095331
-5.16245126472641
0.527572913559938
7.28898037141182
13.9070672483866
18.8743385520062
21.2944884139245
21.2418797186746
19.2437817085619
15.6888946863003
10.8679218772646
5.40041779691254
0.39452987755694
-2.92978983428737
-3.90334702820263
-2.88565047869972
-1.2172523495122
-0.58987717912671
-2.07682034224297
-5.42379595587925
-9.25789644453118
-12.1261461060156
-13.3983304260716
-13.2783634045149
-12.1649319157656
-10.1121996650082
-6.90962467640322
-2.7309984150068
1.39713819016806
4.10869044499321
4.78659115798315
3.88706180294409
2.20852706047181
0.278460719262453
-1.51366169397402
-2.76705561665451
-3.33620850045444
-3.43071997494249
-3.32170510634964
-3.20483175383341
-3.33347836316775
-3.94807492180641
-5.03030594132266
-6.36923839926172
-7.88094012683735
-9.67096820083175
-11.7762289881301
-13.9729502043381
-15.8294449585491
-16.8981170373157
-16.9388807738952
-16.0069371211521
-14.2385806528881
-11.5639226808246
-7.8053029461815
-3.11584563941385
1.84373137346918
6.33999522452373
10.2012196532465
13.8784079610085
17.7035686197568
21.1197597232527
22.8627047883556
21.9880750227539
18.6470547855527
13.9277278243373
9.10488343741601
4.96005967536607
1.59212300388383
-1.1839880652176
-3.28451661700436
-4.32855373407948
-4.08121111997053
-2.6482656161419
-0.320051012637757
2.39103004452708
4.67358551306421
5.94590998526484
6.55609910903612
7.54129570505649
9.57863410035922
12.3516585360193
14.7912955763385
15.6639457108322
14.1809774528884
10.5464386963008
5.95837731896224
1.76449415447074
-1.49299943579052
-4.16034405064552
-6.77405853357936
-9.49145749036213
-12.1415619670493
-14.5800153729604
-16.7947502207946
-18.6391333959005
-19.6877765617707
-19.6434360743497
-18.8129636791066
-17.8179260157308
-16.733323704251
-14.7412270456667
-10.7782695328541
-4.55285185543773
2.9300610471094
9.73335145762123
14.0154996749985
14.9689471042856
13.009443111169
9.31676177789053
5.25832526419813
1.91359083795705
-0.288800424049511
-1.59987100261532
-2.52215731239549
-3.26616305777479
-3.56677799820512
-3.03009174691094
-1.7274924151558
-0.358749574146516
0.426941657159698
0.904102838446184
2.24370477013855
5.51989477444525
10.7439430145825
16.6955582967116
21.5950546025963
24.2337917808451
24.7542920589835
24.2488053344219
23.5076736642655
22.348435772554
20.1455955737667
16.6015536668952
11.9087713591838
6.60819751404107
1.43886991199628
-3.0993536921879
-7.22904009436233
-11.6689816852604
-16.8358111855997
-22.4089484063677
-27.5313056136901
-31.2013595160147
-32.6784153509153
-31.8470299645057
-29.1457878700545
-25.0087027958497
-19.5398697835798
-12.9254301185375
-6.10819953071494
-0.884457559182924
0.904414062146035
-1.38141496233654
-6.49203903473158
-11.8354601382007
-14.8826980802582
-14.4260023281484
-10.9805113440828
-6.16661566949178
-1.5104427636615
2.3149343643351
5.22618074764928
7.2121020378093
8.45015056149999
9.51608948897855
10.8506575345398
12.1894466171872
13.0668031442674
13.7026657637883
14.7617370565578
16.2653744232149
17.275999775825
16.7154096421446
14.2210464080208
10.3631097390012
6.35086349028587
3.37003497571623
1.86163997750595
1.35837729662745
0.967942442915647
-0.0550863718943739
-1.95619105667353
-4.31360977962708
-6.22429483146383
-6.89130867375245
-6.10855452717678
-4.21251696468138
-1.72136998968222
0.931452172504098
3.48611551557157
5.85392498730209
8.04951806412877
10.0290953730685
11.4489305502329
11.5884100674488
9.77975691774306
6.1205048270787
1.62246186419969
-2.52589014325994
-5.77017502604667
-8.22353832608677
-10.1169048438548
-11.3994822859982
-11.7794877730103
-10.9832966160412
-8.97388016136512
-6.04959617842181
-2.83211976556499
-0.115807201502416
1.44115390822235
1.63319695350295
0.776032062371713
-0.483507749402699
-1.35995587405746
-1.11807219527893
0.458884214030799
2.60236978561459
3.97904810717452
3.95959148047658
3.26166450343587
3.06954321545948
3.74211476805602
4.62541070849346
4.90899773801547
4.4037943011731
3.58607158695365
3.06645821012893
3.05238689727305
3.3438914810432
3.77673226364983
4.41632779433167
5.26873921401816
6.12551805103798
6.83467537224595
7.41845905940681
7.76446312418336
7.51041580183511
6.49750459340281
5.20044926575361
4.4465963250633
4.5881627087115
4.98204160128553
4.40437632993176
2.03203143065615
-2.02992352561506
-7.08442492127835
-12.4265126181441
-17.5903819604403
-22.3933819999096
-26.947761518356
-31.415711427285
-35.6051659237246
-39.0136339408662
-41.3721618960209
-42.8889031663661
-43.7699030279299
-43.5644729075201
-41.0073166621912
-34.5940209766872
-23.7065128457146
-9.42363817568154
5.99144386310646
20.4838043986113
32.814753757948
41.9916393502185
46.9480323281881
47.2157843482702
43.5503509018158
37.654663721104
31.4800305046368
26.6655216905863
24.0345233951411
23.2316429719377
22.952333363029
21.7977936616728
19.145195692297
15.3500914912286
11.1424232972169
6.88747527468677
2.55586593134926
-1.73506952385054
-5.54085547369889
-8.48439890300793
-10.4782241877238
-11.4923037932505
-11.4589377755762
-10.5618513176228
-9.38593187505572
-8.61467531267255
-8.56557968741846
-8.86274141660108
-8.46940694816505
-6.37856108112421
-2.59616544324246
1.76942293924046
5.6135417271877
8.69976847074979
11.1537673436013
12.5168990530135
11.8769252190179
8.98004510630722
4.89007565381043
1.28682997370377
-0.931087679917957
-2.18210324621014
-3.25616745095578
-4.15154199225739
-4.24037553210788
-3.4128815089904
-2.54937933482907
-2.76532944840515
-4.41672466205701
-6.79562571196254
-8.59298408348848
-8.76813287913141
-7.24830689725158
-4.91034990072901
-2.94327977947448
-2.23816566909678
-3.15821063023661
-5.55543175053425
-8.88668462608548
-12.3990081325752
-15.3509422905989
-17.2491490408223
-17.9944211554476
-17.7250520474022
-16.4497810074364
-13.9671283482614
-10.2324808766119
-5.63841479225238
-0.837866885989277
3.53998349212041
7.01553886535305
9.47730362056979
11.3881727730538
13.4178565357795
15.7140126138671
17.7665956673328
18.9886736779336
19.1463455751862
18.2551179239037
16.3791084265956
13.611912815064
10.132435938379
6.26519912355151
2.45484804405788
-0.94074613035725
-3.78753403583426
-5.97062664289666
-7.1713638108488
-7.06784408693142
-5.71672157751899
-3.59989196214332
-1.33011326836591
0.659838488694054
2.24579733410275
3.48001105147254
4.29723326911143
4.39658967916687
3.45484673878679
1.41483647941467
-1.40472585125367
-4.41504713907534
-7.07643973448562
-9.24996043352687
-11.1522690101185
-12.8675487514778
-14.039277288333
-14.1535427003897
-13.0004004513398
-10.8017299546742
-8.03518790327375
-5.11083068546588
-2.02544131745605
1.54904993939874
5.55718491464943
9.1100484498109
11.0991789749667
11.124589846446
9.53498005938779
6.8429163039845
3.57807965072797
0.590693228426878
-1.02539446801633
-0.570629837447986
1.74033902232615
4.96390900567896
8.18320693607992
11.0779755633955
13.6842376450641
15.7201599473228
16.4969532961481
15.6084089034095
13.4507193049102
10.9014140540829
8.59612038966331
6.55046715344746
4.35687958049594
1.68832907653364
-1.38141780463262
-4.52744026231625
-7.49573967767524
-10.1491690391602
-12.3177434211103
-13.7579493310452
-14.1783520938098
-13.2828671891602
-11.0489677994454
-8.05372230134787
-5.17149443730721
-2.71359652764933
-0.154178388660226
2.98338246095333
6.08674439990754
7.53211536481822
5.89828056810978
1.27347508968223
-4.48252724091647
-8.95282761069058
-10.9759005266886
-11.3477351201408
-11.7138357784399
-12.893500160199
-14.3121899973566
-14.7916286955181
-13.6697809483337
-11.2989728993189
-8.73821348255674
-6.99915696146895
-6.31226809957217
-5.83126553691391
-4.17192950888799
-0.72208982623216
3.39215599110774
5.98283965702035
5.68589438727965
3.05167120639329
-0.145855216432734
-2.27365923192146
-2.58360223375692
-1.27911924692658
0.781272117725448
2.75049535466908
4.46811990358116
6.3705226017648
8.64531212239032
10.6895529201439
11.6015650154667
11.1592651787184
10.1944881469334
9.92267076924877
10.8336597014565
12.2838555185507
13.2784729692156
13.5216944018071
13.4711617489387
13.5049193247362
13.3921780500722
12.6135987069114
11.0052482881289
9.05565605295073
7.57605042313526
6.97730635846957
6.91776242408484
6.78424682128016
6.3156430829395
5.48871525997001
4.06123891778681
1.71663646178247
-1.37648919359346
-4.53031933391705
-7.13969047110769
-9.14192661969882
-10.822165099201
-12.2305845906657
-12.9245045066527
-12.4633391366174
-11.1189981486465
-9.813086218935
-9.2928251662055
-9.59670390714904
-10.2948623065046
-10.9232880540468
-11.1577397332004
-10.862091979121
-10.0124907826301
-8.40855907608063
-5.66142708407496
-1.88680106516066
1.70109338079834
3.45761488638151
2.76690672644299
0.551590174985603
-1.73388229960358
-3.32165040841149
-4.29914843498979
-4.96923116421525
-5.41358882914504
-5.62459119023802
-5.68567783229935
-5.57462381667222
-4.96479447677194
-3.54916253691802
-1.58960891492168
0.0820575969077773
0.770542522292711
0.688964088908883
0.992097349420492
2.74089140880116
5.54023290278753
7.45745322955961
6.78136712943199
3.78347633044299
0.346558455357771
-1.9670944778815
-3.02277209312716
-3.5563883826904
-4.17498597170904
-4.88386676456989
-5.00497672259071
-3.40304714612331
0.748972936525832
7.05686276373376
13.8231366277964
19.0959220841223
21.905624661574
22.5402678362055
21.8062573154107
20.2279093270874
17.8657701123357
14.4980196856956
9.77608019081587
3.56710056474052
-3.44238954680456
-9.66150415769011
-13.5315046287586
-14.5306449693084
-13.0812513336529
-9.75737050471436
-4.99549422104766
0.552048290236244
5.83769277988513
9.79372660632094
11.8630410551794
12.1324818369921
10.8878481690769
8.06911125780109
3.40277399847357
-2.86378104093616
-9.74179568757628
-16.2822382095384
-22.2705130991846
-27.8007885996317
-32.3496054929415
-34.6407419935365
-33.5116719112013
-28.8597420818339
-21.7303453256162
-13.4755768499144
-4.8980402446586
3.68677940744402
11.7588890056219
18.3948280674359
22.8248250973402
24.8738633406924
24.81648465902
23.1721865449688
20.7458784763505
18.4553546210962
16.8248442435617
15.785747629753
15.0492389999453
14.4414408631693
13.7534389565241
12.5017518081583
10.1527110484253
6.66096861663289
2.62017198529846
-1.24283183497195
-4.57877163384273
-7.30783119592417
-9.30019396058605
-10.4972889235172
-11.1527608192537
-11.6038283225088
-11.9418325332195
-12.1715351023542
-12.4908119164427
-13.1185247743423
-13.9605684255725
-14.6023171607025
-14.5363864698471
-13.467684742854
-11.6750193992199
-10.0022411648044
-9.14423788431513
-8.9560140019262
-8.73959660670405
-8.14941942603744
-7.53748589686217
-7.40358455275743
-7.66671004607965
-7.46826061059745
-5.64255340727032
-1.54128456740916
4.34242085442872
10.4328187057935
14.8279332134543
16.2841901116443
14.8408558363164
11.6958336074061
8.39490758563456
5.95162440401624
4.54671759381084
3.78813762988427
3.102379220795
2.11207101604632
0.942793238063931
0.117179195416601
0.0101450502197954
0.516846345257536
1.33233465666186
2.37568228372261
3.83037673602472
5.90944946733987
8.67934232449651
12.0239093241427
15.6469724405887
19.0191521714445
21.3867543226453
22.1451285323288
21.4161948287689
20.0112257783722
18.5455820522898
16.8082694429688
14.2691871269161
10.9542224354358
7.53268085867172
4.74321183989414
2.90523953119437
1.70532602628404
0.25651720797542
-2.38911841738291
-6.56617110641718
-11.8644245148123
-17.557026866132
-22.8926971959845
-27.0543423070245
-29.2631864449597
-29.1453360824152
-26.9556277034142
-23.5060798147482
-19.8874293930184
-16.8990475590044
-14.4094588989346
-11.4411454610458
-7.2351891453237
-2.27019008681101
1.91991159635152
3.95006858084149
3.51892379762366
1.19009075920589
-2.47266052090461
-7.25729345158394
-12.915594607476
-18.8804542015088
-24.4530977772422
-28.8261935857913
-30.7953909027494
-29.062286742169
-23.3493733155834
-14.9862180777012
-5.96902556629921
2.51922979860214
10.4661625179803
18.1024678752091
25.0117630075705
30.2905778492991
33.3529939136083
34.3038738473509
33.5881128721918
31.598437447733
28.7037584956613
25.3413392277264
21.842049883991
18.307880889146
14.8379056380689
11.7593001289338
9.46289934175649
8.07179330055946
7.39685516494367
7.17146843022574
7.22597732732269
7.407374694949
7.34248528004196
6.4000926439133
4.11586230764789
0.676900820894338
-3.22829904422713
-7.00523294862469
-10.3244374955028
-12.8349794286609
-14.2109789602207
-14.5574234408291
-14.3773476767449
-14.0338609519918
-13.5027245541922
-12.6734690889654
-11.646258235657
-10.6415765388756
-9.66118634352211
-8.2644788123986
-5.8564155931211
-2.41544876295342
1.19311551617898
3.88569644685989
5.2442137300946
5.57673605233753
5.34499871361733
4.77499742682041
3.80923977410486
2.18587937268993
-0.274620409850475
-3.26307749150208
-5.99801860725971
-7.8092540776528
-8.63795688295213
-8.92181028409391
-9.09713597090932
-9.22421583510317
-9.00168647171338
-8.14372460995728
-6.73784197239212
-5.12867150368153
-3.50324309814677
-1.81698581766298
-0.124744539822948
1.2641595660882
2.03091083389517
2.12256910840424
1.78760051631015
1.43096728543702
1.38520435939993
1.71069026568188
2.21714218491296
2.7537482503508
3.51660593001793
4.98628632522199
7.35992768683667
9.99116585160929
11.670405586043
11.6775053038085
10.3573321971445
8.52017188788145
6.65395786668448
4.98159703051789
3.81989644863351
3.37625612154722
3.40209031024659
3.4389029126105
3.32211322520411
3.25292001535218
3.51209833568429
4.24469981452802
5.37920147394283
6.59777716446122
7.44222009683596
7.56507104683052
6.92699594442688
5.78572206431933
4.4847495776898
3.17181358285215
1.7100746105836
-0.0864678814874952
-2.20799949898649
-4.50758201362865
-6.81469288985374
-8.83453837827039
-10.1684740051936
-10.7162024712749
-10.9846531849126
-11.8124090561423
-13.7237766515029
-16.4467995946854
-18.9886722057618
-20.3570841074565
-20.3281883385923
-19.3011841459556
-17.356308324793
-13.9037463186207
-8.54937314066883
-1.96709373782802
4.43308510278189
9.51654234378117
12.8696271629695
14.4732461035383
14.342868006057
12.610432081371
9.77632153339773
6.62688256792554
3.80711249642162
1.57550226277527
0.0131989026359423
-0.737909489277619
-0.603294296707975
0.22916842140229
1.43353183277445
2.742190114255
3.86204900708988
4.34825515123524
3.77602605721885
2.04230363969711
-0.477953259857472
-2.95667734924493
-4.4418424967761
-4.52220118084991
-3.73930934811135
-3.1525002253596
-3.43757103425971
-4.39940590869278
-5.18595969399603
-4.86635803953549
-2.91739151931166
0.719334064793965
5.89488487020652
12.23974366539
18.7553676501707
23.7861189904809
25.8332170102267
24.4602108571822
20.4030060594293
15.0189500455674
9.69692324481835
5.47893465679867
2.86032694403635
1.70182797991166
1.21781237980343
0.25103344997595
-1.98751350985478
-5.26537833598633
-8.5862237125708
-11.1497359474124
-12.9375021935654
-14.4681001592016
-16.2333195304825
-18.3162220479516
-20.2933904838618
-21.4877408222181
-21.4748695333814
-20.3318802162749
-18.3228938732004
-15.4803225647242
-11.6506884518821
-6.88273012756844
-1.63732077278056
3.42751399846202
7.8751198848497
11.6137451454313
14.5383929378797
16.2769613923121
16.5971996397421
15.8932597205004
14.8418417199712
13.6285268677365
11.8988830842633
9.45710275363709
6.68297192332225
4.2303150123973
2.51591812723671
1.51405394674373
0.940017492055909
0.573117923426297
0.294167774851428
-0.197443910075796
-1.37468329516349
-3.32439194912864
-5.42680127709673
-6.91266826169017
-7.65035713634793
-8.17854079709554
-9.04326820364581
-10.249790059198
-11.2982431715362
-11.6116761231734
-10.90937673366
-9.28790842477796
-7.13419752634593
-5.03393698910415
-3.5385692108188
-2.71501719127296
-1.97372278738416
-0.647052812796052
1.23281526003227
2.95387278427274
3.88340673075434
4.00327700933463
3.81583104053353
3.97858295917339
4.91128148609374
6.48159341772939
8.08719578814119
9.15526858788119
9.51412771810879
9.32957895238663
8.90695933433573
8.57262176835391
8.50507047880988
8.56483373956822
8.3714735295616
7.61141999087692
6.31551775700175
4.87356947391013
3.67908222420095
2.66224985946634
1.29750595403922
-0.813279320538902
-3.47944081190366
-6.07136916355357
-7.94339057310328
-8.69357266339662
-8.22633285883031
-6.64306469893811
-4.05243220588595
-0.639547967675483
3.00373104917025
5.91867599370532
7.44670604003145
7.76005089036807
7.56518683997222
7.39681070094782
7.28472600748493
6.89633330616171
5.8585093926318
4.08592398301704
1.8739847563898
-0.435709845078278
-2.83728056133601
-5.53198115690727
-8.43131792137861
-10.9385004936343
-12.3144618205307
-12.3523354902782
-11.7315735037681
-11.5348198887897
-12.284301508266
-13.6265410791927
-15.0376833059353
-16.4750935886569
-18.0771286073546
-19.5524058404879
-20.2786032079832
-19.9201378314296
-18.652376229938
-16.7415226127712
-14.0635583887273
-10.1451846727819
-4.6675049055636
2.15299596541559
9.66629983023606
17.0791858775325
23.5634571663516
28.2869431408252
30.5514968284027
29.9679438747856
26.6829297314064
21.6749489973371
16.6373263960724
13.0260600294506
11.0045582332469
9.54678920632483
7.64152343143998
5.19145316937778
2.80655020992323
1.0688129343839
0.0319885568809824
-0.80342779012665
-2.01104800622264
-3.60592022432097
-5.03580136018224
-5.86054799740278
-6.0821858533801
-5.64737682562552
-4.13088147205718
-1.39894464600534
1.62654608173336
3.38557233643965
3.04995330322754
1.36721096036757
0.0419527280038766
0.260341313595004
1.78840599819969
3.36285768714784
3.74528137183646
2.44019209350927
-0.191745825709963
-3.20254673015114
-5.59266452845723
-6.87330295340316
-7.19457132813222
-7.01162469993606
-6.75729809721918
-6.70507880412578
-6.83639885542944
-6.79885020892079
-6.20615090038897
-5.04705105449467
-3.70893099569289
-2.61554806203891
-1.90464208817175
-1.3859735363821
-0.756449379830681
0.0553461058730729
0.752444844366539
1.00371467086025
0.877674993514964
0.791949499368879
1.10604888020569
1.91679050762103
3.1289113654814
4.5115461678677
5.70140088055769
6.26101973721059
5.8133690190673
4.29227028581954
2.17822322742619
0.301873430637797
-0.802418592007648
-1.28669639726139
-1.68473371092861
-2.38493820783415
-3.42108171738685
-4.53553693398478
-5.37108765178885
-5.76431155196462
-5.87789660946759
-5.96778726881307
-6.09569213830676
-6.10610526464129
-5.72450069840208
-4.6412543649608
-2.69980945878611
-0.115552008083722
2.5360458459427
4.5569887105452
5.40765729798672
4.9752016024837
3.70963455849147
2.37651173857775
1.53698306375021
1.29320001170534
1.49750085641207
1.99810396561027
2.6235926438166
3.14026344886331
3.38102637908625
3.39780626156751
3.48935484906482
4.06857496743195
5.36340500701323
7.17424107450931
9.02051055413669
10.5670007138985
11.8712060421317
13.2859253074016
15.1383911470628
17.2643415878959
18.7083026305866
18.1431785035442
14.8753756387767
9.40924956157659
2.9954323059908
-3.20849601670961
-8.57044023350494
-12.9509896663508
-16.4651910964653
-19.1954438189345
-21.0549186271285
-21.9126904179376
-21.7848757248167
-20.8899959375111
-19.5700657067303
-18.0722462460594
-16.2450426093537
-13.4903570163147
-9.22593126268393
-3.51412036699179
2.75984902529666
8.30149618534067
12.0030130407699
13.3061373445493
12.2388515176484
9.28069309434173
5.24832209489857
1.15750483603687
-2.1620590375642
-4.52118201577686
-6.2990529087364
-7.85051696098579
-9.2249279739365
-10.4941697691122
-11.9144036379247
-13.5079804399619
-14.8112678418176
-15.3597912335152
-15.2374212328697
-14.7964263212304
-13.8522535868248
-11.5376281412134
-7.2757919388646
-1.79417158308991
3.22787096504205
6.68209195313098
8.99762019533466
11.5261413603012
15.2057340017613
19.8203075726736
24.1784762854777
26.8913890545745
27.3053953355119
25.8834748296799
23.6273386437142
21.2252562919135
18.8821396781461
16.6919225270003
14.7665963211376
13.0386201387184
11.2453987235114
9.1798244796279
6.86128593848617
4.51242292305125
2.4500134015657
0.919291573750814
-0.0455364749461954
-0.599260801512366
-1.00239913140257
-1.60803163461402
-2.74854509838011
-4.45216593374534
-6.33874250264233
-7.89608488732491
-8.84346284270617
-9.2965179436447
-9.69410687152127
-10.4520643220776
-11.5112807697617
-12.2982520922118
-12.2331307148026
-11.1577221719703
-9.2390257495066
-6.71514635384268
-3.88714600355103
-1.22146082184962
0.632572099778143
0.949603076223801
-0.709766633761847
-4.01030676013071
-7.84838958707318
-11.0587724074667
-13.0702649661738
-13.8603662031915
-13.5440639527238
-12.2155878843748
-10.0762109726494
-7.51526618789688
-4.98431356014312
-2.77218739880997
-0.928031554517508
0.532388191249561
1.41232053386103
1.51848288119629
1.04443040580313
0.509805102990632
0.265006569844251
0.281815259781036
0.435420666605932
0.707060651343173
1.04310578681196
1.24145635352366
1.10588508911297
0.692687267246179
0.408616996773255
0.831353785199239
2.34433087460221
4.92737222737113
8.25015546582747
11.7893973717185
14.841915881019
16.7074247311783
17.0422373343942
15.959632758412
13.8191913477923
11.0833201273734
8.26289097169632
5.71439406400875
3.50333252497903
1.62067767709722
0.213600838919249
-0.550063952925622
-0.704013986003329
-0.431622072028034
0.105964402430934
0.813855598369125
1.59140552665763
2.20297331565249
2.19859376077014
1.1179671206816
-1.08225242248554
-3.88514699610113
-6.58111341306053
-8.69365952901254
-10.065963886857
-10.7682188238724
-10.9887303549627
-10.8113829919632
-10.0361974553303
-8.3722536219179
-5.83725018671433
-2.88999236231551
-0.214834024954576
1.60050135372018
2.31470515717448
2.05429489054194
1.0824669532615
-0.345623788397925
-1.80940936421656
-2.59778424451722
-1.99376335591986
0.323629271458658
4.14862610174205
8.77765627277558
13.0759682031937
15.8069584663541
16.2141420616517
14.3660152782784
10.937020644475
6.64703929471465
1.84765241158469
-3.38834645905723
-8.8101631488559
-13.7804533334943
-17.624028327058
-20.0285704074028
-20.9743705207706
-20.4624143090984
-18.5220881213975
-15.3680315693995
-11.339270835454
-6.7126036858341
-1.68670523087361
3.49927799137607
8.49995972527292
12.8657442016001
16.1326458736163
18.0637015815039
18.8418003430649
18.9237991280582
18.6693409692245
18.1032371188315
16.9415125197755
14.8049696573066
11.4793660619402
6.99976733710455
1.54248293996402
-4.54572112240609
-10.5530979287854
-15.5905047926728
-19.2853452094261
-22.1360951164502
-24.8962245154914
-27.5889020647373
-29.1777104569799
-28.1594507656488
-23.580033226109
-15.7302440804663
-5.96660852183786
4.1541298002539
13.5227708283349
21.3826621079098
26.9770157264101
29.584171788212
28.9025791143952
25.363819416385
20.0934357725666
14.474114436677
9.56944234124529
5.86664173639932
3.44952026268863
2.21209827233696
1.88463173860317
2.08798109098032
2.4682508046043
2.657877026333
2.16562256704669
0.572345402615098
-2.1299547584721
-5.54732315322859
-9.1727182481748
-12.5426651496897
-15.2500060162224
-16.9862335403691
-17.5560304917722
-16.8735715815016
-15.0910058996369
-12.7193340934339
-10.4620522100901
-8.86005868842368
-8.03184768844754
-7.58786285992784
-6.78943813195113
-5.03878517339245
-2.37191842860726
0.572375347808525
3.07948845589452
4.85462017506483
6.11691534436909
7.24676411342355
8.24126672537164
8.58716863818027
7.87157928544875
6.43110507233259
5.1291727283372
4.52630734581132
4.48668055017298
4.52259044342366
4.27180160068888
3.67283665649625
2.93180878475355
2.39627259670109
2.34557860489044
2.83813903130972
3.74583823709905
4.88213530401576
6.08033470317954
7.17212073367278
7.89084996507138
7.89557729107026
7.09139231658676
5.90987911988193
5.02444236708029
4.72672851867162
4.72822014872988
4.5246135064093
3.78146601579973
2.46447181658433
0.818146710989463
-0.815050658916941
-2.27884809212048
-3.66102450753909
-5.06747837225111
-6.48780806997433
-7.85836383887089
-9.05329885502767
-9.83946833987719
-10.0474130019195
-9.76429504286568
-9.20196903588154
-8.41604396145926
-7.2452714497304
-5.46921494580625
-3.02785939785038
-0.219839163337083
2.30849963716484
3.90004629951527
4.26076076681094
3.51933117332032
2.05391676885898
0.337177716745829
-1.20556404566527
-2.36018976850863
-3.14215822236129
-3.65461083181005
-4.02361693998041
-4.41874704069805
-4.95751010041005
-5.58784750766814
-6.13875891747877
-6.39060136907753
-6.08695865239378
-5.1157315896459
-3.71583852755518
-2.22558054564666
-0.601777709766347
1.48299463995759
3.97280367924817
6.11004789373982
6.93223111548831
6.07006143367014
4.08462339304628
2.02579732359792
0.623114632451945
-0.0255891466382467
-0.0147555178112561
0.750828517340046
2.29691101425021
4.25954686500756
6.10246181027268
7.4884569997874
8.34619668045408
8.80976387521312
9.13077312868904
9.39154158843456
9.29856015511472
8.50101505043973
7.08207938728983
5.49655437692049
4.05573356545231
2.69729113375529
1.24910195151353
-0.282191250355468
-1.73994769652386
-3.05114812835717
-4.36285659300962
-5.86011805522541
-7.42189904710098
-8.6247796063058
-9.20171344239733
-9.32609251574348
-9.31802971903467
-9.26086654682768
-9.05266592380586
-8.66855012132135
-8.19144820491847
-7.59272695670123
-6.53133169518229
-4.45567405136082
-1.08737422009028
3.14519208199066
7.311410667092
10.6371241517228
12.8040638570368
13.6986666642081
13.2374135834156
11.5463510715965
9.06480124810915
6.32553018927151
3.6967572442148
1.35075821330021
-0.598090267126051
-2.01281641838097
-2.87610522160985
-3.48132513525941
-4.28633660690558
-5.48917441835581
-6.86939807387021
-8.04971628838546
-8.72715847555148
-8.69478823998458
-7.97150762584402
-6.97271623437496
-6.19706373167832
-5.58055078166064
-4.42096332565053
-2.07896267255538
1.41500273116653
5.41802453671477
9.04009040193072
11.4411433315488
12.1189862594415
11.1690306444237
9.27881683068875
7.36796070421114
6.04390815683956
5.2286004167464
4.30963284160018
2.7160948157647
0.343040045308346
-2.48151881554568
-5.22280808148502
-7.34414866263876
-8.53521016190759
-8.81473145073395
-8.34195923835416
-7.24993142742108
-5.7752929985
-4.323384398421
-3.19415961890539
-2.40525028818479
-1.911170774245
-1.77010199047397
-1.93446311631158
-2.06616941640678
-1.75053546260327
-0.86183501230099
0.328189341136997
1.36399437482044
1.92977660673094
2.01013676291587
1.76222041343137
1.3069798957694
0.732626370262171
0.210198822330295
-0.0672328373388
-0.0185714315975014
0.361853120688056
1.04310575683584
1.83157919462061
2.37329018138451
2.41254823689925
1.92760709346089
1.03007147980721
-0.0497512140213562
-0.943775012473673
-1.39218965658738
-1.44883920386903
-1.20058212887177
-0.413908332242873
1.25001418347996
3.73764769629221
6.52397141806796
8.96490216839079
10.6281175056587
11.3929488485628
11.3168136930153
10.3742001650723
8.41879997365979
5.54130067134577
2.36211802045888
-0.25086253618652
-1.83149093537439
-2.67273773487613
-3.5200219632193
-4.83259005014264
-6.30331508994117
-7.18250996623394
-7.11070415820494
-6.55373587827113
-6.42054678186546
-7.34650610620889
-9.24177135788699
-11.2603472658366
-12.2252886949214
-11.4519431934695
-9.3507437954412
-7.08183685178666
-5.51588291235385
-4.54545642128694
-3.32057110714315
-1.08281419106405
2.1059707831655
5.33782942814839
7.5807870646361
8.45207048067066
8.33956834142333
7.9640111730524
7.89683076375089
8.28219083506786
8.85567009009086
9.31035606558535
9.66960564789111
10.1854647474067
10.8914655796466
11.3684943654866
10.9213155287044
9.0005784745924
5.67396682898667
1.74588328326388
-1.82103608609035
-4.67089000632079
-7.06392627569368
-9.18329736146211
-10.7250005797995
-11.2133700324412
-10.5507213441869
-9.27126677765355
-8.3187896514803
-8.36711894126992
-9.14747997007434
-9.59198159693472
-8.86647304674827
-7.21055809199815
-5.66965320743966
-5.10174598540129
-5.46352069478008
-5.89489219659605
-5.45876166689161
-3.92629868570353
-1.89091942258599
-0.153787004186705
0.889757780612085
1.33601708903183
1.5224816358744
1.75358657999469
2.1150088855239
2.5190177531832
2.95061158778591
3.53285950035506
4.28929632576923
5.02168200707103
5.51226612693222
5.72258044065108
5.80033154173011
6.05226230816983
6.85518394869151
8.3674764534454
10.2844033178783
11.9654886514324
12.8270709916489
12.688759739023
11.8769477971219
10.9465859466698
10.1458234116551
9.18059008679322
7.60893073854723
5.38265869522555
2.88863043853787
0.568331786632212
-1.35623878719221
-2.8679923812183
-4.03849208898585
-4.94402124093942
-5.65266961115377
-6.27646923735371
-6.94877567823346
-7.68793453289363
-8.40043263511781
-9.08099845557355
-9.83962427705725
-10.6590328907495
-11.2983455487358
-11.4840059143881
-11.0683496896531
-10.0707783826988
-8.73962696572546
-7.47114404785568
-6.48002279111927
-5.63856334210329
-4.75837725913815
-3.901899779357
-3.32888108804741
-3.25366914424535
-3.67085844469595
-4.29149585981699
-4.67250434204844
-4.50783931662338
-3.7592727062443
-2.55291141151357
-1.15547753852603
0.0158395435389891
0.714943930498254
1.237894276655
2.16663588106183
3.71571175138583
5.62680491151196
7.71816620329811
10.1693202404959
13.0651062304013
15.8446486195864
17.4514556769784
17.1415736095609
15.1634901876522
12.5774668647932
10.354186261018
8.73841837222419
7.48502812521343
6.39333871288201
5.40648193062321
4.47542219519892
3.62764401116299
3.0435864531114
2.88062430210078
3.09121436484293
3.46734850559052
3.79228140748564
3.95186304891002
3.89637790055411
3.39596715887934
1.93532589335906
-0.834978453121595
-4.52909754012099
-8.22757649434621
-11.3091814479891
-13.847920486141
-16.2158202109093
-18.5631247972357
-20.6846553476283
-22.1854425440042
-22.7667619876621
-22.4547791635892
-21.5357359770241
-20.2347909555307
-18.4665260061363
-15.8767387837569
-12.1863422653922
-7.64754525994991
-3.09848292991175
0.73214671307331
4.02084165155411
7.6281143100849
11.9533144740278
16.2886987840738
19.4347209383602
20.6804968021836
20.0804856636619
18.1197944044512
15.3869746514128
12.4584445308499
9.86523340006384
8.00685624290997
6.98808601979828
6.55625681773229
6.29432941636624
5.88081460658826
5.17439871899227
4.20861417153604
3.19653115525195
2.42542562519037
2.0925750688774
2.29925637513854
3.06616155622998
4.13779433399582
4.90270064940706
4.80006433816489
3.78065818800007
2.22418179724369
0.552231287921253
-0.913820000955
-1.90610655731991
-2.27739434138479
-2.10971739906977
-1.68590498224406
-1.369819217198
-1.4787647535715
-2.17444157010311
-3.44267326806089
-5.18240984312568
-7.2914808196162
-9.66599635606198
-12.1497274486254
-14.4893585763692
-16.3580857230493
-17.4995127895234
-17.8380512215092
-17.329536054992
-15.7856599783347
-13.1332303776268
-9.81706434928721
-6.5702844098556
-3.74766529720251
-1.22881995014395
1.06611018843846
3.01009978123019
4.61838571921276
6.10648965219549
7.4938947123902
8.45366005198916
8.63468920974564
7.95235443837688
6.55159369551432
4.62855133389132
2.35142107440619
-0.0272542693767439
-2.0215563316936
-3.0622929338933
-2.90022387193176
-1.72491731084901
0.146716953197205
2.4846485079373
5.02466894158754
7.39653281625199
9.26370998187753
10.4073044120124
10.7260935235588
10.3462582171745
9.70648379926456
9.36731298349092
9.67876429392827
10.5748601277212
11.5454314221198
11.8693297791892
11.1898928735503
9.93593230474023
8.88298847674513
8.19577363230575
7.17606217140331
5.09525566268282
2.08726553520965
-0.928616402573378
-3.15501553684513
-4.64940902626184
-6.09559638339458
-7.90808697313551
-9.76730585371505
-11.0812927066132
-11.6327087494777
-11.626018690853
-11.3430881243003
-10.9441783177864
-10.4697465500259
-9.92202443522409
-9.40414438918429
-9.13842864523926
-9.23520227159111
-9.50511569822024
-9.57919898242469
-9.13536653135133
-8.01760388859378
-6.29999159374269
-4.25518319129634
-2.18467146410871
-0.37397628336737
0.764216755652911
0.808114161317636
-0.20779170484713
-1.66405972648877
-2.89577838741185
-3.71564117264766
-4.2840073445126
-4.6490072695308
-4.57736195747656
-3.75426695406396
-2.07825707284006
0.210235978888699
2.76327587728043
5.53475387824324
8.75536037059013
12.3774391849396
15.7890422212166
18.2756741004813
19.6150289556125
20.1124581218006
20.1848378330126
19.9164686529512
18.8739735832108
16.4191927157249
12.3936707896321
7.47158939285481
2.7412156116855
-1.00260074093518
-3.56263064872347
-5.15385484654084
-6.03448271797305
-6.26047077021561
-5.79463849377836
-4.85514646800128
-4.00756137307161
-3.81114117574124
-4.44345207330267
-5.66873292251561
-7.04036526186012
-8.1327229750084
-8.73220649319137
-8.90799790954942
-8.91404037111953
-8.99649779155283
-9.20089110642727
-9.2854999501514
-8.88923907299203
-7.89222166079546
-6.58509460016012
-5.43137065047395
-4.74221555754419
-4.60256966778804
-4.89736718768074
-5.27617938185649
-5.3056459719348
-4.84109559971199
-4.10963500295931
-3.34084350616446
-2.49549318898287
-1.40391095603172
0.0336428611431171
1.82301122514775
3.88190097858297
6.0612825510038
8.26508666266652
10.4776413485622
12.5794687797815
14.2464429999918
15.1421329906023
15.1701331846703
14.5270504479986
13.5423310234313
12.4041503837744
11.0210214431508
9.25364665996943
7.22527102163668
5.1859742328019
3.10838725785008
0.680550799868775
-2.26480100415952
-5.47146713659215
-8.39862123894565
-10.5512884687235
-11.7624129754047
-12.2500125072293
-12.3333360141369
-12.0695949319852
-11.2878757633315
-9.9704661306445
-8.41179318969492
-6.97053497436926
-5.82130913492423
-4.9548822206497
-4.29926915649478
-3.86179363145694
-3.78314769867738
-4.11499569436788
-4.51387558293532
-4.3481467443691
-3.1897140571282
-1.11014483862294
1.481788912638
4.18652175905695
6.81273110689427
9.25406920138953
11.1604265816805
11.930373612856
11.2835300699426
9.7149205988293
8.08844490203166
6.8596230373676
5.93000128554244
5.11271233930419
4.44456273586762
4.08712421371306
4.10751270193457
4.37479715734497
4.68971036957578
5.05609853368974
5.6633293373406
6.46039140574001
6.96560716887976
6.74216715603923
5.89836526182082
4.86721854396386
3.83061329834965
2.63406632072101
1.20031433136698
-0.224946698916259
-1.26754447180786
-1.76320033571406
-1.91770452880309
-2.16494370951376
-2.83462883083614
-3.96541365005185
-5.41433965265448
-7.00507354339321
-8.54362354893705
-9.86354479783586
-10.932021961929
-11.8234934706941
-12.5783560423018
-13.1265472870938
-13.2919954850328
-12.8773036679906
-11.8752212214111
-10.5859864519815
-9.38492773650517
-8.41839152459584
-7.65084452529563
-7.08406697925149
-6.77117653743204
-6.75551229633737
-7.13627583575611
-8.02927508591068
-9.32136250524535
-10.5775394082815
-11.256182886592
-10.9338579767455
-9.35884822149483
-6.4388307799476
-2.25110256661434
2.86995438091945
8.19020376975492
12.7011979163029
15.7299317041696
17.4630989424684
18.600130610565
19.4431327484019
19.5801828057791
18.5062322484224
16.3278295475552
13.8246553598172
11.967398223247
11.3021666919778
11.6140176335318
12.1855111490555
12.4110899996071
12.1114443517587
11.3768566744369
10.3345031147496
9.03381804822601
7.39418577319207
5.32339156809726
2.98450864940182
0.826380255922557
-0.730775121765796
-1.53467226531975
-1.64314244851506
-1.2076243215135
-0.427258651157243
0.505986836176434
1.41068474262329
2.05791551346221
2.25882366695197
2.02938300560896
1.46692872827774
0.436950953302164
-1.39756472570758
-4.16813917408795
-7.55505699202699
-10.968332300232
-13.8853565818094
-16.0281041360751
-17.2959071957898
-17.5838508704652
-16.7657900321509
-14.9361187737322
-12.5390825314631
-10.0861430873962
-7.88218446684623
-6.24074652666398
-5.71480939136688
-6.63870572816883
-8.44253712283796
-9.80429374582568
-9.6407966541313
-7.87652066226988
-5.28436105067997
-2.70955129503845
-0.506226350474232
1.30762833806375
2.56319302559159
2.94923483996526
2.54538676827368
1.9857448501137
1.87624411809472
2.23611138413835
2.63207958524056
2.66667480080877
2.22671411367869
1.43564241476246
0.550157195678619
-0.0613423117252995
0.0830163760735299
1.38063201766696
3.75352501656751
6.58342886319611
9.25586736640111
11.6492864791334
13.8798263414458
15.765879580174
16.8871732363899
17.0866002782936
16.5829158619447
15.5753146247266
13.9862136236703
11.6548307628366
8.65687420890971
5.42451234027652
2.6309389018796
0.904339019766865
0.484856364198
1.00490533780794
1.57133446710194
1.24743064658055
-0.302353556027721
-2.64386063472322
-5.14757890372581
-7.58510938716219
-9.9848497100013
-12.1203084959843
-13.483435235742
-13.7446263101946
-13.0661483485358
-12.0024897182053
-11.1571132110632
-10.8307996092946
-10.9366090688419
-11.2470472648445
-11.5733156372752
-11.6379741952956
-11.0570657088151
-9.66883580281304
-7.68818849793474
-5.39189036949583
-2.877113526277
-0.262881471462016
2.09501664540836
3.77224558492421
4.6141018176453
4.88188161579721
5.08916941550661
5.62786422293687
6.48882298872817
7.36378394267841
7.98114472783551
8.27360427616844
8.34444119712619
8.46471518336
8.98529008063906
9.96289747859592
10.8974341838008
11.0680522434775
10.130376703237
8.30041717226164
6.0974873543457
4.03393779790789
2.4174653169459
1.30342883831629
0.62334088993446
0.318808305933391
0.331065190032894
0.57657700097899
0.977082307453392
1.40906198261717
1.6586758601343
1.58090820122255
1.23158333884659
0.678302104836622
-0.190081188617281
-1.47670484288189
-3.04802294618212
-4.68916837353731
-6.37662417771758
-8.25074181020898
-10.3666204255782
-12.4858108206308
-14.0712817686929
-14.6146111996875
-14.1013950148125
-13.0473748521488
-11.9783031222642
-11.0031260881866
-9.94590223084398
-8.66534196885461
-7.09242117868493
-5.14346624709501
-2.83577338978343
-0.476516431119371
1.42207741164784
2.54965709315521
3.17736316337192
4.03319648280303
5.64467272064545
7.86898734047366
10.2064805486236
12.372499870666
14.2795815678123
15.6732168387065
16.2082383423705
15.8486445352096
14.9120287724815
13.7482091972212
12.5119587442192
11.1458627820951
9.49890558181353
7.56862239777249
5.60596382229671
3.83044169314946
2.13607642274359
0.273868661047897
-1.78865294686442
-3.86970728287184
-5.78415711953844
-7.35975879997472
-8.35604327391104
-8.55804342585622
-7.99673653215745
-7.07944120482263
-6.46369924744547
-6.66778813694884
-7.72863139789189
-9.26937580220942
-10.8454491788483
-12.1282846183379
-12.882812570731
-13.0243940077305
-12.6969778356014
-12.0944342367509
-11.2139453871851
-9.9402017987426
-8.29302756027014
-6.4239535685991
-4.46513108386924
-2.50679440515176
-0.580364761274412
1.43452085398196
3.7143154137538
6.20429642204938
8.53683890973654
10.253025904605
11.0279377279776
10.7731654931299
9.68685603919469
8.19906500757577
6.7863206093806
5.80043351165287
5.38624004554825
5.47777288323092
5.92679663456319
6.64932696541924
7.51288367856327
8.12244623329285
8.00773068507642
7.09994516815545
5.81361131753987
4.62738533854182
3.75582350612885
3.18749046282434
2.84264721167424
2.69925744149161
2.875055877456
3.52953240179674
4.60317472326895
5.72853874159559
6.45967244144586
6.53192130815856
5.91704313326141
4.74644430660317
3.17868076604158
1.27159509859693
-0.933312019737939
-3.14896446164643
-4.86246103918551
-5.76746446992997
-6.07850656507363
-6.37409543058575
-7.2211049636063
-8.85750966758381
-11.0369723542024
-13.2219208645048
-15.0530493570464
-16.5462106205926
-17.7881674570713
-18.6444995832108
-18.8642992070209
-18.3010154899234
-16.9578001125624
-14.9414561393676
-12.3899287708912
-9.37227492970239
-5.92274159971205
-2.224383207756
1.33745880192807
4.30528300185954
6.24688145702318
6.8865541808894
6.41165166005084
5.59451288184537
5.35757542498163
6.14258211968927
7.71372551044644
9.46706891531522
10.8726187375946
11.730490327279
12.095419347014
11.9767089757507
11.2430610386717
9.95792769659257
8.64556059160414
7.93574877354717
7.95360283526009
8.22022765805602
8.08362264630774
7.14188790703928
5.4130043517976
3.27706811510878
1.21477020002366
-0.448689548308606
-1.54631272235394
-1.96190315290007
-1.66135009398851
-0.7610327660284
0.489755990000921
1.70180709068978
2.39151593949391
2.28377601108957
1.58117116432647
0.74109326094212
0.0258753547033842
-0.570881574101013
-1.08252531206971
-1.45721645731281
-1.60116654908828
-1.4101425861222
-0.852161498975469
-0.086506866786074
0.571802794462193
0.810501231614396
0.422537806419006
-0.617619029193052
-2.06645804160449
-3.49952887075725
-4.6050134749986
-5.34452725274145
-5.79871299064298
-5.98754931922358
-5.91706861367583
-5.69120578599632
-5.49904584046097
-5.52825600493368
-5.85380637397339
-6.33482647014824
-6.67733045461956
-6.65726970145874
-6.22880016251744
-5.44805792709866
-4.41815251363546
-3.283031095184
-2.19796342735789
-1.38531038222898
-1.19761814150489
-1.85567794941438
-3.04040019818487
-3.99000046928114
-4.09238233937807
-3.23977201305694
-1.68948769289885
0.166633238987372
1.94822874644769
3.42759413377603
4.52073700116697
5.1163731771673
5.09915489122001
4.58127658543683
3.89234122279034
3.29719372904356
2.89326425959512
2.74825213212897
2.92726463358533
3.37062680214743
3.87992738142717
4.24560779502736
4.35820992657855
4.24782703807345
4.04078962856167
3.82110018645029
3.54351778710506
3.14223731537361
2.6596443590436
2.18934700604793
1.79924574752727
1.58350301409017
1.62499628249253
1.81621881729817
1.88167754983121
1.64740480284081
1.16888679816201
0.62109135825763
0.199892452744389
0.0578737450915498
0.19163189994082
0.439326714629843
0.636513168795062
0.696162927008512
0.594192356649511
0.442388005180438
0.489557931995507
0.83748239251565
1.22949005113072
1.31888224014198
1.09260839022788
0.904540825182156
1.15230831195929
1.95741422102205
3.06702300842992
4.0728811885822
4.78402144984144
5.28822409244419
5.60824407258373
5.51095098678137
4.77483025022122
3.44655466456833
1.69995928044516
-0.37579568144695
-2.70018048918136
-5.03951755842542
-7.03101221634214
-8.31366433778505
-8.67790368558812
-8.24407681823836
-7.47475974833229
-6.87071487708957
-6.6540937696185
-6.76977616192388
-7.08306028402995
-7.54354431979034
-8.26127132958811
-9.40169051216876
-10.8994515298195
-12.3350131534712
-13.1764077446969
-13.0666918235616
-11.8981361274036
-9.83513841974619
-7.3266381751722
-4.89761230478346
-2.82750115927227
-1.05403867428839
0.701014577281949
2.73464787032536
5.06167148721805
7.22090051504237
8.60746506877138
9.06193604076391
8.91917572862769
8.50033516648583
7.83697447855474
6.89897409843098
5.83234492878399
4.91118704316087
4.37978019462515
4.33485581162938
4.68591231294887
5.27027666663716
6.03369266500963
7.01130440510515
8.12146117399516
9.08450790755965
9.55131291295254
9.26663570178284
8.21537140456393
6.69680090331878
5.13158904741113
3.73242229948432
2.48174606238176
1.39003892694198
0.56928471098764
0.0792841423282496
-0.125240017693647
-0.15079582552758
-0.178941971640105
-0.401474706638976
-0.847896841379116
-1.39141126529704
-1.935255751205
-2.4500153041703
-2.88683942244663
-3.24283724116286
-3.64300279285203
-4.17155727730447
-4.67594840546977
-4.86330772942161
-4.54967629983
-3.79863173663502
-2.89648857313195
-2.14650071636969
-1.59660104313149
-1.05974522932422
-0.464453058804117
-0.014725873704576
0.0869341796637155
-0.113362739788044
-0.459820329453366
-0.903200919547243
-1.46953393438295
-2.14716506168697
-2.88281457675577
-3.58528686473575
-4.10947538605843
-4.33075651161813
-4.2224496446849
-3.81833548088884
-3.19628430968515
-2.53222604608576
-2.0303278216404
-1.76469575283082
-1.68475910339694
-1.71296878156293
-1.71449035485357
-1.47740413351121
-0.86976397346499
0.0423819753328314
1.07010163897821
1.9913719205507
2.60255795881067
2.84203203861331
2.83565591824065
2.72445841107801
2.55575570891789
2.39585872569575
2.33415518620819
2.30074332282119
2.11185525008945
1.75117248110071
1.38722321370388
1.10374001937415
0.823885771967053
0.491882847790392
0.154949500293616
-0.126059016766129
-0.342006845318429
-0.53025597330558
-0.73523299375756
-0.928479707403664
-0.99663564701692
-0.897303805861666
-0.766779481989068
-0.753171805540307
-0.820891625865234
-0.836569177080421
-0.724313743086743
-0.421674733463555
0.151803741458824
0.962292151211016
1.84054754281657
2.63872921805959
3.26840840551878
3.62575220179481
3.64733169910965
3.37890748492443
2.87806723535587
2.17538519233623
1.40351107729101
0.778492419082572
0.377601484071874
0.0876374463021483
-0.222033283582806
-0.618766106008525
-1.13805512467813
-1.74285300968129
-2.30231694288112
-2.68243828322722
-2.78022480091226
-2.4922429828586
-1.80109015741376
-0.870376102254998
0.0630234466673257
0.830240687873792
1.31306352575549
1.44906754824773
1.34290504462566
1.2176910158833
1.1777440675403
1.14467633373086
1.0400905125582
0.871696631497028
0.647459936270687
0.385798887124998
0.202437999153352
0.226231804769212
0.444984379105278
0.724582277839018
0.909107761593853
0.877865898121046
0.646788905355699
0.410435204420203
0.322821161178146
0.28145856078339
0.0795199766940564
-0.325270869659875
-0.832582850031088
-1.36295215964143
-1.8858356692766
-2.4043170352085
-2.95832414191153
-3.52303180996624
-3.92762591458293
-4.0014957655616
-3.74795898271786
-3.30308337800224
-2.84358689456373
-2.56447372505773
-2.56582858843002
-2.73583418446876
-2.90097313390495
-3.04816610841155
-3.24478529382051
-3.42903354002988
-3.42907702742929
-3.10538165781664
-2.40036204430885
-1.38980675608479
-0.342562718520721
0.448380449757732
0.976057744596131
1.53439605322513
2.40279881027159
3.62691270967414
5.03807482144201
6.3163095200135
7.10914129841228
7.25672165080557
6.85657905302232
6.07140723408181
5.02823089545966
3.93036013586751
3.07119862712865
2.67281047028242
2.78313870106843
3.26172988896944
3.79127907868893
4.03373085438391
3.86658986544613
3.39039255052499
2.74571219577665
2.06134873279713
1.48356627182871
1.07170863440289
0.752371333363303
0.493845487596496
0.369355642407448
0.355755313165174
0.264900962459018
-0.042695956197369
-0.533858634994701
-1.10062786892092
-1.64206445179386
-2.09620037768784
-2.50654156192392
-2.98305574450003
-3.53523157766345
-4.05779224238741
-4.51199446003172
-4.98560356505729
-5.56717769817656
-6.290654019733
-7.14936346478163
-8.0031687552438
-8.55839281259564
-8.62331652387287
-8.30453100969136
-7.82419796029934
-7.27184563872167
-6.63664716910417
-5.94025882782057
-5.25622259530738
-4.67679849418276
-4.23295947396217
-3.7824784316398
-3.08461257106319
-2.03333278544502
-0.66337136610133
1.06243955935979
3.22096020298484
5.65806716211702
7.97716413967132
9.81794572612122
11.0042224409507
11.5116955835361
11.4778587433924
11.1757499435395
10.8416668819744
10.5506073470878
10.2422077641127
9.77433276415238
9.02265576720513
8.05171684825905
7.10515912803863
6.33113778135055
5.61998309213649
4.76755741651101
3.66608540605464
2.30780743188464
0.770757776859685
-0.757217473924551
-2.09217641664632
-3.22112013188461
-4.25641875349102
-5.28411879935073
-6.36572796101217
-7.56492435400235
-8.8392900459449
-10.0163549965004
-10.9258768578005
-11.4047264309531
-11.2183832577104
-10.2314110905363
-8.6315831415906
-6.75750906550095
-4.76072159080377
-2.64033654899736
-0.530730538241037
1.23602967670903
2.33854054884979
2.69223605827565
2.52602057997287
2.20088400144821
1.88451952249829
1.50294437046275
1.04934085128897
0.725580025687308
0.685154913957833
0.846572293045183
1.04820639822149
1.21344379384091
1.32676420718938
1.40254018021871
1.49194349474517
1.62386970053972
1.77006342090122
1.92043507036372
2.11673613435005
2.37820422416218
2.68024549901219
2.99114458250156
3.20072482891894
3.05848101790872
2.3745064094522
1.28231397731951
0.164297928686886
-0.649080834343988
-1.02469291700166
-0.998618724881018
-0.726394582721856
-0.390174040446
-0.10339088699164
0.0719095103575267
0.106124325035623
0.0721926752258196
0.103875009585925
0.222394244508804
0.354422003361067
0.52390820386541
0.813699870124281
1.13962623013416
1.28413187455754
1.15929635343735
0.875447917058551
0.574497212146887
0.279288265135117
-0.161795273785683
-0.975092244682346
-2.17159216326674
-3.41240921138405
-4.31784737498715
-4.80515727607152
-4.98508766564525
-4.91490549119038
-4.63045543242048
-4.23724048592717
-3.78965612556463
-3.21231159136159
-2.4523271101237
-1.58127026087883
-0.686251895332892
0.205746904379527
1.0657109261728
1.84354044175362
2.50743895410161
3.03706359955665
3.45823135697133
3.90560053218356
4.47183367598628
4.96979923814407
5.06339928176234
4.66154105154883
3.9935478091051
3.32530634449979
2.77960277605647
2.36373296190993
2.00364874518956
1.60970600720442
1.20046913302337
0.892759959814827
0.770772544285397
0.862227479642912
1.16203943991609
1.53623480178079
1.69982262390876
1.43268229290876
0.754285792276914
-0.151098856224347
-1.07600128853401
-1.88615990987213
-2.60932822365966
-3.3759632708683
-4.18826544251506
-4.87227192571091
-5.32079146853048
-5.61212107281616
-5.84218139720505
-6.03590554202197
-6.25557533322675
-6.57837862629661
-6.91965143062619
-7.05858541802978
-6.85036348993441
-6.26650435434258
-5.29269673161842
-3.95447438333598
-2.3533591024622
-0.53461344300574
1.55600593926148
3.86296668825511
6.09444460463385
7.88606931438922
9.00510852938776
9.41732960351483
9.28179634979563
8.86460566714048
8.37894380269103
7.9197492371568
7.50966865783312
7.10264680247482
6.60556387164453
6.0231707444258
5.50120838112128
5.13068589993124
4.83521158689592
4.50849556635353
4.08664114588701
3.46329090951994
2.5553752076474
1.47193697198774
0.413102125559631
-0.603627009782562
-1.771607901966
-3.28095056212137
-5.14823005622547
-7.16160943917202
-8.92867766926993
-10.0729140721194
-10.4360413015376
-10.0648959565114
-9.09157542747919
-7.73999963584731
-6.33480230258659
-5.12104038093125
-4.12943901748014
-3.31995471095094
-2.73028104573032
-2.38706104856676
-2.21757248113862
-2.10911007163584
-1.92049615019166
-1.48039607144778
-0.781384842894867
-0.137416418583412
0.0374865325446078
-0.408075600069522
-1.26971797839487
-2.12837630482777
-2.56783038352668
-2.45554520597054
-2.06487775396339
-1.78546682261262
-1.7272464863723
-1.69318566615916
-1.40616596726506
-0.644097762235624
0.67665891369046
2.39862007232391
4.18888378485973
5.74537718252676
6.87326395464417
7.46068276402766
7.53832260801759
7.29581783399411
6.92384834007595
6.49760516289195
6.04015137967552
5.57496595474736
5.09231452717976
4.59455308469644
4.18256670296058
3.96724698386444
3.90259622817658
3.82058288312256
3.59807735632692
3.20823860626918
2.6908428804722
2.13941716138697
1.62121966815708
1.09131556749722
0.486582915962108
-0.142568750904865
-0.694487260150799
-1.10791702884599
-1.32373802898215
-1.33331251844659
-1.33006393594229
-1.60348207477435
-2.21745175842661
-2.96271835393417
-3.61683384290508
-4.0889593629433
-4.3899618339239
-4.6351857637273
-4.98480445653926
-5.4579298608323
-5.91217293264677
-6.22653417970775
-6.32666682559443
-6.06829287689231
-5.33534179049625
-4.22688932763408
-2.95470671016175
-1.62981981626295
-0.313223332542928
0.83210915426398
1.59844177722174
1.87332501744039
1.6661735030354
1.11762581875188
0.506881509625127
0.0910732035137595
-0.0911920392496388
-0.138619256016917
-0.06779351953264
0.175055106542671
0.562387539570346
0.989194066750123
1.36394075825923
1.63253119085375
1.79543878583451
1.8954767557353
1.91041370411783
1.74596791512302
1.41341573114364
1.06712364671292
0.796399623104352
0.551607143895294
0.312261549981815
0.144366615631853
0.0896613760497132
0.16430458149658
0.415855528464439
0.830137109474779
1.26226818092363
1.56431431589789
1.67126895154652
1.52188624859764
1.05368429648914
0.309728764516428
-0.558422635966485
-1.3599523958685
-1.88524606989501
-2.00386698812531
-1.82190932789824
-1.58772145797686
-1.38775204657542
-1.09406310857849
-0.624909939562536
-0.0704759441895768
0.454247068219417
0.911964539348774
1.30290153554633
1.6576040742424
2.0175143622487
2.31050932449688
2.34137304238947
1.99301210031496
1.33205509084835
0.509368969657436
-0.287098282770924
-0.816968054319095
-0.919214157888333
-0.658017881291016
-0.246472081690592
0.106532965402202
0.24989712913037
0.145345600221172
-0.0882257097177683
-0.295006827481785
-0.418479811256656
-0.441413978146665
-0.330121847791715
-0.150020680706558
-0.0663116525462848
-0.128825144455961
-0.231411870463797
-0.321717873978002
-0.442636105587199
-0.569800181243659
-0.62276671563322
-0.607055279656161
-0.567028501837199
-0.465993526700057
-0.252933555545117
0.0386696690328185
0.349954848799509
0.653839252481078
0.903871739650962
1.03486323240613
1.03924202086376
0.955445930312637
0.805107918584981
0.613184256405803
0.410926894445499
0.170289807358528
-0.125587491555113
-0.333004250570959
-0.279185386915844
-0.048989679225951
0.0895324090363065
0.025562805164154
-0.147443840884275
-0.355364883622694
-0.588888029328391
-0.789908564370692
-0.872619561923399
-0.81534105235763
-0.657801061733206
-0.482525740110457
-0.402313891694362
-0.465570040029974
-0.602235124853877
-0.732082221074139
-0.839435300213943
-0.900678779491478
-0.875993490906406
-0.795656790380553
-0.713554056456866
-0.601126717351311
-0.420636828566123
-0.227304623651535
-0.0865059687351904
-0.0034923895456542
-0.0062369183326856
-0.140276130731831
-0.329514148298261
-0.414936952375598
-0.367017787486048
-0.291438328873741
-0.217265134785405
-0.0560045587083573
0.233060880954175
0.599143131501124
0.991696284803798
1.35579340910541
1.59473382757821
1.64737806692378
1.5346364034824
1.2919061948282
0.961040105017246
0.636847105842525
0.397664519215791
0.228648982568675
0.10544013180293
0.0649191750869439
0.122510785384858
0.224166949094766
0.306182511809334
0.302640115260185
0.145589419679112
-0.125341362709212
-0.356477264138133
-0.493362299763006
-0.65388936885358
-0.896287827458496
-1.09233742559021
-1.11068950857378
-0.964256396178816
-0.744997369988214
-0.550083302069078
-0.445151890610677
-0.385563071157888
-0.237548145874021
0.0507407328369348
0.397988070549606
0.738272683792968
1.08090721231593
1.39666635084354
1.58420737709247
1.56608860065114
1.31308192655822
0.828499884645667
0.236632755705378
-0.215334249315432
-0.407560592029655
-0.503561752442615
-0.710003659336491
-0.968854230354255
-1.00124274973835
-0.614633932772131
0.0583616169546736
0.612164096489609
0.727895531833272
0.490732300077528
0.23550447424722
0.121369684070793
0.049925252532276
-0.0567497752377285
-0.146128047077401
-0.17959931342796
-0.179679618818645
-0.159184794773448
