-0.157955084968057
-0.312658609551993
-0.366684677033446
-0.357204338055994
-0.358196087711044
-0.346080612158603
-0.273481849233738
-0.186499765105749
-0.139147394844601
-0.102869433967678
-0.0419568671702915
0.0484464455766562
0.193066969695992
0.38181503281688
0.5070257039871
0.494691229165601
0.416517939505636
0.370576704822946
0.379645443441187
0.468702475238554
0.670659819657322
0.90661572479764
1.01795623730745
0.936183977296422
0.726667470809517
0.526727374420747
0.486866386474175
0.623607625488756
0.704990186480209
0.473219675411224
-0.0242734438602456
-0.517658949600782
-0.862782744234464
-1.10425930526174
-1.28671334973082
-1.40902047714648
-1.49765042596778
-1.57740906690219
-1.62384388974329
-1.60956034785781
-1.51627012978031
-1.29307701979132
-0.922407596633519
-0.505821434467954
-0.151026010793519
0.16141684036799
0.458125453101968
0.637513236123906
0.610319421827842
0.448580268915818
0.273267162016704
0.126617254662209
0.0228976170266015
-0.0044429158250387
0.0735736068727678
0.290119429425474
0.646418161564769
1.01699529250379
1.23233787561593
1.29096568840521
1.31994053511653
1.32943785528395
1.20071961528355
0.889210217450678
0.456191281007939
-0.0442695624082759
-0.557387163543069
-0.981770409128482
-1.22714374324631
-1.24657586466003
-1.02774584053283
-0.666288440859781
-0.35938716653735
-0.18694964360975
-0.0226758101107409
0.220755104347331
0.432676886255669
0.501889177127169
0.477393212445644
0.422598819535268
0.296663987273992
0.0753728508629121
-0.176083257023298
-0.407216669043729
-0.609702409721289
-0.738450687963058
-0.749809446144852
-0.687501839971136
-0.624734101988811
-0.592106946202272
-0.612278353355461
-0.690050986657288
-0.762351798803958
-0.780170271759569
-0.784718944296762
-0.786701493446824
-0.689016697801795
-0.44635205588158
-0.1620849306019
0.0596372242595689
0.218688404648959
0.351792063424018
0.503141349208287
0.726155901467339
0.981300761658381
1.12465065779163
1.1142014886633
1.09740011061685
1.20986542906763
1.42734667437389
1.64163306922956
1.73975121660703
1.64156555010401
1.39598385105388
1.17651715625827
1.08682000668
1.06433883987279
1.02136831361731
0.947607762221705
0.843027455586554
0.691015528767666
0.513741834406272
0.328039117218412
0.0766580093165461
-0.269773657647686
-0.623878748784236
-0.923651457231125
-1.23285785380718
-1.57575113347685
-1.83539830827703
-1.92265609741276
-1.88877154845853
-1.82591438660963
-1.80537860278543
-1.88661503279751
-2.03808275003781
-2.10829946628323
-1.98366010204071
-1.69211823476191
-1.31235653539005
-0.906904354694449
-0.542389182998233
-0.234303473167512
0.0968578948704173
0.497024416427255
0.876331519524376
1.10919868946724
1.12785142978727
0.906990021529974
0.526536016437417
0.239764332399983
0.291299818018038
0.663171359382272
1.10323966618684
1.3451302876137
1.25431710083769
0.890049284125227
0.482537484806427
0.242383598894546
0.175431964678868
0.164230898360899
0.161569741897517
0.176656521582159
0.16443080472692
0.0874122117009991
0.0033486423022583
-0.0326296869887442
-0.0383787468983913
-0.002834763473155
0.116687500873667
0.254449980076617
0.29182783553005
0.2571716364016
0.275214099126121
0.356402055728487
0.406557475114114
0.369985515690349
0.242860233069875
0.0546563849326681
-0.10190091461748
-0.152684494410806
-0.153288136072869
-0.188279477819169
-0.229807307628457
-0.222086379196035
-0.183745134278843
-0.122307797794925
-0.0032336667659504
0.131822209392844
0.18121989806822
0.122434846629243
-0.0141762401725848
-0.228357288316501
-0.457149412281096
-0.541361568976256
-0.43445600836146
-0.293416542200369
-0.254805647381936
-0.288725715109778
-0.339371032276064
-0.415155724130278
-0.482245370638116
-0.451064264149365
-0.305128155638768
-0.101147980031194
0.13101106626497
0.362524982916538
0.521365285671303
0.580741084044569
0.589955930306131
0.570496211208755
0.508221715770517
0.435114292880556
0.383613799549873
0.324463539391042
0.262188301827246
0.272975858174214
0.362921782824535
0.437307614252245
0.448236240245015
0.411559724650781
0.305974352868985
0.134959477800988
0.0147787162833245
0.0285223048773731
0.0983313072096633
0.126113695312052
0.103220900485693
0.0004437519090373
-0.250505751785883
-0.607674547300598
-0.93318456018415
-1.16330018044907
-1.31581130121908
-1.38226061739003
-1.34405439719882
-1.22605304698155
-1.05257370002032
-0.839335935924203
-0.662174319750961
-0.613180542736702
-0.668970810366496
-0.717623510372713
-0.697176737885169
-0.591491557826226
-0.359160089044279
-0.0014568802395291
0.384812092190161
0.727023038936257
1.03693855842962
1.30081394844167
1.46314908744694
1.53958159687564
1.58994266964981
1.59163743180979
1.46489675136048
1.17800265209418
0.76329252581625
0.319807217667691
0.0031067488534672
-0.119044964874846
-0.160633869071103
-0.241389542680642
-0.330764719425514
-0.393227327632072
-0.50653103151645
-0.693578104023176
-0.827282750142833
-0.815188253800937
-0.707851198256501
-0.587495188031644
-0.507051910771111
-0.498538024899224
-0.501417361400672
-0.384429143578584
-0.148126697645549
0.0456461296573933
0.131026604898515
0.247272471968874
0.522289860542013
0.919503908758255
1.33255845559487
1.65415421497775
1.74971996609402
1.55153111398319
1.17564436025218
0.800301492893155
0.478582171773485
0.179252648167627
-0.0870840044162143
-0.274599153273755
-0.347177901340303
-0.289254512076456
-0.138326777653689
0.0433389402859025
0.265974894326707
0.549117649397082
0.749642461010556
0.659744257507514
0.300026138791587
-0.0891974998063627
-0.346097112842248
-0.500574308747884
-0.646446168197469
-0.85722683603558
-1.14798023900546
-1.42885107687677
-1.61359152918322
-1.77743622050274
-2.02411947538961
-2.24583580763799
-2.24463264558731
-2.03311966319491
-1.80131025544335
-1.65411837473195
-1.54941797834427
-1.41214388730552
-1.18129065337522
-0.821857664355163
-0.370582636568814
0.0965913724067762
0.558394792003251
1.02831431250132
1.47337348795649
1.85145767908375
2.16753185465749
2.40501330315633
2.49743413131837
2.42495744573168
2.21864385532745
1.87893079790823
1.44788546311621
1.09080040554799
0.915697076401616
0.80971891845399
0.623639687417872
0.385956010886052
0.202793805373613
0.10666917919573
0.0957478024509585
0.161332295569208
0.237982190242909
0.263351879744617
0.254422999389685
0.221183909458658
0.119706825901325
-0.0240365083612424
-0.103772242129308
-0.0978552346354587
-0.0795478506924387
-0.0823140101514541
-0.126968052564551
-0.295680794207793
-0.595698580973004
-0.859101996153811
-0.937077085287626
-0.882346291755739
-0.836710483578484
-0.8675700761781
-0.976835552250883
-1.12645791689931
-1.2132497204712
-1.14958206518491
-0.978278127675111
-0.810606483826843
-0.708139749994067
-0.695157459257936
-0.74720169194463
-0.706432103904337
-0.405298980216767
0.0708049228641478
0.438446520856747
0.53850291825983
0.429401477642767
0.227282408285144
0.030384808876849
-0.0818686920475651
-0.106421632816802
-0.0977736604861668
-0.071086784048689
-0.0396013289890347
-0.0836630255749636
-0.22007855702031
-0.302282530697287
-0.210476710826469
-0.0145887650094456
0.174135716280401
0.353006389619608
0.541073173889337
0.701673370225358
0.794235479965566
0.791067037224786
0.687085662676667
0.571308068278505
0.569172010423036
0.661703300956174
0.722270487094599
0.745151755275184
0.838092378059638
0.992425703045473
1.0774467033519
1.05516069245144
0.997205005590224
0.92273742620088
0.814621426946798
0.735660775891644
0.748659770400907
0.793071999814151
0.763288185987067
0.611290582971969
0.325517808738822
-0.0539401265611773
-0.403929465803184
-0.641127172515842
-0.820170329508036
-1.00252565270678
-1.14910267410855
-1.22781643360862
-1.27214892332458
-1.28042250760412
-1.21716270072466
-1.11808947034309
-1.04441950011288
-0.98276684631328
-0.911393563449714
-0.855332962665294
-0.78445424284252
-0.613795842477805
-0.362355985488469
-0.138260449543552
0.0390344670181589
0.22752015905927
0.416598354317337
0.545917811372537
0.595741051083671
0.552275775907473
0.391381677423553
0.165614703318403
-0.0193183399658106
-0.156169607489467
-0.333702014407073
-0.56665466010182
-0.760279643348559
-0.846614243649609
-0.847274994187336
-0.831175586817267
-0.87967941846067
-1.00741577354503
-1.08582494749144
-0.980842134908365
-0.74979213142968
-0.531259219603296
-0.313156936020113
-0.0049945336967305
0.369921746293135
0.736253121594435
1.07952689284151
1.35581809725667
1.45655858125278
1.36415804081603
1.18027976295887
0.970634379907828
0.750771772850268
0.595862342384507
0.589085702415932
0.702359254715469
0.843125065646369
0.941285799458187
0.944083105220616
0.848503083036648
0.744375445938763
0.708368971815604
0.711000204104174
0.727043280964487
0.814026969859199
0.976358157060498
1.0903179411663
1.05340814756852
0.881369714223088
0.616585864030269
0.283871622902824
-0.0486138573675364
-0.319158909318898
-0.578227014512005
-0.896635690914386
-1.20800023634163
-1.38477973483817
-1.40759474138877
-1.34960949872316
-1.28089084801278
-1.2474988903032
-1.23618038625926
-1.14695167137003
-0.902680836459113
-0.548796433920656
-0.176609337788103
0.151864147108062
0.361531865690513
0.391952462724288
0.295948214891366
0.1821556875769
0.0888413059752359
0.0244137022323089
0.027656925488988
0.0755799808855096
0.0730838876224363
0.015748291049504
-0.0025797317596941
0.0312043871768814
0.0526053331678215
0.0726141155354429
0.12866788516024
0.144323137576447
0.016229474158247
-0.230898952101789
-0.492049932217029
-0.688433392712565
-0.769088914019042
-0.732007948503803
-0.676392184630837
-0.712415468617048
-0.821593835633562
-0.917202784006656
-0.981523909954784
-1.01566604306608
-0.955918228525739
-0.776815462549218
-0.554929138657761
-0.324601114381139
-0.0221164783631879
0.358507893520436
0.713437080489116
0.949276288356089
1.01444529188492
0.866458313500773
0.549210610726734
0.230522506202372
0.072947739352915
0.141978851523575
0.425980119350582
0.813375569889303
1.11060755037287
1.2308293902438
1.2782278192826
1.34236513189927
1.36495718489493
1.2967832808678
1.19620665615965
1.10736486086219
1.01832826814852
0.944587947103589
0.890893834761908
0.783119613284073
0.575769344004117
0.329123452088063
0.0757070130853316
-0.254754158183147
-0.68990728227698
-1.13109517463156
-1.47545812434223
-1.69459570099435
-1.77279644856694
-1.70023940813822
-1.515109706599
-1.2292643268223
-0.781596610924495
-0.196502215030468
0.318533816800799
0.561396806159308
0.519661100830565
0.314187273134148
0.0924730042968614
-0.024725995800563
-0.0388249317249807
-0.0841224225358819
-0.239216121088457
-0.416366550896915
-0.504084337036713
-0.486428221546593
-0.384204761247674
-0.220097945704464
-0.046751394502174
0.102314263968321
0.241345981099249
0.348967364993676
0.37952731497633
0.390922118562824
0.485372368898316
0.6127622686378
0.622636667178714
0.492136341267139
0.332735591958485
0.227003251982539
0.185788342402189
0.17223118644777
0.0860916438521619
-0.152606717879216
-0.457203891880584
-0.636592395864497
-0.609346505603003
-0.437050546205522
-0.195357578927338
0.0451428976415876
0.189324919337436
0.22646255642213
0.278691048664661
0.412334594371261
0.53153291269156
0.562553341134929
0.57711775465159
0.642743126850673
0.704650339251668
0.671114036723625
0.511584511001098
0.281817422790987
0.103836348690981
0.0374202144794412
-0.0371978617166463
-0.270494423351492
-0.605807794712683
-0.859517828745815
-0.985369716258958
-1.08886464125406
-1.24599073607302
-1.44136261468751
-1.60753251486728
-1.66379266471262
-1.6160383312879
-1.59319112482437
-1.65557204336804
-1.66989584862389
-1.52741014579153
-1.3290618375911
-1.18491668473843
-0.996788144357739
-0.601075466244319
0.0076886619589443
0.698232488558933
1.32059988129386
1.75163619852225
1.95563674510944
2.03522862178313
2.11644736538737
2.18840505926734
2.13978547337468
1.89790082672358
1.47262016034638
0.975222273921577
0.628339634579555
0.596433606077929
0.780076018362634
0.921981715021261
0.887527827496568
0.723366043555661
0.545261561157867
0.484137789142546
0.610183483630802
0.823324359525922
0.94012015828394
0.895063217713962
0.732996699467154
0.488603802556448
0.224351955467938
0.0591478408949323
0.0140815693576093
-0.0284559091582325
-0.1289821778498
-0.232209300095553
-0.329260047631156
-0.475173789265856
-0.656175599730132
-0.821389800610511
-0.987941606869761
-1.17075704177384
-1.30658225093724
-1.34698046097011
-1.30532584565627
-1.16368455963865
-0.882600069781496
-0.533407342493401
-0.276062057641295
-0.195095384449368
-0.273829961509492
-0.480225161101916
-0.744834983538699
-0.928688932810759
-0.943153671684405
-0.833264429582789
-0.687957566686949
-0.575341897130429
-0.555826828781818
-0.618720849608404
-0.661012922595436
-0.654120077520923
-0.71355322904812
-0.900107507407659
-1.11927709356274
-1.28702229098934
-1.39315495947943
-1.36416881876946
-1.07662442033184
-0.526662850532548
0.16671171321724
0.865464961466647
1.40133955245217
1.60722897813584
1.49303573766101
1.2625679098132
1.09261734262319
1.02054538730773
1.02822716713898
1.08668823672919
1.15446572071309
1.2292210441646
1.32824723630613
1.38590304214455
1.29675031815466
1.06996081569552
0.80660724984083
0.547781311695058
0.287422630992213
0.0854750860419795
0.015122562843399
0.0517139032514177
0.139659815044056
0.281588187391953
0.461773144279682
0.602978846637883
0.665607917316887
0.661007744637668
0.578179056114282
0.45014899135416
0.412076486900876
0.522072390613226
0.637837450429742
0.611919824919738
0.462800452696991
0.261637061524367
0.0261430222914094
-0.223982149132745
-0.476002892003135
-0.77956117415031
-1.14865962470412
-1.48304761274083
-1.70310626952587
-1.84082497812397
-1.92867329676431
-1.95758788375687
-1.95813382662017
-1.93880361627923
-1.77417924293744
-1.33945528816858
-0.707698141495796
-0.0743487139438565
0.442285299451528
0.838888725950188
1.15724725503023
1.42940633252153
1.61930298164243
1.62462312488947
1.41520513233493
1.12304297674197
0.903664754166062
0.772377302671265
0.650903742128858
0.469676457402167
0.171131051576838
-0.230403624035475
-0.555647489612436
-0.614485870173138
-0.461115196567982
-0.309728889861813
-0.241134359203193
-0.178442904916761
-0.0804170954649358
-0.0017407214277631
-0.0326005098147511
-0.247400106874454
-0.618925416348156
-0.999317034185159
-1.29718657894541
-1.57566570780587
-1.85390784492264
-1.98488720426862
-1.87458651111604
-1.63069031948039
-1.36547713701693
-1.03662776509409
-0.572842680324636
-0.0108356484599414
0.514910856097269
0.832992889252293
0.86317359139612
0.743511717080787
0.701464631815744
0.783855367997886
0.876436044733765
0.953317259288249
1.09770539891619
1.31244425334621
1.5196794731343
1.71135298409235
1.91437348227117
2.06456845859944
2.08093180415397
1.98490066220516
1.81263576952453
1.51855366777225
1.06809385846759
0.516825305008636
-0.0381695374548935
-0.483433266091013
-0.724328757010267
-0.813064056958868
-0.926631268370636
-1.11666757864422
-1.24959023368513
-1.26801487650385
-1.29042609800532
-1.37930326773633
-1.43210302244792
-1.3642039454963
-1.21953330292654
-1.07011084277288
-0.926861414941853
-0.741944521919928
-0.458744345221642
-0.115211418417524
0.144830774173859
0.271206467216707
0.418668945667524
0.721585200487835
1.08244631834015
1.31266138094502
1.35035010410833
1.24602418809806
1.06966193152664
0.897145903100119
0.778587592529289
0.698684034646834
0.641526658159311
0.6371321137837
0.660676003461419
0.596195161049483
0.398774357246927
0.162940659162272
-0.0319608036714517
-0.170064597197245
-0.183852646851786
-0.0303835297602848
0.128188831949162
0.0745697064143825
-0.169463101395872
-0.419446920661102
-0.60597919558403
-0.777936441238304
-0.944248339034797
-1.06928961545469
-1.12416676626153
-1.07586489261802
-0.933651326315986
-0.79639458404542
-0.749189700394254
-0.781759684560176
-0.88116111094048
-1.0675006179776
-1.28515263049813
-1.43098825720988
-1.51810635141206
-1.64949680881251
-1.85523073966616
-2.08893481362649
-2.28635793879722
-2.30896671196295
-1.98333662389627
-1.32370869560848
-0.579749871552033
0.0186394568559749
0.434788164828846
0.720575873330454
0.905343461906604
1.02581545948101
1.12899563980701
1.22755694314392
1.33644573189038
1.49357780024524
1.67063228793588
1.77899905798987
1.82450937523522
1.91655311993721
2.09661966697511
2.29285710322419
2.42036782702239
2.41943699814856
2.28550282414304
2.14361155138653
2.15606203798281
2.30668365119628
2.43003435857981
2.447770230648
2.41021952844586
2.36223244701169
2.33207922575581
2.35342164637169
2.35811209553032
2.18542032351302
1.80375072897775
1.36106284239528
0.95146750902969
0.50262182113025
-0.0746422941526291
-0.771690314238938
-1.51834284550015
-2.23876601200842
-2.89532647095182
-3.50531871929406
-4.06149197607023
-4.46656429762002
-4.63845214018639
-4.63425480208078
-4.57235847244235
-4.49537650774499
-4.40116662586725
-4.31254575411468
-4.21871130017438
-4.05687106266834
-3.82283102493085
-3.57318314410762
-3.30047233965373
-2.9567543152486
-2.55671853205449
-2.09130182099489
-1.44382476187263
-0.566687470367867
0.391857554235516
1.27842438180514
2.09402225259589
2.87275162048731
3.57328377208759
4.12737860514888
4.43693686842927
4.37019620778544
3.93611680891412
3.3812611755333
2.96643541758037
2.74962090215338
2.65496603440876
2.58077677009161
2.39973231544027
2.04802602381022
1.64171337991104
1.36275813004086
1.26142774267055
1.26684087835137
1.30258343850977
1.30902157734477
1.23916842839659
1.08703756735454
0.873398819490332
0.625244080198125
0.413131702440883
0.319281275652171
0.298311746194839
0.193938629082925
-0.0238609394160899
-0.19745794298272
-0.248071030279302
-0.326193330810809
-0.604734430434569
-1.07139821222736
-1.55923855738727
-1.85793403150646
-1.8466850377138
-1.64097730961294
-1.51102596753778
-1.57581425026919
-1.72772602044098
-1.87843754752125
-2.04756242895279
-2.18421045530463
-2.14538368238135
-1.89182365022564
-1.53545036410946
-1.20495952940887
-0.973964330507521
-0.849309057123534
-0.757146613064695
-0.625247638635064
-0.480823871218707
-0.372517538873524
-0.269105064335412
-0.139975488165235
-0.0156277151544775
0.121464263653952
0.353873745867953
0.67293517149771
0.97117321084756
1.22059645297704
1.47611422697396
1.68558686661015
1.68330227402318
1.3945914137526
0.904438101529343
0.346303692633383
-0.157761786454295
-0.518609919870336
-0.737654424300245
-0.840795445560469
-0.733368526548995
-0.306450997139266
0.304762084099953
0.779159397156756
0.933345457805142
0.834789915309351
0.648547337893465
0.501340500470678
0.426903737723394
0.367032440528631
0.280144800871817
0.217834798013318
0.210689935813757
0.187673823523746
0.12467333711175
0.132624242828847
0.28881260851673
0.532897027799962
0.791607422173026
1.03344111964385
1.191675717338
1.22403800428222
1.22534609680509
1.3117299979845
1.4456841890642
1.49491145354898
1.37786095287262
1.08110555143261
0.645150445176463
0.172447616164539
-0.252783481524712
-0.638505131030146
-0.976730760414422
-1.14162678725566
-1.04320428514635
-0.795133225039059
-0.58148561961797
-0.460282835447965
-0.420637949013994
-0.497304913425516
-0.725628095511921
-1.10268631999315
-1.60860065798869
-2.13812704312354
-2.48253820036289
-2.52925377618849
-2.37726921082642
-2.14884214973745
-1.84185775781207
-1.43855626539753
-0.976529259205586
-0.47995536028549
-0.0018341874711647
0.291715845160133
0.267232936047904
0.0090215058797704
-0.279894006314857
-0.473074454415199
-0.519813006782552
-0.369757520291987
0.0134372531211159
0.611862135357886
1.30053161245907
1.80786423157622
1.86997301735908
1.49651992854178
0.951023987271164
0.4441580301128
0.0026173133088148
-0.370347146168701
-0.600360349867709
-0.632771798316215
-0.474019791396017
-0.143552769796683
0.297799779964078
0.707638080254574
0.963180860831914
1.06102129159362
1.05498879849095
0.978607164858454
0.8513881428665
0.649547367761219
0.288579372083256
-0.242967671686989
-0.777456054388807
-1.08254473835723
-1.0081653003185
-0.518521717910588
0.257749389485404
1.01662315346723
1.5009635989626
1.72207552654651
1.84674143881824
1.9766624740585
2.14356471700785
2.3348125399554
2.40635334227753
2.16642512585296
1.63553627633828
1.04800536394229
0.578630472236906
0.237254404033457
-0.0157808013600288
-0.221912308109828
-0.428842077358297
-0.625196802335633
-0.75428831389289
-0.842754243818919
-0.995460064073354
-1.2443770662408
-1.5298949175998
-1.81786866004297
-2.10066628413192
-2.31952922101698
-2.4195807003782
-2.42072568713784
-2.32167699452127
-2.04904348393454
-1.61098721276471
-1.15418712910516
-0.779646804162057
-0.455540733485001
-0.147313740438922
0.123227534408441
0.332639481074406
0.438177747447675
0.380800234108993
0.207944739902748
0.0814689985161906
0.102687260250918
0.247132083279181
0.458547632968198
0.667064138997745
0.774741613510574
0.761733106202215
0.726491211579507
0.739387209008172
0.780600974970665
0.839862979111141
0.899796188928098
0.844293968198233
0.583622904422637
0.220307683165057
-0.08040406905982
-0.290069155889034
-0.452258899203962
-0.552078864774831
-0.565930795395934
-0.521388184223714
-0.442561194037796
-0.342981995488754
-0.280258934965561
-0.304267948653616
-0.375146355552971
-0.434178169615897
-0.485492482724136
-0.510653446661106
-0.42306707724034
-0.217807554879587
-0.0434804538294081
-0.0400312903121082
-0.201849860134134
-0.404023232081004
-0.472828238832833
-0.310083961730903
-0.0433021898363038
0.0685889551215867
-0.05769848911518
-0.267382186449476
-0.418407525122651
-0.502971170138081
-0.537643627736989
-0.525715998727943
-0.495410534198723
-0.432136840004323
-0.248687345274897
0.0890593762909306
0.524280750813016
1.02244845541439
1.56575928397922
2.05696802961244
2.39571946302643
2.59225799727508
2.67177467744509
2.57840947033479
2.28872464535615
1.89904578388397
1.53182541184528
1.270065954116
1.18605186513262
1.29403008201024
1.47592522137805
1.56415391023412
1.47668059497617
1.21545954035982
0.827318982344892
0.423571727682877
0.114893669348684
-0.102260065924424
-0.259606846255918
-0.274985262319422
-0.100670915769428
0.0705601480738331
-0.0259337167675165
-0.438563726524808
-1.04583178260723
-1.73772829040307
-2.39927029105099
-2.87783641890321
-3.09568653526022
-3.08852510806887
-2.91573278989182
-2.64140916819577
-2.34817853491729
-2.06799363230244
-1.79370860829765
-1.60709558575269
-1.63773803445446
-1.8751328570883
-2.19925825887486
-2.56814831702824
-2.98624603722469
-3.35479635770192
-3.53499957537445
-3.48512111330834
-3.21996930883057
-2.74803453295392
-2.12520277503883
-1.44654028771482
-0.740285843994428
0.0214747727831806
0.810402115562712
1.55378963637747
2.23488902501584
2.87932169717404
3.48199110195025
4.01487868600372
4.43192865614579
4.64266965511109
4.6017808783818
4.40874288120809
4.17700499800819
3.87781490879281
3.46713042616183
3.04280636984085
2.7216762530335
2.49520782891513
2.30420805137609
2.10167463962304
1.81299091397709
1.41278552673077
1.02350910597012
0.767951975874245
0.586946104381033
0.342660042597961
-0.0044252475821191
-0.422332502019025
-0.870232434137386
-1.26804570627084
-1.53840152649154
-1.69128669414093
-1.7647840062328
-1.74761766868181
-1.6401542361637
-1.47594061078795
-1.2473269282687
-0.966281118222593
-0.787052238571791
-0.874211633130411
-1.16950201576489
-1.4641179577378
-1.64344505982427
-1.69766409252742
-1.59730642440377
-1.34955329413281
-1.08800058645394
-0.956577429316074
-0.999410975000255
-1.22012419002456
-1.56645065632083
-1.82807813111743
-1.77615191194082
-1.42276687217893
-0.958173858604096
-0.49364015815211
-0.0405430228744231
0.368418251120405
0.696062646906847
0.93408804640956
1.04302459752679
0.97672446914056
0.773085190526369
0.508657413347034
0.225715286186978
-0.0022497558579827
-0.0608191065322592
0.0634371719747027
0.265736526075093
0.46744953953791
0.630026790820423
0.689498092427381
0.659576023025907
0.698986925890137
0.901908071956931
1.13996757314783
1.23998346564979
1.18218495713821
1.04431914131723
0.891008068888032
0.755921950706915
0.609686058540483
0.358842881904326
-0.0104398318110725
-0.351647908410045
-0.537229523828323
-0.619062401377787
-0.694540553457194
-0.739191882408903
-0.680135600524298
-0.511373342103932
-0.275440416509635
-0.0436220819972926
0.10256715703189
0.178106833521143
0.297109427227579
0.481554373387338
0.608258547114687
0.599332096992082
0.487251460702274
0.284380270473357
-0.0054669799630372
-0.271121664667267
-0.388455563938053
-0.375945294230259
-0.311187996761109
-0.213785763820665
-0.125832978969126
-0.14107240892579
-0.253901031992295
-0.329064941854483
-0.263252272041754
-0.0619740624645848
0.201234107013768
0.405821886491956
0.459457086686943
0.413294767382495
0.385681808580719
0.372750038656084
0.280606036435543
0.103003857734551
-0.0913625079794073
-0.280061547584459
-0.445220188300092
-0.512079536779762
-0.473153018061154
-0.440702552505077
-0.4445618978545
-0.352837657362168
-0.12273942685551
0.063548062683459
0.0341080995130942
-0.164406177568871
-0.354972030701206
-0.394961043720059
-0.260084911080228
-0.0653393274896073
0.0462681464791449
0.0700888201636573
0.0960355789353285
0.134390923005563
0.142780899664496
0.157971611416547
0.221818463497784
0.261090858285661
0.198979066493113
0.0843607324655589
0.0013584149682584
-0.0299740060484643
-0.017046981408905
0.0089781354900779
-0.023004365964007
-0.120099345838054
-0.180833822656377
-0.148080514613727
-0.0764117729481879
0.0079068386643279
0.138542131778472
0.269561182492171
0.291266816930976
0.199746587765306
0.0885157965083021
-0.0029695202483671
-0.0810869668220843
-0.0970891773199455
-0.00474322447124
0.140742099948672
0.244505171303518
0.245893264270559
0.0942813084607992
-0.198344417725771
-0.474895266160678
-0.578728867205308
-0.555600983382327
-0.555394078240088
-0.61872565679129
-0.698695809763271
-0.76715669897247
-0.785123348886701
-0.695591302171718
-0.507749502790345
-0.285183107970495
-0.0715188719699465
0.0883649238920086
0.153069447491753
0.177253521018215
0.253454217643644
0.344432490613818
0.360203432495572
0.352289367134779
0.398623593770092
0.39293492135127
0.20774127514464
-0.0430274569647839
-0.133125186103519
0.000611135657043
0.269381393395171
0.579756127548659
0.864296932667784
1.09819429693065
1.34033606232463
1.64857420857602
1.95881515462033
2.1455493854604
2.14554574343657
1.92940048804703
1.46221309533703
0.809775190518545
0.172409151336991
-0.282824620180309
-0.530149592393108
-0.617366110981913
-0.620067264584194
-0.629727342132927
-0.662224618805932
-0.641385803840223
-0.541590539644032
-0.426941190398318
-0.33266725602327
-0.273209583864102
-0.338118281226488
-0.585660586499369
-0.896309383657049
-1.1106716074611
-1.22673556552352
-1.32344142775939
-1.41950547611763
-1.51447527744285
-1.62673051606056
-1.72799840593173
-1.75717381358759
-1.68057757983002
-1.45338334293187
-1.04263756119432
-0.569343293008261
-0.241310911565615
-0.0663712328564514
0.168526413238958
0.583972737330367
1.07083129780568
1.47477957861761
1.71189956979787
1.70192512740906
1.39426888463303
0.887796036272052
0.385122747398657
0.0307435864238617
-0.133691724490423
-0.135007579074104
-0.0500273813062875
0.0776825456185867
0.299640724381862
0.616109136112666
0.845466777210443
0.807471625893051
0.544231308390037
0.222327675528792
-0.0571199188933976
-0.258504776055721
-0.384024528638435
-0.512365955678021
-0.729252119719468
-1.01955332893235
-1.32453907998438
-1.60007406283358
-1.71895680468101
-1.49900639120232
-0.954434488970148
-0.336182903613588
0.176252864890997
0.651098086758279
1.22197773820232
1.88161853000133
2.4722199993143
2.78988889299841
2.74148327211221
2.43682226998602
2.0450172986577
1.58561225024043
0.99292053436371
0.33157100500043
-0.220984643410242
-0.571082168065429
-0.751748385203794
-0.828944727172538
-0.878769519100696
-0.964670869163568
-1.038585263455
-0.983047327673888
-0.815222914444496
-0.698577102610061
-0.72120455200129
-0.817978045462911
-0.892632505684143
-0.872905269316089
-0.718709602468127
-0.499621586312975
-0.362191081083737
-0.348649321595636
-0.368836046997791
-0.353089462353279
-0.288983882763072
-0.154709381878763
0.0385633652282381
0.20915755546096
0.309428702780038
0.371296933681858
0.424066033621653
0.504948616389035
0.700004227957847
0.988180376303006
1.13755100286137
0.959691760656428
0.564872247358096
0.209897682081791
0.025769327459341
-0.0020379876487307
0.0532808317625013
0.0839614811687189
0.0175760049250337
-0.100887284473639
-0.181922645929881
-0.203251277010244
-0.169027853705788
-0.0618406759522403
0.0657879740520274
0.0785988043549902
-0.0666819792963213
-0.263072761267554
-0.41368511927306
-0.493328672913681
-0.460613142595781
-0.292146461672229
-0.0634441794650881
0.156461509512233
0.390988168285289
0.622559800627251
0.731342834970966
0.659083197994422
0.473531177905643
0.239554544072122
-0.0106946828234656
-0.208559207744689
-0.312160116088652
-0.385585207705504
-0.50588592402631
-0.678161969524803
-0.874294572235696
-1.01737618400073
-0.963960467188633
-0.684135305912056
-0.378797619931215
-0.235940461184983
-0.203451169295788
-0.170307552757597
-0.189943862234169
-0.351612801133121
-0.593413255138379
-0.776937676277984
-0.825167003268536
-0.732497970776853
-0.562027136786479
-0.443951096260683
-0.454332841540487
-0.498910793970801
-0.407142204323142
-0.111707386271453
0.306699958173614
0.674458594034285
0.825485079410158
0.769159821487956
0.721628504806552
0.838993073478257
1.01266471531674
1.05930627949022
0.968521152848848
0.841688918276583
0.751631187018928
0.750828001614265
0.859012688455884
1.00836991287373
1.12584368730155
1.21425217005946
1.2490613790299
1.14402724760796
0.928238083336643
0.76137257476
0.676212323561338
0.522144643827044
0.233847081012927
-0.06065826872612
-0.241937309898893
-0.329180215964503
-0.405425955422318
-0.534720317623927
-0.717193072055792
-0.871717169724643
-0.931280827286718
-0.941804465457884
-0.969700064481955
-0.980053937268
-0.930578976622141
-0.88871198267837
-0.915993134742067
-0.946179056633912
-0.912466471499895
-0.869949016420684
-0.873385856958392
-0.872181883224321
-0.814325230494437
-0.71610528757389
-0.596727468174739
-0.476134332257245
-0.40881084579243
-0.408904418059633
-0.422066073733089
-0.430307715841236
-0.446524394774924
-0.399290473620654
-0.210614310397926
0.03871192553298
0.212276440310274
0.318974514086741
0.448680759815709
0.632311862970355
0.902208728172607
1.32151196033903
1.83526418552509
2.25654131231489
2.45758802029775
2.42673723203988
2.17212904873303
1.73784753314524
1.25090290845251
0.818129326733206
0.45603913751689
0.175997855503615
0.0099295552423512
-0.0678318429345352
-0.112914639193838
-0.121624038214486
-0.0805683171785253
-0.040666159081239
-0.0355013053797668
-0.0258824625899269
-0.0219973271428041
-0.114760350025227
-0.283005663778298
-0.348695065120629
-0.239352263303368
-0.127522748040892
-0.219252062376003
-0.534462010063649
-0.918314399138866
-1.17000052081475
-1.2093843590132
-1.18389544352613
-1.3118616229908
-1.6054726555417
-1.89117925656473
-2.06280170823423
-2.12760974750539
-2.06353356138894
-1.82979256149907
-1.48167070420093
-1.14859094673439
-0.938159340384322
-0.875038643479197
-0.845118464911956
-0.664559282715152
-0.320068667715551
-0.0096222798338541
0.165466848569621
0.340917713143055
0.60929835672857
0.849446398094711
0.951975565948441
0.976756812378449
0.993706199146279
0.979322317406283
0.940045011466166
0.966102731287096
1.11407834710778
1.34589562755496
1.57873023895469
1.72161454220882
1.72887000600821
1.68090074842192
1.71425295347739
1.84167412541971
1.96392928856042
2.03049695712471
2.02695790420471
1.87004834405105
1.49577833085979
0.987043218289621
0.486680160261043
0.0663627634207673
-0.267908801215704
-0.558204265279312
-0.87994889718604
-1.22618814967814
-1.47098346153884
-1.55404056955886
-1.57671140775905
-1.6247683742191
-1.6675226589814
-1.7058673658867
-1.82770021383517
-2.0537038026925
-2.27981431005357
-2.37831768829018
-2.25343995267541
-1.86929131832205
-1.30185675671046
-0.663829909508331
0.0352841578635935
0.815843510955427
1.5580894447094
2.09234790575105
2.41829675375874
2.65228500381613
2.80266218624567
2.77061368401321
2.53325452856141
2.18248781563783
1.82524469082139
1.53183299530786
1.30218373981755
1.03850624876497
0.657275756014578
0.219931571596007
-0.167627309646361
-0.516424469748023
-0.881502841093706
-1.22577739871731
-1.47207159414686
-1.59150749251525
-1.59201553996825
-1.53380358188608
-1.53974236744961
-1.67141136392617
-1.86130062435216
-2.04894221086739
-2.23892496016915
-2.36631061535937
-2.31190901793376
-2.09467518250842
-1.82931953135101
-1.50074408317249
-1.01203568473669
-0.40838933201092
0.159919368244083
0.614259256731942
0.922938921699903
1.02948981039147
0.948004715828875
0.817850559140756
0.777580477934945
0.859460367751977
0.996456864952529
1.04045469877883
0.839682754772805
0.418948395564319
0.0156874587267574
-0.16030342799838
-0.1127877074758
0.0491672014538468
0.250879356827174
0.423239158118423
0.49554109586992
0.466249439857328
0.376558971861172
0.254911322164544
0.168040018599332
0.203177088784934
0.331227636760297
0.448052380962556
0.57499256408493
0.826441017823102
1.19124619464443
1.53791693577345
1.78483749545593
1.89706345652383
1.80844907726504
1.49290102323048
1.02033145624242
0.480878650759957
-0.0268891153874226
-0.358911237774892
-0.442370052174675
-0.371224270696351
-0.244929264857901
-0.0269867603840555
0.321087265662253
0.715138749489137
1.04082518819573
1.22028030451
1.15681480925186
0.772068828148959
0.119681072194325
-0.640639500062296
-1.34816515482364
-1.8555447052419
-2.05844239673686
-2.01735823744884
-1.93375316530411
-1.91736278602663
-1.89171375994584
-1.75417976942533
-1.47976042480228
-1.08590248702056
-0.65575169079088
-0.337135427249217
-0.179681474033136
-0.0771393104074498
0.0320455079761003
0.0619254442320946
-0.0527846068598414
-0.250219030197644
-0.437459289636501
-0.551380802378255
-0.545263450155148
-0.433809927610215
-0.289900617230271
-0.124887450088665
0.118499855937981
0.421226965720729
0.671774859293044
0.79358672758473
0.770891608193006
0.617794108969997
0.435989431664987
0.385749909776473
0.491928999196619
0.596752100183074
0.562038861079978
0.397483335016006
0.187604569239358
0.0235921127446185
-0.0158897537428102
0.0644105243757601
0.162441878408147
0.213215934413353
0.250402106659105
0.27791332106891
0.225958704159123
0.0977169852398785
-0.0069541151066778
-0.0505582740909842
-0.0630284044862574
-0.0071538112932566
0.166381970102284
0.385710312152377
0.548828982200705
0.649803698942191
0.698078974319115
0.659293004747296
0.548441617304344
0.42197883304991
0.270188462080934
0.0821435112525919
-0.0382329913706715
0.0109717617814353
0.180767818491852
0.36813648968165
0.542451838497469
0.686084333748148
0.747722974985644
0.709242549536338
0.581706213819607
0.34136160966391
-0.0361443703448321
-0.526493316675324
-1.07831575006745
-1.58531055961325
-1.86164240249329
-1.80546535343668
-1.55670168525939
-1.3397305194184
-1.20694445843979
-1.07519869305658
-0.92287395481309
-0.802881184894408
-0.742895744630388
-0.747196915506899
-0.808938566735541
-0.858739537786759
-0.815064091296817
-0.689642738048728
-0.50458034862692
-0.175612733229363
0.340039710024253
0.882832364390205
1.25709210856126
1.43574788456474
1.47438157782497
1.3895839944117
1.21763126949004
1.02682333060475
0.830932131876052
0.635012326972694
0.524643378345346
0.560199049560331
0.664505443054237
0.739986629347273
0.788801034372111
0.835048404448024
0.855349940385636
0.829917073718254
0.750270823685715
0.590095178311465
0.359157944112148
0.12550626576917
-0.0717304814319251
-0.241597156242571
-0.368671547727199
-0.436703611786456
-0.492753374619524
-0.568775049646102
-0.603531993681926
-0.555915769756616
-0.504683254593181
-0.529843784839023
-0.606814197168348
-0.703431542750431
-0.835143888722457
-0.956278382609602
-0.973880983475126
-0.912142374698267
-0.874701223474956
-0.850323806398253
-0.747839344752076
-0.56731371861289
-0.361204683247297
-0.121297878577435
0.161575452810327
0.4428308434768
0.696425658557681
0.910240783007199
1.01264333248023
0.943014787798165
0.752622498838063
0.540591803399589
0.385258749623985
0.365429380869178
0.477400529915265
0.545660910735721
0.430337941035932
0.262210978186612
0.242688344330992
0.324291047316635
0.321990852728535
0.198252898961031
0.0277703795399203
-0.175513374189002
-0.435625976434229
-0.7372145094188
-1.04322328954735
-1.28425519496957
-1.34244261871635
-1.16400609476686
-0.840326903735717
-0.476932793946628
-0.0756554113027403
0.357742801760174
0.714477739052803
0.882008607262971
0.823759098781703
0.534206529056626
0.0599877955148779
-0.451514923136588
-0.858348428603854
-1.11211383691381
-1.1657339142885
-0.958441718026724
-0.55883703566701
-0.127914183285468
0.290666842549233
0.752469071553426
1.21536874236667
1.5471551559142
1.66868988380509
1.56380203816383
1.27613740568992
0.988523095645732
0.931563649125114
1.13446937623883
1.41007105412139
1.58283844946209
1.59144552597909
1.44203235177771
1.20407653477229
0.957844892655374
0.66076559958346
0.196182429437221
-0.418679491028499
-1.0320166437686
-1.54716315999929
-1.94646136558362
-2.17784769606213
-2.19172489363396
-2.04226758551091
-1.8220641775027
-1.57942969820781
-1.39381234413105
-1.38812483027287
-1.56701191662835
-1.79884049655758
-2.02214585868334
-2.2977250491707
-2.62373680460424
-2.85911761641496
-2.83683658781402
-2.46886946121934
-1.81685331451839
-1.10393058264331
-0.527479094787804
-0.0484519029771694
0.510418963573048
1.22949561910335
2.08885987267132
3.04745673017911
3.95205228607786
4.51887043898061
4.56622140774863
4.16718672295525
3.5389420013233
2.90905224273105
2.42781880409093
2.0462122323079
1.57945781458268
1.01679137245587
0.599398926843862
0.499339734899049
0.638009471671925
0.881463089310511
1.17009579259699
1.40331600188414
1.42349066664602
1.16925492229905
0.69578524114809
0.0551660810747951
-0.706230710718466
-1.46841938607525
-2.07733777561095
-2.4343105965468
-2.50426706493061
-2.32294928028124
-2.01003424530561
-1.67596985306844
-1.35009107571067
-1.08096981154239
-0.983643776070653
-1.08670452137699
-1.27564726224484
-1.44252542853818
-1.52300952829725
-1.39684421066805
-0.967374465984747
-0.325582218528859
0.327778635037749
0.84690351446241
1.12397327938511
1.08528301820668
0.817133464827587
0.507790738720567
0.202655955259213
-0.180249648738992
-0.590539854085419
-0.827271986063944
-0.773889677132577
-0.492083810435321
-0.146440622874643
0.0597496319407497
-0.007049371640665
-0.28237879759541
-0.578729352883652
-0.790812826086391
-0.933064580159293
-1.0490439579892
-1.2063963944949
-1.47779369797227
-1.793042116102
-1.92271470406097
-1.72615978531341
-1.29053597520255
-0.756150437352568
-0.184726282412526
0.350248405255425
0.751592044132037
1.01734392011801
1.20563288075718
1.3086251056618
1.29691322602502
1.20514017511386
1.07381002582825
0.913976825141037
0.766998804879506
0.679047313348053
0.644560517914511
0.687813616609942
0.900572316647196
1.28917773037119
1.72158641793507
2.09746967570867
2.39516139843556
2.5248132195992
2.35251652962507
1.89036257162849
1.28676477916858
0.669517256678044
0.139818682857699
-0.185579427535088
-0.270100617911156
-0.218722312683473
-0.187899513049709
-0.300181766036175
-0.590284303730503
-0.917384530108015
-1.01819777774305
-0.778794564872854
-0.364527542124519
0.0179182096812098
0.353361407354615
0.70948731057533
1.04770198540222
1.25787756286843
1.27059399336658
1.09105370568286
0.832591812065769
0.686631928229662
0.74103717798567
0.901316958327665
1.0613909855949
1.20010137869088
1.2644812058798
1.15792582743957
0.872030109497021
0.445759213480622
-0.163601875523557
-0.971004582092246
-1.79111836333667
-2.34491302326204
-2.48142639997096
-2.23893949384772
-1.81423169555982
-1.47158539418162
-1.32903655539617
-1.28805582852951
-1.2992185888102
-1.53326807722672
-2.14095831676618
-3.0417050374315
-4.05699424067649
-4.99935680435878
-5.54317340552018
-5.31617896679248
-4.2858075868746
-2.85928874470693
-1.47340294722119
-0.209091187680731
1.10542829223802
2.49296669881828
3.61062607492091
3.97108226186487
3.41755401787762
2.32759234275571
1.25177900837488
0.434505291497185
-0.186295204297446
-0.680933268604102
-1.06071997811894
-1.365088179652
-1.58669781010588
-1.61325263192917
-1.38447382382507
-0.984863918622659
-0.513495297461754
0.001674781128356
0.549266877630267
1.11353806891043
1.65592928736014
2.03498226912132
2.07750226327223
1.81237826124125
1.4841845414642
1.29327040162076
1.2786172749143
1.43205759011689
1.73361475824307
2.09028664458201
2.37888340484975
2.51891421262254
2.4684750929844
2.25267488816716
1.9869610029023
1.74400796025675
1.45687394516893
1.09008608405176
0.787378788032801
0.673740764010887
0.63875602312646
0.51501537674022
0.362059684759251
0.382600801313838
0.640062446844344
0.996566091483452
1.25045049884674
1.27183158613614
1.09951161113231
0.908124531294162
0.80198902414798
0.725711424349999
0.641732505834706
0.62889867152142
0.733688288647039
0.900112871683895
1.0721327374878
1.18923929259733
1.12207672652311
0.798805331297572
0.324205259464507
-0.175851817570725
-0.717478902593221
-1.35749393760856
-2.05581486496948
-2.69531888066369
-3.13374806265954
-3.28115516926489
-3.23936963996474
-3.24672626858675
-3.38092512913518
-3.48888471180335
-3.48762383603287
-3.51305235296021
-3.68497679568026
-3.91768483346635
-4.03158798404757
-3.9349065940713
-3.70614767447579
-3.57968638039636
-3.75256284635073
-4.09957962060853
-4.20333747397595
-3.77387050175361
-2.90378314704761
-1.84222258646372
-0.719767307853005
0.405919936282605
1.42317311590916
2.20028939440516
2.66603030970433
2.84663409043445
2.85940830011119
2.7989713235704
2.62807463914403
2.29936867181079
1.93997578530331
1.75410487043461
1.80239986400104
2.02660640778126
2.40238075242049
2.93869110804004
3.61884093081957
4.39517677722568
5.11617753818861
5.49050978758257
5.32273556184167
4.75056177482136
4.07777597667411
3.46396262074418
2.9254912803185
2.49148218401317
2.20201253769208
2.05857642658031
2.03362885826209
2.01368331788208
1.76365104975357
1.11596254071747
0.185350210903846
-0.72046603022041
-1.37249555974446
-1.75647434531139
-2.05122309341122
-2.51941905238183
-3.26890237628178
-4.07896163986011
-4.61481035902122
-4.79731059586532
-4.78245613061659
-4.65342331946392
-4.35398386798825
-3.8473935099373
-3.1451042431418
-2.25374994468483
-1.22427114040774
-0.191971857172694
0.657104742103825
1.10360283702901
0.987344266310749
0.397635936650151
-0.36422193370199
-1.09231980726097
-1.75508758935499
-2.24343110858612
-2.34410884221549
-2.05834749801818
-1.69158819050247
-1.53829541110258
-1.62797876693834
-1.76237717535065
-1.67845011494485
-1.2496597918757
-0.624563972690767
-0.10596118223238
0.106949865969539
-0.0085213643038281
-0.353915230176996
-0.678870821525794
-0.6284578925068
-0.024225041323617
0.969994650078356
2.08040563539231
3.19627747397047
4.30275457210012
5.30659530475625
6.07456582836672
6.55617810170994
6.82134479971417
7.04582407225394
7.36953134734028
7.64219418960392
7.45375107180213
6.56726817817892
5.18290995891063
3.68647863001321
2.30744073028696
1.06762939765552
-0.113235776941202
-1.28904881664635
-2.35849559645163
-3.12757109934245
-3.56816963306943
-3.87318441638634
-4.20237888694984
-4.54604414948309
-4.85439766780096
-5.10115701540196
-5.21469155553521
-5.11524524777615
-4.80240893798857
-4.32414438494596
-3.76324819335304
-3.29565425835217
-3.09453916970691
-3.13344846702713
-3.23002183400404
-3.28140624238454
-3.31886529456755
-3.35755824780501
-3.31760226640513
-3.08116657355018
-2.57848790335845
-1.87433524075617
-1.17141339220915
-0.619285731829408
-0.144267112067983
0.401626256133923
1.01481941599303
1.64285955075429
2.37591150588359
3.3052398716426
4.29093268671304
5.03023059854099
5.24959804114228
4.79763078565331
3.7662681110778
2.54960507040874
1.55814018476139
0.857610403147926
0.240467704244241
-0.439856166578733
-1.17031034957687
-1.87998794933036
-2.47289420672691
-2.85433707789698
-3.00930679282489
-2.97050993489685
-2.72280707171776
-2.24936743203724
-1.62348026750386
-0.962041576015488
-0.333329945251249
0.283412235643954
1.00760440460243
1.93160601306207
2.89283129223543
3.54297543907513
3.76963798888549
3.83961228338471
3.98328538742761
4.07304932454873
3.88407940536625
3.45919528097064
3.05193339022888
2.89323947429182
3.12044115822084
3.72498540251011
4.46431896785487
4.98373571657975
5.07527754067023
4.74395534512376
4.1184576266001
3.39411905337368
2.71840559189789
2.0432312833989
1.21660977012778
0.218628538913602
-0.8408615191633
-1.88290839114443
-2.83933496912098
-3.57221039801397
-3.99682687180153
-4.22141266215084
-4.46529315577472
-4.8956445621724
-5.52970645044352
-6.19793088786399
-6.67513112891116
-6.93523268346969
-7.1334469099237
-7.27809281211289
-7.1395349410859
-6.52763090697503
-5.40336968228981
-3.70754272322902
-1.39247578924696
1.29814767489071
3.79137708799006
5.47903742952373
5.98372056423304
5.28204337408977
3.75149389386409
1.99548246477631
0.463604866359716
-0.70870582625498
-1.51884956813558
-1.99706096539626
-2.30105988611112
-2.64734508681949
-3.10138688896855
-3.57621959333671
-3.94059423125554
-3.9884826511917
-3.48069004998167
-2.38241283821761
-0.925392631311647
0.625753256772787
2.10617640328431
3.35006795421984
4.14016012029
4.28683369404648
3.71840418784271
2.59093192759939
1.31711126473417
0.320157559085054
-0.24450896314168
-0.399779216773942
-0.122720593824997
0.569953623595575
1.46048444791232
2.29336612893978
2.99153713959193
3.54633551365737
3.82032790756178
3.61093399796207
2.86830443465622
1.81227602531651
0.84720247644635
0.290231307810859
0.13589028714845
0.170504738756027
0.314142029044989
0.68347636362988
1.30959366744728
2.0069995265167
2.55211214912524
2.79514936836756
2.61657137055671
1.99586117367309
1.10485133736995
0.173975094560369
-0.65810400981041
-1.27807594009009
-1.56963821473798
-1.55673567141797
-1.39466430106715
-1.15149150842528
-0.757214270230428
-0.184119277225914
0.454260084018795
0.959877770717963
1.13536110057393
0.89863649019137
0.356147554102594
-0.313341167184403
-0.990608663124626
-1.53768680987657
-1.76177064050619
-1.64106431996064
-1.43614123665161
-1.43800645033557
-1.76104459197617
-2.4136610227472
-3.31291763911034
-4.18245227348696
-4.6886311605
-4.73364480831278
-4.45246072911281
-3.95451048474696
-3.23277891103277
-2.28181489510012
-1.17559235958608
-0.0800729678740619
0.760638120069982
1.17708620550305
1.25932744892105
1.26739349586177
1.38143160694694
1.66899279425823
2.17313262375811
2.83411801069031
3.44198896089011
3.83544042456766
4.04545094901606
4.18450483506866
4.34478395871969
4.59187451999332
4.87325207704421
4.97281371811677
4.70517654433275
4.07401290239331
3.17103130534058
2.10112885159341
1.05799018338988
0.237733950615678
-0.38369183474281
-0.995720152386908
-1.6784004747222
-2.33827449444211
-2.85225880629314
-3.15912115846774
-3.31808488709138
-3.53539515342108
-3.98506929620093
-4.5896216806581
-5.12911015668782
-5.5262508947164
-5.86520422824821
-6.19366377466234
-6.45804053177981
-6.57021171490948
-6.42828257953291
-5.95952583135045
-5.22670041369981
-4.39696525281049
-3.57632758376994
-2.78945745354432
-2.07902370338533
-1.45490102384014
-0.801708542002169
0.0077344531260004
0.98491075057606
2.10086919397862
3.34581886466652
4.64374304476498
5.83969545191148
6.77312864584947
7.26167988957043
7.14127576496449
6.48793110552861
5.65947401918284
4.96675277364068
4.44309738877419
4.01410482123512
3.68987102707384
3.49697767530628
3.37551528295036
3.1900499518809
2.77087972594312
2.02549310768065
1.08965196460159
0.253404618489741
-0.306764428363515
-0.605728143715227
-0.705410378728153
-0.656055020925171
-0.510037189143279
-0.226325170223403
0.360447524390225
1.33693607051551
2.559370892267
3.77372090103727
4.7408262203861
5.19581825762623
4.90063128601841
3.83413253690827
2.17751277022486
0.111463261730254
-2.18712479379159
-4.3991951851103
-6.13568820416174
-7.15620877130781
-7.44340287376002
-7.1769313311967
-6.69011720614189
-6.30743099286688
-6.16939807231662
-6.25278206541926
-6.42825679077233
-6.39690679774339
-5.77848185394123
-4.43865505416098
-2.58663533195051
-0.463192178225548
1.88351483213205
4.43682432574263
6.96950215865232
8.99370707663854
9.92210227695928
9.44312270548614
7.86374642461683
5.95512917797121
4.39450709265933
3.45363688364287
3.11930143754289
3.23777226288504
3.5438948848445
3.75803588309022
3.66234717225327
3.0052286188443
1.49076299360417
-0.945583790336187
-3.93105878921096
-6.85015499528836
-9.17599712070385
-10.6071012750699
-11.0872705068053
-10.792669665994
-10.0115557223192
-9.04155387626152
-8.22328668803024
-7.87344224081016
-8.03987213991917
-8.4623996091759
-8.84035450261528
-8.97996216748376
-8.68832592876543
-7.74685141473775
-6.0441527882761
-3.6530451066283
-0.828780070053486
2.04021913295469
4.61377593346882
6.73797879060224
8.28201136827464
9.00146693674452
8.85938897640571
8.35645930858283
8.19530681050352
8.63546788168135
9.36030795127361
9.86102312951889
9.80522196910485
9.19278951707181
8.31788290177295
7.51909073103364
6.92504341062972
6.4708339803306
6.05524959459921
5.57785981178432
4.96493333146482
4.30438896080823
3.80386196051285
3.45669731265104
2.91794409040738
1.90842221822797
0.629139723997819
-0.399629351604973
-0.880569373911748
-1.03254678304467
-1.31366912079052
-1.87138402610476
-2.41117697410564
-2.72250535179282
-3.10920651859051
-4.01004830158769
-5.3519358735602
-6.59543323956099
-7.30816106844316
-7.42321211881615
-7.05056904002443
-6.29909276173849
-5.26936506268994
-4.12365415792539
-3.18130613487776
-2.85490616866428
-3.31677157119926
-4.27004537719652
-5.16437687192757
-5.54223540393038
-5.12901535622471
-3.8228467002518
-1.76278520946998
0.700764230707038
3.15480827616809
5.15707349711798
6.2111153173341
5.96310285223607
4.5366169619652
2.61998889731348
1.16029493561924
0.874225237232168
1.90451063876084
3.87389662006765
6.2511233363669
8.56703341722189
10.2965517597574
10.8902002966812
10.2049964737072
8.6777471742097
6.7921066318382
4.55958783627413
1.75492859750113
-1.53005639060689
-4.79204701497165
-7.48489867275878
-9.40807246345363
-10.8250598489364
-12.1977036052577
-13.7329057504575
-15.2408660447818
-16.4195608352912
-17.080327037834
-17.069367910666
-16.2033801701869
-14.3726538782441
-11.5987222213059
-8.02107536571406
-3.92554051876098
0.306012894732644
4.34960684613353
7.93900453643006
10.7340899774712
12.3862756233503
12.7562341875437
11.976779617868
10.4221216146244
8.7270221296125
7.58821797399344
7.24842084662673
7.24613001357336
6.86419091596713
5.77661772814084
4.20667651313885
2.65598933677004
1.60075976567593
1.25007604209269
1.43040538652278
1.76362394762877
1.96875512783106
1.93959953309129
1.64618848380795
1.09152508856624
0.308636373611452
-0.638729703100138
-1.60578202407201
-2.39410876259647
-2.90538673086985
-3.13050601409309
-2.92686635522809
-2.02247248696542
-0.331430606735115
1.91018049171054
4.3135731754804
6.44176129399653
7.86198364438009
8.3925755701278
8.22385119506269
7.59020431785656
6.50697841334862
5.01780499049583
3.41010971401917
1.9187031913064
0.446683713137321
-1.1679859731291
-2.75287573773555
-3.86806201609588
-4.24654222439977
-4.10265761912185
-4.00944488502792
-4.45289717107522
-5.47381705386837
-6.73647223777777
-7.87868969112419
-8.72270734249997
-9.26347757509921
-9.63015695682799
-9.97836137877786
-10.2386039708461
-10.0436016288237
-9.04622759783908
-7.25221624614952
-5.03182648424154
-2.94421929585669
-1.46219934737858
-0.594885509923452
0.194178678424548
1.47931734161233
3.33109246756892
5.37684227479119
7.18148649466941
8.41021212485936
8.86833655095935
8.62174151025423
7.9797435465327
7.24769466756353
6.52482535748861
5.68849154778385
4.52735774058708
3.01597174946184
1.47046012850114
0.248917712786435
-0.648947412483913
-1.43212491391833
-2.06744944502149
-2.29972256797196
-2.05930023256549
-1.53561180088669
-0.855385191693446
0.0637008802806084
1.30739091637999
2.73102902164817
3.90675125700827
4.28302262336317
3.56247608454899
2.01773056987658
0.317393971359838
-1.00498889793631
-1.85177441790406
-2.45587508372582
-3.1241550984203
-3.94670259512297
-4.60003172229734
-4.55319633101684
-3.58517811053946
-2.04981064521648
-0.659509735162846
-0.0636541602840688
-0.478771941839227
-1.59488591277848
-2.95477248932545
-4.43293053261558
-6.14173279727753
-7.94281289736022
-9.3886623730136
-10.1353396086037
-10.1247272893387
-9.41954686472876
-8.14935233346684
-6.5895124681532
-5.0780377191307
-3.81924238373422
-2.75947181461697
-1.58147080143553
0.0687252925653219
2.17556794006809
4.28026497580464
5.97836169187062
7.35029250119971
8.72367096257237
10.1680607951129
11.4249226152795
12.2083922216525
12.3834076718209
11.9254937643058
10.8540296378828
9.22819825000041
7.25439575917507
5.41567118136209
4.29239040841217
4.09734106626374
4.53734740073874
5.22564027114318
6.03196383151385
6.96403737293028
7.9459645167293
8.81988717238673
9.42553180505409
9.63666543229737
9.38832956086189
8.64731701719619
7.37288773807999
5.62477892340257
3.66604290804617
1.79327507299643
0.108438199066688
-1.43562062901073
-2.91954099480355
-4.50747503767548
-6.38115519854279
-8.45113943095618
-10.3124019991289
-11.6022872980595
-12.2706627157422
-12.5033717990134
-12.5627396104249
-12.6978415070812
-13.066098783447
-13.7412774692861
-14.8047197132741
-16.257050019219
-17.760916042511
-18.6710240155875
-18.4577042424944
-16.98735122528
-14.3865901724776
-10.8919217567583
-6.92585300708863
-3.09419595188819
0.0656331965986011
2.34744043073827
3.938828810562
5.23065476132204
6.45502530777809
7.52060975582331
8.30943068879573
9.00764921767911
9.9202207983515
11.0465870824885
12.0488731389011
12.5762457742322
12.5004717027714
11.9434473051603
11.1542244772015
10.257604066248
9.14318542119956
7.73649810314945
6.28202745698668
5.15921928089725
4.47116533549827
3.93206995158613
3.08031442714286
1.56463393380051
-0.619117777840215
-3.07216719106779
-5.22652848913078
-6.69574398616067
-7.46696650335707
-7.84521081773509
-8.18731964138567
-8.58319987497094
-8.81701209093455
-8.71301262920916
-8.39367155482257
-8.02654176200625
-7.45659987801494
-6.34988229762273
-4.6275913937131
-2.54125285004964
-0.421223780196885
1.45226431318346
2.84584183491899
3.61375328004686
3.69640447984222
3.09966458253651
2.02734551934234
0.971905347236188
0.496278935430342
0.984067349914474
2.65848005575308
5.57843988344983
9.39372288887239
13.254331853993
16.1462480195734
17.3310310637127
16.5834973988868
14.2341040611655
10.9963363191666
7.61933534205859
4.64062874140815
2.33028574838419
0.652370837783644
-0.677762521834742
-1.8740281029047
-2.82746926754214
-3.29747104197589
-3.25033275556188
-2.88490490940247
-2.45034978941736
-2.13480953893348
-1.97229678152612
-1.75013121476297
-1.15676544751919
-0.138423151480946
0.961108955190281
1.62854199736097
1.4856540440685
0.494421046021296
-0.950005578062655
-2.21010325880542
-2.86460361905887
-2.96325262205979
-2.83639315488302
-2.8107668632217
-3.10137672920551
-3.78621663374089
-4.85228455775725
-6.3183068298117
-8.20739145071245
-10.3836193810524
-12.6214557641907
-14.8344753156959
-16.9759871395372
-18.7461391145054
-19.7024090869918
-19.6491561733763
-18.6761587818334
-16.871318350044
-14.188368210111
-10.5191424772803
-5.80682383272098
-0.234929078476511
5.64276213970566
11.0727748777575
15.3482887685913
17.8458874093462
18.1896613137059
16.7727835221458
14.9187708014082
14.0269728359846
14.4121176312956
15.108617134257
14.7740428162223
12.7131517287583
9.24748592022152
5.38725037714909
2.15054102720647
0.0172107099698034
-1.13166967154347
-1.69811105783015
-2.0051519271621
-2.06240327781506
-1.60032327283007
-0.423685778469475
1.30611827115716
3.23697418061358
5.0846054023273
6.50346376861185
6.9093370791974
5.77794762854541
3.1062380812339
-0.566215528259
-4.50670922315039
-8.07565898560093
-10.797356311798
-12.2965861376116
-12.2989910796534
-10.9061116030769
-8.87497053020881
-7.27745529961517
-6.66131141931423
-6.68370762322518
-6.61746170512616
-6.03343615647807
-4.99430256813363
-3.81557346369791
-2.72080169441375
-1.6561567384562
-0.424223867291662
1.04635758470434
2.68487025291274
4.48379966645914
6.51146625117678
8.69962928599712
10.7779393916734
12.3992361403454
13.2284847777942
13.0906226018522
12.2305519084819
11.2203639592148
10.3826327417589
9.49039304535339
8.19035895400549
6.50101870846728
4.77045835126087
3.32970923936375
2.23684278682247
1.22764727360433
-0.0336946217339531
-1.56190987549063
-3.02790325275796
-4.14920718340227
-4.88597467888035
-5.26431612424893
-5.30640510801373
-5.15524985835198
-5.00750422700141
-4.92115655348306
-4.85391844995871
-4.78867117476807
-4.68003682620476
-4.42372779500327
-3.99468730068266
-3.4847104154647
-2.94514803484916
-2.30373461550386
-1.47523976033569
-0.541843232435443
0.128813270780637
0.015409821508686
-1.09451622333624
-2.7489802112316
-4.13762515529499
-4.7968200666453
-4.88641754762434
-4.87389684164711
-5.19411773742793
-6.12070369079915
-7.64376801299817
-9.42213892925026
-10.9688539173338
-11.8424440600495
-11.7109510346062
-10.5135577251773
-8.61685449217312
-6.55224823892268
-4.53754919584954
-2.44121409903305
-0.195166180246048
1.96170862185775
3.69089756224315
4.95874161787743
6.24551693010434
8.23281138193802
11.0861570955458
14.1086646089176
16.288574218599
17.116476888751
16.7407039636826
15.5082926197787
13.5950658013796
11.046048274393
8.03692775967288
5.02221740668017
2.53244797497083
0.784960365478343
-0.41071488227605
-1.3513059339331
-2.16830835758693
-2.82039282340541
-3.16629201533258
-3.05598143828378
-2.51490901887503
-1.78154842301005
-1.00192762288511
-0.0195594985510645
1.34844945848678
3.02855581091753
4.86986442195135
6.8015142572675
8.56347742309608
9.58999430271824
9.42568326840648
8.03687978803424
5.60000028750761
2.27790751616273
-1.67539947157249
-5.82347365070999
-9.65638358724467
-12.7055075010019
-14.6292014365627
-15.311014937584
-14.8274285739335
-13.3238217747469
-11.0592586670107
-8.54303690779795
-6.45604889501761
-5.41024119553856
-5.75506551050177
-7.39860234520522
-9.72254773525164
-11.8457004405287
-13.0549449326965
-12.9516351684839
-11.377348875855
-8.45100225863188
-4.59299538270085
-0.3212889859296
3.90282516488695
7.54903221022302
9.98956408509288
10.9011753865465
10.695364119963
10.3907319496892
10.9773017662811
12.7984079574068
15.3720921764199
17.7508880788492
19.1157751855251
19.0793752711671
17.5965147820303
14.8892450868511
11.4950926155403
8.09696007125117
5.14756883917973
2.70466569426711
0.560280297362783
-1.529130506926
-3.54302495354951
-5.03677781217744
-5.55753109116479
-5.3702671225015
-5.5092915458842
-6.89571455421448
-9.45946484195979
-12.1211638993818
-13.548920024468
-13.0617819895682
-10.9888148297442
-8.16920049060106
-5.18295039924331
-2.24864777005824
0.281009774454519
1.76886079370577
1.78738174559272
0.581212159207204
-1.0371261008423
-2.20398594215808
-2.49663986378023
-2.03711852358186
-1.1450664515412
0.0278523428602121
1.39768811013038
2.60514231828477
3.06171293296608
2.3627634857703
0.482991092273399
-2.3146678117356
-5.47561545266828
-8.16717330737307
-9.6541124272135
-9.74543663825244
-8.80198719441855
-7.39003519846202
-5.93068340564723
-4.45501694283009
-2.58219221277003
0.143608268350615
3.80757480878867
7.97863974534817
11.9208454531014
15.0069312138523
17.1285227313726
18.6595490314923
19.7806760002327
19.9435951879489
18.3767493098876
15.1528473778746
11.4410509888059
8.537481779432
6.68537759943182
4.88273435860189
1.90640193308229
-2.42112988317614
-7.04217667277594
-10.7318937880565
-13.1648732994218
-14.8741482110884
-16.4202653007967
-17.7785888736335
-18.3857257461592
-17.6277967119394
-15.3666699386738
-12.0839763552139
-8.48361490075945
-4.97972967828584
-1.60813882453205
1.71669144858361
4.98393802006244
7.95387569001694
10.0829928357213
10.702439238051
9.39827774499585
6.24793515361824
1.86899222542678
-2.63026792214759
-6.06366151434015
-7.91479493341591
-8.5765513900301
-8.63153023116235
-8.07298654381497
-6.44732178973012
-3.59263170139042
-0.0368976326551061
3.26600406789464
5.55000095446272
6.66128658972612
6.85582582932893
6.22541263728328
4.5844883291995
1.98908436348995
-0.918673788521558
-3.22313270444007
-4.26746567266454
-3.9309804075003
-2.59244928005286
-0.796258158132197
1.18066379790485
3.37705351644826
5.75482560816816
7.99375932958109
9.77347971262488
11.0216682225721
11.7877788437855
12.1358517485086
12.2672901488199
12.4594867871208
12.6841070755358
12.4125679359597
10.9444587634856
8.00314630189009
4.12100342204393
0.434861271538212
-2.06285684918619
-3.15099898135443
-3.31343459478235
-3.27165573489649
-3.66252278986029
-4.82662881193305
-6.60714409051557
-8.52365640930685
-10.3608723242943
-12.4327890970066
-15.0668214614217
-17.9072847097596
-19.8998861458123
-20.0641600189569
-18.3440143271137
-15.6539960889044
-13.0002385803258
-10.6648045848175
-8.37868047394245
-6.0440323109164
-3.9510070223596
-2.40040097613878
-1.40034336066373
-0.674460508384466
0.189874969789918
1.47470917148648
3.07605602989531
4.63069987745822
5.95406039996052
7.20298007016061
8.62603310267611
10.3885187389884
12.602063577838
15.207055738524
17.8006023363364
19.8437105785758
21.0638642564558
21.5151554577476
21.3463791574275
20.6514404651692
19.4124539028689
17.4669696142731
14.6478154886109
11.0217952593658
6.89366527496444
2.56000712424578
-1.87171945729991
-6.43619197081092
-11.0948171766715
-15.5165575024444
-19.127816418042
-21.4786600239925
-22.4933559272328
-22.3186649502494
-21.1266833542831
-19.1692900103464
-16.782794198924
-14.1640647933332
-11.2896890744976
-8.16492695796543
-5.07710860705499
-2.60874662464527
-1.43179665824831
-1.90315138229707
-3.65408743686443
-5.62390990548414
-6.65959225947991
-6.20012588236859
-4.53343907211662
-2.51665793722829
-0.93580883628707
0.060121866949737
0.898807906878937
1.9712315208518
3.29881551748691
4.81643832048789
6.56314885231452
8.41896187617984
10.0511704078774
11.3419240361327
12.5679674617261
14.0120882067572
15.6151887285003
17.0023681593486
17.6093164745775
16.8681278697828
14.5864258928986
11.2143012552168
7.63869676749461
4.66488893914183
2.55514972694335
0.890596163791312
-1.03428581823707
-3.48463087086085
-5.97149411808389
-7.71167188522908
-8.27116667730888
-7.75410393809705
-6.58936884020229
-5.20120635917983
-3.74312269409109
-2.13107453852468
-0.375261300626534
1.25484671236928
2.46651683906031
3.1696792457663
3.39169966167735
3.13856535957097
2.35980457306409
0.843476707067061
-1.80066378582361
-5.73401134918899
-10.4682150641023
-15.128151013925
-19.0691431844326
-21.9912381488908
-23.6522818942124
-23.8236873521175
-22.3860919365563
-19.2124612851026
-14.2047088605209
-7.78129330614801
-1.13799702248041
4.3996527941845
8.38524457725449
11.417987752928
14.157332547519
16.2970460396645
16.8222107017348
15.3564910570165
12.9314174984553
11.2074036028865
11.1663323085225
12.6855526020362
14.9463204469557
16.8664513856326
17.4076059118917
15.9749337553349
12.7392068522439
8.6413863532785
5.0886838035682
3.35725754728381
3.89212550523446
6.09130970198175
8.83632659161616
11.1476862001626
12.3332654875269
11.8956068342266
9.69111732327185
6.0891656771793
1.67099857511077
-3.21730223767356
-8.41598383457511
-13.5199171317422
-17.8103492394141
-20.8475171153904
-23.0544904754534
-25.3914321722182
-28.2692749660973
-30.9909681208389
-32.4675213611246
-32.3174236594156
-31.1317209650839
-29.8719859529298
-29.0289785100326
-27.9983794532431
-25.2528111511799
-19.6249471553782
-11.6010971169624
-3.0358290463839
4.42264196834529
10.3108460052389
14.9438310472461
18.6329830438357
21.4771052959968
23.6163422995727
25.440643860953
27.4048815576076
29.4878431861773
30.8922551364372
30.5249452259421
27.878234445181
23.4275900821876
18.2194638848516
13.0571623743768
7.9729261511315
2.52730769557792
-3.26784215115149
-8.47900207614689
-11.9413998328591
-13.3049799476462
-13.1478617759626
-12.2212476664892
-10.9123607254595
-9.28042929663284
-7.16473640255133
-4.22950600536531
-0.249625858022659
4.43222212953491
8.7320534687858
11.3150323037572
11.7344053641738
11.3290418193963
12.4889222385945
16.3689544264428
21.4033383267905
24.5716921597832
24.162931905423
20.9916638531894
17.0278239383341
13.3973468007438
9.97930310440128
6.48557790757582
3.16669663955454
0.263602821843131
-2.58306546743396
-5.77096324905386
-8.90121519526359
-11.1486698578653
-12.3652801843168
-13.3262897250799
-14.9849194984717
-17.8519602005888
-21.8733423568739
-26.4439166116952
-30.6351686547455
-33.7540989960416
-35.6397247938918
-36.2926370495319
-35.4501867190984
-32.7676220264143
-28.3656316334403
-23.1504569919218
-18.5689336818057
-15.7160579661777
-14.3226806169535
-12.7373445530543
-9.18966504182925
-3.07852623721621
4.90662266702292
13.5085862774917
21.4800805181475
27.7073982318224
31.2484554837425
31.6425383755203
29.3110887269472
25.381094294445
20.8212633702452
15.9601406023492
11.0644451705801
6.83371552404769
3.70650252362744
1.1320231507346
-1.64358901019918
-4.24338378048751
-5.32558498924772
-4.05647301792038
-0.915417721573761
2.93333256094781
6.6173492124851
9.78181423867239
12.1543140273363
13.2846922478605
12.9335606210745
11.6003943161682
10.3493977224763
9.98315669611729
10.4934185643722
11.2965606813403
11.7893770419078
11.6624796737361
10.9366193947718
9.8333350847982
8.52413848179856
6.98054142044109
5.10419399305688
2.92499972167371
0.621723628052495
-1.59202993271262
-3.65645155419994
-5.83727772843602
-8.55551250926985
-11.8814226875691
-15.3652274251236
-18.4850368101584
-20.9700167631691
-22.5227607608185
-22.6318820810703
-21.0426062932795
-18.2319503643646
-15.1035157891967
-12.2346116346917
-9.56736556530095
-6.8398689977495
-4.2116814827935
-2.27184813412469
-1.31408446445071
-0.857830040674209
-0.229243498508668
0.578329443998102
1.11932984529319
1.52449704173178
2.74731211049418
5.50958900738929
9.27277881629006
12.5457893210214
14.1702872619734
14.1577170595749
13.3081416839177
12.2185357153129
10.8350988252115
8.91905784902903
6.63309505063306
4.40193170747659
2.33031682994163
0.0782014651252503
-2.66706902145725
-5.78528238816709
-8.79155063453663
-11.1786301206421
-12.6848492385738
-13.3008566157954
-13.0790541609326
-12.0010382660209
-10.0246292031593
-7.19880175570756
-3.79018755202953
-0.363332551184077
2.47347153370219
4.64226035781132
6.72004788355775
9.14959895193559
11.4637127745733
12.6622348927696
12.2688213099501
10.6521037646339
8.35375506141069
5.4998227150939
2.05529146986717
-1.49373017177102
-3.96750234537114
-4.23751599054955
-2.2460301460057
0.819276296095721
3.45961916575
4.89925682621065
5.20633672557733
4.70146113474536
3.54498375820097
1.81858367806442
-0.297350893756244
-2.57000598044031
-4.86411415185321
-7.13476629049912
-9.2493846309245
-10.9697563177577
-12.2837238009119
-13.6059646085488
-15.3325288461309
-17.2512093339507
-18.6846708429826
-19.121059521043
-18.3872141162055
-16.3298807647495
-12.7260751192289
-7.52506596504546
-0.935719647122286
6.71178908877453
14.9983636029786
23.2628591805153
30.4963056653976
35.5396023038139
37.597481544191
36.6061847536288
32.9795140230243
27.1364819592617
19.6270417820431
11.6068805548972
4.59962793291361
-0.5014686360074
-4.03347213363097
-7.09042419350406
-10.5038503703183
-14.1576718469054
-17.1370488184126
-18.5787155070673
-18.4137630530171
-17.2488864714697
-15.6856939153838
-14.0096309957715
-12.422074469879
-11.1788928170094
-10.3993363468149
-9.91215971009106
-9.27244772040956
-7.84090043743751
-5.08319160796819
-1.09775102925657
3.20436031499324
6.64867359808914
8.57170941040127
9.0814564716258
8.68778258188634
7.75299235450946
6.27314451052708
4.13986866929601
1.51399770966234
-1.13247055545489
-3.2363757454877
-4.31418545248241
-4.12259857041579
-2.87372615639957
-1.13669240619884
0.724462474340972
2.94778858415316
6.03281987502697
9.98777646039905
13.9253390809666
16.4383661139018
16.5815194977131
14.6222072156097
11.6984080014232
8.71919941403026
5.8622336134397
3.14824283232402
1.00282076931845
-0.1096848003744
-0.359824496838093
-0.482274300538634
-1.05404872430601
-2.0201507952152
-2.8574939665536
-3.01828881223964
-2.23416282238358
-0.614466993259682
1.29996567803005
2.51973938274609
1.9310175109659
-0.982203577324178
-5.66310076113525
-10.7901142842061
-14.944941406712
-17.0362415069319
-16.5965063890792
-14.0567808283756
-10.5018574681135
-6.87693132443683
-3.57957570212486
-0.89937396549237
0.502164391780698
-0.134198832222349
-2.93009489444367
-6.99415743639854
-10.877415898824
-13.5817540120742
-15.1197064379516
-15.9218397334149
-15.8683829231924
-14.2996803418522
-10.9185961104634
-6.31726710511195
-1.67573579052593
1.77506777945669
3.22009188440175
2.71093496247523
1.20005351920584
-0.228546887296381
-1.31225380204717
-2.67235662564324
-4.85961333637273
-7.35872901418249
-8.5658294214276
-6.9070101937725
-2.20795239506929
4.03044870092293
9.83788327019506
14.2327896865569
17.5073016196631
20.3908699753959
23.2093035292577
25.7249931356463
27.4885548666109
28.2233323281088
27.9214045743359
26.6862763890166
24.5918536283563
21.6653289441413
17.925015545334
13.5483925574688
9.15042115654156
5.71533353739857
3.98425312544302
3.97426884408452
5.179111970852
6.94967299693469
8.51501394860264
9.04290031157307
8.11030848050977
6.05698511519615
3.69730834406834
1.70710924653217
0.300270649183108
-0.623815263437731
-1.18399053053959
-1.51881287093467
-2.03048204499252
-3.23690083042811
-5.08469353309728
-6.69593760878197
-7.28570026531137
-7.29847351543807
-8.23121164543489
-11.234124550464
-16.059914730727
-21.3342940550859
-25.6931309589202
-28.7727690835946
-31.2698343178824
-34.000380677889
-36.9201602181108
-39.1913392541651
-40.0520898789114
-39.3178337448717
-37.1429139055055
-33.6820456504503
-29.054813897125
-23.4206224934217
-17.0137663254928
-10.1818702100857
-3.37795062272342
2.98183517130911
8.73578749976368
14.0781341381379
19.3442293568393
24.5658070106863
29.2923255197405
32.9330885090402
35.0931150208787
35.4323905666657
33.5400680856873
29.3927489392591
23.8807546061596
18.5636630930278
14.7838739578686
12.8992548451276
12.0856346155142
10.8305764872044
7.99161092585489
3.66167340132606
-1.0828654845406
-5.32941913981116
-9.04161232814909
-12.6168999855408
-15.9938552004606
-18.3296707057029
-18.4712657418861
-15.694449498864
-10.0257664078168
-1.98784797163456
7.62407326863905
17.4688843037381
25.4526168041701
29.3589486065015
28.0247795767908
22.0877698792402
13.7638073659618
5.73619836667848
-0.238313371502357
-3.93509149420373
-5.96595668342809
-6.77255973586809
-6.55344254250823
-5.79962611281398
-5.26181354869914
-5.28826975264647
-5.49458203127317
-5.20873215609421
-4.21223296398004
-3.04397354148033
-2.46080113555062
-2.45447402792253
-1.94621713948388
0.26624078642262
4.2666561131122
8.93436083837983
13.0907942614974
16.448724645379
19.2410977464942
21.1345239916015
20.9939408799869
17.9890259512683
12.6828019835494
6.56149926580212
0.472686015006405
-5.98225715134132
-13.3401757591069
-21.0980671090125
-28.0277889397114
-33.2917883778305
-36.8016284328218
-38.6565186173759
-38.6509673495048
-36.4306584259337
-32.0000130797808
-25.9805492660887
-19.3741641713422
-13.1910602647343
-8.34323787739174
-5.56008854368101
-4.99252840036268
-5.99885570552261
-7.68116992903105
-9.54636506532547
-11.3189947304555
-12.2853535749001
-11.3195137776097
-7.64809849206254
-1.37176483380266
6.70515735331316
15.4561539250974
23.5951315043514
29.8016496051377
33.1308502479993
33.5381059437187
31.9388108308484
29.5637698795369
27.1514843229598
24.7286568795567
22.0682942876317
19.257180599549
16.8735493567645
15.702422467879
16.1883928645962
18.0286580885117
20.2971343753667
21.9482653493993
22.1778625693923
20.5800595401803
17.3342703372454
13.1418985017074
8.67245439827133
4.20045174645412
-0.0300828694228178
-3.48741742209178
-5.83502030665649
-7.50952968188978
-9.47381267089289
-12.5024044873747
-16.7386597155659
-21.5324392831602
-25.4983988042881
-27.1471379695402
-25.9407957010534
-22.8082146520142
-19.5086744978662
-17.4188055188805
-16.8723193335459
-17.5195136984695
-19.0195502484921
-21.1346020145017
-23.3638506147699
-24.9869740151609
-25.5555788350887
-25.0391241331792
-23.5139087952375
-21.0340862612418
-17.7108074044173
-13.4930740556405
-7.92654969702234
-0.631062373970802
7.87403277828567
16.1966465310845
23.0478269545547
27.9550479745802
31.0475879935121
32.5528140673604
32.7200256635615
32.0203611773495
31.0277485829784
29.8218701987597
27.5920161822188
23.2468650338056
16.6169983043902
8.80399304094044
1.25974202590209
-5.07495803699623
-9.59055262693475
-11.6419438274132
-11.1117798994538
-9.34717952571228
-8.93898816905962
-11.9382835058196
-17.9895953594575
-24.4037674482965
-28.4419182763217
-29.5062629365475
-28.7936968409435
-27.0510835933739
-23.4362513789117
-16.7917935207727
-7.4121685421824
2.89251073853921
12.1606857348991
19.2922590230824
23.9364775724591
26.0570213224724
26.0328413968338
24.9715323435972
24.3404121417961
24.9387914898471
26.3284328539325
27.3835149084351
27.1902471790691
25.3281649836456
21.7768244171495
17.0596297492954
12.2235771917158
8.08019061022025
4.42823866141037
0.398430826821538
-4.39495714443122
-9.34570665708972
-13.5700096681573
-16.8564656447106
-19.6991065535176
-22.5518384633537
-25.3586480781048
-27.758994826451
-29.3190201990262
-29.4442695856405
-27.5759350489932
-23.8733089850748
-19.4295817773244
-15.4465262052892
-12.2807700913152
-9.39852896043086
-6.05148804156229
-1.93219567388018
2.60309205635158
6.88398338442604
10.5507245841265
13.6560667218906
16.0582846355907
17.0992258325277
16.2150813863788
13.611678273761
10.0256741489123
6.06520503396301
2.13759735055192
-1.18755773813059
-3.23338330511645
-3.72265465153069
-2.95707727047117
-1.34111550886685
1.09286748091547
4.36248700348335
7.71335967134604
9.62049131048219
9.09976949503304
6.85764280350393
4.76811731415794
4.37838118026299
6.16228471742981
9.73884553638418
14.1381857169974
17.9591348628578
19.852405346378
19.1316828926592
15.9758650700353
11.1466140445767
5.44597213324672
-0.721193103280812
-7.18480593366689
-13.4260270870886
-18.6085589391484
-22.4449110395961
-25.5922778203611
-28.8301111950751
-32.152111199123
-34.9330926926323
-36.6837526019767
-37.3585965680048
-37.0942632790263
-35.8493028782975
-33.2360041840416
-28.6355822513268
-21.5860978922602
-12.2315156896439
-1.54935523495719
8.83166259264437
17.3312223846704
23.3639413713642
27.6648124058414
31.4536403080197
35.2228576049251
38.3658673282129
39.7784495791682
38.7251579624424
35.4253999088678
30.9923898728342
26.5999103293719
22.5973804395365
18.5650789102069
14.1664280868493
9.72907573016331
6.01733928285822
3.53728465853877
1.98801510879456
0.453277420739685
-1.59545331475128
-3.53574750762884
-4.21241864761448
-3.34653767092925
-1.95101504328746
-1.23614390395135
-1.38604157374713
-1.58950480295615
-1.16777740086664
-0.483124954285128
-0.622813028256916
-2.26572336010584
-5.0484467409635
-7.98731481216925
-10.2325087952382
-11.4306646203853
-11.7968392515803
-12.0939241789433
-13.2834709499798
-15.8114130109512
-19.1023177924851
-21.8126109545195
-22.7342134308157
-21.6718448617259
-19.5176489088231
-17.339387201601
-15.3676633887511
-12.988300122266
-9.60116728166525
-5.25217158659725
-0.602574754218061
3.40348259095799
6.01792330436953
7.15853673608652
7.28546750252952
6.74504351188308
5.64468158720971
4.47343019478867
4.17164100338718
5.12990164545477
6.56133767838677
7.36017077904776
7.3382739116511
7.1533986754072
7.08974588108805
6.37851089721261
4.00293240043346
0.0149091372253058
-4.28021877598233
-7.48739084793448
-9.20256113571876
-9.89894673137108
-10.1012369236626
-9.87169404641834
-8.87601235691408
-6.76024236239783
-3.57448469071503
0.108875377474719
3.61774933319465
6.72700738007069
9.67658712771205
12.7427799290419
15.9677228540601
19.1722036158686
21.9628822883959
23.7862690741163
24.2127561790044
23.1984906472435
21.0478184108483
18.2407666083332
15.2872139184543
12.5110520904528
9.8545600231212
6.98649670512793
3.68745671737551
0.186783911563942
-2.82700423424395
-4.62661916239939
-5.00526799742603
-4.3231999745335
-2.96991755656721
-1.13119274531545
0.73780734219115
1.71699016817754
1.18729781650666
-0.446590218462687
-2.17424201194673
-3.35846226326301
-4.06392971418921
-4.61733171785375
-5.13252508257111
-5.49095957825282
-5.69022100265514
-6.09266446659448
-7.18164073957032
-9.04847516906887
-11.2301985031087
-13.0594640854613
-14.1079827730279
-14.418499105195
-14.5201515485425
-15.1707703935259
-16.8894611653451
-19.7160814890837
-23.3873823606897
-27.4863801374843
-31.3466890289517
-34.1349669774385
-35.2074253456792
-34.2596024288591
-31.2651452607798
-26.6207505347191
-21.1868634080188
-15.6509102961577
-9.82537022536865
-3.0119361472898
4.84891184158411
12.7054639178893
19.2089562750535
23.894297946026
27.5371341189555
31.4536497125721
36.493851378437
42.5613235891092
48.721434235907
53.4588515924925
55.0796083019487
52.5346456961711
46.2084680557175
37.7687472993616
29.1173272814689
21.4618021012536
15.1412002428084
9.96447686866497
5.63929117571605
2.0594290182117
-0.698901205557981
-2.61089421065501
-3.86524258840002
-4.82376152912538
-5.92155163210188
-7.53617429919197
-9.78205610854124
-12.4429068772369
-15.1511150042959
-17.5047763784071
-19.083408195036
-19.7759934454404
-20.1726747340655
-21.1263152829931
-22.6854974401965
-23.8020645498826
-23.2431515381464
-20.5637808478535
-16.3040624354675
-11.6890744131472
-8.10337252129603
-6.34607991300393
-6.18662569594275
-6.78657366657372
-7.51001096628265
-8.19485932765114
-8.8517271821883
-9.40420045839954
-9.62320291886304
-9.02767089395046
-6.92408514927932
-2.93384273213742
2.35196380205673
7.46910307354119
11.0173048474777
12.3964294583983
11.6348891654865
8.94335689753157
4.78647842170572
0.110497809779655
-3.972850814363
-6.74952387710991
-7.98610917481974
-7.65218674146676
-5.87136548634525
-3.02141655475961
0.415722422735679
4.00176008346458
7.13745161613629
8.98844176356367
9.02344622802977
7.57710593037663
5.67695213870426
4.41095733443659
4.5688712649388
6.68376823431764
11.0579651693699
17.4097917299433
24.3128734108105
29.3001394111374
30.2706496166463
27.2383712305702
22.5049310673579
18.7987366997996
17.1130619956456
16.1958200677192
14.0115626476225
9.85471087821128
5.22052222018312
2.50879937938788
2.74824191871185
4.61768261055139
5.59209238599737
3.87469968928281
-0.557035613551581
-6.25261095948522
-11.3888524147325
-14.8477644277778
-16.6526561548023
-17.6965195560781
-19.1677240616805
-21.9969438495638
-26.386205545737
-31.6147481129238
-36.4503277751242
-39.9742252983938
-42.0284326223908
-42.8549076369048
-42.4261482263772
-40.1934190759639
-35.3820799789032
-27.4813813926593
-16.6663697266743
-4.13795205587284
7.78999653853278
16.3840079709448
20.0310735748075
19.4168770011741
16.9705019337655
15.0069485761665
14.411103368182
14.7562614351196
15.1451016410908
14.9591298849821
14.2855449722531
13.8259460587882
14.3040811065438
15.9852518601861
18.66406994345
21.6847991732467
23.8531126895954
23.8677806723839
21.3179960606177
17.1675105301303
13.0512389246347
10.1205383687557
8.5504047335457
7.9127735768292
7.75322247773091
7.73992173153542
7.43461485566932
6.20326543921911
3.48920415071758
-0.881900113524513
-6.64545061567991
-13.099613663769
-19.031432721245
-22.9466596002992
-23.8182554905213
-21.7307347354222
-17.7185022266673
-13.0033120493632
-8.30750021273961
-3.58291411336512
1.70567156401682
7.72956271967232
13.5218388781314
17.2623557724135
17.6426559118972
15.0832551448688
11.5921867127097
9.25583637174004
8.5924359478429
8.24086266199038
6.27528542102709
1.83856161370655
-4.38197164152702
-10.9586047247516
-16.8221955588931
-21.6616622047873
-25.3056087528532
-26.9079541809636
-25.3517338686435
-20.7684456661023
-15.0388516092749
-10.1986954635628
-6.75867847473337
-4.09518636627264
-1.9795198738523
-0.981064742372091
-1.55512902778048
-3.32874022075044
-5.25487779850615
-6.09286658503179
-4.79996997574484
-0.864082938953037
5.43529781294563
12.9194876376457
19.7140672897657
24.0266370246617
25.194774907377
23.9282431410128
21.3240655586512
17.7931276781232
13.1142849610195
7.31360524244714
1.20287540120689
-3.95396118765738
-7.22730297918405
-8.53392450510475
-8.54128367241282
-8.2465980790903
-8.56340874863043
-9.81852736157798
-11.2807527454332
-11.5248083018526
-9.8248195670566
-7.13575467088203
-5.29255189125968
-5.25215438444956
-6.37155075696074
-7.26862609976276
-7.05151844600054
-5.74838614485937
-3.88840018499647
-1.88564613916729
0.203747483065267
2.48461282315308
4.92386029254483
7.28065500793856
9.348304535522
11.301348686337
13.6716940606271
16.6667243526053
19.4223517393347
20.2705598878618
18.0855910812999
13.3811831709211
8.0767677870487
4.30106704113624
3.20573531007537
4.36841722234533
6.12167479713921
6.73982506813959
5.48554342115411
2.54160434886444
-1.71697218760576
-6.99266539051414
-12.7715058063901
-18.1041017102299
-21.6863558804616
-22.2024526848008
-19.0035816487645
-12.7187891494884
-4.9898805750909
2.61490127831984
9.38467814353606
15.2173515198393
19.855805136828
22.5776833101854
22.6697814699614
20.1182311991926
15.7012340368517
10.4145245260788
4.9343789137304
-0.480791752749302
-5.90604888856977
-11.5579414014245
-17.3189205056651
-22.4153053726968
-25.9191013285541
-27.6281775957692
-28.1490912700793
-28.1231310463254
-27.7375131900671
-26.9590156840379
-25.7143280481136
-23.6922274507879
-20.4730421533108
-16.1780465948259
-11.707591358255
-8.01450190526865
-5.17236862929823
-2.27658188614255
1.73973082084694
7.21853229422524
13.6576901421745
20.3089164430245
26.6262223635747
32.0113111495579
35.3750151410512
35.3848281722694
31.436851167693
24.4431782306941
16.5215457172998
9.69600114466842
4.83204722553933
1.81266869522816
0.392290566784003
0.428686769773791
1.45155938035694
2.60854972610241
3.16527942990285
2.76393633340368
1.29400650241431
-1.07927121425148
-3.79003048702636
-6.14063267607701
-7.76435078783686
-8.69458859298971
-9.07630105666773
-8.95982004375642
-8.27312862621346
-6.87807479030065
-4.7726702707617
-2.31778769625415
-0.106205941405268
1.51075375264547
2.73152414608484
4.18568744678152
6.55505963288856
10.0999938920748
14.3182238447173
18.1392005577663
20.6188695937755
21.4276237394591
20.6773552412064
18.517285723699
15.1127779071534
10.9480040971918
6.88704756457834
3.72306654023068
1.64153564237736
0.172796324291043
-1.46816662759149
-4.17707364349579
-8.81433756755153
-15.6441357258743
-23.7465603129665
-31.401632107502
-37.3208607665348
-41.3588718648398
-43.9994853709349
-45.3967129865605
-45.0029425570272
-42.0121576076506
-36.170160825124
-28.2193458866637
-19.4584205034476
-10.7941963586196
-2.34190008115597
6.01179202948705
13.8784980164692
20.3818174750365
24.8634817551858
27.5200166394064
29.280718203655
30.8668895266689
31.8956846016852
31.1330535711255
27.7375663843642
22.0610271566794
15.2683534241458
8.59290304608862
3.06526178354486
-0.522653699267593
-1.86686642209497
-1.41114859972583
-0.161742460085559
0.976752447368475
1.79767375476413
2.6472504937688
3.64331610547557
4.3073319237266
4.22272959292324
3.82786227754942
4.12843921697326
5.54716181366446
7.25481351260738
7.76887797852852
6.27037306887829
3.35849036584952
0.453763635007561
-1.52854001413628
-2.78686643537748
-4.02952651013945
-5.61243648044567
-7.29410443117815
-8.44257559082394
-8.34801623397922
-6.71149106848766
-4.09233760220573
-1.65413782899213
-0.233871862294001
0.221773797623749
0.201262800256762
-0.14598746412984
-1.10390209008943
-2.83617383504377
-4.98812543135166
-6.92592343138086
-8.30372191827575
-9.28510731094767
-10.2113167111108
-11.224605005221
-12.2446304083232
-13.0143827299068
-13.0251121900506
-11.7616064287816
-9.33721676155677
-6.6223251416233
-4.3835377840469
-2.46219148345309
-0.188262180673304
2.43961729697186
4.42276320065157
4.87927126335401
4.30367895460495
4.30459334404963
5.96984814819838
8.81421395028077
11.5495598489994
13.5267595431414
15.0388448000877
16.5223834781273
18.017871625715
19.3410945359418
20.2906618869057
20.5768306885231
19.8516898973581
17.9959626469326
15.3333019250346
12.5152774373713
10.1291395381395
8.26641359008953
6.41642095947959
3.86331910713548
0.211809552693793
-4.45719629184925
-9.75135403438086
-15.1392054550794
-20.0946403699345
-24.2163433316558
-27.2072163233897
-28.8566736572324
-29.1998774864245
-28.5028450708768
-26.7807958928982
-23.4657724624062
-17.9869288332084
-10.8299558749725
-3.78270385500528
1.17115950658464
3.34465748370532
3.70036378215602
3.64868318916923
3.61486156937666
2.97383408552945
1.22317081551191
-1.205359777036
-3.34085816990602
-4.50837747153006
-4.66751006956635
-4.24285692738425
-3.8084281747743
-3.72930897213242
-3.7991267392142
-3.1271439645028
-0.602302340380311
4.15822438933121
10.2254802402175
16.002031821112
20.6011557983917
24.3533762846887
27.8372231780453
30.7617156558466
32.0575092711119
30.7748756117216
26.6395155520819
20.0802732225472
12.1156405244076
4.0022115922799
-3.44488076449652
-10.2386498748461
-16.7403752758896
-22.7218262951265
-27.0291970083489
-28.477028663982
-27.2597094748393
-25.1055625675841
-23.4700447308149
-21.7613745891132
-18.0661557347146
-11.6037087653949
-3.69873131307252
3.7447218218533
9.86593793339179
14.6358066816564
17.8649616072891
19.1862587124396
18.8041835975227
17.6536529850819
16.6646573281891
16.1585933907825
16.1183822562537
16.6987648634628
17.9821158144469
19.3195817562609
19.5205761493619
17.9610658496607
15.1603910666315
12.0327404881435
8.84320132799431
5.1175797868227
0.36389538731228
-5.31594600078261
-11.1884917338997
-16.316609230066
-20.0968825681655
-22.4746796098723
-23.7181381626554
-24.0633687330154
-23.4788847948555
-21.6438106745475
-18.3714424927975
-14.3261395503775
-11.0989690645482
-10.1727679082405
-11.8021342656249
-14.9965464110968
-18.3740570076548
-20.8888096929429
-22.0008293539763
-21.4704950658259
-19.1809354981949
-15.358525809628
-10.9156870305572
-7.08763158529845
-4.42195947167557
-2.38043767290828
-0.0822227184724761
2.91028143908748
6.66127541736899
11.1895021911683
16.2605858397549
21.0075887638636
24.2061712454871
25.164670275425
24.268645835716
22.4676719816936
20.2290647460392
17.2210820936422
13.1073392799453
8.35927262875574
4.01231477170098
0.803119867826155
-1.16641885912919
-2.10483426400394
-2.26962425951743
-1.98487581298151
-1.5984992611341
-1.33019524077056
-1.16943516780635
-0.801512260350724
0.323018756633203
2.54656625311981
5.52114024630636
8.36248600007383
10.416857035976
11.834254087504
13.3579054048171
15.5366861504593
18.1074859202667
20.186206784384
21.0912442628443
20.8622678893566
19.9407472024976
18.5767262699767
16.6933146236184
14.1387013988285
10.877467675628
6.95380526145331
2.29328594957244
-3.3920237172602
-10.2536815925087
-17.7882440777403
-24.9893906810297
-31.1948180565682
-36.472513585886
-40.9287573685258
-43.9320296176505
-44.4519401294591
-42.1921836692808
-38.0829385462848
-33.3982591074568
-28.412957975313
-22.2203157268683
-14.0917619213213
-4.76171290338339
4.08366307173627
11.4662190512336
17.6608425470962
23.0322062733649
27.00745282399
28.5896236987928
27.5583795569354
24.8382111529811
21.746867490965
18.9521113534344
16.0964258198569
12.4115457731343
7.65048396296416
2.34278173951826
-2.7420901095695
-7.17327501371784
-10.94613923134
-14.1502885499613
-16.5505521471876
-17.5573541928135
-16.8474273237897
-15.0130938156596
-13.2743932988568
-12.3975919070853
-11.9931482456109
-10.8201102156478
-7.67581590994597
-2.24525439628531
4.54668466683435
11.0194973668288
15.7879626176253
18.4156435682145
19.1637928069481
18.4703522641073
16.8474347999798
14.9156352019756
13.1262758682458
11.5549808758024
10.2516475980306
9.66615679080587
10.3131858073095
11.8517941158703
12.788047745856
11.5205155423975
7.76182419299758
2.66948925987979
-2.3962945285018
-6.77196510998671
-10.0886354427979
-11.7249087128794
-11.3070475562436
-9.51729169453845
-7.84309168225084
-7.40642840486786
-8.18338679406961
-9.32031623741165
-10.0312403900154
-10.1287992863726
-9.81872250147389
-9.26019100299889
-8.47810981778221
-7.44078685782476
-5.89459254012164
-3.32664456622295
0.423095156455546
4.47083034927347
7.16615371676398
7.27581324267328
4.92745041056
1.46103806657249
-1.59096198388146
-3.43521762911881
-4.08980395860344
-3.83884126581095
-2.98072727945203
-2.07020018639699
-1.86019289842561
-2.66700958085567
-4.05621676407572
-5.35133734013046
-6.15042347329057
-6.20592752939684
-5.211330006729
-2.98904069977351
0.298593217412403
4.19590202654244
8.01643202451351
10.9462280034392
12.4548002265854
12.7435415580973
12.6630931371653
13.0435197827428
13.9213305915921
14.3136113600211
12.9660582721092
9.58396796322528
5.23807699373983
1.45931096467621
-0.847684328180106
-1.61321500978902
-1.29979348585676
-0.716665868847609
-0.731313151094024
-1.71817764196696
-3.30830264085112
-4.76775318803815
-5.54429204741089
-5.4792666120715
-4.65004787163318
-3.0807676250651
-0.674374288325917
2.43418715440916
5.50208971935078
7.4257026906973
7.48907987863787
5.76024744583438
2.79746516145716
-0.749023189891457
-4.17397247217285
-6.66437364662184
-7.53081007271925
-6.62542327642855
-4.56345424805294
-2.46826080511239
-1.33898437066603
-1.50296603252105
-2.51774735743665
-3.5093711481704
-3.79251418800629
-3.46755213318181
-3.37084996420306
-4.17647674857863
-5.62868520106608
-6.93349714013451
-7.72941648253615
-8.25796610026417
-8.70906809863162
-8.91747212728096
-8.76113997834631
-8.43058659547922
-8.0788219218345
-7.35008777226435
-5.47563018330387
-2.03485746612437
2.29430385944648
5.9256073442054
7.54236088435255
7.12274143715301
5.81360343818018
4.91147533287808
4.92088584571843
5.37092469961368
5.44107601336652
4.79158654466977
3.76620591461964
2.91064589199053
2.6148649114714
3.18984351111605
4.72614780713138
6.58900376137943
7.49175784794357
6.4949580092139
3.84711715662259
0.775300986861239
-1.35456802221731
-1.77012807323971
-0.671117373848614
0.896239705584888
1.71649969781649
1.13364600119083
-0.754169872271875
-3.3708357461562
-5.98959773992562
-7.9449697136032
-8.77355682335617
-8.33169274857767
-6.90324213017208
-5.13064693623571
-3.57709601583461
-2.24867345869919
-0.696462650308383
1.37888324228088
3.75721595936042
5.87720985375526
7.24589197229216
7.78571224470505
7.90512570837976
8.06926788098046
8.19463108975906
7.66796312568438
6.08257579528685
3.78256902527491
1.60189097529943
0.240319360436325
-0.074863251667784
0.427398917743865
1.24306419802577
1.85161395061443
1.92419210430182
1.38330361826783
0.410294787813768
-0.585733076934768
-1.16194871752977
-1.05907280890846
-0.214808199936454
1.23976215380885
2.82445629978255
3.75092110947846
3.36890831699949
1.54375899072521
-1.3848278427981
-4.7978509889404
-7.98457394030688
-10.4404797865747
-12.01662089325
-12.6175765629825
-11.9261545277061
-9.71047611649146
-6.27353177212
-2.371981510628
1.1967555264269
3.8815633621941
5.57551911081301
6.68961790718198
7.78242576032064
8.94387698722339
9.63130081258421
9.15341264824128
7.28998756452439
4.50923838781263
1.61955373885115
-0.852585578405321
-2.89417551574977
-4.52542486118771
-5.28813581565622
-4.55637564414432
-2.31311471892258
0.705709448659331
3.62873869912899
5.9310554662148
7.36464291611398
7.7874805411306
7.22994818673273
6.00943052427826
4.61004468506539
3.32842713440101
2.04780241473871
0.475986112517717
-1.45465469537551
-3.61993933375711
-6.01538640079092
-8.6896493729023
-11.4022456722827
-13.6957859276102
-15.3450342607041
-16.5110409669354
-17.4824341736569
-18.4273802341819
-19.2943902795247
-19.7847609480342
-19.4863949704309
-18.1419584673986
-15.8063025871444
-12.7998798986736
-9.44633633779049
-5.57393971607185
-0.289505061064652
7.19047381053047
16.1010096147415
23.8747164919603
27.8512670915603
27.2894543776704
23.5770947157229
18.7285549574974
14.0314185053702
9.95814466934191
6.71637035150868
4.41725061656631
2.85475514569816
1.63828724567663
0.817524795963827
1.0572072665867
2.73775492840474
5.00189022342435
6.18990089005798
5.32519812844494
2.91333883291163
0.295431635379889
-1.49203883625369
-2.17045544901796
-1.83743917735264
-0.511177621260208
1.69197868639504
4.03658365033568
5.31356270976715
4.82492660203398
3.04184083229723
1.11556448170551
-0.0614719049049778
-0.27281228272323
0.110380440346377
0.384205690866358
-0.0481533149031826
-1.24940293865582
-2.81941406184452
-4.36063971935124
-5.70458740384913
-6.74193626546259
-7.2650153022898
-7.04832193015538
-6.04605092691641
-4.54120418677293
-3.06674016842777
-2.03147149823776
-1.40462848819238
-0.876266292734966
-0.264184635918096
0.390582680596122
1.02090735686977
1.59828145434294
2.03115662595977
2.1528450221174
1.83864908880234
1.16037561211156
0.464782635213123
0.189161663509373
0.538345517989544
1.50098849645558
3.14200905238015
5.4772909925082
7.93867849995148
9.36904763592592
8.81855370463902
6.23346648225666
2.39823205232268
-1.56466017369167
-4.74310452615619
-6.8512385179615
-8.18722698089616
-9.09470611196686
-9.55197110989176
-9.31664236273713
-8.27171019480174
-6.57120474467403
-4.62090213234516
-2.94238944098384
-1.91363194977987
-1.60935762379212
-1.8822347193716
-2.45745420817447
-2.92556892803265
-2.88253337583057
-2.2496311110253
-1.35179933426375
-0.570642733557765
-0.0091357685779541
0.421070432481834
0.670695785896583
0.420405442847903
-0.681283846115464
-2.61351449572692
-4.84795713394553
-6.70390404632274
-7.79893569116795
-8.08954441660936
-7.66753563280517
-6.7503659332668
-5.7395409792789
-5.01792208410537
-4.66675252646414
-4.41217780426136
-3.71556118551293
-1.88882498523626
1.6612419914732
7.06820341345112
13.6886931002678
20.0333860574643
24.3070046295626
25.5651381042261
24.3859616748421
22.0107427240031
18.9342896877809
14.8875854453101
10.0748714170742
5.61341615991411
2.46547272646366
0.446646179287145
-1.34990214371796
-3.37461687730416
-5.15450152642934
-5.93177165341691
-5.49674645952555
-4.2612631481299
-2.71860358309588
-1.18684467485116
-0.0908964683469317
-0.0390112721871851
-1.29474188052547
-3.38382736754154
-5.47695447924639
-7.00378826571074
-7.7554276518392
-7.67180418730642
-6.8162390080883
-5.46970091350031
-4.06429232370224
-2.95480704104714
-2.17553701039988
-1.38820502580373
-0.190992982310659
1.45251598280416
3.15495883557512
4.42735014406425
4.96086900845557
4.7397000293802
4.08543067179167
3.48332305987867
3.16648177253485
2.92282424169176
2.3728000935583
1.32294837934772
-0.140497956966214
-1.76095423360077
-3.39234977386498
-5.29279926438639
-7.91772982966801
-11.2073692307672
-14.2918556664303
-16.1399770302234
-16.3818289901198
-15.4015141294831
-13.8219394189928
-11.9848475278564
-9.72210857937208
-6.56379938438328
-2.38215970458865
2.14410703311676
5.97208641862894
8.66820815820465
10.7091717650029
12.7197031807374
14.5710551117044
15.3799726294656
14.408384880406
11.8355809048243
8.49413330156021
5.01187542904725
1.59821687545032
-1.43172262274489
-3.54151762776047
-4.54283694847546
-4.79380917673402
-4.66307237849317
-4.19249765204956
-3.3863928759177
-2.44260771063796
-1.575537812702
-0.859980589216284
-0.23186660022822
0.631237787812403
2.36616271590223
5.45698308019273
9.49456436839041
13.0561542597907
14.6120174698566
13.7091743642189
11.2045721949069
8.2805804085029
5.38425562366484
2.23189704710732
-1.41195728754206
-5.28054525793695
-8.81557131406772
-11.499186151081
-12.938794149318
-12.8547295720242
-11.1469038925989
-8.04863808186206
-4.27278444963612
-0.849868247144313
1.50158359439222
2.87852984543382
3.84266896955036
4.63705040737362
5.04032947463911
4.88072799798866
4.29999385755766
3.50684266482406
2.56254850856441
1.44107314343529
0.15074272988306
-1.20458349277078
-2.48322877835746
-3.72626658106434
-5.25742184677518
-7.33488966024643
-9.63055946250822
-11.1579296932466
-10.859953733719
-8.50366059879067
-5.15384899083767
-2.53663060294003
-1.62382389411171
-1.92712110164451
-2.3135499622372
-2.24393705349715
-2.03563823826121
-2.24279342343791
-3.01484913793136
-3.79398948845027
-3.44289053431432
-0.913184888030418
3.92378301464502
9.98791235201801
15.419873674647
18.4190230715054
18.2243162722657
15.7222821219765
12.8766024794219
11.1564446826704
10.5147444131051
9.92934546323355
8.64021247624213
6.70737025172097
4.66842412209945
2.95629504461127
1.65358289089566
0.69284423748745
0.0976100526211728
-0.196637130851051
-0.6676498093581
-1.97627721615578
-4.2779470849773
-6.93683340348048
-8.96452712713141
-9.69043413182396
-9.22236791233194
-8.50223017244267
-8.75579161014049
-10.5783829417041
-13.4881505008005
-16.3608804012274
-18.2038936296486
-18.5971582307745
-17.6609057500229
-15.7155420178568
-12.9226140041529
-9.24084471824239
-4.69497460166786
0.408535490924531
5.50456921156414
9.90483065448155
13.0048533300112
14.5923993264632
15.0223015494312
14.9665298224541
14.859616368693
14.4687292668751
12.9534296679239
9.55683368871847
4.53598294159849
-0.665036545405806
-4.45413310657808
-6.26628111814963
-6.57695835992975
-6.08763862515843
-5.29120884689104
-4.56989777931719
-4.15490888009874
-3.89343435660453
-3.29045611795557
-1.87477283897842
0.436253072516693
3.2263401708341
5.84985079950603
7.88676139656645
9.25243776444523
9.88457847036495
9.65320441493858
8.73445098949219
7.75338221535421
7.27170770734174
7.21705363450256
6.92252019022863
5.70092877713874
3.45622708481427
0.84629268915742
-1.2143773762688
-2.30466038514277
-2.75460675381235
-3.23382977191994
-4.22028277612274
-5.82297347389605
-7.90096704288884
-10.2005267583937
-12.3443381215634
-13.7325977326361
-13.6608293006539
-11.8169760130154
-8.68784085360199
-5.27035789924312
-2.3496129331472
-0.137148658457611
1.60622074832047
3.37338837479739
5.63391774225116
8.3662784620049
10.8720857517612
12.2296516130463
11.9279407396144
10.1576721692934
7.74309361441072
5.68985384378467
4.39775773108144
3.28900928075788
1.49082254498617
-1.17893448132379
-4.15974403276167
-6.91947310116413
-9.42757389461746
-11.8758266157177
-14.1416901214045
-15.5801424332657
-15.3697597750929
-13.1628876062709
-9.40634401117603
-5.01099290379095
-0.804089428974842
2.70149227343806
5.24029755217616
6.69394974774688
7.06444000717354
6.55332214702047
5.64883892050309
4.90597457294888
4.44209326452516
3.8396816261415
2.81398612853236
1.80742995686985
1.59474899416146
2.36527389764985
3.46241767481529
4.04150140144425
3.84461268697217
3.30200869206643
2.95088092556855
2.90285843680256
2.97853222461423
3.14190750353977
3.44730828975315
3.64292995999769
3.24719396367778
2.08209628621814
0.450003694177578
-1.20769332352817
-2.54075628608172
-3.20264055842718
-2.87579961509833
-1.57064478031249
0.16118148884929
1.41607968454411
1.46437186565251
0.215833979166392
-1.80261360935999
-3.91802545700061
-5.71717842269016
-7.08604079202543
-8.07119955981516
-8.74335642708766
-9.05128101299635
-8.78251643537776
-7.76728733858327
-6.10976972765173
-4.14132133751758
-2.20047925661601
-0.537471406527593
0.657487321928384
1.2494448406335
1.15681266322985
0.381167475972494
-0.812266311632778
-1.80600730633943
-2.00687924509291
-1.36457183804479
-0.334299708687822
0.635169981448942
1.38623837791777
1.94826899085013
2.45088820077983
3.14582209059502
4.28045430812545
5.83736995916273
7.42730717728451
8.46855314340552
8.532130840923
7.60238629000907
6.04203481964509
4.34129228040397
2.94307515092253
2.20014940982383
2.28856910733808
3.11758460658594
4.40589193361675
5.83736769941732
7.15984822474431
8.26332794613152
9.13266495442523
9.56475642306298
9.08326636520103
7.47238263703234
5.32018688260398
3.6375267573554
2.87475648164504
2.56981420754043
1.9714471192273
0.774695328040781
-0.745180002576771
-2.10022239405236
-3.04683614713012
-3.75183898122451
-4.49359032524564
-5.29845211767892
-6.07950473262197
-7.02974501050554
-8.5433817796113
-10.7299922841158
-13.2337817306935
-15.5280619364493
-17.2676112768256
-18.4372996318269
-19.2294441678558
-19.6619179918107
-19.3133043574868
-17.5942486626422
-14.3056373789571
-9.89982835536869
-5.30275430565186
-1.43050671698745
1.43504765037664
3.84449910097924
6.46384331686841
9.17636422904061
11.2520983612474
12.362570994313
12.9700140304878
13.603527471294
14.0977326356768
13.7510937061021
12.0930609579169
9.30788418743403
5.89261267487993
2.08516075837058
-2.12220028304422
-6.39810327240892
-9.83823836000359
-11.5960784598839
-11.6158055371561
-10.4992960613914
-8.76563220940242
-6.51011061921345
-3.73645343756357
-0.758454912683698
1.83430141282088
3.58655866710004
4.53497499009551
5.11703492125763
5.75753052939966
6.69190724417311
8.16116451675925
10.4603664104596
13.5793596549824
16.8789682473207
19.2678776971569
19.8270268936022
18.4428164110351
15.8936827875452
13.2001411763195
10.8641157315286
8.78100793154177
6.66299325756231
4.28840681757839
1.56115590380393
-1.31130886203856
-3.82641352570771
-5.64426876654465
-6.89428361075446
-7.86114134614775
-8.61218087355243
-9.12288358282331
-9.52589803511718
-10.0158757236515
-10.6380952262625
-11.3007097408814
-11.9107516973034
-12.4482958052414
-12.9553587989706
-13.4023332759039
-13.5165865514329
-12.8789572703292
-11.2771892299561
-8.85650481108603
-5.95554382001307
-2.99883392724768
-0.455419546325619
1.419188336643
2.78517227382477
3.92926100009526
4.82838322510607
5.15694522013305
4.6266390407324
3.25116668174965
1.43791519415744
-0.165029524962469
-1.0950694604889
-1.34136665070445
-1.11506667945078
-0.577907435711787
0.0454502646946052
0.411108738260291
0.427980602670357
0.513425303325465
1.22830856166522
2.70016060217763
4.4503860365516
5.69721415204777
5.86597299618073
4.97201508750401
3.58757639024712
2.43993542677457
1.99550335588461
2.24950241478968
2.73731877733991
2.80945457697698
2.07084606311215
0.596586098794556
-1.25680222949285
-3.10553411240838
-4.6033274429175
-5.53123293852831
-5.957220966966
-6.09793185029651
-5.93655098440952
-5.18912592146958
-3.69367101656263
-1.64487174138042
0.530661384587463
2.36682133098977
3.53717756746022
4.05036319984772
4.23048666580772
4.43791876130715
4.88208872998175
5.63467456815925
6.60521669957947
7.52088806984435
8.12760185168307
8.40952869648692
8.50906529716991
8.512093601113
8.40232415922585
8.13208031232013
7.65870664412341
6.93729401981755
5.86413142963623
4.26382635507531
2.10672422163749
-0.232618598736308
-2.13550445665479
-3.21664437589847
-3.49965983552966
-3.16135671990612
-2.3420114920484
-1.22426043795447
-0.0524830056192935
1.02988317389891
2.01714785717297
2.81959482299552
3.05958261949951
2.15755681466085
-0.273243630695069
-3.97442473076239
-8.02766167353407
-11.478987955282
-13.9654633552108
-15.6157685046063
-16.5296730121413
-16.6540647491883
-16.09127261973
-15.2474141001776
-14.6129822806816
-14.4312365157931
-14.5008616606172
-14.2870307472171
-13.3446955908834
-11.6562740234838
-9.486929045664
-6.97077766109105
-3.9793915029897
-0.459883378057801
3.08505581582149
5.5696169293726
6.11668860756988
5.07387668367219
3.98106641688126
4.26991960304724
6.1343901225028
8.73421046557057
11.1295009799072
12.8146558498248
13.722949343432
14.106659914637
14.3465505899079
14.6925478931311
15.1817039519205
15.7338427367144
16.1463955137558
16.0723314139109
15.2848554883276
13.9896824246394
12.6783079798161
11.6529982783072
10.8035398673981
9.80264539981501
8.3909231861344
6.43434577282806
3.77499545877287
0.233230660464333
-4.03873310799864
-8.32889912134881
-11.803815604209
-14.1784183040296
-15.7420204711262
-16.798323600437
-17.2963190878819
-16.9379935383404
-15.5350626393246
-13.4180221138116
-11.4972770779163
-10.556714465472
-10.3820498838892
-9.94287015955058
-8.54907598568354
-6.52659150521217
-4.70923415663731
-3.56756709432229
-2.88782168525416
-2.08131297908961
-0.756526597262639
0.923056292620899
2.44388611944466
3.46665384523552
4.04543712659376
4.40317063946345
4.67912726383208
4.87086498777362
4.88178488511329
4.69671247471316
4.61741489500541
5.15017628978057
6.4932043912545
8.28852114997696
9.99346495311559
11.3099410461213
12.1738372005672
12.5604727274689
12.4491369623294
11.8865677947437
11.0105589939125
9.98079143813858
8.81769596970675
7.35380016866997
5.46817370611001
3.29102221737694
1.01585878458847
-1.38050121812915
-4.03306644311926
-6.8877005098427
-9.65670630212964
-12.0022349398882
-13.7102145822172
-14.8054876137894
-15.5112323375046
-15.9889065411919
-16.1833964738483
-16.0254685257085
-15.6431963296933
-15.2415706423868
-14.9027735326258
-14.5842631323142
-14.1558470114163
-13.3787306493477
-12.0228674272908
-10.0863326105233
-7.77970060050067
-5.26679697727685
-2.54878214603363
0.376843738642997
3.3483796810709
6.04961581729443
8.17719386696312
9.66731003460019
10.725973958453
11.5174834595996
11.9194613502925
11.7670484149919
11.2178626840332
10.6662142201465
10.3901875969894
10.40656460909
10.5265215549108
10.4784482073477
10.1548617787761
9.78078239210533
9.67422794904336
9.85700536115338
10.0503744780222
9.9933442928205
9.65356009175684
9.22185804815134
8.95854142917073
8.92666357435919
8.88350572158905
8.55772252712612
7.94699339391952
7.21314375753908
6.43587703008083
5.61444959162364
4.74286807337674
3.73298993169106
2.39144251702455
0.586337886149585
-1.61763183859928
-3.97421482889936
-6.12132179737062
-7.74120352586043
-8.84915341778489
-9.88172259752783
-11.3476103848796
-13.4053124901358
-15.7845924871421
-17.9651157400465
-19.4462590706849
-20.0702106041866
-20.0809301523289
-19.7102697316699
-18.8611372142656
-17.3981273869196
-15.4850173929988
-13.3213936240749
-10.7465021548194
-7.41048532719516
-3.2687185072242
1.2136540995159
5.28073752146913
8.36386658373991
10.4905184038336
12.1025790915379
13.3100175442016
13.5283065468354
12.1143481773504
9.25700484806294
6.01692728555032
3.45018808125142
1.71808330815953
0.0888583132053753
-2.09652469967534
-4.49156272474536
-5.95209267374759
-5.68426827946008
-4.01328639068656
-2.05503836011118
-0.885529222540791
-1.02901504160824
-2.3911513621602
-4.39432105037226
-6.18830214805504
-6.88940958907711
-5.87111329462767
-3.18146803136897
0.178311507410534
2.66721641630202
3.23857760391622
2.06781789534101
0.319336881585909
-0.710380847744209
-0.35095116057085
1.23801708925679
3.49404881419484
6.08886492517244
9.07804564898902
12.4300167457839
15.6045491505975
17.7513629631518
18.3331267303747
17.5653546886121
16.2417148368265
15.0432118693743
14.0154712627221
12.7810375939107
11.1045881227289
9.04397357001299
6.73583981200525
4.36412731102042
2.2537517350766
0.709985542655436
-0.224545341448146
-0.73017892498738
-1.00308745634164
-1.15857062994699
-1.26266754116679
-1.42156774593667
-1.83724838821755
-2.66358602439999
-3.76574045430724
-4.80962494299662
-5.68792325371021
-6.64389506998617
-7.8485889894504
-9.09287082123959
-10.0506854521847
-10.6295829691867
-10.9273256551156
-11.0390195915833
-11.0286622224882
-10.9794517894185
-11.0104631977328
-11.2371589842687
-11.6441933486466
-12.0555335156776
-12.388910458595
-12.8121832211465
-13.3836045742225
-13.6851482626869
-13.1620061930215
-11.7424210514667
-9.82553865766021
-7.75684389159245
-5.57937468151532
-3.21547044251341
-0.70638343877602
1.65196647009155
3.35615985880122
4.05057644536702
3.92119701055407
3.62543492302621
3.77186544796072
4.47060560200878
5.33594968084097
5.91923140781741
6.21246373621418
6.70483470481463
7.85544137853933
9.56385816291537
11.2620108270715
12.4394867048323
12.9488368112568
12.909581098393
12.508814847137
11.8790536550327
11.0838919078273
10.2335476242248
9.53038014299697
9.04915841826027
8.57646177280266
7.86394995884428
6.92765143721539
5.92553787521106
4.89718118730066
3.795258108068
2.65269234920594
1.64566752415037
1.11120080146093
1.43295885481935
2.66526370118754
4.28335333608496
5.49970556183093
5.8325750675053
5.32336881949523
4.35283303583442
3.34826852563052
2.54952010197807
1.95734056087205
1.4674965959817
0.92204788118556
0.0097317126613156
-1.64603496182024
-4.17791501013645
-7.3864891728395
-10.9497473995324
-14.5306509996637
-17.7352506579518
-20.2267682398013
-21.9111754535756
-22.86882791267
-23.1596933052117
-22.8386497514987
-22.0790018763299
-21.1287126615604
-20.1574372958947
-19.1212023286063
-17.6437489246129
-15.1291117169567
-11.2679058515834
-6.42109232685803
-1.32269669784126
3.48282697548235
7.74901694323003
11.3293618574274
14.1701588571851
16.3582245468082
17.9210249414954
18.6364512935392
18.1899291849548
16.5048821317247
13.8806653136169
10.824430129784
7.74255366042874
4.81971709434421
2.22214021752796
0.254591741063358
-0.866485776323512
-1.24976148326251
-1.10346286781658
-0.382526029320992
1.12081701039852
3.38757250690626
5.96616639447089
8.07212637736831
8.9278003837415
8.25215302591178
6.53975207153515
4.78094378058685
3.84647338969111
4.0395210503164
4.97224015486513
5.74439563206428
5.50894525808757
4.1381256865584
2.25282393616718
0.514718289552954
-0.913813849598178
-2.17043001632931
-3.27840748461675
-4.08709992467342
-4.40861376036394
-4.0675197306346
-2.92076536933856
-0.9657735636694
1.46811046918788
3.62323865588379
4.63814187462868
4.18594657343668
2.63897082198728
0.444574157324163
-2.35882369592895
-5.72555517851318
-9.00898321581721
-11.1775521055532
-11.5492154408831
-10.1838809861384
-7.7489149161546
-5.11884345950932
-2.9264552811372
-1.37232644064966
-0.438257873084228
-0.121584771248532
-0.354485411143493
-0.860503199566748
-1.24445853290798
-1.18916627592538
-0.607601720365312
0.231980305041901
0.761145737146078
0.527847425470974
-0.340155249159366
-1.17676603291974
-1.32677048169426
-0.666141235888887
0.309475355190854
0.854498067188336
0.54653289124743
-0.432772052249643
-1.58796114485548
-2.55613618711565
-3.20206482511277
-3.53059635749657
-3.71817326657379
-4.03882265344842
-4.55918111348976
-5.03361189782418
-5.18980328655681
-4.96056417944483
-4.37528435951754
-3.36756314061354
-1.77353739898922
0.459459622787157
3.00100629770465
5.15368142392498
6.37550437771882
6.83299970651651
7.27468572788031
8.322629815784
9.94150912609123
11.4936898167042
12.2089329378707
11.7161354418953
10.2509281740313
8.3616466141525
6.47089745652021
4.76409739082796
3.33406073042041
2.25807127094807
1.62708902864842
1.61188297590547
2.32489913388806
3.45057738072871
4.21709284614219
4.00017996888182
2.87636134570983
1.41927002809161
0.0525505937813705
-1.26844530595544
-2.80947478507126
-4.57497738808023
-6.10636506847683
-6.87920613501389
-6.92150709264254
-6.85191286206266
-7.2647161581952
-8.26607770664935
-9.59761097609837
-10.9455287143258
-12.0690302361452
-12.8141601800932
-13.0870571719934
-12.8227766721808
-12.0672947929302
-11.04460225225
-9.94254604837656
-8.65984683437162
-6.97030367693979
-4.87589134143223
-2.62975456796687
-0.570113801783693
0.911413695582795
1.5277793453669
1.51127638536152
1.67622369129998
2.78788305571955
4.90170315242624
7.38710343556844
9.47136449957443
10.7158683202209
11.1379167229553
11.0144810287361
10.5728905525571
9.86927317797777
8.92957172457285
7.88254106248626
6.94617583331391
6.41303976332646
6.57805409039784
7.44584287160851
8.53820157076172
9.19988103867314
9.07520027582426
8.2007488920469
6.8063110260051
5.17824096327321
3.57357381552061
2.12532371275337
0.872728238922763
-0.124217575192812
-0.761067256437154
-0.911794779728953
-0.455438879326955
0.564990594784109
1.79635458526363
2.77439859812364
3.24359879398748
3.08540952031593
2.06635879643155
0.0032557609891633
-2.83010204489892
-5.71843449302034
-7.97069203926889
-9.31952778636706
-9.97930794903503
-10.3956860356586
-10.8378318788692
-11.1853321741287
-11.1794296294962
-10.8436418623956
-10.5382995957789
-10.6234109898983
-11.1450467599497
-11.7734486827478
-11.9659200131794
-11.3124081037658
-9.84487911603057
-7.95810750248947
-6.02096264809977
-4.1567866871891
-2.3419652414624
-0.566692802590173
1.09159724140665
2.51408282807889
3.723186461064
4.95262841775106
6.37305689231669
7.84622577925308
9.1247389428614
10.0957681278456
10.5927498310062
10.2504226080287
8.92795290744918
7.11098217939153
5.55140649733327
4.56966117134739
3.88789528829593
3.04895858339548
1.89501323131755
0.741151846597027
0.148377131089107
0.481018813955616
1.67235994207019
3.35649842726072
5.06852161071146
6.32388282729322
6.7403940520087
6.24827971029923
5.15862011524689
3.99004256947662
3.19574037856153
2.91964807007031
2.90072910721522
2.68342091730972
1.99927334724772
0.886605160199115
-0.508490967277642
-2.0357259860396
-3.47642849892871
-4.64779540430809
-5.59366864443268
-6.47601703710393
-7.31976703475293
-8.02727089017747
-8.5453599248666
-8.8755519995279
-9.02769084571313
-9.04432511734221
-8.94994384268229
-8.6590833245464
-8.06150426443268
-7.16595199514509
-6.05516432803597
-4.78846883735927
-3.43769980273873
-2.10422746374597
-0.83813006388428
0.37204064641702
1.5571344242707
2.78767068454843
4.09344183350933
5.25796635266615
5.89664296540246
5.89660572225851
5.6347595328306
5.66604020095774
6.30171361752966
7.4525501120909
8.67938544397778
9.43138151908737
9.48545955040013
9.18314459323855
9.06722595528
9.3100181044299
9.63553307829317
9.70052218021075
9.38298014714104
8.79257216120968
8.14288991766167
7.54400035036902
6.83643099421046
5.66188978564234
3.7087211954322
0.931106013041698
-2.32668386427898
-5.41513188063299
-7.77297949123685
-9.29856461707887
-10.2716304829076
-11.0153209302034
-11.7511889593519
-12.6107123446543
-13.5989825671575
-14.6402232428546
-15.711810646073
-16.7587865275009
-17.4779951189853
-17.4342676874195
-16.4238385590785
-14.5716602271402
-12.1435225715418
-9.38240398095547
-6.3725678412446
-2.9699187603878
0.92151453259433
4.93737514300348
8.36613686406575
10.7419086875021
12.1002420616552
12.6259422976326
12.321074313494
11.1327974904736
9.27160883320831
7.33228905465716
6.06729110793676
5.85741032213567
6.31990785372397
6.62462266661318
6.28631917208923
5.51534799560703
4.85136309358585
4.69791007796664
5.15672725274361
6.01536329857396
6.82451722696057
7.11445893846347
6.59308637583166
5.21066809502984
3.16703113483732
0.817736562049772
-1.56631159423084
-3.90983922910447
-6.14147851686423
-8.02983943269727
-9.30271957922712
-9.8143896173257
-9.58940489368237
-8.85889461283774
-8.00295557313195
-7.25645700559321
-6.51356930015527
-5.56598960022758
-4.44768051124144
-3.44820057374576
-2.89520096642563
-2.93878076730178
-3.36782076974143
-3.624334552851
-3.19196844844312
-1.99425238900332
-0.279001723094568
1.80119577217457
4.2565711071877
6.94147650747674
9.42776997221891
11.3079915775545
12.5433398403383
13.396887046998
13.9261890674867
13.6087132941762
11.7530929402735
8.37447740492327
4.37911063871821
0.772389004780548
-2.03143320539955
-4.08582788135123
-5.52572093342066
-6.45612376126432
-6.9009843588785
-6.7056877904757
-5.66763232016121
-3.82636909843793
-1.55572679859396
0.566993523713906
1.97562229885008
2.40831216555567
2.06685284718098
1.33855666182438
0.375052476656303
-0.887191595246781
-2.36792628255866
-3.73250674469353
-4.64808274548607
-5.04674089734467
-5.14307779538478
-5.19511202523391
-5.19921143860662
-4.87077084116082
-3.98988793851546
-2.67478112645127
-1.25204860324673
-0.003732840264402
0.880315214800006
1.29911765998941
1.31773267487714
1.08618438303466
0.620632674691496
-0.137753093336836
-1.03854600647207
-1.747512778662
-2.07443104435526
-2.07561575118861
-1.87207307054203
-1.54097685980299
-1.11030015724213
-0.521090262623152
0.325400737163293
1.41243753142246
2.57332743866987
3.58526881394412
4.20484463104518
4.21805632590321
3.60295968875804
2.57370501711564
1.40655523087585
0.33251956044504
-0.439976959363908
-0.824427490268885
-0.97927916986302
-1.1474116079166
-1.41118555673637
-1.7351725308829
-2.12328415028739
-2.57321261813114
-2.97527960960592
-3.1839907968476
-3.15050028254879
-2.96582418998869
-2.82314143443043
-2.88673385963386
-3.12250644572279
-3.32346286029054
-3.34151508635148
-3.16238010431977
-2.73069032463555
-1.92325009690432
-0.765452566017799
0.532548649580572
1.79244299322106
2.9356151048783
3.8831374407157
4.60241847687421
5.194067839049
5.76770227747218
6.3254168790775
6.86648256564467
7.46397479522423
8.17420150316224
9.00741805413089
9.98178945030178
11.069284872471
12.1524399301483
13.1509323332793
14.0511802792294
14.6806049592542
14.6242698294895
13.5376288921126
11.4854070735822
8.93954226697655
6.49999963365902
4.53247050893587
2.94208475447075
1.32490104174239
-0.622850212054496
-2.89690116733416
-5.32089153993306
-7.74330134599755
-10.1256666484747
-12.543284018666
-15.0481973005813
-17.4712587298159
-19.4908740563626
-20.9823013009034
-22.1325820950181
-23.1045713166852
-23.7590563709348
-23.8028716751036
-23.0458600776255
-21.4687266378988
-19.2187917337006
-16.5622782806132
-13.7097412319674
-10.7283812448418
-7.6961912276966
-4.79714449968166
-2.18154241420064
0.107793883837857
2.0164368615179
3.44346965362447
4.35424297189457
4.82937150284523
5.06776608876813
5.43739575161996
6.38495770868141
8.13359388897002
10.4973314782832
13.0021398171134
15.1224945542443
16.4917674033844
17.0336073134321
16.8529610898848
15.9977444727562
14.5319846662348
12.846002676393
11.5389027990874
10.8255957698643
10.3076641688109
9.49005896211379
8.34999111493414
7.28475040178438
6.64863561347619
6.44936784617531
6.42484409987665
6.3470599144122
6.21720915469522
6.10686901630761
5.88316793869322
5.28507573417469
4.2558759821615
3.00770356843842
1.77492497657049
0.649447557805203
-0.414259321657886
-1.54938948368674
-2.83385525985542
-4.15227813507996
-5.3411932001551
-6.43915599134659
-7.58549872352745
-8.71938584482521
-9.60250980797097
-10.1112568071147
-10.3647829824059
-10.6338721713566
-11.163115800125
-11.896403772925
-12.3400928314766
-11.9242501689948
-10.5479868076025
-8.60126224908471
-6.5021489108441
-4.42983154348634
-2.48062863018392
-0.87371119473405
0.0853331367190145
0.241155479466544
-0.211725380259836
-0.83228434148835
-1.29549189358858
-1.5766290617545
-1.73572820970716
-1.69186283766784
-1.34830462193506
-0.793528890459085
-0.217340400047441
0.2652794372314
0.606501925875031
0.783963193565134
0.856415665009674
0.947483149775726
1.13899702196081
1.44922512448373
1.85072782445429
2.23541904278043
2.47495224238862
2.5767844231392
2.66401822718956
2.8069125216131
3.01540005454601
3.33235529601199
3.76543323109212
4.21330844579457
4.60029964942042
4.94555167093916
5.16683553560266
4.98002632864737
4.13283563564006
2.64831135457786
0.819412859321973
-0.924426426764172
-2.19448452436981
-2.83994481009078
-2.97460358970691
-2.78559478689735
-2.39367890545299
-1.88235004544824
-1.31362026918287
-0.690362647870584
-0.0076751972235404
0.661453379098967
1.20909647581344
1.58619026876246
1.79884330303368
1.8798822686229
1.90080231578641
1.92573534924183
1.96201359032493
2.05949350673781
2.36777181219035
2.92151658883086
3.46603406207324
3.67176730831727
3.43898774438895
2.90476881022178
2.30133284074942
1.85907747716821
1.658086005403
1.52482444942104
1.21652800179283
0.688258661759694
0.0729423641291404
-0.499905670719124
-0.96587055696023
-1.34391738172128
-1.76134358477109
-2.31954791576832
-2.93999597090024
-3.49506653586134
-4.00247702506452
-4.50849628986974
-4.90542652450431
-5.04627809707881
-4.9169062396558
-4.57065593345152
-4.02595242366265
-3.30290517528749
-2.44255334023483
-1.47767707096132
-0.492765161062671
0.33774844618732
0.899147950149021
1.26141198732829
1.54629394066624
1.76146089245943
1.84991249421449
1.76991485478919
1.45536548453686
0.848796815011968
0.0263535471257008
-0.826663662937142
-1.5461207638633
-2.02388390502804
-2.25279154347569
-2.43350048412252
-2.85409443730333
-3.55514338442803
-4.24980019198053
-4.57960516050692
-4.30254742723796
-3.35188966241494
-1.97352273284062
-0.708790738877786
0.0486318751901741
0.467389881779678
1.08576738008178
2.24828900555907
3.82313598581741
5.39537664078825
6.64069650117838
7.49606188422051
7.98876494655901
8.03317212348002
7.55429393395049
6.70917372526362
5.7606603324997
4.78906347458414
3.72388171516499
2.58616940189428
1.51481143141663
0.621691049961693
-0.034865140188908
-0.421332039410178
-0.594980753999385
-0.701355975254507
-0.82718308769611
-0.978588660306626
-1.23146785415131
-1.72223189232659
-2.46294968392283
-3.32772117741534
-4.19058920257434
-4.92069270051227
-5.33246024785876
-5.31733675236805
-4.95823447397921
-4.41844414004863
-3.81636304096677
-3.24232842550821
-2.75912430932884
-2.35990522172834
-2.0211008366644
-1.76131858414101
