-1.8192519867387
-1.9902046318426
-2.0374054821873
-1.96465947615356
-1.8497875805932
-1.72584079280225
-1.5735377268726
-1.39844374547671
-1.19450501287034
-0.921629358683892
-0.637637576832945
-0.51106164205028
-0.599465446607718
-0.773747548724083
-0.916214919388605
-1.02071102415041
-1.08507993069532
-1.07379334620536
-0.985404963642537
-0.847775044577468
-0.691838484779895
-0.586128253615324
-0.59276234300216
-0.650092911700483
-0.63839941693231
-0.577713059244423
-0.579959052172445
-0.60833883648171
-0.507268070832393
-0.270839764609706
-0.0658862529392996
-0.0069601545041569
-0.0834912628020213
-0.244452025020472
-0.406724347386173
-0.454166900506716
-0.322387380953914
-0.0314670621867612
0.350190733908093
0.700218532369468
0.888675079587674
0.92118562999669
0.93097442698145
0.99002416847659
1.07707553077929
1.21682085155561
1.44767570759789
1.68287754799975
1.80192954825664
1.81955294913809
1.80759607003059
1.76185333058792
1.66633761758017
1.55105888801039
1.41493311004304
1.22609303334154
1.0004237168521
0.756813059181805
0.467777641846431
0.18234750191463
0.0762601870137508
0.232725495278436
0.490198763386293
0.63629767083927
0.636905716979301
0.584551740502506
0.557795209643303
0.59440881006008
0.673236598209476
0.717141373635356
0.721829396593224
0.789869740376635
0.925234870397375
0.955548855098068
0.765369193207958
0.421033529733399
0.0065593216142332
-0.452062066497872
-0.881789516445527
-1.19409014646103
-1.42020768154405
-1.67062790038078
-2.019995407118
-2.506117919457
-3.10159521368617
-3.63550658927185
-3.90328409310612
-3.86294047167621
-3.5875861568433
-3.1058652188974
-2.4295063434679
-1.61238513262687
-0.681588043053536
0.321604299766079
1.18720495946348
1.64119890307589
1.64542090028296
1.4087430741948
1.10621324780453
0.754805132822478
0.337514135969305
-0.101271714428048
-0.465735472500797
-0.628820355666606
-0.506540611342143
-0.179061781248562
0.142120971915266
0.303869350595933
0.295410260112832
0.191377653132215
0.128190032959112
0.258814096651934
0.61161031762336
1.06756499519241
1.5084997575343
1.85965245904753
2.02513188821587
1.9699841690781
1.80769986258173
1.62976969658415
1.35293066223069
0.892608221696007
0.346005528938791
-0.130107559063562
-0.476772500782206
-0.693245641297732
-0.790945013380386
-0.802586239614499
-0.711707464878085
-0.446147390282092
-0.0562787243915608
0.246854941307233
0.34385130601272
0.338451427226737
0.379577528430816
0.521456204187876
0.752046825218735
0.972085439999421
0.985946827481692
0.699581300408282
0.289220996052834
0.0339399861782569
0.0321018147346363
0.162734567668248
0.227998561796108
0.0828476489683017
-0.238607640741559
-0.491917491398081
-0.458578672297187
-0.19933195675158
0.0604198700044258
0.208572579102755
0.270806221050034
0.292188897123631
0.32657695097363
0.413066008815494
0.485787610388546
0.415601880408971
0.125819751328861
-0.420204197402346
-1.21019042521684
-2.04410240169813
-2.58987624875816
-2.69826442149523
-2.48328329366091
-2.05665429238517
-1.43420302363567
-0.727455794760929
-0.157236925890288
0.163680099720703
0.276189481668905
0.236235596687384
0.0839877732021399
-0.108653591467321
-0.271534443465102
-0.373762211015197
-0.403050044210823
-0.36639888785601
-0.294704667716769
-0.204311968324877
-0.106132038073614
-0.0630673461294556
-0.128736546767111
-0.213996498540761
-0.151492754010423
0.0918414649242678
0.404881677863454
0.701602184935635
0.932278537137656
1.00181708237851
0.872856867296155
0.666046761886037
0.510085717560063
0.422806561985448
0.4201701848776
0.534719205568744
0.671837488617703
0.680871339631941
0.59505318515711
0.588084243683774
0.712984913841369
0.862502963955915
0.925573942918638
0.85168291317449
0.653979231286253
0.422795858643228
0.233988650036848
0.0511437132443831
-0.17142122245511
-0.376940380741108
-0.512812451740407
-0.609437265191599
-0.662967741728207
-0.614651495918037
-0.495453715290687
-0.399995843379816
-0.311668269864457
-0.137720200251098
0.116549607109937
0.369190743634937
0.587150027826023
0.755724839439343
0.818573781330268
0.762525474829687
0.65794261475204
0.539735829598588
0.371244404482387
0.159818266578148
-0.0302119081549328
-0.171186359674742
-0.251322075513303
-0.232517543559417
-0.145233166143587
-0.108435072006347
-0.169032013817137
-0.256817941873039
-0.321218521663026
-0.358621202659955
-0.340159440597784
-0.26778932907306
-0.223306541952063
-0.241943373943252
-0.268886857395443
-0.319875769200869
-0.499495402400912
-0.796814280004566
-1.04690675848903
-1.11803829874799
-0.9880381640242
-0.696872246359274
-0.366102253091214
-0.155015913035101
-0.0820981916667928
-0.0153444795751459
0.114866818835387
0.244990981992535
0.312975997629163
0.307610431742033
0.222577838131844
0.0934832331463833
0.013983596262617
0.01463433490124
0.0187278176993054
-0.010561269374118
-0.0045360797971324
0.0717800723180994
0.153936349972993
0.188003237991374
0.175325025942205
0.122304100673519
0.0633734937058747
0.0570414780615905
0.0657088636738853
-0.0223637562398457
-0.190452301228782
-0.294060233791398
-0.286440365177858
-0.247290385015538
-0.208270236015575
-0.139310559964174
-0.0497816390604408
0.0514184198186759
0.201050756851253
0.384782157333184
0.52707422876874
0.619871839807787
0.694410502520133
0.675254245651675
0.459447826305115
0.113594135173982
-0.178452612074954
-0.31152365722122
-0.295189507979284
-0.198100612618465
-0.125282589657338
-0.13488557007025
-0.155553718969861
-0.0880884003121127
0.0529646987195583
0.199273426160664
0.343332091193404
0.487505467195653
0.576409334246582
0.572562161088493
0.502904763824749
0.385313507246107
0.229511592869628
0.102695564550244
0.0397944824104973
-0.0553690047925332
-0.24956039393471
-0.42748422015976
-0.465637766703367
-0.415107125511106
-0.374843912151019
-0.345285354178836
-0.293808446278698
-0.208891817401296
-0.0747859649635225
0.0696311490668353
0.113986829297832
0.042276697780819
-0.0099105394716328
0.0382407514196274
0.109340801643147
0.127559360764625
0.105301638903468
0.0592070617037707
0.0054514765842229
-0.0062703445259143
0.0090915686927594
-0.0528813370075118
-0.204979575571608
-0.309844003675443
-0.278654903880226
-0.174979308083435
-0.0838725260811951
-0.0153121633011505
0.0587502676209857
0.171040114471343
0.328260309761437
0.454592395584762
0.448646785243559
0.340200998821533
0.273740705287075
0.305390544755521
0.357165475165392
0.380996077891521
0.402743770123694
0.40959670409532
0.348401730550025
0.206523822712236
-0.0004496541600905
-0.225219762700935
-0.333735414965093
-0.227392370330959
-0.0371879340662924
0.0048281284693293
-0.126891767600131
-0.266160409350148
-0.312850101599767
-0.287204502318863
-0.214621971594831
-0.118601499411606
-0.0461699985309642
-0.0099269473663275
0.0098138814653352
0.0026694478860562
-0.0315419976663767
-0.0466838548942681
-0.0518447785248922
-0.131912588418275
-0.298005998279788
-0.469499948239785
-0.62616275982682
-0.80130656835681
-0.945413033914279
-0.980523569432888
-0.946018024608684
-0.930393330548945
-0.919902638823765
-0.835504259185342
-0.638147357318898
-0.321400556765085
0.0803141575745544
0.421365261990584
0.525822435351599
0.375392186067807
0.0950533882496049
-0.200450622493921
-0.405965519216934
-0.395859602652157
-0.173021390543675
0.0719348622184037
0.179938088138321
0.176253358790893
0.162674319228044
0.214792987847601
0.369407613968187
0.557636945090415
0.618900280297119
0.505085406290564
0.350762030697222
0.26820362109899
0.246322357384553
0.27737175879053
0.369486911507525
0.43816649532372
0.392869370653686
0.287834947261658
0.221704794427462
0.192177795537671
0.183099387047552
0.254047677378905
0.436213837347326
0.660666582318048
0.83660578502815
0.91286083728896
0.89201232259373
0.857157834811576
0.904555109865454
0.991910749498557
0.966680781652496
0.783612780852994
0.551168942550005
0.344946217094886
0.154912211865248
0.022145936113648
0.0199199612804831
0.090459509176654
0.0800373553233349
-0.0830331615627122
-0.365380232990256
-0.69604184857929
-0.968382476450879
-1.08861020589528
-1.06366105672233
-0.937176923260438
-0.686430114135146
-0.301222460023045
0.141200588197579
0.590737732820275
1.06459118518355
1.49159851610241
1.70970774804455
1.68830999010335
1.5639784100601
1.4229689655902
1.21474313744529
0.866453655863014
0.358894369263841
-0.248701110685143
-0.80848669468584
-1.21008347011554
-1.51516756876217
-1.82904872480071
-2.11177523322538
-2.28594657780775
-2.42354592177679
-2.64064207566727
-2.90419072728784
-3.09471523003569
-3.16292314794834
-3.11241000728243
-2.92913930887596
-2.59840137949721
-2.09337850490777
-1.35324103651594
-0.406496580130396
0.540207384832404
1.28842448778847
1.83874525759548
2.28031947318769
2.62335318309568
2.81470172148443
2.75945158152964
2.32184155172796
1.496941038015
0.544063153119476
-0.231878358247785
-0.755393339831308
-1.11118844490146
-1.35563668188182
-1.51930504158217
-1.63645729146807
-1.68499285478733
-1.61223621450544
-1.39251149532527
-0.946867982739211
-0.151840049987345
0.912493781209024
1.89493545435041
2.49868671715603
2.7116544256002
2.65293060081852
2.40113132386289
2.02464865625398
1.60092296495328
1.17726128487565
0.815023839524267
0.61520353251518
0.607766777251006
0.709766129825324
0.863482177518219
1.08598405071763
1.33038604582022
1.46292186096575
1.4264477573952
1.27707949901145
1.06043755712349
0.786559329524662
0.466759992856378
0.0723911890728241
-0.417526472492135
-0.866373333599066
-1.06565791257014
-1.01016782002606
-0.891122396090024
-0.821090797901361
-0.757416389880373
-0.654623461256046
-0.525867467238962
-0.414065880897299
-0.392678551983686
-0.488077521117959
-0.583955270518753
-0.564201270335872
-0.520523030136202
-0.627009334618333
-0.863831291267667
-1.04138200665055
-1.02236708023566
-0.79922059921012
-0.460562804236468
-0.147301875239327
0.0767592253819257
0.310104342445212
0.650757325343022
1.0178597368062
1.26638754474722
1.37521312962216
1.3901217181301
1.30386999534906
1.12152195227894
0.921681557894696
0.742899682715446
0.514806146527345
0.156525295096747
-0.34328034093867
-0.901046418736006
-1.29535850312778
-1.28536825189992
-0.904044357630975
-0.483891189452382
-0.306191459385546
-0.397849261051488
-0.680623648806207
-1.08719912605935
-1.53224910173337
-1.97130032855774
-2.44052886688251
-2.89077724681704
-3.11032159423872
-2.9524053026068
-2.50421501294319
-1.95514401219655
-1.45186758826863
-1.09178556438915
-0.882823522239655
-0.725139933721546
-0.555587971142278
-0.426699716447313
-0.368152132744583
-0.319564696293266
-0.246720288425791
-0.154738636930736
0.0174719798628489
0.33724180910892
0.73354137467787
1.07197450953319
1.33395663630227
1.59213249822965
1.86627847270986
2.09938149018558
2.20533716883495
2.10588823410779
1.84274528327893
1.64636346806179
1.71801087136776
1.95908595689287
2.08449367181023
1.95057595806538
1.63098441358128
1.27648241558567
1.02580851719004
0.940284077162866
0.947691039087746
0.942259521404112
0.923340006707859
0.938833194491589
0.980974667404059
1.03435485388878
1.10122997064401
1.12341020135287
1.04289421278056
0.941341088782107
0.915212042854255
0.854820986055952
0.576001643986842
0.111632978141594
-0.32578582974429
-0.58498015403191
-0.645477786555167
-0.580719010366954
-0.542201323496148
-0.639211184286559
-0.795751672530803
-0.847124215919067
-0.746022858009639
-0.561396675803813
-0.367117608922424
-0.257648026762247
-0.35537414153648
-0.660992314515346
-0.992735042935239
-1.1717129815326
-1.17465284501053
-1.08724541124072
-1.04586289941113
-1.19377616358482
-1.53330584398865
-1.88379617810931
-2.11013176207856
-2.2604180397887
-2.37980009790623
-2.37830810379654
-2.18084400083354
-1.83892020669425
-1.44484181692303
-1.06859614566937
-0.762851191392714
-0.53188703263738
-0.359325328437997
-0.300119451548579
-0.410474425819223
-0.576354195855756
-0.561359357228668
-0.206279759321222
0.514914100841354
1.49771614739001
2.44243297288565
2.98406203906555
3.04077507643069
2.88108927680529
2.77757714874338
2.76172992928974
2.72426687820622
2.55861693386869
2.19609921710478
1.65895319357977
1.07682073933817
0.550642221218337
0.0488774923693292
-0.49111318625161
-1.06190469672715
-1.65726234743161
-2.30745059471442
-2.9637436026514
-3.47154686877885
-3.6997407014117
-3.59481659144968
-3.14499391228725
-2.41381190357537
-1.56006700684617
-0.740286313379427
-0.0312213052216661
0.576884466854395
1.19313901466775
1.9247505170528
2.63711754947316
2.96389194567448
2.6997992183863
2.03703414294794
1.32199416768761
0.763743784342295
0.43498367823756
0.327595998740189
0.323731693255558
0.274390367718209
0.145426505305694
0.0079232395622117
-0.0549992695575167
0.0218634693892665
0.240699154811018
0.493949322632456
0.656223951664452
0.691687570415024
0.597834439129538
0.359507425587841
0.0560599734623732
-0.127906123604561
-0.104573098213839
0.0316217134166501
0.177712530057993
0.320368451149857
0.428497529895485
0.448290862342227
0.437773925999354
0.508674729594931
0.625330764119987
0.631411152594758
0.443615529971895
0.104257563939357
-0.258680687281494
-0.46081744518117
-0.411642353678641
-0.266553716393342
-0.262748518036155
-0.432680196695737
-0.639194707191333
-0.797193672747993
-0.896087309142119
-0.924007231170644
-0.909479618525441
-0.924216461977802
-0.976786122049871
-1.01804041747925
-1.03625929841347
-1.02775582762985
-0.958235781236214
-0.860268541548649
-0.830955604448559
-0.860337300855001
-0.836892375698441
-0.744111895423618
-0.647985956543843
-0.509214071267691
-0.22389245622318
0.175407441310844
0.537461698825469
0.768985452360388
0.868857845777136
0.863961777294467
0.811908870880954
0.787351634438347
0.814185779607853
0.88894467314356
1.0251960436322
1.15127572416529
1.08988502354382
0.815123283311456
0.56453451713476
0.512668918555807
0.526550518814995
0.402099359697929
0.131800016951762
-0.180907987748522
-0.468185279202786
-0.683095321231129
-0.798448342217399
-0.834523837788602
-0.797123475508135
-0.668243414527103
-0.514749498123269
-0.462235243297441
-0.532095079118389
-0.667719485175993
-0.88883076709521
-1.21989198326289
-1.51910411767701
-1.56947692078279
-1.28955319760093
-0.749738906409891
-0.0849272908822985
0.55233547065018
1.07857145358127
1.53930530428342
1.98123623950151
2.31519709989241
2.41419813777348
2.26854131364322
1.94549752312947
1.50022472159313
1.02422288926419
0.661846637194474
0.473484620151684
0.379538306623503
0.296457780441603
0.221481477938013
0.166806744828515
0.11136794867911
0.0011001691278476
-0.246505581889317
-0.643115474126585
-1.02497741771713
-1.19204520636869
-1.12847157620334
-0.938557691762419
-0.661458117488213
-0.321992016787697
-0.0320464771843036
0.134434696170612
0.237133388461783
0.317749144624094
0.297368367179967
0.101623228391623
-0.234325166278679
-0.582956720008309
-0.753538571743947
-0.619321629913086
-0.323557034414449
-0.193400174832492
-0.363111387371644
-0.673055721552595
-0.968093414696135
-1.25979586969471
-1.57592625753017
-1.86801734283343
-2.08081673535407
-2.16803221834828
-2.07492509317808
-1.80342803464484
-1.42659045707336
-0.99775228692758
-0.564016009700191
-0.262172153643117
-0.206925040596794
-0.286267638208319
-0.27250481788216
-0.10249190997591
0.151066320828506
0.496170957371947
0.996939063419898
1.61748818659682
2.2423248420457
2.76906442205629
3.12833906685698
3.32246036067471
3.42956633823719
3.46579608673547
3.33129814046666
2.98657507179052
2.54197228300345
2.09896098474426
1.67015589489742
1.28994154119392
1.01212082793893
0.783468508502223
0.487443567117413
0.0930590295210928
-0.351092588316328
-0.786504533210932
-1.13626353166142
-1.35179488999899
-1.50354249371684
-1.69609163594816
-1.9054517447705
-2.02003674696357
-1.98990913407234
-1.83522092805772
-1.59059317530443
-1.32177581272399
-1.09753799944797
-0.893354525620099
-0.64266752687189
-0.400516714096424
-0.298937892768873
-0.332488005818601
-0.347597464780033
-0.231598348034969
0.0037913130949922
0.243132735997865
0.289475335675892
0.0198150922562957
-0.424802890553157
-0.781509799486638
-0.991175379667154
-1.17834435485189
-1.36395446110734
-1.41671405632599
-1.22798254759947
-0.776512489461801
-0.120479591970144
0.576047931541838
1.13701552573598
1.51864685730718
1.71324121715787
1.59428772904582
1.09231012894441
0.439882017860157
-0.0015753088964299
-0.105839979028218
-0.0263638216302519
0.0223268464591609
-0.0710866808281888
-0.261650735088745
-0.402625091941563
-0.415771560829512
-0.374776351421083
-0.364391663716254
-0.361824282912352
-0.338009831310678
-0.345593311993763
-0.402148445571638
-0.402949275706691
-0.240056419121874
0.0861430763237692
0.4932822353005
0.838511210127131
0.958058985264977
0.827870793806462
0.612139366290341
0.448663245539736
0.321056441232187
0.20622419656418
0.148763414865137
0.135508980241004
0.0915842684848953
0.0155903103233632
-0.0460328232939623
-0.117265343931717
-0.249702446821431
-0.433268838335264
-0.621140001961834
-0.738788578608786
-0.670884187696964
-0.385314311986738
-0.0244077596446507
0.264262680803428
0.48163103675127
0.654841149630609
0.742654428067934
0.764301373127319
0.824508093175735
0.94084517725472
1.02073138709589
1.00883473220087
0.899415174248726
0.668379839652744
0.34747350370237
0.0766313126335107
-0.0482564135638505
-0.0839956492695616
-0.11705158208372
-0.163736563674315
-0.247799545018536
-0.419931003629812
-0.65434310795957
-0.858147526427583
-0.970205025678842
-0.94323721227316
-0.725499501142339
-0.372125628117305
-0.0486904970125213
0.145107126804078
0.218720040260809
0.177498888829092
0.0482148047399018
-0.0371398948320068
0.0435181605724774
0.285987726548009
0.664909340593747
1.18471165718669
1.7228635744125
2.02543911210181
1.97339250373103
1.71485461693785
1.50265241489357
1.50091082285112
1.6715490438054
1.74000080095499
1.40368230903428
0.670759085100407
-0.143717112518186
-0.778217491073979
-1.21134602816811
-1.52153193710595
-1.76532930189968
-1.98672860594434
-2.20056485728
-2.38120539871883
-2.53220670340264
-2.69737011871348
-2.87211971885172
-3.01114891982881
-3.1213174626031
-3.19759387355616
-3.09704726064778
-2.66580979048344
-1.95494370518147
-1.14129452635632
-0.32828629770145
0.406783573435412
0.897609399630374
0.990476510150807
0.681231350586274
0.0993716951412837
-0.541713748668877
-1.0109313505043
-1.20276206212173
-1.1582192157809
-0.881606896235899
-0.286489827535586
0.61969800177158
1.68372715219966
2.77642668410137
3.82563046827297
4.67981896428287
5.1223950042297
5.01682078570614
4.35310888699942
3.25817379718839
2.02253216258684
0.959933783591245
0.181698702622463
-0.388599578307916
-0.837404720242375
-1.23169349013017
-1.64867279720771
-2.06198540294923
-2.28590097194144
-2.15740651000741
-1.6802491783029
-0.924256108052991
0.0615675375819204
1.15383927364397
2.12537395054226
2.78195657656217
3.02153775150797
2.78703464055012
2.11130314220784
1.16951134560177
0.181810190662352
-0.659811535341525
-1.16087487085309
-1.22564340131134
-1.02456667190812
-0.859736263494134
-0.848136263993062
-0.891806384746532
-0.899273882646421
-0.882447676952328
-0.909946867234766
-1.06232142899673
-1.33963203417894
-1.59902791424129
-1.72061821991419
-1.78878973395129
-1.93821568137595
-2.0969021545134
-2.05773049274265
-1.73234103272299
-1.21431686443268
-0.673184253558131
-0.239461246824597
0.0972818914346333
0.480986133216194
1.00813736364425
1.60390832637716
2.12884005972933
2.50406369682839
2.67471757738691
2.57826262883314
2.22415291534747
1.71030264045104
1.14127527654108
0.633087414964417
0.344202272876563
0.338039000006438
0.475837289570905
0.592319673316732
0.67308254279605
0.745630691803877
0.762564668985582
0.70220739337962
0.624341487505263
0.566609569898902
0.517143425225854
0.463803829540338
0.352503139426869
0.090916889785808
-0.308520513724303
-0.725627253738067
-1.1239680977171
-1.56622535387603
-2.02523442629572
-2.38326883613854
-2.61023687778727
-2.76083725090982
-2.8400723241474
-2.80781644952331
-2.63376400334935
-2.280472960652
-1.76385570481977
-1.24493391302034
-0.902903149731413
-0.733395849202422
-0.605975762280645
-0.448474364820735
-0.250456424930469
0.0053120771614106
0.284779200044929
0.476958524695109
0.526509795976415
0.499092397531403
0.473498809907046
0.489287616645064
0.596108284481969
0.804089494960463
1.01926365412413
1.16695134209839
1.29308545131879
1.43123747427802
1.51556217238568
1.51925034319736
1.51454609467315
1.54683273011022
1.60581433395779
1.69359733644099
1.75741833033324
1.63413258005267
1.22613836181515
0.652543611583425
0.120383548886226
-0.262141489079701
-0.511491730466645
-0.717789905967127
-0.946765515900634
-1.10705242343059
-1.01642199225851
-0.670829107396127
-0.287707419268672
-0.0349712294167731
0.0937652933286666
0.131808265810105
0.0845073745109104
0.0158953838630224
0.005296455302711
0.0387200669902684
0.0636131737998971
0.0830714656136695
0.108901924509479
0.124728504452139
0.167887216451244
0.325560785185748
0.586828333502832
0.820768409485521
0.935724209591436
0.943714719936805
0.879773630283211
0.772172104883611
0.650968534521853
0.516021854847904
0.374892929581373
0.305992748817444
0.345412145196514
0.371729001871877
0.275040126771981
0.134761054912262
0.0577521897751098
-0.0073393353640881
-0.134356597603129
-0.281471894686936
-0.420840132825727
-0.611159530530451
-0.847745891106577
-1.03151344473686
-1.13741490055296
-1.2444613458815
-1.3898047031861
-1.52102149663672
-1.56812747170703
-1.50177699021859
-1.38441427952255
-1.36098870713279
-1.50212471867118
-1.69708981217642
-1.79367199457892
-1.76452562586863
-1.65979866939195
-1.51147484710529
-1.35471940707522
-1.21397352337669
-1.01285912222831
-0.638656042525807
-0.131331062690066
0.335135589808218
0.655686489309675
0.834072806980627
0.881945927830048
0.835975289237044
0.792659779639445
0.812616287275442
0.906313311237308
1.14587756565191
1.5945479282469
2.10969723721157
2.421093397453
2.40165853380424
2.11191256543588
1.65936607076783
1.15576210549417
0.709668724859952
0.355535204199517
0.0722624476693369
-0.132530317936605
-0.268679641160126
-0.404510405170979
-0.525775273791325
-0.499568119086468
-0.309810186140281
-0.136738897804351
-0.0854874056420914
-0.0401076303494072
0.127093992111308
0.384119574609215
0.61165758378723
0.701326881407745
0.605642189514041
0.407287472489545
0.280484474512275
0.301503349543163
0.379282996268458
0.409832756674512
0.375464135887012
0.280279683471021
0.141808468749953
0.0355465725684256
-0.0057591978414408
-0.0697688981674768
-0.192700135053578
-0.249093711072892
-0.165926482846946
-0.06633545909174
-0.0660773625061539
-0.119198614712177
-0.154233015830056
-0.177537864335885
-0.204568351360331
-0.239069592130476
-0.297277673882753
-0.359044714489416
-0.388466875698457
-0.443076218664145
-0.60756890623606
-0.818892184019301
-0.938619628184217
-0.956929419720664
-0.948499834558228
-0.916972103042534
-0.838585354804337
-0.738184942361377
-0.618628016358293
-0.460467427123593
-0.327552645230358
-0.305007750772795
-0.342684390418533
-0.319390551859016
-0.214097490026232
-0.0821769731481951
0.0517080171426055
0.165320760441474
0.210987116284757
0.205685713285043
0.232193156504149
0.297070805954298
0.32148865756154
0.288240871154272
0.254364939170323
0.246124841073602
0.272762603642107
0.362908992332417
0.483219081771611
0.544189684664504
0.540555598428976
0.535854836425204
0.522205465902749
0.465436018456759
0.418833508775325
0.426076589918037
0.417586913269862
0.32709200750503
0.173257878670326
-0.0301925122004345
-0.268626174567715
-0.435394336291526
-0.442379026778219
-0.364675451805712
-0.30051970286768
-0.219799491249659
-0.108110171922049
-0.0667945262219943
-0.126897858745569
-0.16634036467238
-0.104446613315041
0.0127554131779118
0.14465825988143
0.28857982786422
0.39985327336537
0.44017881840585
0.462836636081032
0.530850774841353
0.617671967030452
0.664131029807619
0.633592754123885
0.474531267665519
0.173146433917843
-0.137565619251769
-0.283633581114982
-0.265815952957499
-0.231628982498292
-0.282648848971096
-0.423980084082216
-0.611325302258851
-0.757833839511942
-0.787076687058
-0.707465888281676
-0.561268256363092
-0.370965580955356
-0.213172983080521
-0.194129952415327
-0.261076575592022
-0.220862061989109
-0.0201369091543917
0.185002330257104
0.269817554090657
0.25010941723533
0.155819065344351
-0.0083221787287654
-0.189247393744397
-0.30686533268313
-0.311666036313171
-0.180675837829346
0.0494395837433037
0.262464450373757
0.394599087943372
0.52104925492118
0.696034480283618
0.82026061229658
0.786995442057907
0.635079511733383
0.453313309039248
0.263520867203756
0.0841343586421276
-0.0247303745615824
-0.0517439754101082
-0.0544690556251221
-0.0690561370477469
-0.108137948703847
-0.19497620849728
-0.274699877007143
-0.19299995754078
0.109593039355685
0.48793283287666
0.740167806396052
0.743532604040869
0.468219659715344
0.0267636997219887
-0.343407130860904
-0.502667092394846
-0.535169929049022
-0.565995187038438
-0.609942338322507
-0.667387615800778
-0.779572598818855
-0.93832503721489
-1.09841637381468
-1.25871240678693
-1.40613452429341
-1.49184839169149
-1.57416112405652
-1.80299330954421
-2.15387440184971
-2.36520240603787
-2.20965192030549
-1.67005362959444
-0.865378332682202
0.0216877091491947
0.788030283894069
1.34488710229415
1.77941573650183
2.19783661924476
2.58380841065891
2.86155560747205
2.98331016284376
2.91911558337045
2.69012513329034
2.41674201697167
2.20127589363217
2.00867376159682
1.79043014530974
1.61613444769154
1.55009557741926
1.5300428183051
1.46430161081124
1.3140354050228
1.0557010837158
0.706943514236794
0.352462273504906
0.0131320959838812
-0.413192620615202
-0.96506354619286
-1.49772630184689
-1.82914580796075
-1.88073462640116
-1.67092567708452
-1.3185913218879
-1.010962034465
-0.8319949013132
-0.705903299889973
-0.588707070228627
-0.548439607651407
-0.597931191523782
-0.658259781094692
-0.727072568062627
-0.874029904671985
-1.05850958532621
-1.13726260970542
-1.04802613388648
-0.864437858510364
-0.722020168104695
-0.77198323094902
-1.10645826744231
-1.64195722500636
-2.16535552160105
-2.53250312158682
-2.71917024303783
-2.70768671480451
-2.48490210363448
-2.10955945179441
-1.62597506406409
-0.985489624107735
-0.170273717678677
0.72766216904397
1.61356162549295
2.39879016764832
2.88506784480826
2.86424584794938
2.36754529323805
1.66341454533084
1.03927866815446
0.670675069045904
0.566134594854218
0.542135033886186
0.402775837044314
0.19874947430218
0.148138576203019
0.303004615464809
0.4766076051914
0.489803022875296
0.345088489597029
0.181996108583125
0.139389696016258
0.223873466945894
0.312847427192883
0.330594286697043
0.336749348066338
0.376988390297941
0.386202656453183
0.329780172993869
0.293748217589873
0.340756858771187
0.411505800025427
0.442827770039044
0.450338249899698
0.445351035065261
0.40733479792849
0.363898146928946
0.379754127537922
0.490655434177922
0.729102081190025
1.10778662827678
1.51642734541812
1.80130524966429
1.97705310324326
2.1664202817241
2.35257159599711
2.39936085262531
2.2575747027735
1.97167288674072
1.59295800581823
1.22945128476556
1.02480698350228
0.969608214256487
0.890169783091344
0.678930393391253
0.377676225827534
0.0488359863936419
-0.269568763156783
-0.540070837881764
-0.798596651617491
-1.15918862269059
-1.65541343818189
-2.19816802020038
-2.73094343540899
-3.29683454387704
-3.95337394919642
-4.72672477685359
-5.5954058028972
-6.42855509783579
-7.02409599544619
-7.28389107010517
-7.26995845123011
-7.06868017223221
-6.72383089702205
-6.29311345817188
-5.79726081100359
-5.12414595332553
-4.16191634112027
-2.99151632108748
-1.78815073049702
-0.618000212582924
0.528518737829663
1.62600796939826
2.6496528584898
3.61151564562828
4.53472318730779
5.49071137127724
6.56989664196316
7.67202916783037
8.46459422931129
8.71320824835298
8.53704863694282
8.24349176648045
8.03512934918454
7.88484283357213
7.53282811892584
6.65029400295202
5.19455895035545
3.55283173332795
2.20107080206102
1.30647217638199
0.722644337291655
0.210956756975078
-0.390005502993578
-1.06014720226015
-1.62553706725675
-1.9718453707957
-2.17544387015323
-2.35289570241268
-2.48688093194664
-2.46876390437079
-2.1926418690382
-1.56772661086638
-0.59822626276952
0.493912406612216
1.36579088314531
1.80265401886671
1.79226778105715
1.45722534246233
1.02935550907373
0.703342128505341
0.364572928887986
-0.324507277313608
-1.43616076734174
-2.60291471121946
-3.42186335030887
-3.8167933112022
-3.9677066635845
-4.08927902856502
-4.28647560289098
-4.48895346209199
-4.5580001174184
-4.48790009874463
-4.37348161514613
-4.20059400055405
-3.86638481433061
-3.37814044137614
-2.85218171893048
-2.38504806640672
-2.05189175491925
-1.88619968787807
-1.76215294839336
-1.48222250354403
-1.04877938566862
-0.665193732073622
-0.446096659692458
-0.301654566909551
-0.117567374105634
0.0772352582306744
0.125218341512094
-0.119610009777387
-0.619104066733067
-1.12115983687779
-1.3839488083487
-1.38461859327321
-1.19565062846171
-0.76924679783323
-0.0357260658256109
0.886228005520702
1.7684261999125
2.47614311591707
2.9928001972951
3.38131062852816
3.74686376237965
4.05848690740399
4.06772743847139
3.64145234177613
3.07655047415069
2.82322988053951
2.98402140255405
3.2786980350228
3.36460342777582
3.03259861305023
2.26446594262857
1.28349891275038
0.476506529416115
0.173085226022297
0.462406930243485
1.0977565659326
1.55331725422423
1.39455083731105
0.706349286149425
0.0199730582215507
-0.199720155571538
0.131075367530265
0.807617394129652
1.52522717345914
2.02757979841211
2.24914931437776
2.31638834812462
2.36770357497759
2.44361093020215
2.55150347162261
2.7028538275007
2.8804453329327
3.10118732512571
3.46823392403924
4.00064953735792
4.48269275665513
4.63742404254966
4.34178692196276
3.55229812042057
2.20493051133266
0.341720435114842
-1.79932638382522
-3.90386470089795
-5.70206063431866
-7.01970607004642
-7.84884874041944
-8.32969521894907
-8.61288717396794
-8.8300083248117
-9.13480014350806
-9.54152550608072
-9.7698888517588
-9.50348480483857
-8.73955832867593
-7.65191955159049
-6.2379888288241
-4.37672850311885
-2.15996042326218
0.0362998026451145
1.77731292228702
2.82176970460108
3.26099490986042
3.44258858315328
3.70041513869844
4.19095004109895
4.9648340985971
5.98306300647622
6.98744983472191
7.59550152890807
7.67577465444027
7.45231965285108
7.12112741214022
6.54352897584607
5.42250540152388
3.63355959837288
1.33241720843779
-1.14083943765838
-3.46199868606929
-5.48972072418436
-7.18399903985632
-8.41414804092251
-9.03985713102969
-9.12494921567303
-8.82794461404252
-8.13849658311786
-6.95475299825057
-5.34036277917746
-3.49621680740788
-1.58269920064341
0.243708401491347
1.72786244710403
2.63942691554287
2.98862731473491
3.04485887077787
3.10950758138372
3.23763177079461
3.23748588034687
3.04014364819342
2.94430411905421
3.28210529916788
3.94068597322086
4.43989312608622
4.39818231683871
3.75520722718991
2.69266341146639
1.54964556999958
0.709206060229364
0.367781908182903
0.410678753098358
0.538410486777542
0.453017691969222
-0.0107631947348111
-0.74888520711963
-1.3959297700247
-1.62609492938655
-1.40625121645894
-0.870200421032983
-0.121180415660099
0.720749933716479
1.49149226138421
2.12820192358771
2.65436329808932
2.97797095720085
2.91110658824766
2.39433886179969
1.53293876824915
0.481330466253086
-0.54704172770903
-1.25711190349689
-1.41336764685043
-0.975382916401178
-0.116863067951136
0.784847303662406
1.30250046039074
1.3210633866495
1.17681602822438
1.27790509435595
1.67729171323885
2.10791034765542
2.30213087580879
2.21692086379919
2.06618535926301
2.14374858234616
2.52966401482846
3.00846507974119
3.30222942716076
3.26138950955998
2.81363515059629
1.93538226787262
0.777654449272926
-0.317113213540478
-0.998591463662485
-1.05183321065506
-0.467648657935075
0.416701703564271
0.922601527845825
0.435095980957098
-1.14807169139361
-3.40894810604787
-5.72400876187135
-7.54811942568273
-8.59436686905084
-8.88448741022753
-8.62882826717163
-8.10838796401787
-7.63732665288093
-7.39570778448503
-7.2218791240627
-6.79599590099639
-6.07673064154056
-5.3306558103351
-4.74666105760873
-4.28194681392586
-3.85306067011945
-3.42346352255255
-2.93774879090431
-2.36317091353254
-1.75174696297283
-1.17311909144401
-0.678734932880291
-0.331162320479725
-0.106136062168412
0.226650418569628
0.974630651266759
2.28143834942545
4.0701825110985
6.11700879524812
8.1165042128349
9.82058577124719
11.1845390682847
12.2308726185739
12.7408132002172
12.2811076980372
10.605383159992
7.91615381683306
4.77897882599911
1.90159797024741
-0.152189408155255
-1.25733476843405
-1.72586690269839
-1.97797780694123
-2.29306393860394
-2.78823925778149
-3.41518268968986
-3.9946881839381
-4.39736807702449
-4.63848591309028
-4.74098266197137
-4.64081350879571
-4.25485178741474
-3.4948116374699
-2.26625719482184
-0.647646466090204
1.00788446792812
2.32728430769956
3.16419130454016
3.48845690629154
3.25391590556545
2.52392299942942
1.55545863245739
0.681460805535324
0.215470001044638
0.359645338521424
0.985008766742341
1.60511414252838
1.79389471883554
1.56233243099047
1.18522394626443
0.804006764924499
0.37544230088663
-0.117559772207092
-0.594711385307691
-0.972825173989593
-1.23592597072657
-1.42391645841099
-1.53266961934838
-1.41266368216058
-0.889280348606466
-0.0196129082788103
0.931429912840492
1.77916095216677
2.49441267538466
3.03025310658883
3.29469712593226
3.25923470225514
2.93223402327063
2.31994622240363
1.54067546501001
0.843034255030404
0.410484490157536
0.252724523373646
0.272319929673665
0.290741753658344
0.0999312379112986
-0.318737314164172
-0.7151392296984
-0.843852975515022
-0.685245523772651
-0.327686586746052
0.165533223808502
0.699699673771739
1.13561449813212
1.3683031172777
1.30499362053439
0.823667443744149
-0.114816411902248
-1.36844009402016
-2.70956781191935
-3.94694957956462
-4.94132064408962
-5.65451259747088
-6.21285483799363
-6.76506817610148
-7.28855918200513
-7.71400580400894
-8.18121093286078
-8.95415053183335
-10.114459231309
-11.4563621574774
-12.569930882215
-12.9614793102165
-12.2883812820364
-10.5783911063351
-8.11564229652905
-5.14151644893841
-1.78879551436682
1.7797057661069
5.29439179640264
8.37051673589956
10.5804103271632
11.7296848323397
12.0879533686045
12.1665406593591
12.2553464923878
12.2773839724614
12.0027616187516
11.3068122370545
10.3466499910712
9.52992578370676
9.13765767861135
8.9702877431812
8.55126707695869
7.65371550774778
6.45315175265217
5.22532975929754
4.07666431901151
2.93746353065536
1.68382827050387
0.266520930383558
-1.25051085307585
-2.81138052496509
-4.45428911422368
-6.14828063481805
-7.65225620880635
-8.73659953894496
-9.43620080125413
-9.87249844287007
-9.95575698973844
-9.48024550946734
-8.40275678940521
-6.86758356257993
-5.05645673220176
-3.09860136079665
-1.04912372911853
1.03885501339987
2.96375523841485
4.40933355884228
5.21643344246015
5.49347858344267
5.41162523705416
5.06358310688349
4.55336242654628
4.02985769889758
3.58279208250935
3.21884734852159
2.91710525169423
2.63447497652586
2.33164255145456
2.03431165933219
1.78620810169441
1.55781260294427
1.27160157178188
0.838732765385798
0.137204966056266
-0.871897229855705
-1.94894555762909
-2.70398931024319
-3.01483564297332
-3.15900610074827
-3.47908890149562
-4.06967921925499
-4.79241527440928
-5.39996584811921
-5.63616795037697
-5.40265908925296
-4.84160753654154
-4.16487884198188
-3.50177150156206
-2.97754509022493
-2.7383625378068
-2.7965896130883
-3.01750595607201
-3.2769698895817
-3.45519934388683
-3.3248824232003
-2.64909186463099
-1.37315983663882
0.347275981264566
2.18287644510782
3.67290118122519
4.43635448803812
4.40636076860822
3.78117055864012
2.87979353776153
2.18273477495655
2.26698906049735
3.40938340761938
5.3115727802744
7.2954248700375
8.6633935189215
8.94797529460477
8.09679503754977
6.47588139649947
4.55879062452696
2.61902797501437
0.75227902827888
-0.967474808338018
-2.46992804388175
-3.69772387807625
-4.5392065465047
-4.8654332058536
-4.69761946335363
-4.23229808323549
-3.67411825745846
-3.12752881830663
-2.60487505626962
-2.04400399950784
-1.39365984607653
-0.735304175722699
-0.205613074719195
0.186730680951868
0.498148629398833
0.670625362992921
0.613587991563002
0.357858623039705
-0.077003689314933
-0.829122031826989
-1.99271073559195
-3.36438461415958
-4.51625037872711
-5.04715129744926
-4.79018980160416
-3.95495715806997
-3.05137192475477
-2.52314521948437
-2.47131682298963
-2.736073699775
-3.0511210719309
-3.08212428475085
-2.56950730032095
-1.5481929495358
-0.308306759307596
0.860277496094839
1.80050106427828
2.47091066151129
2.92600234834147
3.23801169230149
3.3652666258914
3.20490368508333
2.82892409090963
2.5334482766352
2.58533759222562
3.00361136937376
3.57423421570032
3.98470817672445
4.04005396925886
3.87345733796244
3.82099723394453
4.00521000930066
4.23434921608595
4.36152605841981
4.47602818957866
4.65987752601435
4.79432911470192
4.69773577067675
4.33180486885446
3.8612336396062
3.54543762079808
3.48048393014143
3.44556545483381
3.14393081478355
2.56573143565027
1.97720232132834
1.65420181732511
1.75747638198014
2.26772422315157
2.85176285097809
2.99439998249275
2.46994874991132
1.5662655444601
0.754134010297617
0.251953689452814
-0.0943220905147153
-0.670875769811345
-1.84079016138282
-3.68452150283304
-5.93335510290743
-8.13334016342391
-9.82613083573043
-10.6890067620452
-10.7479835635232
-10.4494600781355
-10.2635329713997
-10.174929069471
-9.76393290818815
-8.76366742024678
-7.32417594541409
-5.77293072501686
-4.33528751015744
-3.11558030218854
-2.24771086154604
-1.96751367706063
-2.37599911880369
-3.09895650784151
-3.47650866653913
-3.27618788609116
-2.94421600076481
-2.94785814567955
-3.15236992100301
-3.06877041760426
-2.47356073265124
-1.59687875511145
-0.906141019979477
-0.848880998409836
-1.64218985983855
-3.16269704660832
-5.01768990388297
-6.68857454548775
-7.6779411750406
-7.72335804139781
-6.90047124439855
-5.39067474073565
-3.20907136455411
-0.307448195312782
3.16732178255274
6.90915916035463
10.6775383799204
14.3374631164711
17.7180907847486
20.5035719813851
22.2212519429635
22.4017620194097
20.9538664112097
18.3842917785059
15.4668904195502
12.718727830197
10.3183862505549
8.34174625933099
6.8028026299525
5.55376380723189
4.35784459629654
3.04060979309064
1.53030292421841
-0.144937199192454
-1.85590560618704
-3.39982664211912
-4.50927011933179
-4.91282099924087
-4.56212977268883
-3.72757387526323
-2.64718525695401
-1.19814680352405
0.796621459189836
3.05137367081286
4.9061650018126
5.86447934557722
5.87047629016716
5.19059863792361
4.13977977911159
2.78989031389323
0.943134015044098
-1.461223870661
-4.0401447275358
-6.27674873079184
-7.97231154063218
-9.16905041314894
-9.84327415257685
-9.97864568334611
-9.79131170635412
-9.56312973255221
-9.29344166177037
-8.74482584484674
-7.83578209317854
-6.8650933047186
-6.33125392938278
-6.53216362102086
-7.32111216646771
-8.28380569307352
-9.100384998583
-9.60286933626183
-9.60604269020742
-9.00715716221467
-8.06352877477687
-7.3004622152352
-7.08580778603375
-7.3988393384127
-7.93096314687652
-8.30719038300073
-8.32930280529079
-8.08968036738302
-7.76901443997674
-7.35868576445666
-6.68446325874245
-5.57712367336815
-3.91557114809426
-1.73678136744248
0.542813374872807
2.27433613956145
3.12849899427055
3.34867398828135
3.44412480362783
3.86051403116994
4.92505890317153
6.82842523577485
9.55671102224859
12.8900104054774
16.3976946788885
19.4124687958704
21.239228406299
21.6108666514296
20.9184721716475
19.9323078074179
19.3070880015888
19.2267808279165
19.3072586741345
18.860197306613
17.4161088473913
15.0038355488114
11.9574743493741
8.67596712490896
5.61331216106838
3.22952172522691
1.80578076429009
1.39614152437244
1.92127039073914
3.17973840549758
4.83702784819194
6.51143683682636
7.80742408870513
8.26748879231698
7.46689633139419
5.23207728767395
1.74143608788093
-2.48835564868043
-6.67016287044412
-10.0390488869294
-12.3043359566504
-13.8033753796302
-15.2239130748641
-17.2388579267087
-20.2180168667904
-23.9995274544764
-27.9504632409656
-31.4015063724559
-33.9916551250552
-35.5826012771793
-36.06345572489
-35.3905975829659
-33.6830172093314
-31.1569222686387
-28.0449346001932
-24.5819067379098
-20.8898308819614
-16.8280566182981
-12.1033394250192
-6.56148480566488
-0.309884060324672
6.33870162921518
12.9139431422013
18.8912417839499
23.9171221597463
27.9595937901223
31.2302536163899
33.9228040611968
35.8916487016361
36.5672709169672
35.3797319703415
32.3430851426901
28.1144811631196
23.5246610350804
19.1737362391208
15.2935204706684
11.7358273188339
8.22955248460451
4.85589392130008
2.06741478752007
0.0551022707297912
-1.61056292022436
-3.44195838925017
-5.32624538226449
-6.54744732376463
-6.40451867253533
-4.75472139104866
-2.11437639642453
0.664301745227126
2.85721518636435
4.09453013206292
4.27017649438513
3.42121497757402
1.74506500807442
-0.408603726743495
-2.67308695519283
-4.77080871341475
-6.48840869948365
-7.60544254413815
-7.8910869690871
-7.29473203907032
-6.26997916119596
-5.71113703763914
-6.2261354677104
-7.57241587333593
-9.11618767865799
-10.6284417786935
-12.2097255742977
-13.6680875117698
-14.5291379065113
-14.6384356597246
-14.3805863571507
-14.3042160686312
-14.699721852326
-15.3843787059687
-15.6867911423807
-14.7701019250566
-12.2233502384436
-8.44417501317458
-4.44086184145618
-1.12723067368718
1.40315807437413
3.91853370868876
7.20899687926712
11.2169925996282
15.0861931913799
17.9154326466736
19.3292176904179
19.5248602683654
18.9988562187586
18.1563577225225
17.0938728618566
15.8233499409063
14.5858831370128
13.6311293023752
12.7290823260894
11.3104478430967
9.1698740863157
6.6937294622861
4.35746993747249
2.34728951533937
0.722535024107499
-0.382720005643452
-0.864147618300359
-0.836918625090882
-0.658687588303814
-0.729272181650369
-1.19242165517804
-1.8628507452986
-2.50385192557345
-3.09269459514224
-3.76569543920444
-4.62031608371151
-5.60467686895596
-6.51330267018698
-7.16982562232278
-7.7521590276684
-8.78593357697159
-10.5776805004638
-12.7021065885642
-14.1794119296247
-14.1350260684002
-12.3691303726892
-9.51980994401447
-6.68082638349655
-4.66063592678471
-3.57627100843114
-3.1872771697113
-3.40349556410051
-4.25920570873344
-5.53127532572135
-6.62206438531274
-6.83012791246545
-5.69537317998615
-3.19114689752959
0.345593978416862
4.52601288238291
9.08559121432153
13.6148951124744
17.3003732401691
19.3055323649415
19.4458268546943
18.2803977688898
16.5578649119496
14.7173577462567
12.8460137037117
10.8947439265077
8.80070025825768
6.40626913640709
3.45612037338407
-0.0424363564776464
-3.46068941898178
-5.85118600489952
-6.73923666410578
-6.50716944498182
-6.04141958162369
-6.116663533971
-6.93305541984373
-8.02381849848062
-8.75724302884555
-9.06711472522121
-9.47117690982672
-10.2909818192714
-11.1792811123502
-11.560883671944
-11.2730034051773
-10.62519963059
-9.97817776633123
-9.35683093782886
-8.45718770317013
-7.05707770585764
-5.38873865535151
-3.97855505903461
-3.10178694014866
-2.47827866344263
-1.45790809413257
0.559807311476118
3.70442864415539
7.43647104855509
10.9016484217893
13.6087823603223
15.5676659611121
16.7286223211175
16.6957854137174
15.2244769306314
12.7369797884023
10.1391174552046
8.21805510452977
7.21848603411381
6.8721622485216
6.84146152178728
7.13750289659717
7.9676262550098
9.21250031967255
10.3299035995452
10.8231696066856
10.5795180481047
9.73346799247369
8.40938748576603
6.6166997062022
4.28261891389296
1.43538472703331
-1.60865829246667
-4.38285864907461
-6.63280062385392
-8.41292089672729
-9.86659220268794
-11.1049984721564
-12.2775684350784
-13.5358177812245
-14.8278914641192
-15.7967446749299
-15.9632708009149
-15.1058712325833
-13.5727020151499
-12.2190292896426
-11.9171669371966
-13.0242102498021
-15.2059587763356
-17.5894187044764
-19.0724026063286
-18.744078736294
-16.2160393040068
-11.6401095789199
-5.65812122963037
0.493509915818259
5.23001409044583
7.56443249070688
7.87898866105797
7.50440146519879
7.54388688861493
8.19994979764902
9.02264314858478
9.53349859963802
9.64955726410717
9.67333415278304
9.91001466813087
10.2829740981615
10.3424578774556
9.67641309930467
8.3718533672728
7.06332118395147
6.34257373058873
6.05750328549768
5.45635400000722
4.14176869212153
2.58102742022995
1.54362342436563
1.37478694843299
1.96803754630637
3.06216564101751
4.29351414039283
5.20717906301685
5.47774800061306
5.03820084052258
3.95004495217786
2.32846316078
0.420507804250347
-1.43027878714572
-2.92630466158095
-3.86424410047304
-4.17845845658022
-4.01495531342999
-3.57820236956592
-2.8500702371566
-1.64029624204524
0.116757449568322
2.30484568527826
4.73049101450819
7.03428745394139
8.63465285154885
9.03597334766421
8.19011181933196
6.5083673129253
4.61611787796704
3.01749591923314
1.76551822970592
0.49902949804251
-1.03053147174732
-2.62492754385463
-4.01704757157894
-5.33867869085436
-6.89915859538832
-8.60747138893688
-9.89197666284308
-10.2466821700937
-9.76061181186062
-9.05304219786083
-8.73249610399577
-9.03527599856949
-9.97112809188331
-11.520095532557
-13.4441425279341
-15.0963931645386
-15.739122506585
-15.0158889335353
-12.9534279216176
-9.70437789999808
-5.56937647147812
-1.11554359032269
2.98423955863754
6.12635824170966
7.77199208672463
7.68606101849353
6.41164135985345
5.15751094856548
4.85977729432669
5.3739366305541
5.68815090916246
4.97949239248295
3.5413664703485
2.59294408137698
2.99287651265774
4.31474741347098
5.53498090178024
6.41545776136429
7.63800417002533
9.58576856721723
11.5269585970915
12.1994291245742
10.9912430861259
8.49423755833676
6.02955163004598
4.64514965267771
4.48583602154585
4.98466981692311
5.43572909299502
5.35309195659168
4.60665593777631
3.48957446849171
2.55792895626591
2.21844283540535
2.45117532891319
2.88285207117296
2.98843035282925
2.29382050220723
0.662838622212418
-1.5560060609185
-3.84625555351375
-5.97103861378521
-7.9388569659327
-9.62683865169547
-10.7125170752313
-11.0647223492918
-11.1643835700008
-12.0632179452546
-14.6400338984804
-18.6089692492566
-22.3977134705183
-24.3055148299372
-23.7483947216802
-21.2722809985183
-17.6285439149463
-13.1466134232846
-7.89464765343764
-2.143356703963
3.53490167921935
8.75612507738833
13.828923149961
19.3813362894087
25.2711480161043
30.127154661115
32.2195963965997
30.7446218206103
26.3424470861294
20.6385616822747
15.264989378848
11.0202295398124
7.80811669819905
5.31589879617376
3.53616503151107
2.5337784776106
1.98772338282095
1.27430128853705
-0.0263739149681687
-1.84403514373535
-3.7747490677677
-5.40926908040702
-6.53308535025311
-7.11337473893336
-7.25177888822599
-7.27898664156165
-7.74256856166307
-8.98774805145489
-10.7529153410527
-12.4150471762036
-13.5794193428717
-14.2193216986024
-14.3994227020728
-14.168625676255
-13.6389344641175
-12.9368239714719
-12.1396466419267
-11.3496637123631
-10.6743812333152
-10.0786663306404
-9.43313173227345
-8.70351391900143
-7.87142758622165
-6.64611367107239
-4.41000835801309
-0.493408597017232
5.42561067805931
12.942117935504
20.8114845993465
27.3904337352289
31.4501476023191
32.722953145189
31.7349802383408
29.1211181769191
25.1335008373847
19.8774499982255
13.8995374720871
8.19229761485094
3.46052501368933
-0.366206156577058
-3.70992818435062
-6.73335189658233
-9.46067455052924
-12.2175538610175
-15.4235979258928
-18.904780971065
-21.7141721578942
-22.7314818349759
-21.3909437134556
-17.906739046708
-12.9202687553973
-7.04212535483778
-0.864623855611186
4.7253437399771
8.76730698569764
11.0317415295316
12.2668257837415
13.3116605870041
14.1163029052827
13.8389633029008
11.7901867216894
8.15343486511968
3.84621950727612
-0.244711302318814
-3.82397440854588
-6.95730467342176
-9.53481473268227
-11.3305324739855
-12.4817673755095
-13.4175346697135
-14.2271999408767
-14.5047298855039
-13.9730764283628
-12.927650666784
-11.7969999649311
-10.4241431550304
-8.06805957738966
-4.17052074229364
0.97928138306708
6.29777279807399
10.4034983700915
12.0710366866268
10.7488173918651
7.24454432832398
3.70680105512668
2.12769179879889
2.61686778680952
3.60084967699128
3.75466003779246
3.18553171476555
2.71411233135798
2.73888750932553
3.14531217007306
3.81446421145414
4.69331779951142
5.42140298609547
5.26573390171211
3.73726663421287
1.33458019214296
-0.540057336047755
-0.612096843371794
1.36860718759097
4.75839824425307
8.69697896025079
12.3990420060217
15.0519151423906
15.8988323924598
14.6419536332908
11.7649653136391
8.33687491192421
5.29555753960191
2.8928812717246
0.974637139867499
-0.355918775674611
-0.782003603502431
-0.504116131420128
-0.459854979927547
-1.58004597083235
-4.05141303284718
-7.37109360066517
-10.7949749065671
-13.62082757275
-15.3706393325485
-15.9508126945916
-15.5881161496176
-14.5591858268659
-12.942744186327
-10.5274942249841
-7.05876877557045
-2.82863815074689
1.0694543462019
3.40157908568209
3.69285918135166
2.28783414941539
-0.264153992050706
-3.54589615179615
-7.1272340076064
-10.4346339026133
-12.8664068049497
-14.0366054965363
-13.9719147328289
-13.0245157946094
-11.4924983085681
-9.37069998501564
-6.4951153131347
-2.84581480224536
1.21386917085884
4.8679122522454
7.23879396391052
8.15451905656842
8.40876624657727
9.00946811290793
10.245007697403
11.5988256325625
12.3985426747452
12.4054491065065
11.9066802622958
11.3472201199552
10.8409473085445
10.1332810170947
9.17400446499438
8.51531581259706
8.81709123002808
10.0582663812114
11.5177566350521
12.3957983231475
12.1438270706197
10.318921203519
6.57624298854304
1.09368925125143
-5.02206889093761
-10.0357732048894
-12.6618825227049
-12.9357360193931
-11.8447801494428
-10.2136750039446
-8.32719112377758
-6.52680682174714
-5.53064706841603
-5.89205044804702
-7.44084236271571
-9.41107322822166
-10.9859435325913
-11.7910194336982
-12.0552270977819
-12.2222068056443
-12.2682724874832
-11.4870959311812
-9.04480525535037
-4.75692359093204
0.603570888139703
5.76590620742452
9.95989432110512
13.5581531888092
17.4722948663509
21.7814936827776
25.268225467142
26.5680720166687
25.5826473178842
23.5216197094339
21.6665343728059
20.238712817099
18.3848946044892
15.1866745589238
10.7039647373855
5.99371373107888
2.16201758816331
-0.390264247888993
-1.88022687803364
-2.78066653837543
-3.72180201542175
-5.4232457272433
-8.42938015240468
-12.8268550610843
-18.0971429450386
-23.2421008161677
-27.3480480777041
-30.1883642545691
-32.084022276419
-33.1333519097863
-32.8596645189667
-30.7019953992486
-26.6401533189004
-21.3015955261436
-15.6379705650023
-10.5169877540938
-6.45925454955173
-3.61826643827568
-1.90529109323241
-1.09532413810869
-0.892890977446351
-0.957141429583252
-0.866409366639488
-0.19213100314664
1.18639031089057
2.88181070623556
4.36033678551579
5.57168654851036
7.07092383074665
9.50678017741089
13.1365719835783
17.7484732502879
22.7387562974984
27.2110405283229
30.2523014548304
31.266040128681
30.102175744319
27.0650170567865
22.9081127035917
18.6386808230079
15.1279574642979
12.8331563308538
11.7199123745212
11.2600077895049
10.5961762726095
8.96670321188052
6.12400358082276
2.455283898888
-1.21841560979362
-4.09515110787499
-5.86580358524654
-6.77688090098645
-7.27695408623414
-7.80757700241143
-8.88627362273582
-11.0005725839008
-14.2881913493483
-18.5030293650099
-23.1726348413074
-27.4808337180554
-30.2037989117943
-30.2924751416695
-27.6323452029776
-23.0416500898481
-17.5783138920679
-11.9872287307476
-6.6532630751121
-1.83684950337908
2.09329227071329
4.73780033930567
6.16336733495467
7.20244220300736
8.84855523215748
11.2476853705377
13.5373979262074
14.7724114389487
14.8942833904847
14.7703822572443
15.314518552257
16.5839207251595
17.8097209928043
18.2337074300165
17.5877504756107
15.7246491690381
12.3252143333087
7.39174423456309
1.81455727700578
-2.93965374537259
-5.84475990682551
-7.11336472900123
-8.04690285006438
-9.92380706328666
-12.8770779401668
-15.9399365164091
-18.0795909320032
-18.7842302619749
-17.706109870766
-14.4614136487802
-9.20438265460291
-3.03023822218799
2.5930426224129
6.69918683315608
9.01417647357065
9.54514663517395
8.31183113712111
5.49728869057435
1.67649187488014
-2.23092044016067
-5.3014615690409
-6.98608535447765
-7.22199108983523
-6.22201781568342
-4.19889032615343
-1.31530702339591
2.06987218819238
5.11838176519411
6.66752895547838
5.88939461548073
2.74388803255332
-2.31306497097606
-8.78791326528297
-16.0013020554582
-22.6913451701601
-27.2226307495179
-28.3610776436173
-25.8581531851148
-20.4016563935643
-13.0656844691564
-4.77394369312853
3.65076569579827
11.0303196641244
15.9931426981343
18.0137843960995
17.9948159096313
17.4154244932571
17.0912064730202
17.0087315328346
17.027423635483
17.2987969149129
18.0607217674352
19.3134333634572
20.8052048805936
22.2941950997733
23.7135963855018
24.9614094082281
25.6350889837199
25.2575023492925
23.7246245218532
21.1152985986979
16.9935595812995
10.4319658001349
1.07913203719019
-10.0095716557888
-20.7592355731206
-29.1672757898406
-34.1997846412518
-36.1287410034568
-36.1702363606217
-35.5409476962605
-34.6366588706842
-33.0080820959975
-30.0027758866416
-25.4260119591912
-19.7591194098087
-13.8974616233129
-8.7077160523113
-4.71327759327782
-1.85612439292062
0.786034205586731
4.9238031138771
12.1103067901268
22.3651543437852
33.6473635772115
42.9370393014789
48.2526128563494
49.9131058958546
49.7910976239436
49.2263687449981
47.8020813871864
44.1218806785766
37.2458597878083
27.0677130302449
13.9064215495335
-1.45832002296119
-17.3862792272353
-31.6446899811984
-42.4084577509231
-48.9909972084468
-51.7525315533883
-51.5828528381588
-49.4897139671152
-46.4398333322543
-43.332645663851
-40.8860315822393
-39.3507218937205
-38.2860734504841
-36.6843829046717
-33.4858974652407
-28.2819149274508
-21.7426453543242
-15.2835540435928
-10.1388313487659
-6.61666091983988
-3.92946410845673
-0.46519511445892
5.40225722726216
13.999159800156
23.6050500522937
31.3383181885227
34.9903941009972
34.1390782663634
29.9953677935067
24.6107970649726
19.9291489757713
16.9598665744017
15.5893647294219
15.163687845563
15.193231724936
15.5940490363738
16.5185988934051
18.0308796551437
19.8171955203619
21.2035670800582
21.56260167769
20.6802047515917
18.6351700630129
15.4426196321938
11.1186570814623
6.23062579732149
2.15171287057364
0.322334464024746
0.941130145488743
2.50234057398373
3.02535812003479
1.82958800107123
-0.211898357102485
-2.14764578726377
-4.10911035976604
-6.75636034988662
-10.016818436643
-12.7773519293258
-13.7392189384241
-12.4396046365419
-9.51537272041559
-6.08537932497299
-2.98686286260881
-0.639315892670705
0.685509871829938
0.912672781331116
0.39579240627366
-0.342165784854677
-1.14557461208559
-2.26229071199526
-3.95399471308479
-6.33708876979457
-9.47189622649268
-13.3021506980795
-17.4969146426713
-21.4697234212485
-24.5513568743122
-26.1681925561208
-25.9704926374296
-23.9105932269857
-20.3567203968527
-16.2233373619284
-12.7228573486055
-10.4923648528624
-8.80179901189672
-5.93663267592042
-0.666142692625965
6.66543790022497
14.5300418227778
21.5206450327041
27.0954766837388
31.1193811795757
33.0846379032058
32.2709866681119
28.6988312518208
23.3961424786198
17.433712303404
11.1314512817788
4.57983093160325
-1.50399255645165
-6.01289371906387
-8.39110157270527
-8.95614468107281
-8.40644694179965
-7.30775100177939
-6.00008048858181
-4.78099634826686
-4.03243998406679
-3.96862958928466
-4.15184764570784
-3.51351697614475
-1.15964649125778
2.83828749483056
7.43056585760095
11.13386348851
12.5942340432751
11.0081173510298
6.34655810015564
-0.683946541527533
-8.78295441375057
-16.1882860067749
-21.0440409302884
-22.1307542814421
-19.5464259201758
-14.8439059242299
-10.5117026943769
-8.90376180701362
-10.9579090177641
-15.5527267062876
-20.2240684649711
-22.7332435147963
-22.1307759531106
-18.6332238771515
-12.7672689078582
-4.64814728725027
5.9168082766331
18.490429625743
31.2743110507704
41.6670359979018
47.6615334582273
48.6271897910964
45.0695597472391
38.1940562833267
29.6727753946918
21.2332791924793
14.0538609562672
8.45968996249331
4.06545344111554
0.138286881328883
-3.90038656937268
-7.94891490574172
-11.1133428685715
-12.3084316455699
-11.1783699588614
-8.48689656857882
-5.55859228471021
-3.3664358814202
-2.22480350065836
-2.18018159559501
-3.34997496035218
-5.83295251092418
-9.50689470611633
-13.8953737719678
-18.0428369203434
-20.7125694399232
-21.1755195255162
-19.8744309839409
-18.0016200249933
-16.37681954355
-14.9330194532262
-13.1641274517214
-10.7473038329409
-7.79869560756733
-4.8293463343537
-2.44531364930187
-0.848041470995746
0.47896293806254
2.52162317728522
5.97413594930822
10.456559105678
14.464770643805
16.390606272002
15.7554489723825
13.3192016742594
10.0362836657871
6.2298487193169
1.82714243123634
-2.95208463150555
-7.3575695288195
-10.4968753475957
-11.9669261010169
-12.1560305856171
-11.8630942987956
-11.6354121699524
-11.5790630452863
-11.6363564543101
-11.6798461889605
-11.3174262708472
-9.94795559408611
-7.22130519076615
-3.37736941764166
0.999244196108816
5.60878584652817
10.7173354857825
16.6110698295014
22.8276084626958
28.3618262026587
32.8052391301594
36.7253065222574
40.4109719451852
42.6806741938058
41.691015897978
36.9153254415284
29.8630616431109
22.8512798825283
17.3495137362228
13.3971495596492
10.1913047883289
6.99922793329397
3.61401923491185
0.26112251090954
-2.67148691476743
-4.93092914795721
-6.74355192888988
-8.8358638253583
-11.847573657379
-15.7667645491049
-20.1416946834987
-24.6743628970949
-29.3616708834882
-34.2824690477874
-39.5103676635265
-44.9535251081297
-49.9114018324529
-52.8897857213814
-52.103315661333
-46.306804843959
-35.5139980298148
-21.422372817871
-7.0929892521313
4.46153501180161
11.8730225399574
15.5380073838323
16.1191068789581
13.4722905515369
7.60751474560235
0.351425781930794
-4.9832450817254
-6.1235377920425
-3.62421754956775
0.292175891412765
4.22394057749652
8.21192560758175
12.2183603832778
15.1616031886131
15.9298122331462
14.7295215384552
12.9806906846435
12.2063531221289
13.2425121764633
16.0744144519433
19.9111009884785
23.4007654916771
25.134148227541
24.3641436897212
21.5026423100242
17.8212443358786
14.3470701598348
10.9461279293411
6.63545553342443
0.824182141185408
-5.85274523768744
-11.8724223980371
-15.8804586183581
-17.539779209351
-17.6159007010884
-17.3882756636686
-17.8538831119658
-19.0920764414122
-20.0353103536723
-18.9564646293878
-14.5787037079343
-6.88608180208992
3.11194435991597
14.0311962773815
24.105245814082
30.911026241769
32.1779625068894
27.5351023151227
19.2605631639192
10.8998743681832
4.9500600788254
1.66508738412777
-0.19626804355586
-1.68941942605614
-2.89400046128553
-3.65627996730424
-4.43901575573217
-5.83591889416069
-7.57301118604045
-8.7054829396338
-8.74580569428126
-8.03986457586302
-7.06585274222683
-5.90097746689239
-4.49418136226687
-3.0496869435142
-1.82983456726981
-0.674106466892683
0.965957084565303
3.29920636878422
5.6179904531861
6.69738355126887
5.79432490905085
3.19714762309414
-0.0201366116970978
-2.61845913727227
-3.79758307258137
-3.5075757130665
-2.24662052690077
-0.620599781261133
0.772465463920208
1.21645628760914
0.0913577305754304
-2.66483165194146
-6.56034444992065
-11.0338317578637
-15.6604635167799
-19.9244257413291
-23.1852578005586
-24.9745839052939
-25.1030664336432
-23.4929309377782
-20.1670809592453
-15.4661750750617
-10.1493640549076
-5.19848071566575
-1.4473984234553
0.700569768499776
1.284296582296
0.684535153145284
-0.360000581543808
-0.859013523128858
-0.077197165163625
2.02319304226044
5.00135344460481
8.47632296154318
12.2714578600479
16.2295233384294
20.1337817574256
23.6899045726621
26.4667951711814
28.0434450868642
28.3148352371245
27.5185395927643
25.9468746443307
23.691293028721
20.5576566815957
16.2631354613676
11.0242188616858
5.9300202671117
2.22963974108843
0.0481622969808528
-1.78496784460464
-4.36095066933917
-7.41702449570747
-9.67330497496706
-10.260359062111
-9.60778768038607
-8.98039452581287
-9.25827149495885
-10.2334516685172
-11.0690930556167
-11.1452050871163
-10.1755339781509
-7.8668324731821
-4.12741486561437
0.444488384500806
4.83258900638276
8.3367590904856
10.635211555042
11.3629648279204
10.2743151175198
7.84198172155093
5.23086806801261
3.53497590570363
3.08346376359801
3.26835931869203
2.88727018614288
0.879977920043881
-3.04010025608163
-8.43570641842047
-14.6767137353491
-21.2746355489187
-27.8520130663718
-33.9917612823329
-39.0032524857094
-41.6488059559288
-40.2774478712224
-33.7224086298677
-22.4676453169073
-8.95286991598113
3.54461256321491
12.6393962615899
17.7517683216576
19.7091752381078
19.8318652316963
19.3342685013546
18.9563526807516
18.589721028016
17.4031354066753
14.8008549021289
11.256455741691
7.88033492799179
5.19447027175824
2.69887881592153
-0.169293998018416
-2.83071021945945
-3.64622178781791
-1.35129853037336
3.76722834117147
10.214418332232
16.3736302585819
20.8704185283066
22.3920386695306
20.1237988870429
14.5945016283473
7.65451164678309
1.45924158583324
-2.49883738493213
-3.82955323479081
-3.32024502784278
-2.48217820937594
-2.55881231870657
-3.85109897437636
-6.01065248350854
-8.69598748239541
-11.7062986152169
-14.7469658327032
-17.5578837055841
-20.3768100127143
-23.84342666946
-27.9489984792663
-31.1183558030189
-30.8963271057033
-25.9490236049515
-17.236285332559
-7.03594167510167
2.88662231651221
11.9475628532268
20.1241167239083
27.239149195032
32.6991347111088
35.6294785714685
35.4793832961989
32.6695969174571
28.3399492200055
23.3109941552991
17.5889522155008
10.9573354900904
3.72660576052937
-3.15958063061935
-8.47604165737565
-11.2159994800005
-11.2172702074963
-9.55815789037187
-8.06324816423108
-8.00075459735853
-9.17330345472799
-10.435879618238
-10.991848708166
-10.7790058562766
-9.65854456679903
-7.04600749729272
-2.82415052850251
1.98314003183957
6.04553229635919
8.77758152245262
10.0115296114792
9.19106907147515
5.78486204932832
0.376078512974332
-5.40361094074224
-10.1623318643204
-13.5863982638662
-16.0357513662562
-17.7825972927116
-18.7915966726664
-18.9062553683922
-17.9462457016035
-15.6553564019974
-11.8374285631097
-6.8374903797967
-1.85928606822292
1.61466111562146
3.10128149879689
3.80235745982152
5.74675974814595
10.0163940428983
15.7237555515082
20.7208546341225
23.2418946943411
22.7919456902406
19.7435419979234
14.7369847680602
8.74102622148818
3.14486249521417
-0.842547142504184
-2.90263486513396
-3.57750751654994
-3.70704542120286
-3.94824573147689
-4.52545981605291
-5.24833863775971
-5.82007537138077
-6.02985553212715
-5.57485339331458
-4.04296139204408
-1.38692950457365
1.79970707054633
4.73855016867522
7.02451211622803
8.58756407530956
9.39966470940576
9.48334226957639
8.98611845899174
7.96722567136142
6.29337876023422
4.04451331664422
1.86887716033043
0.547416464255567
0.185775894641817
0.188301215805559
0.192517780555196
0.68927047428953
2.2675138451286
4.33328333386443
5.19313482731035
3.76469968598051
0.883580099780495
-1.47851276763218
-2.1859468115599
-1.92823690806464
-2.43644915492689
-4.96667485267659
-9.43562427208708
-14.7579017232336
-19.8519591206322
-24.2225994453532
-27.6500906102934
-29.6971653874861
-29.8269789637369
-27.8543592254739
-23.9959612746317
-18.5279808714826
-11.6917645551087
-4.12724777558939
2.72333497966809
7.09277742005317
8.20444742483808
7.07287838043009
5.66255163584733
5.25195212643569
5.87654461990883
7.16440794495278
9.07483980976083
11.6145817439713
14.2615871904115
16.0033276377325
15.9175680490431
13.7872746272696
10.3646235644238
7.02785426781875
5.00542278185214
4.82897260959618
6.37791385536228
9.18104708979858
12.5581933363454
15.586646448976
17.163175297923
16.4759711500937
13.7663366846926
10.5212362201393
8.51245084196136
8.58965871052852
10.5619532453629
13.8615965872636
17.667649745784
20.5518899186598
20.9010717578434
18.1338179462161
13.2724285993232
8.16797626679927
4.1903200326422
1.42499223145798
-1.18738598369778
-4.88539310260167
-10.0167605345682
-15.8344849748086
-21.2965832025142
-25.8862789664509
-29.5754276484139
-32.2497201993207
-33.5629719833739
-33.4584952637198
-32.5108370208431
-31.3615366413028
-29.8844564294996
-27.3863216323785
-23.7654647201527
-19.9694428032642
-16.991582622666
-14.821245652581
-12.7402763774618
-10.3210142133209
-7.7375731762618
-5.26740362371101
-2.86270452799955
-0.336000851123631
2.12097003330363
3.84291165622877
4.42137426978462
4.58437772472559
6.06992887647767
10.3204955666248
17.0983102323793
24.2789319398629
29.228415376126
30.8606966685014
30.4333391746676
29.9735100019653
29.9426869227856
28.8896143374728
25.3114032824602
19.2472377636272
12.0341206828867
5.15605657220661
-0.466269765306662
-4.55260414546758
-7.20284039145371
-8.51592749762322
-8.4314215943324
-6.98293078773634
-4.61327052775398
-2.14006321317882
-0.421192617888297
0.0429868520040059
-0.587190064381038
-1.54782565673962
-2.05820764045372
-1.99166572812605
-1.89875617563214
-2.28870854586301
-2.88890492489171
-2.72198294376348
-1.12802617313959
1.25380577534776
2.82665494891725
2.56028873032467
0.951500686963508
-0.712212977730606
-1.79599216952582
-2.81595397198543
-4.70945091826151
-7.83880313902427
-11.6216477495626
-14.9534638194908
-16.9140259301878
-17.0930426716484
-15.4531498982963
-12.1496062983003
-7.42788522167203
-1.51631227957715
5.18465052096722
11.6107704663919
16.1397964460626
17.637554484874
16.1938266405069
12.6119919714714
7.64797070444501
2.13569031082495
-2.67384410504103
-5.64522652978777
-6.59307459822096
-6.13618010651775
-4.74533500825331
-2.33106645571397
1.16726433218192
5.14474621586368
8.56282296318938
10.7865910345414
12.0126651473291
12.7717352911791
13.1302556010647
12.5563669611727
10.4995563427166
6.91235522242244
2.255802952778
-2.84096336358769
-7.98563930654763
-13.1999163056214
-18.5813284159069
-23.7056294486331
-27.5113709796861
-28.8705719793698
-27.2699291749728
-23.169295293119
-17.9807494081479
-13.4546714274125
-10.5428033992792
-8.76861425990082
-6.95948931654309
-4.53862893946674
-1.86951591514527
0.532729039458184
2.81640529545638
5.83329448291798
10.5690459753812
17.4854832068731
26.0555578566346
34.5756787436084
40.5031501609485
41.6155103681864
37.5237489357887
30.1067548681711
22.0342478085808
14.7139753149784
7.90802175805718
1.22055227999297
-4.67295485404877
-8.54391842926525
-9.94635481607353
-9.68991838219576
-9.12449027774576
-9.15177996198506
-9.8314628774469
-10.6859325697726
-11.2136591188751
-11.1515113141153
-10.4571928801392
-9.22956794495259
-7.73245079889799
-6.53267433519743
-6.48053882762786
-8.19037044661872
-11.363017434556
-14.8911748201878
-17.8147161046616
-19.8824746135573
-21.0624054962779
-21.0595003759501
-19.767946502015
-17.7855883339015
-15.8265161708851
-13.6486634879776
-10.0889945314398
-4.43803286522962
2.44873776157464
8.79312901714811
13.7270951417313
18.2070269409907
23.888324602821
31.2224711949131
38.860142265275
44.8573560891276
48.2803624615822
49.612336040704
49.7015437133079
48.4088476119078
44.4442391100924
36.7149725036682
25.7344445664446
13.4114477049065
1.53029739624378
-9.21502198096704
-18.8926283184717
-27.7496490583727
-36.0958462785171
-44.1790205584757
-51.831843329666
-58.431999200767
-63.2631710978518
-65.7193646053733
-65.2723181191378
-61.6229456561089
-54.9302318507549
-45.5874702193364
-33.7496205024813
-19.5617424198312
-4.16478431558344
10.0947185719074
21.3456329297663
29.9469170517388
37.5417977554635
44.2284578357757
47.814979496048
46.422605295018
40.9442520200772
34.2974389102268
28.8760080371929
25.2912993892298
23.0419155115753
21.5560983040805
20.4321571693417
19.0866141887205
16.6852355201657
12.7965519779381
8.1145126329791
4.15235955828476
1.9458947449455
1.16112534213763
0.536902741413602
-1.01369443701627
-3.74761396327703
-7.10661555689539
-10.0958439794314
-11.8404422608087
-12.1018560628183
-11.3849741089373
-10.4438900883748
-9.47235867418759
-7.81277122341577
-4.89640849771923
-1.65001114815291
-0.353445781342469
-2.44623473663584
-6.6755850235175
-9.91006869337061
-9.700121300468
-5.8952149854826
-0.327436544078318
4.41551117417979
6.16820696072622
4.10292826605629
-0.871882706637859
-6.60850945769299
-10.9401535260396
-12.8133153384969
-12.6008587677385
-11.586228957485
-11.161601326055
-12.1542824006095
-14.3931166030063
-16.7513444574891
-17.9363998255321
-17.5524725822373
-16.2890969911762
-14.8778803470569
-13.0060023668561
-9.4659237420889
-3.32453048923859
5.00188672909955
13.4694761390382
19.1877765706388
20.1048539177503
16.4144930139691
10.2911934236497
4.26385861377027
-0.0755059957929934
-2.22614471813412
-2.39210303518376
-1.10435196844329
1.11439125315774
3.91456527424397
6.97661012635785
9.77920746237032
11.5651408645838
11.6036658242816
9.71010418208055
6.63191684368633
3.71557618122312
2.00806578448158
1.75990030598909
2.75760761006201
4.81189672635509
7.74850756719663
11.090384105349
13.991838189193
15.6799858516101
16.0726220321939
15.8318774437499
15.5803479760743
15.1270204074805
13.7271207186229
11.0798506699664
7.75947639176004
4.56337816622451
1.6615279747644
-1.47148990525568
-5.42054204475112
-10.2707793863952
-15.5941326335805
-20.6844778430522
-24.5178144746336
-25.6741540310005
-23.0351460746625
-17.0077821235801
-9.65189557615643
-3.09882716956312
1.96541750761666
5.99106968701994
9.18609171624175
11.0040790661524
10.9046072462186
9.21525161827559
7.12396652423319
5.8669910812444
5.88141761278773
6.68521346299797
7.45216686079145
7.50983859398177
6.40327288100553
3.98445189706908
0.722080942766032
-2.31231430681949
-4.08119219650696
-4.35348202727272
-3.95914750097348
-4.2621807970661
-6.15123882016675
-9.39288177023195
-12.9952576490418
-16.1381368619398
-18.6439796075015
-20.6981482754727
-22.3388718758753
-23.1718794731836
-22.5594235659498
-20.4226661201791
-17.942890044689
-16.7906418371377
-17.118335910294
-16.8601883906834
-13.8368653763004
-8.41409864535979
-3.43001255651518
-1.45721141046884
-2.54550667585859
-4.62027177059332
-5.5537088759338
-4.50537853998748
-1.54642051996777
3.28695945490374
10.0357514474043
18.0367848505783
25.5768487053423
30.6013348816812
31.8384101183307
29.4390323925217
24.7994290829089
19.7852361601975
15.8999742890895
13.867784046986
13.5962165435213
14.2697098211066
14.6735584096368
13.8458310279735
11.5834810241035
8.32127839779826
4.65269130852031
1.03820880449929
-2.2349838928919
-4.99744089547016
-7.00508920769994
-7.75498036734685
-6.75043939859495
-4.1126362914837
-0.705074339816103
2.55126089406295
5.37177542129051
8.03219886663323
10.7377936143409
13.1720007457807
14.6547837538203
14.7212809195707
13.5152040826906
11.6979130030949
10.1911407313568
9.88961282617162
11.0456718049154
12.7364323196157
13.480964776102
12.6995432995927
11.1313177481644
9.56895110374995
7.66221454012919
4.2941099209977
-1.203847508473
-8.45535670950455
-16.3636631168307
-23.8000490295812
-30.1246744830267
-35.230386706787
-39.2030453762271
-42.0750607572233
-43.8769320546301
-44.6945445445894
-44.5878494856825
-43.5975379604147
-41.8712034422165
-39.598660664044
-36.689603657956
-32.6234435000143
-26.8377521379347
-19.3793937326774
-11.1139399142632
-3.15825755546624
3.96058140652753
10.5607994835196
17.2415378301657
24.1251805700626
30.5662130531222
35.4190087318127
37.6740960024925
37.1345607299683
34.5147830799458
30.70838572207
26.0585764186867
20.5734410526774
14.6628019585242
9.20360412680088
4.80137777220502
1.34875993825168
-1.41688744666047
-3.08644378704194
-2.76263862882472
-0.344699720719234
2.63526196580346
3.98102626898597
2.73777055471694
-0.173242201727331
-3.20229912449515
-5.63452830526124
-7.75178265637201
-9.96476781698249
-11.9768237926438
-12.615533506416
-10.4905873357646
-5.10760665070616
2.51607590660316
10.390237632288
16.7643795122751
20.9630157929625
23.3192179319722
24.4538573490381
24.572304457922
23.4489911769713
21.0919245899374
18.1576338054909
15.4095037735574
12.8763585903038
9.84892365670316
5.70939571291953
0.63872180247874
-4.37855637224472
-8.1303146099818
-9.95408423231707
-10.2191500890566
-10.0934232172109
-10.6999671467121
-12.2810335301295
-14.0176292908428
-14.7403425370792
-13.9725572518089
-12.1445277799597
-9.6019232515906
-5.7547007832003
0.192186834447858
7.67321779362165
14.5014157102463
18.4751574182944
19.0941673878582
17.6065649150408
15.5510564289793
13.4255620691707
10.7370485150015
7.06626935644373
2.73989241432201
-1.56145169432675
-5.52486333838647
-9.36373558767797
-13.4497121230875
-17.9153156633233
-22.4850533347793
-26.6511206093218
-30.1797674445939
-33.4902967176172
-37.4044887749144
-42.4659918792509
-48.4098279733975
-54.0052766811548
-57.3735802108531
-56.9200690955295
-52.2980467768083
-44.3819459926595
-34.3899184919444
-23.29579924431
-11.75405937837
0.0593343075546813
12.38343613802
24.9997557871842
36.5194677565464
45.1312650214892
50.0056504380005
51.5785927728482
50.7779132793171
48.5922993834974
46.2000288761338
44.6888636478334
44.1946871602152
43.4942254459598
40.8528539355905
35.6055642292025
28.99735214686
23.313613795208
20.0112833279123
18.6226616883656
17.3729049598859
14.7614608329434
10.6513426677974
6.07717271846366
2.1422027877237
-0.902643845256381
-3.5719291512246
-6.30516471796627
-8.88594387000258
-10.6838971698434
-11.3125492252338
-11.0286333467624
-10.5987814458886
-10.7642746323693
-11.7614613090024
-13.3923011508986
-15.4920609159815
-18.0923454618538
-21.101751876803
-24.0581672511649
-26.2774379654057
-27.1995346906308
-26.7262151496708
-25.3404330197581
-23.7401937301992
-22.2592001042664
-20.7855520730929
-19.1957389591035
-17.5847134121245
-16.078114636799
-14.6313422432125
-12.8927367937994
-10.0992056853161
-5.46641981243472
0.910646067041831
7.71857192028551
13.2512825065812
16.4633291856468
17.2510357416306
16.1674228595337
14.0976623686716
11.9231681421699
10.2083035111185
9.14198846036293
8.6659894412236
8.54815261287363
8.479258471636
8.32009608142834
8.25781797490741
8.65696520658158
9.77616942920018
11.5349502871857
13.3847314550346
14.506495183774
14.3965713914217
13.2755405994621
11.8257179871293
10.6209209009536
9.85315417370128
9.39656153744286
8.99497428903858
8.47585653169607
7.80990027273416
6.91476384651232
5.50762148828656
3.25213411054699
-0.0456839234141698
-4.37886771644177
-9.4051151897109
-14.2746547263691
-17.8825091171294
-19.5529824710581
-19.4642980346391
-18.3641925895136
-16.9182788951387
-15.3138714825209
-13.4022574616683
-11.1422371805479
-8.81844289660503
-6.79331686238969
-5.12045264853145
-3.43259501475452
-1.13260346681114
2.27155409651747
6.79443169047526
11.7533272325215
15.928566773314
18.0438250650606
17.2677879183126
13.5684532296812
7.8385864893299
1.57426337170678
-3.85626122169513
-7.71966560747962
-9.75217150150311
-9.80415082312564
-7.91468136294663
-4.59775052248724
-0.840731722199372
2.12219889846239
3.01476356058277
0.82834254411958
-4.60371163815772
-12.0513465129581
-18.9740401164253
-22.6559172824935
-21.8647605289926
-17.6168827328799
-12.2563298320589
-7.86173103461702
-5.4805579380015
-5.24024902308862
-6.5010264106354
-7.99044741106226
-8.31064591539454
-6.54141123666932
-2.49073041498458
3.29261651730678
9.67417721468078
15.4829765569929
20.1287727799322
23.5406984760037
25.5439826932428
25.6379676231119
23.522604992319
19.6824131062097
15.3781799887399
12.0546233152862
10.493400215587
10.2511531009239
10.0381130536631
8.93055700735865
7.19027886756761
5.73926489214005
4.93827733437264
4.1303654058004
2.43411042920908
-0.210425941227502
-2.9868208661718
-5.10404546866265
-6.4298543334987
-7.18737516661074
-7.47478708602406
-7.41563668460427
-7.52801820857376
-8.53224723793607
-10.6746532769081
-13.2554926115707
-14.8726399599417
-14.3605367293512
-11.7014613366515
-7.97656680738784
-4.44495365446704
-1.86953046124689
-0.560366028982961
-0.440310565102453
-0.831741646761133
-0.6326013679873
0.912621833769235
3.63793745314739
6.60537152402152
8.66393403396722
9.02317152306575
7.67994588671446
5.41865533629121
3.23612159823675
1.67644021133289
0.721598171503481
0.19011672283443
0.0676358516582828
0.448910735575881
1.23896183772363
1.99446580604888
2.23334129317821
1.99474039143232
1.87970073750301
2.31956098820064
2.92854314594806
2.78715330199893
1.34636456085105
-1.03518416154147
-3.44338078396319
-5.24985664726552
-6.50860459659813
-7.46584177266426
-7.92610871920479
-7.46261928079003
-6.17824488382613
-4.84495855019095
-4.18258162571564
-4.22037539828452
-4.3799976303643
-3.97022981920296
-2.59581853126369
-0.319047709900687
2.36570967920492
4.61231294105365
5.39808102229861
4.03706653925189
0.818695527083817
-3.04668988609532
-6.37041531066758
-8.77386019841294
-10.4800805535227
-11.6700465995185
-12.3321734911874
-12.5241224075239
-12.4301663183156
-12.1551982648764
-11.5894987161865
-10.4198517406586
-8.24433882099695
-4.86611139508534
-0.628844814350277
3.59211953375781
6.86522574040947
8.83908694923859
10.069668967034
11.6523687110544
14.2823291581963
17.6035384939465
20.5912869552608
22.5474163057444
23.6043443510315
24.3406844606104
25.1136133716204
25.808911916268
26.0798099991392
25.6078390317747
24.0505202460818
21.0063019430954
16.4676329135873
11.3220088140743
6.94609161282399
4.08194432788539
2.37504645557386
1.11760157929833
0.0823489934565896
-0.622987148606648
-1.2761042287897
-2.73982389333052
-5.82596233142959
-10.5413387321172
-16.0266832839923
-21.1673145213523
-25.1573060842353
-27.5865648531902
-28.3618425784206
-27.81131972961
-26.7182140185793
-25.9584815179669
-26.0573470576256
-27.1114643896114
-28.8824673215878
-30.7341858070298
-31.6728170642195
-30.7485953682543
-27.450543474704
-21.7384843061049
-13.8884979335222
-4.38018259904719
6.10914078100012
16.4956227617544
25.0844375816629
30.0063768040644
30.2849514135806
26.5041901754791
20.4204919562932
14.0532725560734
8.94622167421032
5.71752616941563
4.01884785631049
3.11839417535142
2.69929091950017
3.02404829868436
4.26948090594023
5.83085562006625
6.53037182377677
5.68232825406574
3.82311326224634
2.16849412725731
1.5022528381629
1.89015800622927
3.20835581983738
5.29490199903074
7.51295543706807
8.80312767990344
8.57555131342764
7.31547179453667
6.0850017450203
5.64077048797963
6.18922103069218
7.68723532359121
9.96339183366134
12.4435789256466
13.9722317301338
13.3184275060594
10.2042388217551
5.74403081225736
1.55106172746457
-1.56371385097158
-3.79895664952135
-5.50375304567976
-6.58926724487278
-6.84060439766679
-6.45088544963003
-6.00701499351153
-5.96587177779931
-6.23430874014592
-6.31842770917654
-5.81650595741179
-4.64596083707364
-2.94245583333744
-1.08811533214416
0.225026372732853
0.441101063154052
-0.236537081546309
-1.02061383043495
-1.40081124684421
-1.54128116189681
-1.87770948221149
-2.69803625350161
-4.13322783664848
-6.18687861133651
-8.60470308898221
-10.8730890706483
-12.4802801447295
-13.1979212802868
-13.1486910582648
-12.6254239135776
-11.8201906172077
-10.7727500990934
-9.57873188351683
-8.36143330533008
-6.77770454964636
-3.82790623652397
1.28511823165682
7.95873582238362
14.1596388658201
17.8441489382007
18.3841451994454
16.5385793362175
13.2878491199054
9.17540411424915
4.82458519895782
1.36044803616546
-0.386505536028821
-0.873092385805842
-1.40470795981837
-2.7227275241678
-4.48358668474651
-6.05369682169637
-7.28572230654981
-8.41879173740255
-9.6061053224876
-10.7302452358502
-11.5266967219332
-11.740578443719
-11.1468550805539
-9.50064269533001
-6.62636085319997
-2.63654080938821
1.99315459179266
6.58511637526092
10.4721909162528
13.1585317754624
14.4222699311325
14.2637485729558
12.759874656784
10.1437445180957
7.07984648359637
4.57170268938864
3.36255527382097
3.52285848780792
4.63263013228169
6.12258528691162
7.50442667403567
8.66363212692472
9.89308629880723
11.2718175642656
12.1862847895115
11.9416334861371
10.6422664242786
8.91781013635736
6.95254726049302
4.40728928044081
1.315679842586
-1.46007476309875
-2.89502523057339
-2.76605758396539
-1.83990550026759
-1.14738420961989
-1.16684152716779
-1.74732380624402
-2.65057169439665
-3.93925516295807
-5.90625087965209
-8.82408757242706
-12.6476132935854
-16.72027732379
-19.8551352499834
-20.9367710528503
-19.5117713297481
-15.9021957062684
-11.0000308410093
-5.94563584867038
-1.63308319230681
1.70236757886549
4.29039103708271
6.17467798655455
6.94763525446952
6.19710653523469
4.0621068090405
1.28669548983585
-1.2596079961425
-3.24877322317356
-5.18231690926512
-7.88481820268588
-11.5986107835474
-15.5826503859591
-18.5159724101342
-19.2526338886075
-17.4282485969645
-13.5644269658713
-8.535316990751
-2.92351076895377
2.97868916423706
8.71895791317775
13.6488889489255
17.3462286819034
19.7506156600448
20.8579818426136
20.5224070450936
18.6031876585851
15.2561693850566
11.1776208882965
7.53390280511057
5.37036194487666
4.91840507889185
5.50572841330632
6.10832518265348
5.99716029275469
5.09953357113145
3.9462684029743
3.17301484713273
2.93055970516908
2.83247505231351
2.5017272053224
2.01535252249166
1.75396403244952
1.97060918704657
2.58003692460921
3.24597607176145
3.60210869324403
3.43373108394947
2.69668769079793
1.48329859173993
0.092244923036273
-1.02927018505526
-1.67332633809777
-2.11881236125569
-2.78879233872223
-3.78225339228771
-4.89898895957114
-5.93871728509597
-6.82919387340897
-7.65711536415595
-8.68573190890317
-10.1639457958637
-12.0562361946531
-14.0785526441014
-15.9463036864978
-17.4727497434335
-18.5376524236069
-19.0353307142539
-18.7123260675173
-17.1317532232474
-14.1549219062951
-10.4679396333221
-7.20705523652607
-4.88467693052644
-2.9426732946329
-0.524493930232984
2.48317122121976
5.3484732199908
7.38036266241771
8.74687888266978
10.2715073656614
12.4373077078152
14.8109569816316
16.5742371750586
17.3736540741651
17.4031652063701
16.9302992153912
16.152566379534
15.3728830331532
14.8968916478128
14.7273682825541
14.536197135351
13.8829517503652
12.4098327944495
10.0537084494878
7.27937864019142
5.00808344040632
4.0609865799725
4.47703719969876
5.334891428876
5.37411171171497
3.93534814886146
1.31117155817625
-1.73558269047113
-4.54198003596076
-6.64299488554476
-7.76851314490472
-8.07814868990899
-8.18713728631555
-8.64688611370745
-9.4072195758506
-9.89757739171903
-9.63422985080194
-8.75860452303816
-8.02374211763765
-8.21739266297666
-9.51409756469375
-11.3295328542554
-12.7749559140336
-13.2933140840737
-12.9662135280561
-12.2689857481426
-11.5200615972272
-10.6340704529187
-9.5224786900465
-8.59633387316367
-8.52500686032169
-9.47266354039392
-10.9320245724199
-12.361507959338
-13.5751793810865
-14.4044884221309
-14.3817731656026
-12.9406886140151
-9.76908416389014
-5.0794508472598
0.202709042801496
4.7577627407906
7.84686853019744
9.93157285857313
12.0199958303864
14.4819968569415
16.7624084454519
18.1378615823399
18.4572930569835
18.1647804206133
17.8828659302918
18.0968717499713
19.013608424924
20.3790029789494
21.4069610883653
21.216565257837
19.525268237645
16.7824969485153
13.6426735958625
10.5848945421207
8.02781071169296
6.38334519856811
5.77311297857505
5.90361754794619
6.36130544663377
6.88400276388033
7.32510041148487
7.59750870193665
7.72509596508926
7.7286547982311
7.36734558640364
6.13433560475427
3.59358617599205
-0.256195877842305
-4.86040110521186
-9.36232470470749
-13.1547134489333
-16.2596811546861
-19.1284110539161
-22.1159869447677
-25.1783307206786
-27.9570962515533
-30.1076795553187
-31.6147716190343
-32.7145447419487
-33.4083561072529
-33.2509760615078
-31.7931763577914
-28.9500361542895
-24.6638973420327
-18.5502835029282
-10.3858025435419
-0.924798785101472
8.09988061715457
14.9459122623567
18.8830344968932
20.3599280693503
20.2770099152393
19.2305352139111
17.5026885713422
15.4545949086172
13.4874837628301
11.6919760307339
9.96554608146513
8.47798929116323
7.59971030014333
7.32090214620129
7.14522873386336
6.65322938314476
5.86206266895881
5.01506028130894
4.33942185160306
4.03129771230881
4.19261502745912
4.69624859790667
5.20247792003276
5.30753327864196
4.72234240417099
3.45819056011786
1.84181019439164
0.247487420997106
-1.13867973654678
-2.23897425301476
-2.91189703392271
-2.9619804658895
-2.26255641983698
-0.894994654610102
0.746385554142826
2.09313900381255
2.76809339992579
2.72179868406494
2.02677057014177
0.821176281792335
-0.499230771358335
-1.35997415879353
-1.40772132810192
-0.68287829493694
0.538300862261191
1.87689623972411
2.98263224556386
3.82916253290974
4.80125031534529
6.21827544831559
7.77351507436564
8.61810160136154
8.03400999788467
6.0215164876735
3.30961609131041
0.776005924151982
-1.24810849945931
-3.06345336194677
-4.98921473698622
-6.92689490581725
-8.67727837217187
-10.3901951852778
-12.4360961918744
-14.9576722443725
-17.6543190174024
-19.8938189243704
-21.0515182800034
-20.8953785495535
-19.6305639897698
-17.5417296952214
-14.7551344368084
-11.3714476591142
-7.55136140509263
-3.36443820816846
1.19647891072553
5.90635210019363
10.1230708271753
12.9456340436816
13.5530519513834
11.6109013098742
7.57981325153626
2.58090953793538
-2.14402593661317
-5.61775600289412
-7.10710027449818
-6.11420089990618
-2.70250390273981
2.18718803405584
6.97310237460791
10.2237369858378
11.3982682728397
10.9291074723318
9.66662225134941
8.29277431282897
7.16730776636246
6.45999964762497
6.26014500316524
6.65236359904835
7.72873354287906
9.3904497919473
11.2216014702423
12.8400390824493
14.2514256896493
15.4710255789858
15.9669495876045
15.0364792254807
12.7130411664367
9.81658591186554
7.10427763734502
4.76454918141559
2.69418665184126
0.823791319560104
-0.968202639931887
-3.01532510270578
-5.71316114989939
-9.14369610979675
-12.8818346285595
-16.2319632901044
-18.6013376018441
-19.5764702953604
-18.8179453667816
-16.1219928444177
-11.555840554657
-5.51973901253951
1.05163798507049
6.50193486297845
8.97383987913482
7.57712461688243
3.02475981403336
-2.94618090523105
-8.62900970731387
-12.92135179451
-15.365835259618
-16.0034427326353
-15.1449306225207
-13.1800883504214
-10.5976157767172
-8.01666092904854
-5.95281331869165
-4.57335644864909
-3.79485237742333
-3.49360416620806
-3.46738734485798
-3.29672862250826
-2.43418129859179
-0.53894241172159
2.18328040487107
4.96826610766924
6.95717894303871
7.731786383915
7.37422010531073
6.20535771917036
4.72706908413113
3.66417278844014
3.67459816638971
4.92352682403266
6.98926315594577
9.04467163837148
10.1290333505369
9.6117416226329
7.63023344694106
4.93944958532274
2.27014372487824
-0.036560885578292
-1.83235603617968
-2.84927728138036
-2.66806368198028
-1.0019315615152
1.88452629417484
5.0517614495148
7.41749552116583
8.54095348912664
8.77041841230589
8.63331847114558
8.31335228470438
7.73209161640719
6.8346704479969
5.65361240843409
4.24608021276169
2.67172181037002
1.02861305489103
-0.460041799009259
-1.46144495250879
-1.79938123473945
-1.69629308055915
-1.64416360699419
-2.09826997347746
-3.30529163093573
-5.14548537847236
-6.98931188965903
-7.99882216552824
-7.82089007861517
-6.85282090979051
-5.72375072412721
-4.68732466088297
-3.61103874719842
-2.40255379240826
-1.28931932829168
-0.599827085299973
-0.241214485973084
0.44263644193675
2.04900171469623
4.38359454974805
6.54537570898914
7.69767580454218
7.58518742670795
6.39317673735175
4.39768836990128
1.88030142291858
-0.728759885114486
-2.82702007044369
-3.95896854806268
-4.22956240591047
-4.22750781295783
-4.37567421751374
-4.54170163278428
-4.51462548852081
-4.61767622837194
-5.47382186843648
-7.29268248214377
-9.69722019796926
-12.1370235616114
-14.2162278110508
-15.6874770107645
-16.2915888197745
-15.6334518781585
-13.3142128349193
-9.33114343400529
-4.30956224922482
0.733567471266408
4.82500081155975
7.37443980361271
8.39359731321077
8.42375346861873
8.0409500529888
7.43547550111578
6.6104565017931
5.83968737862569
5.66539224894686
6.43993953517594
7.93522333862063
9.35659671119818
9.83296097291364
9.09766029002125
7.65512496963527
6.15120656583445
4.72523977066453
3.15220975243775
1.4253622198994
-0.0914599344135847
-1.04146614062792
-1.4054143130957
-1.47507458955366
-1.63851438410384
-2.19366002908219
-3.2394991327323
-4.57125054879561
-5.56983952444768
-5.37420024164069
-3.54337123635569
-0.604263477728234
2.38105242984316
4.87981449837298
7.2557600168547
10.0386307010148
13.0902952307832
15.5499621054989
16.4602274394857
15.4842450259687
13.1143428057266
10.1463640328689
7.00835915981281
3.73263833636473
0.363943196389003
-2.97769613030689
-6.29613821946863
-9.5370193554382
-12.2370963184222
-13.7328815741952
-13.7703078268959
-12.7233407495522
-11.2599175534603
-9.93382757170359
-9.00023376159971
-8.41600766216966
-7.93812010685001
-7.26517184298376
-6.19533223498112
-4.762725844024
-3.20886890353874
-1.7115139024057
-0.148823436491824
1.73229978411243
3.89184081562898
5.86805239978048
7.11667273836351
7.42201927420817
7.00025081544981
6.25616434883136
5.41575259944315
4.42523166682325
3.25355814594178
2.10177563015512
1.10583004959909
0.0304223666810342
-1.44723288112771
-3.28008032927282
-5.12013362690286
-6.71324995537366
-8.03685151700649
-9.17207752634437
-10.1608363888185
-10.876857886506
-11.0178172982771
-10.3684101963404
-9.04409277934523
-7.34836209684834
-5.49090921430649
-3.58997340342286
-1.82956466779618
-0.447586143238954
0.411714674221122
0.807699856432161
0.99402121302867
1.24961696683406
1.70791940774021
2.43731601857307
3.59127374695697
5.23037692834167
7.05148726236166
8.60999251437065
9.82040304995689
10.9403358724658
12.0615038651647
12.9434223852969
13.3843750694009
13.4547655684503
13.2951863752736
12.8797884823797
12.0163415612695
10.5240309185242
8.50322378946251
6.45517148799774
4.99292322390756
4.40876070830416
4.55757368019149
4.97954581092251
5.04195969372558
4.28500012222371
2.88402255406876
1.54550957612628
0.746452089004192
0.266538529299836
-0.450012591494243
-1.74815550222769
-3.67425736487392
-6.17045228141039
-9.19838920808977
-12.7086434381677
-16.4360094522162
-19.6975435262939
-21.6018170322854
-21.6604689738759
-20.1925670259254
-18.1005066284945
-16.2520399794055
-14.9761306594242
-14.0167081222733
-12.937903268194
-11.5896150040006
-10.2023543121684
-9.10909777745516
-8.42313315144395
-7.88717556331837
-6.95666605524793
-5.14480479789589
-2.37244067874585
1.11755946387248
5.12582052140194
9.46639521092261
13.5965407655249
16.7303845534471
18.4530851678329
18.8850081390206
18.2160531414916
16.5091759905673
14.0822952424316
11.7286352228461
10.3312873201459
10.2958143020297
11.335611460995
12.7399578509798
13.8834917087759
14.5234246955001
14.6844289972589
14.4521147356521
13.9290582528263
13.1732287788029
12.1093409345891
10.6782845763676
9.0018154273368
7.13239790454488
4.78571739520002
1.68237922706977
-1.96487671397187
-5.64135583091721
-9.06984950203035
-12.2519637947312
-15.1384706795439
-17.6122239524662
-19.7474098427647
-21.8235909032538
-24.0372852271759
-26.2138331261828
-27.7125185743729
-27.7314543605653
-26.0208781037286
-23.260762939751
-20.3686358495238
-17.418636206413
-13.6374709390859
-8.61828347658477
-3.26179664885789
0.753638612995574
2.45645054415873
2.4517990953213
2.31733715564192
3.2798999230033
5.54006215995788
8.57884644901586
11.7074180725554
14.3534640483298
16.1983754015394
17.2127307929758
17.5319331441853
17.3934422649941
17.1835597370716
17.1829394297689
17.0684249909952
15.9968599689973
13.4843646049571
10.0729224564002
6.99136814873323
5.24849758086879
4.98503659341341
5.41034269774228
5.2971909304854
3.79765480317909
0.994493688396603
-2.30814139360005
-5.2929396901991
-7.60283335590957
-9.28078957394646
-10.4744360119913
-11.2326650067125
-11.4807862535385
-11.1178067217383
-10.0964398624858
-8.42959783420247
-6.24293683893123
-3.86510241445727
-1.74740513139156
-0.230306467610187
0.602856335897733
0.948590474366847
1.21738914671481
1.74662703421938
2.44318441137043
2.85295082446922
2.63262629308529
1.79727325225315
0.586097231147546
-0.626387649980106
-1.35354502153816
-1.2579003437635
-0.381766639722419
1.0728154431777
3.04569363508309
5.46650954007659
7.93177067221244
9.7372629043347
10.2068431247926
9.03690147624838
6.53311732433237
3.53537762818151
0.935621865166786
-0.813449793671556
-1.77401682977911
-2.29445650961194
-2.76492090200122
-3.40071944543308
-4.1195145819512
-4.68721012586172
-4.99601306374098
-5.13218582852213
-5.26249435559922
-5.57778954640621
-6.23275963445767
-7.23158685972899
-8.48343686886895
-9.91364272477043
-11.2319909824494
-11.7003048290052
-10.6347175796368
-8.23493364611492
-5.56532021512468
-3.66869177285827
-2.93289671518627
-3.18604139641444
-3.99680594249225
-4.8047191169132
-5.01018690735044
-4.16482498130109
-2.25224885202801
0.121276026241952
1.98687689639316
2.72660463602587
2.57122293748311
2.36988273816837
2.95192738722309
4.62876368314654
7.0266997476701
9.31597861394094
10.7554483802463
11.0904645774269
10.4957365244017
9.38092819872957
8.35962117213386
8.12894837612353
9.06721894688811
10.9199788039789
12.9481925021383
14.3837421463846
14.8167728946472
14.2937046875016
13.069949709084
11.2563774394167
8.83314634268324
6.03235669742354
3.44373311216924
1.57694596021886
0.440390873400356
-0.436843387955119
-1.71476523290397
-3.85316462449893
-6.74173646910959
-9.76331032049442
-12.3558531881641
-14.3400017667457
-15.6125959637069
-15.8890509264226
-15.029591563532
-13.3804129661614
-11.514619968166
-9.72967139046775
-7.94982537835618
-6.07571768659702
-4.34770327347576
-3.2935104950675
-3.2169516292199
-3.77946764753541
-4.25372897265732
-4.18829770868606
-3.69204994764159
-3.1015767457236
-2.51059800084041
-1.6701947514489
-0.36274285786419
1.15200780402352
2.26026972876973
2.70976338431045
2.97705008086466
3.62273201581317
4.42817066712791
4.53913009756825
3.45068066003673
1.57741711835588
-0.140390255263612
-0.995391308397565
-0.908378963427789
-0.229674631626512
0.780549539431737
2.18681677785473
4.05941201609238
6.13868822862622
7.99822636143716
9.37586749119308
10.1986765352058
10.4574780458085
10.1480293712095
9.15885601120133
7.24390502070082
4.37832632764279
1.10294968480095
-1.78271166657382
-3.84934321084798
-5.14975075028271
-5.85123950455861
-6.06865166056017
-6.02819110724848
-6.14756138502491
-6.82065295048939
-8.0521794331124
-9.28473975797043
-9.7401255644201
-9.06530577695777
-7.55154990544127
-5.66322815053275
-3.54460846226741
-1.12030106456008
1.51457030343903
4.04661031164439
6.25681426263387
8.22905173895434
10.1973658756183
12.173372934542
13.7150456863702
14.1679597887953
13.2385670856462
11.269417670285
8.93192456763104
6.79464754873266
5.17073309376529
4.11313302951351
3.44912853039124
2.95410988768815
2.51713587987647
2.07728600443611
1.51309494521637
0.702473416910651
-0.415366141651845
-1.88559828569357
-3.7111510804768
-5.78728973035295
-8.01717938398343
-10.4405118515218
-13.080282241604
-15.7129677972871
-17.8888383426551
-19.1017261173011
-18.9765493034437
-17.5537537691985
-15.4582182503854
-13.5634175445979
-12.3581724631208
-11.6620273967656
-10.8866618430121
-9.49965776646479
-7.35611894428396
-4.74124042524919
-2.11130545019278
0.208631154129345
2.07030187364045
3.4362248517344
4.51195488626518
5.83175262792008
7.87068475669373
10.5294482258086
13.1920596493878
15.2528223292437
16.4589309999263
16.8982558934186
16.8760831431053
16.7575330623847
16.7909046663634
17.0236901270201
17.3086056961777
17.370091530937
17.0125745672451
16.3174014128793
15.4702533015632
14.3615289114297
12.5598812880815
9.75391677098129
6.12032514569314
2.28767007574045
-1.00125476118089
-3.35931730684967
-5.04110582770648
-6.66829206260962
-8.63564256888237
-10.9011942307278
-13.2443231744925
-15.4409577619829
-17.2075021900676
-18.2387807937131
-18.3731052021625
-17.6525319526241
-16.2823803751676
-14.5836060623844
-12.8573482320388
-11.2046666972499
-9.57269657121917
-8.02839583964424
-6.87140945937911
-6.39598362189136
-6.55377276735773
-6.84049048024006
-6.58903873994342
-5.57859864361428
-4.35794925440804
-3.73677838011025
-3.96038340142016
-4.59709019537012
-5.10849488435447
-5.19145848698517
-4.66667460263535
-3.4497390956597
-1.70696648107676
0.178917359247823
1.86374992876335
3.24018580481907
4.45270722256952
5.70957745424916
6.99401902113892
8.02253190920968
8.56246366619902
8.66893595213041
8.57315323885847
8.55443832004697
8.97340095232423
10.1542579168617
12.0714016114884
14.2591732380003
16.0986115418976
17.1767326645114
17.4422580617249
17.1050942591843
16.3918972085292
15.4167998267226
14.288370829681
13.1822280736289
12.1608580806602
11.0534789880004
9.70336235785948
8.20945151358589
6.72443951574164
5.16789577210293
3.37377409307383
1.39196965825032
-0.563782611593626
-2.36189937000587
-4.00917133383418
-5.55569134979098
-7.01348914624042
-8.31801808553168
-9.40602247134125
-10.3670131047304
-11.386447839463
-12.4829468478314
-13.4419760980006
-14.0115208215919
-13.9992783835432
-13.2696163884489
-11.9329303857423
-10.5106781600698
-9.64011732059967
-9.57567292865481
-10.0924904720847
-10.8022494264866
-11.4512044029154
-11.9897695087904
-12.4582346134326
-12.8435172737513
-13.11682505192
-13.3959181604941
-13.8865611500498
-14.5940860568604
-15.2526285416964
-15.5887891497688
-15.4638495731288
-14.682686783862
-12.8664734466679
-9.67640191622226
-5.14323382740273
0.193637200412504
5.41426457398474
9.64954369134898
12.6060385840986
14.6438366628874
16.2954516404575
17.8341732283949
19.2690722447386
20.4650959445822
21.1866209215303
21.2315360705172
20.5922382454606
19.407026724178
17.8293257333884
16.0350273357423
14.2353037594067
12.5758919472286
11.085926971761
9.71958628606945
8.37176636323851
6.95285377088893
5.56532115946924
4.47703823329849
3.80292195891142
3.33353577305787
2.73950455478233
1.84758356829449
0.773239337278537
-0.0809603782684232
-0.284001992288539
0.18983135438198
0.90562317325622
1.46448701673175
1.85959516865623
2.20195498469227
2.33138721578862
1.90832396560044
0.737613913152712
-1.13803038728712
-3.4990760648652
-5.98197836773955
-8.19238021493963
-9.89082541234212
-11.045961763355
-11.7668125978321
-12.2314374043835
-12.569149595121
-12.7749675878579
-12.8525014616394
-12.9901792628878
-13.4082602372841
-14.064309742713
-14.663518922421
-14.903062148723
-14.6031286596635
-13.7064080527591
-12.2518142822867
-10.2774880644641
-7.73784314009743
-4.61219815340778
-1.07982073324613
2.45767741190334
5.45362070699886
7.37111336745858
8.01392047144079
7.74296888765546
7.16654468310159
6.63894649746906
6.23269262249331
6.04871274185361
6.25113328521801
6.82920944399585
7.52752738179355
8.00821930922172
8.04214519531472
7.68147639289473
7.3025825379742
7.28948540310137
7.57507751547273
7.6489692933812
7.08563490786824
5.93518227623901
4.59693601259655
3.46166520763315
2.66858152284788
2.09002511612607
1.53600263229687
0.960503590233334
0.421114145247779
-0.0596305306551341
-0.476907353848523
-0.819243507667621
-1.17366289354915
-1.67804343750021
-2.25689226660062
-2.59991972581579
-2.50901945832424
-2.10937951972741
-1.68845385778796
-1.47836476388672
-1.5499241643007
-1.75094582649685
-1.8073651656793
-1.59662706088029
-1.23089040520775
-0.855791024666649
-0.546251447866744
-0.386912186469478
-0.431387377665351
-0.584025160760161
-0.70805078124369
-0.823089124445291
-1.04284580998893
-1.36173874338695
-1.63315709465947
-1.73731115680415
-1.70879683754533
-1.72348451761947
-1.93768258806551
-2.26688958404909
-2.40009624670624
-2.15635001068019
-1.72323925555225
-1.40552944107654
-1.27459154469289
-1.20186585556128
-1.08191098075814
-0.895811347485365
-0.682994067292692
-0.518870112533058
-0.428169416029998
-0.34096193672092
-0.211227733190674
-0.0932973319968401
-0.0499224265867029
-0.110268427230144
-0.314708854005841
-0.627028090951517
-0.848558961011926
-0.823313185898001
-0.658959468239874
-0.560562160763768
-0.555678934105216
-0.533197036181453
-0.403742631948576
-0.107983832348676
0.370555470756536
0.925971098138799
1.39432515641067
1.70290588753168
1.86001986721932
1.87031722577577
1.76019154881705
1.59940972292253
1.42605498793073
1.24345443579727
1.11319689762065
1.11913698515064
1.22513165334753
1.29461757438603
1.22070129368166
0.917909155577842
0.302634442597806
-0.544710242796392
-1.32051274544199
-1.76467264464134
-1.88726518757682
-1.8608605229676
-1.82554351853084
-1.81502596116692
-1.72558398349344
-1.36921595778146
-0.653437515490139
0.356176718248958
1.56323265825053
2.84866367979661
3.94213876527442
4.52733862378955
4.53222510297987
4.15656773834569
3.64915310605096
3.20658863177434
2.97934028414063
3.00180941320309
3.19392636290428
3.50213149653221
3.92066410310931
4.38380402600673
4.80179089746226
5.16266865087976
5.43983065721568
5.47645633174448
5.12227949775968
4.42014266583223
3.54602564303072
2.63857828378936
1.7478831227922
0.848860162272226
-0.131703195506775
-1.20159855707906
-2.23758577407511
-3.14106489708667
-3.97997683384656
-4.87015448152236
-5.84819296302784
-6.93795625004466
-8.14179143285263
-9.29848985046162
-10.1677190920059
-10.6861455671828
-10.9347112050102
-10.8920281848545
-10.4442445221542
-9.59946475355145
-8.52607107818551
-7.42898707737002
-6.45604413994294
-5.62395223055937
-4.81699580744772
-3.95036601650345
-3.07029018130542
-2.21818321087458
-1.36317643466764
-0.564263744659532
0.0081254352563092
0.310961077296379
0.510687746080687
0.790389396216565
1.22656789334956
1.81480309687162
2.46896046996384
3.06797495574809
3.60308437219396
4.14340777360254
4.56914217821657
4.53221276268561
3.82661437471516
2.67101828681493
1.54641136989981
0.899806326153002
1.04390732490119
2.13804980232149
4.11521111633931
6.62068249813505
9.00727245329644
10.4836847945148
10.5406635030849
9.36268384981139
7.70852519655545
6.33989713599829
5.58696707286961
5.31112464572854
5.12781777037506
4.76166370260259
4.29033404462965
3.96162189598602
3.79303305946855
3.52916268300035
2.96627046044674
2.13152480430231
1.18555300745465
0.306900516185517
-0.400318669030834
-1.00043042611654
-1.63712901713406
-2.31092806328228
-2.87387329958153
-3.22507964881516
-3.3525273911853
-3.22961866380319
-2.83386380462052
-2.23033499822263
-1.53114472971697
-0.8284530341898
-0.216407751257399
0.213361270102975
0.417459606322952
0.328308225575406
-0.234228114625745
-1.39928182300059
-3.00749122415097
-4.71651636418757
-6.31432868393101
-7.7663477636816
-9.00760018350792
-9.82637276099681
-9.91789203067639
-9.04355507812928
-7.26275443525413
-5.00158357059904
-2.78700176702119
-0.979124067220627
0.190129670482773
0.548902612743041
0.128746821219739
-0.776249821061664
-1.80315570795647
-2.67121293556501
-3.19368279989671
-3.35558909956854
-3.34151500122701
-3.28755701032906
-3.05916047383848
-2.42102726199935
-1.34245776009327
-0.0485125937231116
1.12223843921061
1.88663367181585
2.17372503042351
2.12478556039186
1.88543834471361
1.48715122875559
0.978836002585138
0.517558495870284
0.245881209692518
0.216293254657729
0.493641564006182
1.1811009219534
2.27773501894396
3.61388950155246
4.9304516815654
5.93655198716004
6.39438871213438
6.31929659363466
6.03317774398601
5.89299794160081
6.0057702909436
6.21348485720155
6.24350528589737
5.90444103036623
5.26481565765458
4.5970224089394
4.08284703774481
3.69586423793281
3.39526714803458
3.22649502127397
3.19192047172928
3.22887169114312
3.32671286533212
3.48689441347251
3.61689443934519
3.61872439549809
3.48074871909911
3.17978120637154
2.67341926976658
2.07487510406143
1.61506413427903
1.33741506327538
0.99523327118655
0.287406681846512
-0.916119102398491
-2.5341511297905
-4.34183000468972
-6.12544999736348
-7.82308037270569
-9.43749963752401
-10.8340621781032
-11.7966830295354
-12.2873090130514
-12.4646859109374
-12.4403093498418
-12.1783000014162
-11.6049233511371
-10.6794147844799
-9.43248540343059
-8.0333818176317
-6.70123163939527
-5.50382470817403
-4.39181150135544
-3.40506053967943
-2.6336238674465
-1.99090194133561
-1.21457424559133
-0.0910488534478436
1.39655628393707
3.05101027967319
4.54003132165423
5.62281501914793
6.34020088082401
6.88858315391863
7.34951262310659
7.65021771830061
7.70648126997795
7.5058990007234
7.14006048852068
6.78528138324812
6.52631629750103
6.22118308514191
5.68804377485027
4.96953875737585
4.26615226614466
3.68578628279483
3.19284954118589
2.72592557078906
2.25477266786649
1.78377317372689
1.36291443945173
1.03456294464681
0.763079632917045
0.497696708964129
0.258419088333655
0.0554547999011
-0.181720167859196
-0.478485448932833
-0.750541872811637
-0.963432114151441
-1.18779208742037
-1.43056508263692
-1.60393063564792
-1.69031008912413
-1.7518016411883
-1.79708515390482
-1.8038932731138
-1.80634316681342
-1.83054362568536
-1.84466119961517
-1.85191612005154
-1.90379298011769
-1.98456857436256
-2.00601498802804
-1.89596893755282
-1.60035083027583
-1.10816845882283
-0.570133322972624
-0.240802140678675
-0.217160526965943
-0.365775712552884
-0.509675329568289
-0.534029823773173
-0.358843115925758
0.0176782014650508
0.483422614085877
0.930496335659936
1.34652084924837
1.72820364840878
2.00491594251345
2.09707783297366
1.95838827165434
1.56941193303386
1.01095228039492
0.490757902769509
0.145178092392402
-0.10810669036134
-0.38388510510125
-0.637213997376501
-0.794489092810562
-0.899063802321976
-0.993680283753068
-1.02213323261172
-0.932626477823907
-0.746022716005239
-0.521155001422123
-0.366592751167638
-0.399706971369496
-0.574111909029611
-0.675219128665161
-0.591496144980951
-0.450103830162088
-0.421060035085201
-0.535398574965212
-0.718250578404375
-0.85741612814449
-0.843112449749432
-0.647969413310638
-0.350784270575029
-0.0562955923775319
0.14908754579026
0.205984569674825
0.146369969502346
0.0743399708057518
-0.0086905351230592
-0.244606676339263
-0.702975727591684
-1.26451224519375
-1.78316995808309
-2.19705427334073
-2.41927652613185
-2.30988205312654
-1.84429986556684
-1.17997663767662
-0.543170503622235
-0.161654442903593
-0.201791889027443
-0.577381979399364
-0.915809980345139
-0.882853079087942
-0.462514964715773
0.130938773242343
0.652026025998973
0.932136484604802
1.00830326729475
1.15760994399451
1.62535910783532
2.32729053627742
2.925681760583
3.13927531115935
2.93828934184893
2.55347230106644
2.30304450458042
2.28343062570602
2.26867037086947
2.02606987723062
1.61954078133293
1.28412303165617
1.14756961569239
1.18142772396469
1.27805733990239
1.30257564274047
1.18883690231439
0.997788757754538
0.799627297629507
0.573479683633836
0.3147065240472
0.122498542015483
0.0708368428095831
0.0995016080970458
0.110385948481421
0.052917862263141
-0.122459548901269
-0.43585130265274
-0.768687125925142
-0.933984969779899
-0.871340195014992
-0.679919459969841
-0.519533180174927
-0.534126549391076
-0.744746596629966
-0.988940122805418
-1.10316372927872
-1.11974289323477
-1.13941046613311
-1.14330283915
-1.10305757974553
-1.10421139683446
-1.19022565411287
-1.26002585867052
-1.24618213675391
-1.21967816972734
-1.24925309618459
-1.3190372920005
-1.38882651084642
-1.39916335301269
-1.28455601092446
-1.08869156402355
-0.940201615216791
-0.850917227234686
-0.71618159051303
-0.540748791785131
-0.449695542136873
-0.452459322320322
-0.391329893282289
-0.148277118238291
0.226497724826153
0.584019623347284
0.794199577503987
0.834792945810015
0.812713038055794
0.843367853980753
0.905872512354542
0.894728824818456
0.769243512427122
0.554861794606035
0.297844589998277
0.128421708930895
0.209922793638252
0.498530584636739
0.724697688997079
0.71108525432743
0.538490511728932
0.358403313322677
0.225040301847602
0.125555829756039
0.0276631243044312
-0.0875997989510888
-0.168709839892531
-0.147497626248094
-0.0638357827512095
-0.0068375975387083
0.0363730815739148
0.118200679265132
0.195048773898171
0.216603981799622
0.23841225367882
0.300922401811946
0.330172949761268
0.265638080605012
0.153414725006733
0.066351222171541
0.051158675941123
0.126250550698972
0.218252419591782
0.183887311549346
0.0077041806194951
-0.123417061251976
-0.0391646773425743
0.224644208631342
0.513026603594428
0.697984471465214
0.701391299366357
0.530898088324214
0.331085420739418
0.257546039595063
0.294941971961349
0.309420572162516
0.226183420929724
0.0660798180553441
-0.100766195907074
-0.185947202620611
-0.174198318703294
-0.174688319841605
-0.273498786992391
-0.415269859009629
-0.536387411340653
-0.669634929603792
-0.80757224052808
-0.837265293434408
-0.708343122636324
-0.502833082031427
-0.302536054243168
-0.153872688477619
-0.137680619011775
-0.294783803885059
-0.525870466421576
-0.694242944494756
-0.748121163899081
-0.680442828887079
-0.503674367885844
-0.298814705130522
-0.155396520292946
-0.0670837549738113
0.0141732637171951
0.0900258860722381
0.172197237577923
0.320010106408805
0.532844636752345
0.716741164513879
0.824872333450963
0.909532759480321
0.994658455288194
1.03627641337939
1.02571833435387
0.988878130347463
0.903628056013811
0.750656477447162
0.579183067327973
0.411435214993873
0.189048693516085
-0.105350868604995
-0.393077896490699
-0.596512219709125
-0.681319452319649
-0.635957918311964
-0.509434239742636
-0.393717654677676
-0.304138800991899
-0.187833329955814
-0.0639220986760623
-0.0065323407767812
-0.0099716758474451
-0.0223703711050485
-0.0446041127808773
-0.0608108893866135
-0.0019821496722447
0.0955993015815142
0.0647307525540798
-0.15704117559434
-0.436202327630327
-0.628914619934268
-0.683008451216708
-0.57270938932879
-0.31778364294294
-0.0433439803761005
0.118072658873519
0.139310443802515
0.043469465064195
-0.151861517894436
-0.368676320500402
-0.482058138239555
-0.461683090501202
-0.37792747190188
-0.262976158963667
-0.111990262969799
0.0130058115105909
0.0372312648410296
-0.0221519732511245
-0.114031636700896
-0.213206453123233
-0.262743075988969
-0.205356528989289
-0.0966789446800795
-0.0380227108107077
-0.0325271914427097
-0.0462420757842878
-0.105221508924302
-0.193178576255124
-0.196375869040146
-0.0721427212220408
0.077730849676288
0.173294837235098
0.239776733845548
0.302754362951274
0.348626383569593
0.377074994974444
0.391053108763422
0.391711692140176
0.426519098688664
0.541492439036857
0.68883892084556
0.793958354924524
0.859978802859183
0.898209599415803
0.856932955679288
0.731802363309631
0.630866386459946
0.62023819060675
0.611331434371151
0.489303688358516
0.253700004499181
-0.0233313381616513
-0.268781121605937
-0.407608281725974
-0.397207487412255
-0.272979843702197
-0.099839767350638
0.0648979485592863
0.138500707567117
0.0690486509275321
-0.0697896120267701
-0.179374900367803
-0.282127232305956
-0.41940149783972
-0.510521150431311
-0.474891067022364
-0.378044338060056
-0.335382181853079
-0.397437749928977
-0.577579730794328
-0.828509035697024
-0.98997343152075
-0.936568274347797
-0.741779833882469
-0.549578198554925
-0.387650622122912
-0.235776455323839
-0.123012880651546
-0.0419626747183084
0.073185261161993
0.212583656788629
0.284010860864753
0.261327085047827
0.21472483691155
0.210276905775147
0.264626973062612
0.345562520256528
0.369023556561528
0.282502916565501
0.172462348301198
0.174290650745336
0.274462353493737
0.328330451456031
0.244957495854833
0.035835394116162
-0.228953406205249
-0.394850232276012
-0.303496011924388
-0.0174293429726542
0.20514776087708
0.232380190469693
0.168329233420912
0.129057556278757
0.117841278618993
0.108165713708793
0.0727156919092698
-0.0207819920652887
-0.127588416199356
-0.146891454756555
-0.0890163003087738
-0.072558180920765
-0.135587211474145
-0.214634424664349
-0.278521042203364
-0.31698765361803
-0.27661863327503
-0.159157920677168
-0.0743275750088602
-0.0875342521945595
-0.1425422076308
-0.180344290794821
-0.189994283801502
-0.144629564301557
-0.0320310689176096
0.0792135987536052
0.119357807071065
0.113075903823991
0.119721181730114
0.154130094782302
0.209806660937368
0.260716195930016
0.233079138967432
0.111764074319728
0.0553533601701995
0.235394203034749
0.584147664073034
0.854240558743332
0.883215649954842
0.701499034057134
0.478277740774696
0.41322692771463
0.546644758706306
0.673458523488043
0.586567483981524
0.339481749513605
0.117354494487058
-0.0345959280837277
-0.196858511564057
-0.412051554920897
-0.65509853656552
-0.85852244017985
-0.927231068553312
-0.843529835697615
-0.729107249961879
-0.686111893404233
-0.655860220270216
-0.533660512813597
-0.311339301687057
-0.0480348493988772
0.166441161058089
0.21110604920443
0.0448657653735323
-0.198584490245066
-0.34170576268705
-0.332399593859638
-0.208558743169594
-0.0083310984898511
0.202338906439487
0.330041266027087
0.352122635550068
0.317455018653134
0.243635055259748
0.14036840307706
0.091098786073642
0.145863686335341
0.201415574147021
0.151582070147471
0.0532347004394837
0.0048172078536699
0.0009019266115979
0.0099787943848529
0.0391205533429456
0.0663223404693326
0.054256063417705
0.0208333783352728
-0.021496836326581
-0.107368642761066
-0.202067321933718
-0.19372370007299
-0.0828438073257234
-0.0054972734028553
-0.019727055159401
-0.0475331699163142
-0.0393325472116579
-0.0324929927668516
-0.0661594838321338
-0.149444276354751
-0.252821432252544
-0.28328172249514
-0.175088279638979
-0.0075540243705569
0.0870289988785501
0.0911270838262346
0.0679535112847305
0.042049411753988
0.0153673306642702
0.0105403266877804
0.0220130027910033
0.0153524164155584
0.0089716530826454
0.0517833654763739
0.124284655609426
0.179489408341971
0.231250441222341
0.275262952372191
0.231665875408801
0.101847411487607
0.0265275754916853
0.0663063810718507
0.114041058108654
0.106714065009141
0.105885622927747
0.124443541845716
0.0930627797191766
0.0081839912635011
-0.0674927582030461
-0.112083471840002
-0.120348727004705
-0.0613084081847438
0.0503425387423415
0.144987826103177
0.187216463187228
0.167973120260985
0.0597483990034859
-0.105902308242249
-0.223499550385254
-0.271643977760028
-0.333107055903734
-0.402197416373617
-0.366193879651178
-0.205361749441364
-0.0186993173889081
0.135176933008347
0.251731505910503
0.295676067888301
0.257530483520582
0.218241710468859
0.23874105334347
0.27890040933241
0.304103318366148
0.34846494339364
0.416918224484592
0.457060084018526
0.441810174576838
0.349277823603952
0.121226144193787
-0.206446600640439
-0.440045552633652
-0.447356403187041
-0.32297807994922
-0.241252478853768
-0.280043810245587
-0.413126040755403
-0.527742522049623
-0.483287240437975
-0.286006502441675
-0.120576062281685
-0.113962344289292
-0.201309421733186
-0.27554321742805
-0.298291389117284
-0.248687384359372
-0.142592857905631
-0.0821401097068954
-0.131857301622353
-0.213369861996424
-0.237428018964915
-0.224110487398049
-0.215146212378408
-0.205824160503839
-0.198870441257947
-0.19678322948848
-0.15927847802401
-0.0751753469901756
-0.0077755997087385
0.015253598158745
0.0539548757258501
0.136692481051883
0.21582271085509
0.286667296138311
0.405733872851942
0.557184386490565
0.648996848436029
0.65436404075136
0.625273254442707
0.598763371247004
0.595957384383452
0.623936863586134
0.607929137215336
0.464459059175197
0.26648839211043
0.155875724251327
0.118268442714903
0.0435848605991272
-0.0597790024600874
-0.104556888266727
-0.0811375254170922
-0.0239823774361031
0.0478031611926936
0.0575078269643082
-0.0942485899016604
-0.354844706603074
-0.547270707469468
-0.5945321483112
-0.565519911068712
-0.525451875848939
-0.475770324544156
-0.396948479708157
-0.271211956429
-0.122729888525057
-0.0362305676565231
-0.0458436883944449
-0.0571026249842777
0.0187679758723632
0.136950554979263
0.218808463382086
0.268957781713031
0.304696609757756
0.290481559839809
0.224299182450814
0.170969043791761
0.153064571469546
0.123602454468412
0.0576996492321539
-0.0430183997969527
-0.186805400360778
-0.321388272778403
-0.341620350434315
-0.266933039608956
-0.246767685088885
-0.314979288540154
-0.331396755822531
-0.209416451254472
-0.0169971404253144
0.140444167113984
0.183210373204224
0.0760167640896426
-0.0894219619200258
-0.144860976843368
-0.0600693678134031
0.0366621130959878
0.0715538604434856
0.07946233530755
0.0667637390204726
0.0101648878905475
-0.0495221600096341
-0.0647207872925265
-0.0597045138895648
-0.0558981119839577
-0.0226448845903135
0.048708080182498
0.125145226910986
0.181985841032911
0.19021840517807
0.118629640984351
0.01919433326215
0.0053917614546456
0.0836005780942563
0.13362864577547
0.105200013793365
0.0830771362793306
0.116032622330522
0.142189344815523
0.111635570860486
0.0384651034570385
-0.050738231885681
-0.0990450502998887
-0.0304021923148145
0.1216047662839
0.216146559922453
0.191550827175864
0.10892379069952
0.02073380775693
-0.0450984136388293
-0.0328028809459259
0.0541096931377352
0.105989469400627
0.0582756245234156
-0.0350643004692252
-0.127971608381289
-0.221384755174618
-0.277908627506701
-0.266213423825488
-0.235523442584753
-0.20192842289393
-0.0923372995135153
0.0722907314475057
0.129615876216767
0.0220759500786461
-0.112260513208386
-0.156930047671787
-0.126183016110134
-0.0499459868819396
0.0569243835646939
0.126359746895341
0.0941646533543536
-0.0033631117044993
-0.0820884918365226
-0.095847954295821
-0.0292694949147615
0.0863653718268148
0.141196277503939
0.0740032498312489
0.007882759418737
0.0907956828436559
0.257461021859368
0.324428829659117
0.23682580478596
0.073457572400974
-0.0741261595723363
-0.12339718984182
-0.045692394764862
0.0548034533373555
0.0473773358934548
-0.0463967229206332
-0.105421750965217
-0.0748982839369536
0.0204107550165588
0.118245842587438
0.116063294346597
-0.0256427855069792
-0.162568251395122
-0.11927722958722
0.0610570904508038
0.182373506251862
0.145223908593788
-0.0049349054321863
-0.17438807089557
-0.264248882491828
-0.230866998650139
-0.153577133462755
-0.141628132069452
-0.190222982282316
-0.22028358130367
-0.19514379005333
-0.115804781189432
0.0086873028354512
0.117727602184641
0.126711231428079
0.0467387958738402
-0.0269585558755429
-0.0570196903524903
-0.0680510445839203
-0.0306542967161531
0.107224062446342
0.303201144315797
0.457223127655847
0.50494658619456
0.41611650882556
0.222664044865962
0.0597713710286422
0.0219612936327834
0.018387557330955
-0.0709071144012301
-0.20410755236858
-0.300352176742321
-0.392116716315892
-0.501442090550032
-0.533736390685325
-0.416673878830208
-0.201576029647825
0.0142428496908124
0.137494185854072
0.10275787996232
-0.0220986714402963
-0.0601627845512161
0.0434737103759525
0.162745569772527
0.205723393921656
0.193949826278214
0.130116461713536
0.0066215709449637
-0.0819106900250062
-0.0385154024698366
0.075166605429077
0.13960204060607
0.151142631538538
0.162379479587469
0.165428634883635
0.151612284829772
0.163501324387889
0.203767465195258
0.225205287107164
0.242957916198387
0.299619416010069
0.330753861133341
0.234026696899981
0.0353228380646161
-0.148544934530862
-0.243096843772821
-0.235377409162572
-0.164094645481771
-0.115080161344403
-0.122251730751889
-0.116991679868194
-0.068916471991344
-0.0620037391958457
-0.140873936538291
-0.230132850587369
-0.273977021486636
-0.301813007076615
-0.332792320315633
-0.355868399451961
-0.364791832520961
-0.301835637316285
-0.0902212623207112
0.181763668810222
0.295051505165018
0.201705656712426
0.0902456826761879
0.100319434696299
0.17024533978154
0.188109016451803
0.127463490297627
0.0319847760851638
-0.0282918545589818
-0.0125038939503458
0.0327962159381311
0.0348177873159904
0.0172509513171394
0.0559447224941747
0.127463402064023
0.134466381216585
0.0533874335835933
-0.0695905150617035
-0.194186717830778
-0.239776070996393
-0.0996858284152369
0.179133850126955
0.388662910596032
0.413238021405965
0.32287399234417
0.200390123765755
0.0695109350979261
-0.0246472954373536
-0.045259359787458
-0.0363218395212365
-0.0493011215709788
-0.079895988721873
-0.127246033100065
-0.183333692069802
-0.166184398801872
-0.0302767275984539
0.0962929632815254
0.0550978410678653
-0.125973281442781
-0.288901972321607
-0.323554127802726
-0.221400780667715
-0.0772386572264044
-0.0452603546731947
-0.15886607756969
-0.250588241527919
-0.183290072983372
-0.044418705147824
0.0262075244576447
0.050631794564327
0.10910198887296
0.173110413061477
0.182444268052508
0.160784324237078
0.15352376248615
0.163528071678077
0.185299990901509
0.193329120777177
0.133958470884894
0.0333371960151206
0.0046142108402865
0.0618705727314632
0.0927967753751318
0.0658689453717906
0.0606453634059626
0.0847518129312376
0.0711681246176817
0.0202764161490044
-0.0348913806628302
-0.109144703080225
-0.173294105891994
-0.13505735624144
-0.0147282998497042
0.0391426123108185
-0.0317078493397395
-0.137876199524738
-0.201557769370201
-0.21029185536104
-0.17073907496161
-0.141310468038767
-0.205111489241279
-0.321478702635185
-0.337854617262907
-0.189405762977396
0.042911954529333
0.249502627980644
0.346224706901487
0.287889906647715
0.14287440434407
0.0626178119007133
0.0964849955633093
0.149594030103889
0.163354038283938
0.180708845064417
0.207785096405478
0.197252119044359
0.17913767916418
0.215045430757869
0.24470272206939
