-0.13058988374046
-0.0627946896135366
0.0161839627906522
0.0694588517669116
0.120975124854682
0.16065369516958
0.147846408133904
0.140625576561583
0.233833148006991
0.364995731710076
0.392998605916481
0.334374996522372
0.311633641840513
0.336429975291641
0.3235631483008
0.230018596951732
0.0669022778544901
-0.113501924843
-0.206545828185233
-0.16509583529359
-0.0918258991953556
-0.0943180618548381
-0.143565926232761
-0.18638411579044
-0.245174503956232
-0.315620968527142
-0.341351892538902
-0.338477901792568
-0.371174447371606
-0.413428528685506
-0.390433693785612
-0.294865578769464
-0.151756754007123
0.0154797907383191
0.119098053130757
0.0661929940591572
-0.0762685169161617
-0.137842790311275
-0.0752439240664801
0.0088374738014821
0.0525786439048977
0.0779914960497792
0.0812203963445488
0.0295905163503782
-0.0691812464867101
-0.187550109056276
-0.290045193479658
-0.296112726420072
-0.168372377598564
-0.0225447786069713
0.0150016518415323
-0.0035265076759802
0.0391469704257252
0.13745902367004
0.230761971114417
0.311574741077933
0.360738351732205
0.331574341535457
0.250721332826023
0.190153638222787
0.159829573038523
0.155798705771185
0.21446286769713
0.297045048257223
0.271585731567627
0.115513630744979
-0.0296718098906521
-0.0610104145632309
-0.0041578720188788
0.0874463660426874
0.158940555392437
0.13966838298146
0.0387915921105265
-0.0370545459874151
-0.0429264187202864
-0.0431961593267452
-0.0652116224757366
-0.0669132434292556
-0.0642116333521414
-0.11888214341646
-0.199542655753057
-0.215911438657529
-0.163059793767171
-0.0895952174971612
-0.0005500020380429
0.0802204663250671
0.07650010082305
-0.0036534687133407
-0.0465689717485313
-0.0100084977919174
0.0334992805857353
0.0322122187912822
-0.0110736272076601
-0.0882096349910534
-0.15575003010073
-0.149970943867391
-0.0908002583036075
-0.0477432238209934
-0.0126424683925849
0.0441528345432705
0.0620833320949745
-0.0018325554576265
-0.0626409966608812
-0.0448245864535087
0.013716339965411
0.0820485698962343
0.171984980097817
0.214878052571391
0.118091632481174
-0.053445007046008
-0.149579138253415
-0.142631237774091
-0.102877116717114
-0.0584630615083336
-0.0049717276006807
0.047109506206786
0.102578857876999
0.155531094972374
0.136532439037305
0.0135722202606133
-0.104069604190483
-0.111166203303862
-0.071608337840082
-0.0832951423124517
-0.101753558016623
-0.0577922993456038
-0.0051200038422013
-0.0105080741265557
-0.0428202398463026
-0.0556759844135608
-0.0434696417499992
-0.0043889471300262
0.0327982739946213
0.0045092659722122
-0.0764685117272387
-0.11928760510089
-0.106820374443961
-0.0975287667955452
-0.0863627355310908
-0.0366235446582264
0.0045571109036976
-0.0140866384259526
-0.0492737285470691
-0.0655771512748369
-0.0921412213089782
-0.109516934471103
-0.0642167866346044
-0.0063386925419741
-0.0129225905164382
-0.0284012345913873
0.0236752516848997
0.0822183216959894
0.0751955991544797
0.0555097932218107
0.0749708334858245
0.0893071471157365
0.0821640871099465
0.111700687024998
0.173418794919544
0.179136414014398
0.100459055146228
-0.0091001425422276
-0.111152227784752
-0.163872888705382
-0.0814037501998489
0.143697960486236
0.36541807290374
0.437498108347377
0.345164933808298
0.156438057615346
-0.0286793795516688
-0.102707345880284
-0.0509641043307939
0.0307167667298066
0.0887158576350968
0.157925030770569
0.228444384456599
0.240727221107026
0.214425728970357
0.205489404201091
0.181038619742961
0.100966249643002
0.032482699583654
0.0466149405333541
0.118856227537318
0.206248430662963
0.274899794220097
0.250475223629801
0.112591343053362
-0.0243732566263406
-0.0870553279344577
-0.170109795411435
-0.340462662408326
-0.487846320221259
-0.503903342635856
-0.441078776938166
-0.396338095165219
-0.384334017125809
-0.376291274564533
-0.339949877836923
-0.237837989779027
-0.0934202188200948
-0.0179050694256218
-0.0792750205379467
-0.220837502941613
-0.363107095052174
-0.461094842409619
-0.451575503803625
-0.317442718182196
-0.178981839062863
-0.141241140137945
-0.132774521523306
-0.064477919045228
-0.0025585280254971
-0.0210401060743761
-0.053986998295711
-0.0282399459036525
0.0234294706115761
0.0590180910640341
0.0864008269689413
0.110332192384644
0.137076678247991
0.181494548795119
0.202306986419431
0.155197647072571
0.133025000489437
0.264519138919608
0.479759941110003
0.584270842553321
0.524438821058898
0.392364467661214
0.259505209783986
0.163456154623151
0.13646062943166
0.133065180937234
0.0629988551683643
-0.048685024117752
-0.0792264419357057
0.00361622389779
0.119283946689719
0.215105585131863
0.2800336941694
0.27518868925829
0.200916503826662
0.154302094503109
0.190109197159365
0.226789903726253
0.182001136399008
0.0805162249738036
-0.0154516232383191
-0.066563208032288
-0.0641968060264877
-0.0663084269604495
-0.143404022014779
-0.246106385613922
-0.27015498817886
-0.245294237085967
-0.26814811998822
-0.301248470249657
-0.254117472961588
-0.171493332286413
-0.131490466435406
-0.0878420936398683
-0.0008162992075543
0.0327298034520831
-0.0672976558174683
-0.233156694092923
-0.351536162814934
-0.354765457428601
-0.218449310618507
-0.0123535331477989
0.106571507504881
0.0697203151681168
-0.0240028606678039
-0.0666312312333341
-0.0534471802952893
-0.0094938723061554
0.0548223606860555
0.100465115721728
0.0937407214621784
0.0706372101997504
0.0735327616919087
0.0822235857528133
0.0800127406464493
0.0768796972684532
0.0204908365310691
-0.143378259954625
-0.296545765729333
-0.25109552935269
-0.0350502037576902
0.137974860862438
0.15694055135575
0.0900543547755028
0.0465392881605548
0.094269593182293
0.210124244644842
0.255052993818183
0.136314131020767
-0.0274576365628896
-0.0697767655837886
-0.0174688982462451
0.0100545198421447
0.0052531709773772
0.0015038260741144
-0.040596899563143
-0.129542922849609
-0.185083141024958
-0.169025365260054
-0.123865560627713
-0.0671851853922023
0.0160231558887423
0.109069140210089
0.183727897541397
0.218270413862067
0.173918307659351
0.0595612158566966
-0.0126431930554861
0.0307285176856251
0.0935033121665465
0.0607485544614023
-0.0163169715121177
-0.0301520977601059
0.0042668166474073
0.016409093184967
-0.001358653441851
-0.0432887990987826
-0.114980578990673
-0.163550860698664
-0.138516840002319
-0.0937546555659252
-0.0699302852558068
0.0097321351102391
0.158899927539569
0.220120057247482
0.102659323931875
-0.0661404387827142
-0.151545993691945
-0.174472337155909
-0.194904866869921
-0.222215245662714
-0.261694197956673
-0.301854368114584
-0.290823465115661
-0.210993899810891
-0.0812557258072407
0.124521463461822
0.397763411841775
0.583522493256035
0.552995352777745
0.399724594546799
0.27391382362628
0.164810889296544
0.0191251558317815
-0.100559927342513
-0.127099768438236
-0.0990366950534808
-0.0658302446708553
-0.0286108002036696
-0.0113137131961727
-0.0470977989600938
-0.0911582717671462
-0.0730083898259753
-0.0025812702470228
0.0738750436042397
0.143256795694978
0.18106252039707
0.158236946367958
0.12320992218145
0.13556306419885
0.149376848195395
0.114967042710488
0.0960431863607973
0.12842852609446
0.111916074464254
-0.0136323168822279
-0.15343197244466
-0.216682114386735
-0.215875384102505
-0.174960116064535
-0.115409352833514
-0.107367251033865
-0.172569736782411
-0.2159557574755
-0.180599741974869
-0.137337832063593
-0.132441343049688
-0.116874983521549
-0.0779132558216871
-0.0690480971040523
-0.100845470912465
-0.138019229253726
-0.159215681808203
-0.135619911468934
-0.0469682023642481
0.0465545246752676
0.0753702403324629
0.0897853281861945
0.173228880567672
0.277540252212907
0.303526915541314
0.27452478506557
0.270468679993437
0.279533005428969
0.266687771824114
0.279992365561353
0.356167077119832
0.435235827134566
0.44582664397766
0.352839433280115
0.124336676512753
-0.203101735378726
-0.482695988167662
-0.614835174882009
-0.649008682875246
-0.648159098754677
-0.606197830648455
-0.544241959413778
-0.509145728842565
-0.46889168632702
-0.372404242907184
-0.262747969419938
-0.192956319859363
-0.131248971557119
-0.0481963016669108
0.0393737428809582
0.146404191444991
0.27388288942267
0.319416307929079
0.219516609714846
0.093297042435928
0.0748389606514093
0.139658395511649
0.229256546474437
0.362666999187696
0.511342056986861
0.550398634157663
0.425242769676821
0.221003095721914
0.0361749186359365
-0.0836641810786992
-0.110026200093757
-0.0610636942334638
-0.0192218084784704
-0.0167563424072531
0.0072770748762822
0.073856742256966
0.134274278513442
0.200388792437224
0.314991194566153
0.396321460864023
0.31293164673977
0.08513388971616
-0.147000080038759
-0.28199790361296
-0.282658722576022
-0.169361900725438
-0.0430554598802086
0.0185865108295539
0.0694428356740372
0.167615374258831
0.246298731955728
0.256267563429914
0.272395998760867
0.31105462365537
0.230720398407739
-0.0563817000401668
-0.446731910185622
-0.782889979864424
-0.973080456636358
-0.990067908664367
-0.895303242822299
-0.802594931161378
-0.723875183013285
-0.562792377556443
-0.305923560081634
-0.0661545841643051
0.0862251351330701
0.18132604363859
0.248501034399555
0.304328013559147
0.40162462949243
0.553357218238598
0.672644303642341
0.696322737413861
0.658704621713847
0.567358977250591
0.370830924539468
0.108153749587013
-0.0910979304428796
-0.17616968548046
-0.180188816020152
-0.108375287119563
0.0170447735869241
0.0907277998032115
0.0359914313424352
-0.11333026324317
-0.29634772394725
-0.467949016536388
-0.567669848223641
-0.576278941328492
-0.549868790502735
-0.504621527647612
-0.388429626150715
-0.22768916224976
-0.126382738398761
-0.0800517148764896
0.0285849809249986
0.255418549209291
0.566628871937537
0.899931221658038
1.13200474996276
1.13617463191755
0.968653662232882
0.820282092679312
0.741400079792219
0.616116831729207
0.409841794022524
0.227166287312909
0.135631292543915
0.119860468527814
0.16882833052279
0.248806495044494
0.270445383437918
0.21685872182642
0.184224095646649
0.195998182946384
0.139267591360259
-0.0462735908702699
-0.290609348428588
-0.522604645284033
-0.710687559727074
-0.809340655723565
-0.804500522815286
-0.744356781634206
-0.65274377112303
-0.521092363392105
-0.38812842285784
-0.285205649352219
-0.157671622745199
0.0153291106081578
0.133846494685456
0.130760074467643
0.0475154523274128
-0.124483383455235
-0.461866968792066
-0.921432012715606
-1.36141151094909
-1.73883496740207
-2.06201994989792
-2.22114783647467
-2.0857171380111
-1.68346158154648
-1.13486629462174
-0.530045762295287
0.0542616501552161
0.571485006586277
1.07646275931253
1.6272704839557
2.12042941945196
2.37241908244995
2.33387446979022
2.09157719794784
1.72897509561077
1.31673047461258
0.951558093238515
0.683446168092308
0.482566404159701
0.328737604620899
0.235266988785385
0.190337285278667
0.170382723119439
0.154732918545573
0.0756267108754468
-0.112398544343909
-0.292535976398756
-0.302725713111559
-0.187356717075869
-0.13037159307376
-0.181246203999279
-0.24296147730738
-0.250961506654472
-0.192156068451459
-0.0487165471219876
0.159894936241048
0.39045527956493
0.649108731242151
0.902608719315399
0.988179215015557
0.804863892711279
0.48627324912936
0.206169164765288
-0.0375288111018946
-0.301506700742164
-0.541911108280005
-0.700305404511868
-0.785232725038772
-0.807763631186404
-0.779245959700226
-0.776128324942686
-0.865990319637223
-0.995705783736426
-1.07384163112287
-1.10321362967988
-1.13130545445177
-1.15868594887094
-1.1681028275226
-1.14311146870763
-1.04318003657548
-0.870327235076311
-0.707440629025693
-0.57843723274125
-0.382734639792228
-0.070666100116999
0.260906796394868
0.513399443188736
0.669720395532781
0.729504976021983
0.73120259735109
0.790580153093995
0.952594737679561
1.0885076969873
1.06276869424669
0.875572627515877
0.578173741088909
0.230223306668802
-0.0395475230666601
-0.140828178036534
-0.169739372346649
-0.256425506116018
-0.346685847627824
-0.308554114194908
-0.137105341761855
0.0774448408179374
0.251827826727274
0.313831096466301
0.249960750119922
0.168336593840206
0.187782759882171
0.298382912571206
0.433906558652875
0.580284724439757
0.702127643874781
0.706233823197418
0.599628920784495
0.528334418178272
0.562090589475495
0.608927198682333
0.597512104380788
0.564961906013159
0.549544803272829
0.556821198462539
0.599490205923163
0.652466727813713
0.650542487756124
0.593198048062794
0.52218420325735
0.385867602811898
0.0947443010810879
-0.300312154151316
-0.634321839853452
-0.785311238770325
-0.715121847545343
-0.474049943919292
-0.226373962542249
-0.112539526732555
-0.0585678127539415
0.121013024487287
0.464933552168896
0.847132283066177
1.10647290844349
1.07413365631251
0.641066081301828
-0.0819785216320201
-0.821326572552992
-1.4060228961552
-1.83101008865592
-2.09234369048645
-2.15548812559501
-2.05880360568343
-1.88028168992685
-1.64900274270312
-1.41103799191294
-1.27068863197549
-1.2501326894498
-1.25473584413727
-1.25819232816121
-1.32916575437718
-1.4271858732645
-1.39774360479398
-1.20172825601361
-0.954730842533829
-0.750080527778985
-0.580799440858709
-0.367802475902477
0.0131124731360567
0.612437800400933
1.27918744457278
1.77194315448277
1.96675387852695
1.85630264103149
1.47502618025203
0.958705291691252
0.536256617378112
0.35640595432251
0.435548514587531
0.744565451928208
1.15423763843088
1.3883320793746
1.28436481014441
1.02563652390593
0.923709230412408
1.08283712515008
1.39457405242204
1.68728233037367
1.78840958567213
1.61599003924447
1.26917242164685
0.898670599793306
0.519352803427165
0.0911353448985607
-0.307568763729004
-0.560956927238071
-0.677186765018834
-0.723769225091934
-0.720033322618514
-0.69874384103957
-0.724207023513108
-0.778202472614974
-0.7676941690345
-0.639270852127198
-0.360258067330175
0.110014444211119
0.691602535327478
1.1691005977808
1.41623795350469
1.48788207337719
1.46196559371908
1.37549734700901
1.29085769141529
1.22625163223044
1.07547106545614
0.758176151350316
0.346794554021613
-0.0756588101340663
-0.539955441560306
-1.08622430664494
-1.67337927752755
-2.21855052703675
-2.61775423018358
-2.78730568842905
-2.77666573671414
-2.72492059825287
-2.65473774800299
-2.47456093535709
-2.20203641264414
-1.9867112752339
-1.8970851542487
-1.86261536069869
-1.81371532690543
-1.71837698298128
-1.51769181682543
-1.17488228976847
-0.747579409595298
-0.313441662909748
0.100236877236136
0.468599753706491
0.770795282434716
1.04292460694132
1.31044010203638
1.54178653657105
1.78163596508837
2.16452161049949
2.66566226573958
3.03472855123257
3.09436174091482
2.92970691898569
2.74066834139374
2.67110317106398
2.74829633744604
2.84078963611353
2.76583085062463
2.53410604207677
2.32057261334107
2.13586446205065
1.7616521253351
1.07199124183427
0.203991400771464
-0.608955650154391
-1.20930349428056
-1.58385379662167
-1.8988781159273
-2.36792498421656
-3.00647622503786
-3.63844814738778
-4.1354606960434
-4.47935356310335
-4.64559747258646
-4.63372233567587
-4.55342474256463
-4.47582858483897
-4.25772905515347
-3.68441673093248
-2.71027045207651
-1.42946591764954
0.0745382823839166
1.73739864558244
3.46750131258928
5.10744890501778
6.33983904237575
6.74623394520542
6.16355505087568
4.90813031898069
3.51752243423312
2.37342289324772
1.60326019318547
1.13995179999655
0.812312875250436
0.515746125963652
0.287788545588512
0.151230805690917
0.022264152391695
-0.156883997578085
-0.38319421916065
-0.716658142976089
-1.20410360160907
-1.6949708874523
-1.98392750981031
-2.07889582960894
-2.10253281168778
-2.05506615677497
-1.88645356207868
-1.64946259257988
-1.41103904547245
-1.15978617340617
-0.890772193032152
-0.62824726227713
-0.340478885037589
0.0133586171205038
0.371933838967759
0.64561975495396
0.835320677664074
0.95472677975305
0.94834107762707
0.805184001552312
0.615312671198985
0.428121812573788
0.220155109797762
0.0436169151235197
0.0136719403636077
0.12363662201917
0.227151730367443
0.192264567099543
-0.0020685606899693
-0.238178055268095
-0.306036367037315
-0.106199589819244
0.214616294304066
0.450843804414025
0.559373964708012
0.566846680499977
0.419812191390597
0.0823610614441343
-0.347660694617789
-0.706643417881791
-0.846198071926581
-0.699005752948098
-0.418145755172999
-0.322206351902841
-0.5265831387915
-0.801889066712786
-0.939093259917695
-1.01319962301878
-1.14700695598501
-1.27268844324188
-1.27138033386451
-1.15077278754226
-0.989419627778887
-0.84605306598702
-0.756717458402235
-0.719429021789577
-0.695500229740609
-0.676546842431641
-0.665048017604183
-0.568213997063532
-0.272252659432201
0.153257170090077
0.505037660134117
0.695947590165169
0.783577803098452
0.819831895805916
0.852971918345503
0.97479473039691
1.20373475502823
1.43194093061454
1.5809896490264
1.67529047661561
1.73386435314724
1.74376950901758
1.73089857645335
1.73172296000934
1.7541567153519
1.83849289112554
2.02766966340008
2.2382379444968
2.33098282829599
2.31440107703528
2.30416446403694
2.32219436690311
2.28678242751644
2.11181261848255
1.71468578329419
1.07475068520476
0.354321498289902
-0.198301878057963
-0.492996939113586
-0.612090083827999
-0.636386349820238
-0.607513633913848
-0.587177738572152
-0.616941688154196
-0.698880210826225
-0.893822526659137
-1.29756584397703
-1.85344484632353
-2.36430011221714
-2.73446381158118
-3.0003633994668
-3.11218814543054
-2.91312745697162
-2.36288358125148
-1.64042439650774
-1.06387385265515
-0.973893045455239
-1.54911228925531
-2.6389527959528
-3.86814772169621
-4.90408437155188
-5.55122807676447
-5.72457798950497
-5.49087360731189
-5.02137105522547
-4.39929726111358
-3.61364102322617
-2.7699678089193
-2.08638751244045
-1.63078600981568
-1.23364546385108
-0.656412033677284
0.273688004445582
1.60821541157813
3.23873342634843
4.979741341617
6.69350196979825
8.23393550424238
9.38422381525039
10.0554737762599
10.436309980356
10.7155564713959
10.7500632929163
10.2288989459766
9.09100059410233
7.582749152971
5.95632235732287
4.25497524887692
2.35425090332828
0.16266345174569
-2.1573030127089
-4.21436262257424
-5.73458160657795
-6.77122854512486
-7.47536720738327
-7.85905153042915
-7.91231507137934
-7.74361966463921
-7.48884738734138
-7.24603376394751
-7.1143382510524
-7.1109253454626
-7.07162174996853
-6.78859719052213
-6.18715284515558
-5.28483337446215
-4.11286530987509
-2.73193554276381
-1.17683093971404
0.586137557938171
2.46697268523246
4.11500942681311
5.1840671130117
5.63878312270053
5.6708978527649
5.48543631944781
5.26377281250012
5.11490742257879
4.94902265672211
4.55091049838237
3.82394288616468
2.8645072248483
1.85752223656904
1.01616333075231
0.509191016120864
0.291933433188161
0.110794140872714
-0.194173140706527
-0.496506542924236
-0.577288917580144
-0.396133664833497
-0.132454188909922
-0.0607125700735985
-0.353459579052525
-0.912083416992758
-1.44924393967751
-1.75051546309158
-1.73399484143738
-1.34572916257073
-0.650894596034669
0.0567125948697496
0.527799614293145
0.879040699674318
1.4134570486674
2.22723991986202
3.1749570579409
4.07150398367382
4.77811200777203
5.23950476999134
5.53163756926569
5.75891471197906
5.90327574200058
5.85102790863714
5.45427071556669
4.49100127112011
2.76103393609866
0.346893569815206
-2.35556050834435
-4.92363149723381
-7.11406759626914
-8.80711718288974
-9.90213306778958
-10.300164802125
-9.94539795560406
-8.94254164928448
-7.65404923681015
-6.52490323319718
-5.73454839309368
-5.16911214478769
-4.7626326327382
-4.63568511314118
-4.82484940191708
-5.08201998968113
-5.0342318228264
-4.45108742761058
-3.36261769059963
-1.98227325525316
-0.489354984758188
1.09543435721861
2.75867808099283
4.32906509608582
5.59254455970973
6.45004502351553
6.8506450343607
6.75027935138149
6.26009973194636
5.65027246212969
5.11236050636331
4.6759119115719
4.34257094437142
4.08589131296856
3.76419833744925
3.25522473785595
2.63543072145312
2.0799054648934
1.65917490458855
1.30579712931525
0.873895706747991
0.217108301169856
-0.665915601540632
-1.5714357735056
-2.2740555049104
-2.7234091129405
-2.9855755384577
-3.08400353251771
-2.98270312123896
-2.64177038160509
-2.05223797858848
-1.31146483744508
-0.623741589667244
-0.0855581450761143
0.431716676056098
1.01879021738706
1.5014881083259
1.65941778578555
1.50410329994879
1.19518865227923
0.860563829099607
0.588048533455165
0.421366965890179
0.348377804890853
0.437811122343856
0.889645564510134
1.77443671963189
2.84619647153655
3.75335192026574
4.28447070705737
4.33351081241054
3.84064504685614
2.85970163043644
1.54134420570672
0.0563331404810968
-1.3564505240712
-2.39038012406886
-2.87634287192551
-2.89537586092144
-2.61284437164656
-2.1263787008213
-1.5153718155288
-0.901927608157847
-0.412568873951673
-0.142735665044568
-0.138001398339342
-0.346561340671965
-0.629913593980469
-0.870366753472498
-1.02217729739565
-1.05311672993474
-0.923762301782082
-0.611638149391042
-0.0752310102269061
0.713267717243482
1.58487536015664
2.16668391528875
2.19517981756157
1.69336962675813
0.762991504478591
-0.57651012037026
-2.24147003165675
-3.97609457663978
-5.48616187641087
-6.57397151470054
-7.15229490671119
-7.22816037362843
-6.83569361541649
-5.95022877444146
-4.57259316609078
-2.8956433943207
-1.2332133858883
0.214582510365936
1.40565618257313
2.32693811395566
2.92990397072969
3.12066325040881
2.78497600881276
1.96551383508495
1.01903797012908
0.431845010064774
0.470109874280415
1.09655283332896
2.10903951045542
3.20166247594142
4.009227950109
4.29680627509202
4.08656914458072
3.52316511272973
2.70593941097601
1.69631683101792
0.540477627704598
-0.767894240767794
-2.22626466573605
-3.73835522147959
-5.1800379008306
-6.41803682973261
-7.15433141404453
-6.9767410503713
-5.75271465855833
-3.82187720975567
-1.68524273900725
0.375130567310235
2.35552394331635
4.33461951052485
6.18070990790735
7.40803761729559
7.50275388762709
6.47818741721453
4.92996340535638
3.51588308026237
2.5746266652417
2.17891047309367
2.24998998004892
2.60270177577908
3.08255126688732
3.65424625175112
4.28677164042271
4.86370832181089
5.24013634459713
5.25817962409678
4.75412794778852
3.73041045516241
2.45423249714732
1.20381399145526
-0.0031873795978842
-1.28065434606724
-2.61705424628797
-3.91493963686474
-5.11946739581168
-6.12572702616768
-6.71413573987503
-6.72923782101144
-6.18615186667323
-5.13230920918376
-3.58114785714001
-1.65936291521761
0.284251502965035
1.76060419960607
2.36185278160339
2.0108214072787
0.990061471221689
-0.35645291855856
-1.86131670033856
-3.38913506684693
-4.6493074919606
-5.33490321580086
-5.33852095377283
-4.76061807286118
-3.85330464437548
-2.9559291840097
-2.30023780211981
-1.89395969165964
-1.68409390090373
-1.6393133689344
-1.53489719713795
-0.936674785321191
0.378108453428414
2.14807571147797
3.8621498237937
5.09886523146196
5.65570515613748
5.58207883112316
5.12192709641856
4.49613534547282
3.76152933990395
2.93405496433551
2.11663944915559
1.40651218677956
0.79366255228774
0.214297917803338
-0.419575788077903
-1.25663528607351
-2.41983860948545
-3.86197512924861
-5.35684196501746
-6.53488582919329
-6.93364922076108
-6.2795759129164
-4.80039617641216
-3.03196039277915
-1.32051203261625
0.217783070662296
1.32417778544108
1.58016571856706
0.852675598197392
-0.448141966354242
-1.60731554675648
-2.06234228139934
-1.72403752281084
-0.913891190821143
0.0337843085398816
1.01664096514529
1.98696887876679
2.78395014983573
3.2723183535947
3.41452102566551
3.15544179475094
2.55833380682015
2.09020412449338
2.38118813072551
3.57582217668626
5.16882653521913
6.50046178441648
7.20247630840596
7.24022655837092
6.80564475053855
6.17970385823172
5.53793442482488
4.90571315234555
4.30997895470764
3.78515755726254
3.20143248233069
2.3217820262671
1.06551494858481
-0.466400508850804
-2.15541107825985
-3.8289936255831
-5.14649434897222
-5.76017360173653
-5.59404079429281
-4.87575487236142
-3.93290929654421
-2.99854780125604
-2.20726410888473
-1.78475909092598
-2.12335182046638
-3.45522739122396
-5.48053474212603
-7.55460848719324
-9.22642146446586
-10.3840060603592
-10.9716963793235
-10.8678953993746
-10.0259819503552
-8.51428052046856
-6.42444155703134
-3.86328200576621
-1.00742839791482
1.88800766089794
4.54302866764548
6.80273446426533
8.77543977563607
10.6641990266304
12.3684473567596
13.4281337665196
13.4958931060743
12.7174673065643
11.5319576438247
10.2663362509015
9.05040452982281
7.93984340482361
6.93698369871668
5.96974874768421
4.94863924143505
3.81119838728668
2.50821120827921
0.967865738304594
-0.952831060728877
-3.39535378590622
-6.22178936069699
-8.88891457326558
-10.8032029944857
-11.7636492054406
-11.9458488038139
-11.6059678144275
-10.9558778808857
-10.1839710157752
-9.45543255043855
-8.94718409495301
-8.82199691435369
-8.99081447075234
-9.00698740184674
-8.45028654046007
-7.35489645878026
-6.06913651848799
-4.7935111859127
-3.42265489529134
-1.76080791899031
0.197853904308509
2.12619092484592
3.49677040787293
3.99724083684721
3.88100917022866
3.87008578703278
4.67492298509983
6.50817910464283
8.892483250372
10.9149307401894
11.8351074366879
11.5340745130298
10.3573392812842
8.67031092986934
6.7294132629264
4.78153162516327
2.9931540584729
1.38068171428176
0.0082394347526921
-0.881037075343819
-1.07991331399732
-0.640612073328224
0.169252699528024
1.01381673786761
1.64430784932966
2.05754454520882
2.42361199458578
2.77816491350079
2.95516415894899
2.85751889218569
2.52199177682327
1.86481322479028
0.666100622191726
-1.09908588096502
-3.10600319310446
-4.85948355815768
-5.9203974368648
-6.09895856998361
-5.57347581319365
-4.69643705468812
-3.61930427924092
-2.25636831688899
-0.613702855204219
1.04637788222143
2.3933795446832
3.24629694277016
3.62631463175853
3.71792357024235
3.75218842532389
3.83245170957854
3.89006008116401
3.82252828658362
3.59758691428483
3.24913151722862
2.90839106241122
2.82161717917434
3.20239602387912
4.04662641698252
5.08512279037509
5.83074421182305
5.75618166331612
4.64778430350122
2.75648311392686
0.45097445893252
-2.11403057368943
-4.79489034340693
-7.20694380177045
-9.02760462913586
-10.401234816449
-11.7388866380362
-13.1665757864563
-14.3296564240818
-14.7015296347181
-14.0440369005084
-12.618215078586
-10.9473229040435
-9.41774664550262
-8.22874912422701
-7.61459605215253
-7.80115101768278
-8.70729683710305
-9.90757028655998
-10.9123462525419
-11.3752655745252
-11.1336988727615
-10.2145689393125
-8.72946617599073
-6.65505642258799
-3.81662002096288
-0.168800763889267
4.02146455777125
8.30985826718827
12.2669141541639
15.5645671508672
18.0424269713959
19.6764883772062
20.4302240782493
20.3053234073976
19.5787447641271
18.6939826067608
17.839020995049
16.9392095238782
16.0865564173267
15.5775127940661
15.4323975791226
15.202312336409
14.3518525355233
12.6495977820698
10.2044865209641
7.30617581998578
4.24150090251027
1.20368217279628
-1.61977212691249
-3.98020841823523
-5.73197668497617
-6.96928957267624
-7.85292536613572
-8.38957348056539
-8.49818570919122
-8.23566563831432
-7.91094768379715
-7.97822457417758
-8.71058542511771
-9.91415186756092
-11.0943439382729
-11.9571731422033
-12.5897909578656
-13.1305981415148
-13.4874690699416
-13.4271447931081
-12.7238568901049
-11.2090324706537
-8.91028872194888
-6.11393257839922
-3.06686624834141
0.23884096150545
3.67546437066066
6.54972238977397
7.99199804036402
7.81498109298899
6.76780269221904
5.88294056056801
5.59812281571126
5.50339885509697
4.96876470433173
3.95190775116737
3.00070030532272
2.53168948027107
2.44911575271977
2.49387942137801
2.60670610489897
2.86570375953076
3.32697375467894
3.94527657154839
4.46722068827588
4.48330374487996
3.73444949279862
2.25221498842221
0.176678451282968
-2.30062129548434
-4.78428210513372
-6.79561229605849
-8.1740919849482
-9.18096746007619
-10.1680213396628
-11.2784514478802
-12.4331215130308
-13.4320956741627
-14.0319901852567
-13.9791491866804
-12.9745201227626
-10.6998826296547
-7.07730818655387
-2.53872828383276
2.07324501786688
5.89011612667553
8.38966670064005
9.69298195243878
10.5701277641636
11.7970787047537
13.325159842606
14.3305555421571
14.1761066275005
13.0884401223876
11.838545236358
10.9590511251803
10.3115100695634
9.31741714762546
7.62200388644473
5.51592703346507
3.61015014281568
2.2020801409132
1.15841803883577
0.290664513032123
-0.42576024575445
-0.95356372117461
-1.33570837189894
-1.76180415669182
-2.48527475256549
-3.52961981403489
-4.53040403916041
-5.03947430769421
-4.87305556718515
-3.98995049445234
-2.25567449534008
0.341822405050316
3.32077799391991
5.7998555707405
6.95223460191751
6.31814836022796
3.9093048814593
0.239599045138123
-3.85379408398255
-7.61896779546767
-10.6673150179755
-12.9165670011637
-14.3988644530554
-15.1450148823954
-15.1952904271993
-14.6754667813578
-13.7333611352129
-12.3162422045654
-10.215608937657
-7.53329737809316
-4.90391248146618
-2.98811612596404
-1.82514609923108
-0.788108618337793
0.96376575259734
3.95847716730541
7.99564925519626
12.1340937603575
15.2771028159639
16.8214119231317
16.7542941407704
15.4497706764241
13.5780257659685
11.8514021803713
10.4836787828795
9.03353018573235
6.98366884669981
4.36996384246016
1.7683564250413
-0.205638062387013
-1.34435427568032
-1.89706661284669
-2.19279518379609
-2.21991976677463
-1.69121511561482
-0.532191804322675
0.85431550543752
1.81147054873058
1.78553899579696
0.627895780005323
-1.14739916170688
-2.53867486125427
-2.88313711891769
-2.51792796425047
-2.37016714283407
-2.92076315776175
-3.77380606810122
-4.24595089589541
-4.23872744034784
-4.42212096668804
-5.5112501283558
-7.47532194200075
-9.63855836562358
-11.4199653488224
-12.6283552794131
-13.1123607261186
-12.5785228688443
-10.8635762679511
-8.14413814261441
-4.89972621268951
-1.84063934959492
0.321786190007613
1.3305151477124
1.56449286236154
1.68986658932419
2.27190227092899
3.67448499189107
5.96866847259697
8.77358817784143
11.3904241830936
13.2566866296193
14.2556373117793
14.617566981679
14.5942432472938
14.1669942919065
12.9918441832333
10.7056152415447
7.35090775800852
3.43394909274751
-0.432167561972874
-3.84745810689228
-6.63798032783177
-8.67628882037757
-9.73734964930012
-9.64630857425523
-8.68866681175039
-7.67269944893892
-7.28739725630119
-7.48856097283712
-7.700682137503
-7.41018818967399
-6.37004142574413
-4.53552698281567
-2.11882140032754
0.446555750758283
2.79259612366823
4.78597458111787
6.41431904130148
7.68071178634943
8.59693243098746
9.14084841422005
9.25897218540374
8.96040640923746
8.31570128284547
7.40343817601616
6.39686529785537
5.56269858571287
4.94694371485937
4.19981010428635
2.94177058487377
1.17493155150818
-0.836821171621353
-2.89956917355868
-4.91718376431871
-6.80757354089388
-8.59890523057553
-10.4141881553173
-12.1827772326482
-13.5579946107478
-14.2564990680606
-14.2904291583758
-13.7677544114035
-12.6387557402265
-10.7312700540319
-7.96933256733705
-4.57166295722095
-1.07578590201066
1.91475325981362
4.09316334886518
5.59987764696481
6.89753842009424
8.51780087690057
10.7687883623044
13.5125590345211
16.1278021558753
17.6002123111194
16.7991054141515
13.2024614131837
7.6667183534661
2.10575383920076
-1.99475074021904
-4.58004569279019
-6.44310956969247
-8.06200191970216
-9.2620281104807
-9.67132340149562
-9.16721832627542
-7.93145892465292
-6.20133291807716
-4.05122822507256
-1.54873711969038
0.915410614849467
2.74159906541498
3.6713194090447
3.98687441631281
4.05591697909826
3.91145497305091
3.39801668961544
2.50526829510569
1.4062593531336
0.293123293974314
-0.71934720178505
-1.52559259144522
-1.84247908874305
-1.20363420187575
0.599106188627148
3.06720813011372
5.25725705855833
6.54474306857347
6.98284291415961
6.99475186525947
6.90150222102768
6.64548829700199
5.81146303081445
4.03805180594352
1.51149499299212
-1.11138966628718
-3.33941998566679
-5.22388455114381
-7.05872398997116
-8.88979587035787
-10.3821911921995
-11.0772542146237
-10.7612436197942
-9.62293051117446
-8.09114257122959
-6.61473087085429
-5.59787939361982
-5.29265501142818
-5.54244277642092
-5.76537856902464
-5.41788630470404
-4.46138338819639
-3.26117948227455
-2.06460094710669
-0.684040782147303
1.25357174215493
3.69594809565695
5.87251560356161
6.91174417973085
6.86515098756831
6.72545134119333
7.16167179679904
7.631019862015
7.1016656911853
5.33356884679869
3.08708124605427
1.27991821259043
0.205411566342053
-0.5658623046521
-1.70585374254683
-3.48544429245581
-5.46973325497978
-6.76333424302374
-6.52658869185946
-4.38908471568326
-0.58526043696621
4.22927201319188
9.28797897474188
13.8222976352973
17.0675680645963
18.5474510958317
18.412440013912
17.2351444556549
15.4540707918175
13.2110405430815
10.623736133853
7.94595824908551
5.47727078386779
3.39919694329389
1.5355790572638
-0.780529064666347
-4.30040047544513
-9.13629355861268
-14.6214992521048
-19.911998401278
-24.3912032557854
-27.4270839672878
-28.2333522896549
-26.3538972487006
-22.1443185986327
-16.5759977566338
-10.6368855863045
-5.028408937018
-0.375391140136302
2.55092748708167
3.23101588083648
2.16070493939655
0.841548406270077
0.632302224878714
1.71705316460065
3.34213120480907
4.76858659467845
5.77819074190236
6.5724767554075
7.49797545538816
8.71971387866506
9.95579441339979
10.6050664741562
10.2232149684168
8.86104638402665
6.98881794050405
5.12160178315919
3.44475181657205
1.81451160192049
0.165367965966035
-1.2485320736942
-2.1558713950457
-2.63526929468452
-3.01030830324021
-3.50074313876545
-4.05650830508964
-4.36087151661797
-3.92918709102903
-2.4089807756187
0.0918406621846787
3.04418313875804
5.85070494556401
8.09751254690008
9.59061751080813
10.2774972459999
10.0476628741728
8.64325460478016
6.01707182438827
2.71496065978049
-0.471977423654696
-3.22906387361964
-5.77562887200168
-8.292500361677
-10.6092899231187
-12.329744232826
-12.9934869257236
-12.3248934852028
-10.642026281732
-8.88522435183463
-7.98871970070231
-8.23328464723084
-9.19244506964801
-10.117299803182
-10.3435778305928
-9.49811021428443
-7.45657669433557
-4.27523127891479
-0.327528134028485
3.67787996479419
7.18197628978365
10.2405163175068
13.192864118648
15.9154700078664
17.737445631779
18.1332557641367
17.2530151932702
15.7056785841329
13.992511159891
12.2758422325294
10.6911302841389
9.75386638057507
10.1689155168368
12.0215802759969
14.3103813209499
15.5056008189316
14.4692421165649
10.8059075168985
4.81118798841191
-2.49176982048367
-9.53748715900591
-14.9496263671101
-18.2171767427801
-19.6271992676453
-19.6971378534814
-18.8213711834247
-17.3857743372654
-15.9599785484981
-15.0538272733231
-14.555931176031
-13.6573335731974
-11.5987830672104
-8.40597111813583
-4.78514948151124
-1.53784114506544
0.786746558789906
1.98986252104429
2.23887926535285
1.84416547825193
0.9403081695344
-0.460165618400278
-2.1351440225933
-3.60822303932835
-4.47288179483243
-4.66185905996841
-4.4284691096019
-4.11928223944259
-3.89902285620785
-3.66002949985709
-3.22872577442509
-2.55630746463279
-1.5681368328884
0.0056303580094556
2.33430542661012
5.05379358369737
7.38925265615216
8.73145603507366
9.02139663370643
8.73796506306925
8.62358440657582
9.18918469644471
10.2619460993338
11.0509007319286
10.7094603291485
8.87723550234267
5.87356909914547
2.4978783245754
-0.499770935733969
-2.87971491501464
-4.82450041296182
-6.48985644230643
-7.79016140782092
-8.48429489198301
-8.27237316153915
-6.94303511892241
-4.58785052961381
-1.53707904042785
1.95828117312937
5.75265641223807
9.50805202951011
12.6457494588812
14.6361103440385
15.1896836987322
14.3089874961388
12.4241073928234
10.3681420165508
8.89561380743306
8.16812452923125
7.81500740297369
7.39724034794618
6.66888799580672
5.53540434316826
4.01359274267784
2.25048196124737
0.446642350024688
-1.31090225226798
-3.13042557738131
-5.13759671526933
-7.12402846732061
-8.49050919723218
-8.73383804666701
-7.93232315760322
-6.63116072312592
-5.409986825148
-4.689689884604
-4.70463675951493
-5.41725694372362
-6.56774475747567
-7.90188741208907
-9.24372361081997
-10.4165003042327
-11.3314128146543
-12.1061008156828
-12.8809474953382
-13.5994492304802
-14.1475730659701
-14.5726914847763
-14.959716101982
-15.1520779691839
-14.7322256175189
-13.3480786757199
-11.1738140713949
-9.05804602936207
-7.95776935139934
-8.0179237908106
-8.29451365097665
-7.4545990501981
-4.65050618749295
0.174821339648702
6.42585055174126
13.1289303405819
19.3151704567119
24.2640920374246
27.3442223718086
27.9549702267947
26.0945954121957
22.8116175124651
19.5428149809671
16.9194417664703
14.4407152077871
11.2255933919186
6.93107286758332
2.15054373862943
-1.84355072335255
-3.8605797036106
-3.56482197887138
-1.67496554893375
0.537492342291511
2.05285448052896
2.59928452400077
2.41494823004765
1.59477094032368
-0.0508430189431369
-2.40371711465576
-4.71546080101173
-6.20682295137076
-6.7606415469838
-6.77030205669357
-6.52995321135813
-6.04339655392178
-5.31551904128702
-4.58606148425502
-4.16646582572732
-4.03395510056825
-3.70838862604709
-2.73030401404575
-1.22078402467346
0.287532952666341
1.54555655951017
2.75791400775192
4.00302314010084
4.87332153741823
4.88716610192419
4.05309983019343
2.95696650995788
2.43681749013203
3.05527477358663
4.59354732831136
6.04927270920971
6.32171381115693
5.03218417575586
2.8218789351248
0.916343845301391
0.167518821078672
0.312957825865135
0.321336388314674
-0.450092556291577
-1.70966358901933
-2.89942580070268
-3.99926106138137
-5.42005867733936
-7.32669147416958
-9.27850064868194
-10.4948955738908
-10.4403598701076
-9.15481837585171
-7.00628477924023
-4.33230264428082
-1.60387769875355
0.280849541838076
0.436040388546854
-1.13978437586987
-3.42558598965739
-5.19089367307929
-5.7894659925505
-5.23381506008778
-3.80637554088259
-1.76838480489776
0.587145426891277
2.69887539938285
3.75476299884767
3.21996446889802
1.43644301840166
-0.462826711801048
-1.38436053110528
-1.06602936705535
-0.137090821153658
0.493774375952527
0.315246068415651
-0.585291731590653
-1.75272348620892
-2.57708555777206
-2.41444295516695
-0.93076538218711
1.56163980159285
4.42919146434565
7.44543703946757
10.8667495237684
14.736988027592
18.4505222323346
21.0704568074224
21.8624697643561
20.596143763455
17.6105043405464
13.5683792905161
8.95812185023013
3.83060042326308
-1.96068319145938
-8.33833533577643
-14.7417164457621
-20.1727707589762
-23.6857539812573
-25.067963165602
-24.9610099796508
-24.2198118703327
-23.3263959570937
-22.4693414430083
-21.7981095397279
-21.2293440987991
-20.1425665544917
-17.6681750469625
-13.4674641077785
-8.17056839189779
-2.92341214706367
1.57329863664199
5.5340259536201
9.57654201594207
13.9979726660575
18.8191209645355
24.1881168456297
30.0533541082415
35.4232034069053
38.6155691160379
38.5908156147489
35.7989761042072
31.5518747261347
26.7544324734577
21.402734859013
15.1963292987311
8.38145379919701
1.8230793120343
-3.66357345128501
-7.79248286535607
-10.6067938187501
-12.1442381716599
-12.4991221805266
-11.98552387405
-11.00019381773
-9.77951652081344
-8.37525609797876
-6.82700824955049
-5.3550862546816
-4.39286110620859
-4.32977717063681
-5.16065206220268
-6.45573754472067
-7.69308901743522
-8.56319118164128
-9.0252924517554
-9.23483940831707
-9.41275556997944
-9.669843856147
-9.985330685968
-10.3806183244329
-10.9023720060411
-11.3238562840704
-11.1636388086011
-10.2669893246811
-9.21233060173336
-8.92710368383534
-9.89526514604037
-11.6711129297108
-13.0294083806602
-12.692344885108
-10.1340251980536
-5.76060559265575
-0.423300963007843
5.05533850252136
10.004979299256
13.9667915102685
16.7745683458358
18.4558857683769
19.0636781838941
18.6264002584746
17.0830059928212
14.2865448388786
10.4195202067267
6.39917059192747
3.3712903080417
1.64476537790875
0.517178634601038
-0.700336895232372
-1.81649128140474
-2.08121466420535
-1.15509828671362
0.419719412904795
1.65145118280995
1.87351153681149
1.06210375251384
-0.480345657519869
-2.49861031935096
-4.73130703764303
-6.70744956981535
-7.85705054714185
-7.82336173970306
-6.65729729190982
-4.87991376998897
-3.314826259306
-2.47416917670283
-1.96152088929679
-0.787528086769732
1.49763056728512
4.08405335307409
5.44455749540974
4.68868498908534
2.48186175835509
0.571492333457022
0.289810027490562
1.65501922905624
4.01737891832663
7.08472622956609
10.7376768855732
14.1049144121723
15.6387101338231
14.4356924084991
11.2189079421481
7.79690379963805
5.56495487159966
4.5498342078916
3.85472084913634
2.8520531586441
1.70613567602879
0.797642210853504
0.0582907736946887
-0.916533538486244
-2.35854927997038
-4.13317732448488
-5.85235888323276
-7.01631598812731
-7.26552857439197
-6.71154394407755
-5.90934235893227
-5.41648647462236
-5.53551070870999
-6.47082978408482
-8.36528205113381
-10.9238942349077
-13.1553602241902
-13.826549554641
-12.4128127320935
-9.57514229029849
-6.50183532981295
-3.83192138935719
-1.56450468330876
0.0406851072714133
0.134586006384648
-1.80999095480967
-5.16329506328115
-8.56376587143213
-10.9695880270156
-12.0707769450207
-11.8324315881747
-9.94386602537702
-5.98272875227371
-0.242406969734733
5.86473745569789
10.6552665778098
13.4505588699747
14.7946632783918
15.5559874757138
16.1013915378747
16.192481582917
15.3568945204344
13.3893343542519
10.6712909713358
7.99805566171252
6.06184715666041
5.10032133130884
4.86090102979845
4.71473774581327
3.99561666178505
2.54434071086056
0.832334215201421
-0.690912347038503
-2.18696492668658
-4.04601098668558
-6.07237255846402
-7.44524131846837
-7.56571138588805
-6.76707587076876
-6.02505067751775
-5.85946819795975
-5.62226135003756
-4.19278096161391
-1.43297914968328
1.41780475545352
2.95150607971491
2.87281482313779
1.92743285173942
0.882020856807111
-0.177422012461314
-1.67270214335604
-3.83436537847796
-6.18999820303278
-7.76383919463272
-7.81107986341068
-6.37853816459018
-4.2725267612593
-2.55423470893307
-1.86559443681431
-2.04607081577267
-2.45992022377977
-2.65659261372656
-2.46613145619437
-1.58017180397645
0.375279744825791
3.16542182857315
5.85962267761369
7.79508508152529
9.32679834149538
11.2130158920436
13.346874970653
14.4535831705214
13.2365562397389
9.80656840393817
5.82342436685019
3.07452292414882
2.01439264672318
1.87619998826455
1.93855311642603
2.13777774255453
2.43838985530289
2.2188710610895
0.735711817208155
-1.89296730509933
-4.50220184855037
-5.9117048118756
-6.09854603658215
-6.10776402932388
-6.80403687883058
-8.05767221016298
-9.22622025911667
-9.95080542523574
-10.1871185911877
-9.83222400749533
-8.72637332606057
-6.91788240535484
-4.69374057973591
-2.33118160830993
0.155119956600041
2.98953599712661
6.2399069744797
9.41209458254239
11.5468283155158
11.7483200742441
9.62464924729114
5.41331161711166
-0.128544152796382
-6.05217627861229
-11.5812820171429
-16.073042855574
-18.6486862527529
-18.3023833598385
-14.7584818464177
-9.07748154530701
-3.13926815885115
1.47911862160929
4.23898138066737
5.65727054220986
6.65519428772351
7.56407693567056
7.77923571451082
6.6968168064148
4.84405980061801
3.62621615440817
3.99116987723115
5.73503897209856
8.07008811802042
10.4011463961451
12.3714068609811
13.4850867372769
13.1085878859022
10.9755929686395
7.51147510936354
3.47005159849329
-0.627915507515769
-4.47382699217277
-7.5799485777173
-9.37234291372713
-9.77891038050648
-9.40470977214282
-8.87522122777523
-8.0631767978249
-6.17692872282272
-2.74406338554234
1.63713724910649
5.77309058304644
8.95639896408639
11.1251732508228
12.0357786047808
11.0801292392147
8.32257355341946
5.0754454924876
2.81776995206791
1.84101161045845
1.3418851609905
0.447122095150987
-1.24431078334076
-3.71551740339266
-6.62473156131425
-9.44194180897688
-11.6806528116551
-12.9544008570381
-12.9655701214623
-11.7701782024405
-10.0419296060923
-8.79853791955746
-8.72411496617265
-9.67565246425093
-10.7211470210888
-10.7164419388307
-9.08423758126546
-6.1663128840675
-2.86955077371406
-0.0440134859645666
1.88874770442211
2.94217519916542
3.27886841536134
2.93772752025331
2.06278813991826
1.39977082921932
2.03822626775328
4.30994171787728
7.28086237281049
9.67902163363228
11.0919690157041
11.9996416631338
12.912028952215
13.8133045974274
14.2857134291464
13.837062781883
12.1380879664385
9.2367467122359
5.70404536956163
2.49106876293182
0.417161613280793
-0.399907580672002
-0.590714980870958
-0.88950931545982
-1.48729132356173
-2.13717939480007
-2.78727039268209
-3.87989066097347
-5.93699804630844
-8.85750752875559
-11.6887458076368
-13.2851964233076
-13.2869439063147
-12.2419250133626
-10.6707950148191
-8.36229357930022
-4.85462991675243
-0.345453724759888
4.14736720432592
7.38753876537677
8.62569558456345
8.00602615339847
6.42554694312788
4.86503426766347
3.85502945280298
3.5827862784058
4.13590795349253
5.32152511872653
6.50517631721486
7.00534167750055
6.58062199179647
5.37547686078359
3.6181254975405
1.62930712071268
-0.0836004110409564
-1.14589469543419
-1.81077015977473
-2.95523168732359
-5.42052400081181
-9.23647098108206
-13.4319757098445
-16.654627809924
-18.0286446084162
-17.4586175348179
-15.2854418332617
-11.8108722524321
-7.09947754320426
-1.25470903254088
4.92350621159836
9.72781294616137
11.5718219260855
10.4260713241802
7.90386946790791
5.85749868310361
5.13319221011127
5.51273509570837
6.3439865790534
7.11262248877818
7.63894458620638
7.85937555203228
7.61205183359182
6.90495451694657
6.22485329680279
6.10426468559939
6.33297055974509
5.92383614600176
3.97180986950978
0.512404476273578
-3.36137377357682
-6.22528878494296
-7.40400732974889
-7.4793992749303
-7.70534658231256
-8.97388062980562
-11.3535475524918
-14.28498297834
-16.8676981525086
-18.1532887495366
-17.6506581671038
-15.6723105295764
-13.017980110798
-10.3037134026583
-7.63220680965331
-4.71756877964794
-1.11549451797523
3.59053246620095
9.53076266705842
16.2047271677636
22.3714575960477
26.5741934965193
28.0713292969263
27.2205861088866
24.8416981424915
21.387002167793
16.8921701600006
11.457367861307
5.47315682906838
-0.465651727257814
-5.65277378212213
-9.45580596653328
-11.61363352272
-12.3009552538662
-11.934332274615
-11.0393286165932
-10.1237665478138
-9.39966975272203
-8.7188775941868
-7.94208851683695
-7.18117921971841
-6.52339543817319
-5.76964099889037
-4.65758964538868
-3.13192872129429
-1.19533596754643
1.2740210770612
4.25139015910316
7.18552114190746
9.15432044626933
9.52109133334786
8.43902597707972
6.68920375241477
4.99767156968806
3.52417424456909
1.98587993772979
0.0898835576699234
-2.2619602172481
-4.97923917204702
-7.76361233311952
-10.1468877810013
-11.6700722828364
-12.0229491849005
-11.0827821388076
-8.97182849652013
-6.08774745865332
-3.03958715104798
-0.598175119909786
0.456747171320713
-0.129584396083251
-1.586245027374
-2.52246982732654
-2.09769794631711
-0.698906979622201
0.56222412003726
0.898465973255094
0.457109425200825
0.052645736477708
0.320316460729469
1.1434987087995
1.93695540984899
2.33641687525521
2.45914878623643
2.64861203749788
3.18325054066688
4.15524497821728
5.46487658006537
6.9728340463174
8.72579992905517
10.9552411274893
13.8565126518386
17.4795714189165
21.6861915644913
25.8677357293762
28.7420798762238
28.8770789901926
25.6980787557795
19.9772711940309
13.3402202787049
7.24431855417744
2.19814556395997
-2.20498949668914
-6.5408161163887
-10.991373204168
-15.5481051552745
-20.313234425689
-25.1530159574532
-29.3024933505675
-31.8088702700283
-32.3280440344097
-31.2462840554278
-29.2029619249456
-26.7217265903121
-24.0708259216719
-21.1833413711765
-17.7888652689209
-13.7956035117414
-9.5566781827522
-5.75663016753111
-3.02994285847582
-1.57058355154641
-0.980479991063705
-0.478543780306626
0.664025806961374
2.71204323342729
5.2477369258239
7.31226133538081
8.02774578542951
7.35992850131295
6.23644774593404
5.71895061435366
6.03702248036484
6.56750780397418
6.83120843508579
7.42427339311872
9.68021565133906
14.0913500515935
19.1947345112537
22.561270009596
23.0256075370796
21.5124441346435
19.6034753635883
17.8732652141318
15.8769611001749
13.2440535786383
10.3213092420252
7.88069081771256
6.45740613300865
5.96280769771087
5.83059605674402
5.46272179018788
4.52836334851309
3.02468236185303
1.27917031491118
-0.212278629265516
-1.24409168517512
-2.22434930377593
-3.86866020671863
-6.52485433320809
-9.80637464208925
-12.8354797569227
-14.8999614824517
-16.039303336687
-17.0204789630609
-18.6216922202007
-20.8593831908216
-22.8658110313045
-23.4438221440979
-21.8109164352054
-18.084346775601
-13.2135016898225
-8.3485152820741
-4.21715200442478
-1.12823632471076
0.6997119428573
1.21892933497084
0.876275611860311
0.45277159474279
0.537915270189532
1.36447054806798
3.0108251753311
5.41111741166068
8.14528490712971
10.4293569655159
11.4017532291886
10.5002153792171
7.76397552621407
3.89551269643246
0.015260583675157
-2.69915874330113
-3.36751709558291
-1.8036622777743
1.30770001039049
4.81324513110916
7.72155601089367
9.43260890185526
9.73420007693122
9.02180898921125
8.38546114517076
9.02217722166067
11.3671730614656
14.7425879215057
17.7360499132264
19.0536213070397
18.3866069212465
16.5272981432925
14.3810963674897
11.8602696101417
8.01307011214151
2.21767029592197
-4.99120530500213
-12.1813794977306
-17.8391130499992
-21.0786307774415
-21.9871858530223
-21.5019909310287
-20.9095931398469
-21.3078597812929
-23.2692345891559
-26.6777433635405
-30.6723026463543
-33.7655689310097
-34.3065259812411
-31.2468515088548
-24.6456896378713
-15.3479299647226
-4.27598227244061
7.6504212577375
19.0400270774586
28.1362533471559
33.709019028539
35.5866092204049
34.2971515454703
30.629341304643
25.6126611386477
20.3939578784401
15.7621875883204
11.8700980586427
8.46722044029861
5.30971406137561
2.40984955550728
0.0541099453545289
-1.41177170657256
-1.89286525685646
-1.6480629725588
-1.06487539310649
-0.316560938489439
0.782979459580074
2.48282281964774
4.43543898691963
5.39757473388762
4.03100621482497
0.208331420545498
-4.77498311690311
-9.44805447561779
-13.3226351753518
-16.6622257596242
-19.4451275422694
-20.9125055162292
-20.185272971224
-17.224911976169
-13.0243243507802
-8.71560803163033
-4.65939493206494
-0.729450263288874
2.66799128996499
4.47472281162292
4.16292634621156
2.73922842699231
2.22745835278244
4.09704517200252
8.23689308877798
13.3372182449783
17.9155838914781
20.7614298409038
20.8854828173961
17.9572934496
12.9980373349448
7.94418276973105
4.0710669709192
1.11700669657219
-1.89189901424245
-5.35147753056262
-8.8245548901287
-11.6965156556262
-13.7135333125158
-14.9539772382286
-15.4973108548119
-15.1631498954675
-13.5494362999489
-10.4065022713833
-6.12605572469121
-1.94740623034825
0.506399548605153
0.331592608124798
-1.82800111859715
-4.33436003539812
-6.0798427981644
-7.12904337577097
-7.73577547911755
-7.2733503184139
-4.63816199150499
0.400772595371899
6.54659784542904
11.7497858354677
14.7080759022138
15.6742047389809
15.7304287445072
15.3572847046066
14.0356747536176
11.2590931242246
7.48089782972171
3.86526736891262
1.42536696875519
0.570645179610792
1.1842511660675
2.82042396064585
4.79707852904892
6.24105357816743
6.30767877728253
4.64352447826379
1.70737191477053
-1.46161853579863
-3.84811945977899
-4.95872230130032
-5.0293497464076
-4.88874372784965
-5.38112430324564
-6.72053869545051
-8.51565563949736
-10.3837869460168
-12.1851536417133
-13.6464060943404
-14.2353173755516
-13.5449667379224
-11.4158184832203
-7.62811560288314
-1.95890196821415
5.20234568758949
12.4908043337437
17.9812900215938
20.0740841931198
18.3208903201902
13.7406728968438
8.29876869173721
3.76009337729863
0.746268166433391
-1.26740062340809
-3.04710341983901
-4.61610855342385
-5.21014075290703
-4.298846742325
-2.4694130261524
-0.993300497762466
-0.523858691682499
-0.415399928316856
0.637263499923338
3.25328278099964
6.48781152173669
8.33199649107392
7.36616035099346
3.98246243499786
-0.149885527495331
-3.67634697723628
-6.38010539641215
-8.69846309365028
-10.9825540136093
-13.2792712038598
-15.3490341674066
-16.6241826531905
-16.3837623737181
-14.2826676646598
-10.8041028899451
-7.13491929630043
-4.48119115976644
-3.40967372193228
-3.77819962856998
-5.12578057923773
-6.98585829405275
-8.97919410389868
-10.7717095238133
-11.7507444283258
-10.7260621083047
-6.5914319486017
0.294291860127367
7.95567752417614
14.5842624839518
19.9944045714117
24.7474068093344
28.3488998090335
29.1363620057226
25.937928549872
19.4282820729093
11.8364786536361
5.47561848317396
1.45186202512646
-0.454952096709488
-0.931840620920622
-0.356468993973079
1.2314974865088
3.68314286326684
6.38843854120883
8.37313732626835
8.88560197543526
8.0154050868786
6.63534000684389
5.63094333400963
5.25642381592136
5.20405895157756
5.01562649182348
4.33692819785107
3.10833901507193
1.75026165587671
0.965571546068136
1.15105389271755
2.07663638061476
3.18638436032657
4.0985158618286
4.78524440614994
5.31714682006952
5.41918811234501
4.37229501219971
1.59741115420582
-2.62992583421787
-7.28199313536237
-11.4931013000357
-15.2519450788844
-19.1266015930315
-23.3266669657178
-27.0731004291478
-29.0747957350336
-28.7851483919388
-26.977433879037
-24.8670048570255
-22.984590846579
-21.2198601739702
-19.5297172287038
-17.9924047873194
-16.2913774367224
-13.6674858533684
-9.53316167520008
-4.02836201040852
2.00762517989404
7.59421791782537
12.2498878790281
16.0939109167465
19.251109173682
21.3326449171864
21.7747257072968
20.5895704002544
18.4632537626611
16.0800128854804
13.5209963831518
10.3648731202413
6.35421712423001
1.94094867663919
-1.94834962031649
-4.66799729158209
-6.06383170084017
-5.92013151983344
-3.81935805334428
0.0056344999730487
4.09505020037114
6.67511998427065
7.20783540319722
6.74713417039101
6.68079935906428
7.26111894650746
7.48887546995606
6.39186348780312
4.19454127907287
2.10958652503245
1.22852133536696
1.86103022137738
3.67492414369985
6.01861480996442
8.14601393963988
9.48188016066306
9.78165451308512
9.01309865495091
7.22824149814581
4.63653660673369
1.61913915683187
-1.48450567405807
-4.50149036420861
-7.21805711829821
-9.14202876017532
-9.68228431400134
-8.72582009065338
-7.02888668354531
-5.78921010030503
-5.59956603523606
-5.96301821325327
-6.07193839084841
-5.86143487045893
-5.96864161896536
-6.82483943182707
-8.14289616067377
-9.23587290342237
-9.62074672683505
-9.3649123189174
-8.94391793158012
-8.73122779285976
-8.67007663838015
-8.4288500246686
-7.58213444261357
-5.53712845919965
-1.75111605121651
3.59258614786163
9.3652984324669
14.2231948158606
17.4207974110647
18.9159791502051
19.0757260934957
18.3962408948462
17.1527075231267
15.1607492112783
12.106944520724
8.1962230574309
4.2797832686102
1.26280853233822
-0.499952099049893
-1.19748010660151
-1.12376467809355
-0.428891480921202
0.692643565233833
1.80365038745979
2.48267805603105
2.73165977986742
2.80677140158098
2.56733018025666
1.31440212420988
-1.48415578295416
-5.37515938835067
-8.90112350077338
-10.4647540094777
-9.4950253869862
-7.01839197120792
-5.00608500293766
-4.96829936567969
-7.06098523921679
-10.3040183318694
-13.3964649149869
-15.4786847661753
-16.533307626617
-17.181435131426
-17.9720398425656
-18.8709262602806
-19.4065784327044
-19.0574264114691
-17.4200922734053
-14.2961991126111
-9.83318546486135
-4.55649238168793
0.716997633883863
5.06621493639679
7.93772941363788
9.61703990587584
10.9131883554833
12.1616880815857
12.807816622108
12.1578969668788
10.2997104684712
8.12132685177435
6.62796599976394
6.35586817887772
7.21341099640506
8.6646728676203
10.1136692533062
11.2396787983122
12.0664955838824
12.8672287884367
14.0600977248263
15.9817970649515
18.504074358463
20.8561532369438
21.9970088756305
21.3276128139225
19.0705705923361
15.8808903202004
12.1357254388756
7.83130189737301
3.18577711286673
-1.05237667941589
-4.18182271419923
-6.24939845565726
-7.96032262797778
-10.0054120396964
-12.558000810868
-15.2295985460643
-17.3935695602101
-18.6794910851392
-19.2077242283873
-19.2592471609928
-18.7636608607871
-17.2514340592722
-14.3563819036478
-10.3934764569926
-6.42380019491665
-3.50625754010612
-1.6826908520842
0.0589851372805631
2.49418895327978
5.0383911670577
6.32695145193601
5.78942780011114
4.16952105545889
2.51117432036263
1.17024414127043
0.0179422633090284
-0.805857818195848
-0.786541965681277
0.24763866043508
1.49950217531899
1.60070461357142
-0.20389261001026
-3.40639767843712
-6.82944509941802
-9.58831876597884
-11.3529013887397
-12.0663382573813
-11.7633431761013
-10.5314705445193
-8.46669898206862
-5.76645639194344
-2.90033301330836
-0.491692539826635
1.07588063332929
1.88613247357168
2.36790540618845
3.0301442034913
4.2486749636082
6.15096969313462
8.54268969814153
10.8269839614802
12.1431436930336
11.9744110275616
10.7457836811318
9.54676539636645
9.11903755027658
9.27954408172651
9.35434748916688
8.95528496275159
8.2868714138926
7.86225520631092
7.96399827853752
8.34203378914379
8.50985605814757
8.27426774559867
7.67102888741967
6.4023991945803
3.88759034674051
0.155481042615134
-3.68762414707232
-6.21014655786425
-6.7788006825264
-5.92811197405996
-4.85934222041067
-4.60052309010777
-5.39314618926344
-6.69835278493085
-7.75066976699543
-8.12775509482972
-7.89695545428443
-7.31545937225906
-6.37916384664537
-4.6990882832274
-1.94022258817927
1.66932498049551
5.42103968528708
8.6122645496991
10.7668217470729
11.5787486449017
10.9881444730875
9.27159890017205
6.83089069623733
3.91239300796471
0.612447183010449
-2.93933576150457
-6.45225569723612
-9.47206424453328
-11.5987598470022
-12.870104130427
-13.8737060702694
-15.3343832525907
-17.6031870744098
-20.5261742201798
-23.5772178328303
-26.0350090785632
-27.3127565554082
-27.3038783826497
-26.2437855096787
-24.1682440221015
-20.7268182275439
-15.6145333553613
-9.04376522421685
-1.738571768045
5.50306251114949
12.260664571861
18.4431172127639
23.716334938972
27.2019970327509
28.0579373227865
26.3295953041789
23.0786632595117
19.7502428527414
17.4092472690209
16.2818388406451
15.8482290580409
15.4680137805837
14.8739367524479
13.9781804456077
12.5589717061141
10.5709194140179
8.55701968591499
7.27339958015475
6.91387173042741
6.96717446751283
6.79361160355009
6.18229004092074
5.40485410356847
4.81103281135981
4.33228259336088
3.43437235469874
1.70766891767969
-0.543472589706775
-2.49219297110945
-3.55106545943825
-3.75304319162653
-3.3745113811385
-2.40800487385751
-0.634792586147851
1.67709005532311
3.29311862156987
2.63300979651129
-0.869659377640808
-6.14103394951586
-11.2577865464768
-14.6783085876188
-15.7785447208672
-14.6789352569924
-11.8843346742402
-8.04934393095136
-3.99975893305675
-0.822710056341025
0.445847285826437
-0.55031476649412
-3.32152175339733
-7.03889475562578
-10.9705029831482
-14.4634074817166
-16.9614848073918
-18.305733760516
-18.8802238641146
-19.3421637512285
-20.1840740194711
-21.4170032747357
-22.5544500147865
-22.9550188339398
-22.2139006270333
-20.1752700136675
-16.6581191726799
-11.3741429412525
-4.18836037848792
4.53405431042069
13.7460968975922
21.9158715920456
27.7300167401806
30.847871116429
31.8753782590885
31.5863296769278
30.410624837301
28.6246138988991
26.547776673581
24.332920549969
21.8252599502938
18.7573889928714
14.9475869512596
10.3789853446812
5.33548479214975
0.470612160909789
-3.43507370076956
-5.88596215588692
-6.92744629286086
-7.07210163639631
-6.85864406503287
-6.30978117973586
-4.89827533276731
-2.22497202632037
1.30205904692246
4.58468144995348
6.62539624764846
7.18587379359154
6.73894910517044
5.87500776649751
4.8628230359922
3.78007175458064
2.76565531554462
1.83821452328154
0.629242719640317
-1.34759783192674
-4.18109320890307
-7.4949599100478
-10.7547904413113
-13.4748928877585
-15.3599155046994
-16.5106566499402
-17.3354101979673
-18.0571990161785
-18.4425611337065
-18.0906220091704
-16.7811314351242
-14.5357353735503
-11.628298275152
-8.55721746276435
-5.76343595212266
-3.37991033027293
-1.37494267236591
0.235113988063051
1.46929921655109
2.4678489505527
3.35256861641602
4.19491559082294
5.17592028574242
6.4991548454565
8.03399217151106
9.27674026387748
9.80098122390388
9.61698018025727
9.0101242262469
8.15889226786613
7.05184177958989
5.71591308639539
4.30030241409837
2.84488786866212
1.18513444112446
-0.714302014847309
-2.50094707001218
-3.73685570641028
-4.32846045341264
-4.44649514714486
-4.14759239627048
-3.30756052172569
-1.90016883929781
-0.221803689973089
1.1387755625709
1.60162546752351
1.10813343055719
0.391458244229523
0.434776230391614
1.47354725841086
2.728168797134
3.26199005242897
2.96859105907285
2.6854258704574
3.47713913765443
5.73938069312201
8.79743121809594
11.4017966941552
12.7338007997561
12.8800041948241
12.3365752508942
11.2891336646686
9.5224747516898
6.9103523430958
3.83909785165218
1.07679002728236
-0.835981341074813
-2.03163665456247
-3.05284245985382
-4.2113268674322
-5.33703581260552
-6.04515726392093
-6.10037046691338
-5.68231263627365
-5.45294374194332
-6.15987653055461
-7.95645628592393
-10.1841676487551
-11.8948508216995
-12.536123227167
-12.22959826489
-11.5684918677463
-11.0620559059675
-10.5525139770265
-9.22445088941967
-6.41371521943287
-2.41243329329574
1.65595189941844
4.69299048441298
6.25960619034397
6.56098302910553
6.0970210879351
5.35917862706075
4.71711144816451
4.4601283918182
4.81027025684388
5.77222227516641
6.94485191883747
7.54627951610505
6.78481859668618
4.43053985547511
1.11064859624115
-2.06204026294339
-4.2224304808977
-5.17348903783893
-5.33999589280272
-5.47260971202782
-6.05931173533986
-6.68833435868521
-6.30776495189842
-4.5222161499837
-2.32804050329309
-1.11749216234238
-1.19610647083664
-1.6501073721055
-1.39344775377401
0.0116205335105876
2.25821643317543
4.54737140496697
6.02693091880142
6.3138906222526
5.63968048111724
4.43284406159233
2.87965600481662
0.968212117939636
-1.20395571053206
-3.34786733758276
-5.1947281196341
-6.66510828923576
-7.71060097742878
-8.02298146863855
-7.18216614754164
-5.28258321316704
-3.15473838716669
-1.65582650491884
-0.875302879076774
-0.239997901705062
0.797376293450532
2.37378693981473
4.32119135724756
6.44044386573164
8.70138937151443
11.1700422248557
13.6729211839088
15.6583854068601
16.5408534034342
16.0795454665035
14.3083796875871
11.2560512201138
6.94094526192754
1.67115840727072
-3.67869722329019
-7.7676153723352
-9.3964727227116
-8.2362963527573
-5.01859513742305
-1.06163326739543
2.36250481817609
4.40806401391021
4.74187294808605
3.39993963281881
0.589102332022632
-3.28925327538755
-7.45369539188296
-10.8422013359967
-12.6149710719376
-12.5710763770964
-11.0994932768839
-8.84171341563579
-6.34809534287067
-3.86757242956516
-1.46096245032498
0.631085833904166
1.91208515928188
2.02540910979614
1.02496011822592
-0.760372158710211
-2.78402246776956
-4.17295584994775
-4.02268214688294
-2.04663232381035
1.20299470444787
4.73044375921519
7.55410741275925
8.97358996521695
8.75810010491296
7.15696419454307
4.67663228220375
1.89603548081666
-0.599845231004168
-2.39632435795416
-3.46212002839056
-4.07983461735926
-4.55220699387689
-4.99668394836256
-5.31231158430007
-5.29155047934407
-4.8691672248333
-4.27769862817673
-3.84266950227911
-3.61593534029956
-3.30142173326504
-2.53731886274603
-1.2035273451071
0.491366340260809
2.16911330978294
3.59237888638072
4.84312909334391
6.08805688923035
7.17457879432785
7.63653892578427
7.13837892017761
5.79729721153251
4.10449550199174
2.64299472908388
1.78528574150088
1.51203917368738
1.53184659347352
1.56832109037758
1.465313371654
1.13320907897941
0.564671555711526
-0.187563345878639
-1.15452484697245
-2.38813305715443
-3.64252397148899
-4.36312385935724
-4.17541788789917
-3.25692390743104
-2.15701323199242
-1.34480275743094
-0.890534734106083
-0.499219022711644
0.0463170486017961
0.469108925593491
0.260733178224629
-0.594043243085992
-1.41530849392381
-1.43786750412864
-0.470748418431759
1.01423734695703
2.24275244232989
2.60881318953529
2.00831609729014
0.798022194598903
-0.575476013282991
-1.82070204422196
-2.69469098693435
-2.92775128868377
-2.45332831446946
-1.57536149201422
-0.722971852366309
-0.0737862850142022
0.494145898225923
1.10858046768653
1.65194105218113
1.88725293488555
1.83202910361814
1.84024728124988
2.15317002673709
2.4253947308966
1.82790867436885
-0.336496165889591
-4.00723367403837
-8.16004370715546
-11.2876399980593
-12.3863333027607
-11.580429892512
-9.72219300588798
-7.53949175145665
-5.36028189923304
-3.43006815661445
-2.08472560946248
-1.52187722672385
-1.51370948035336
-1.42343896232516
-0.685116837350617
0.576801776179042
1.63042414580893
2.15710825665217
3.0232679804696
5.60949945679559
10.3231235712608
15.997502136497
20.7282029130784
23.1306891666215
22.9563382899665
20.8961884579695
17.9662637263787
14.9784203587497
12.3947760219132
10.3965782113936
8.88483128861137
7.54572630182688
6.16138722034182
4.86026510758492
3.96515223261648
3.58745643926358
3.31627470941344
2.27497036561317
-0.283769563606263
-4.19789292976819
-8.32401928227113
-11.4516070343632
-13.256680390714
-14.3223451631295
-15.3894589967269
-16.6745995471604
-17.8237743325865
-18.4718725065814
-18.772503657472
-19.1807232032045
-19.7186438417079
-19.7926463985828
-18.8856149093627
-17.1350601313566
-14.9756548750571
-12.3571437826311
-8.63996966048941
-3.48191467390046
2.20353578476153
6.48473126202458
7.9133943362991
6.74453178031543
4.48455114288257
2.39072185829318
0.70246814173499
-0.86767571533073
-2.43162322762983
-3.76353245746449
-4.40698541583437
-3.83307938109396
-1.80168019739668
1.29386462531408
4.54815332212787
7.07473456023705
8.5237718239604
9.23846769602826
9.84591329129721
10.5646974432721
11.0552588024258
11.0416662894438
10.779200023647
10.7365683541623
11.1364042231932
11.9747080587254
13.1268489901569
14.2139788881246
14.6752064493487
14.2294493511731
13.1496209306752
11.9784228788345
11.0224602679894
10.1002045437413
8.7322561846138
6.5931034947656
3.7315277498947
0.349961618311123
-3.36565663997225
-6.9949497688517
-9.73929859927297
-10.9275399112814
-10.6416553201454
-9.61336916799782
-8.56320775337252
-7.82644957869897
-7.4930955279113
-7.58973570975565
-8.0275538364514
-8.51185521644471
-8.68317125913351
-8.50389597557229
-8.48990484944809
-9.30875444900806
-11.032754053622
-13.012853491835
-14.6027024582757
-15.743775237386
-16.6560976603374
-17.1551582754164
-16.5231537575633
-14.0938248014993
-9.9098590894351
-4.73155767487037
0.62163264584322
5.7795903984706
10.58059841365
14.6222889197708
17.3914575223443
18.7033525431917
18.7396384830349
17.7861688636407
16.1542414835783
14.218669774132
12.3366337286029
10.7601128419919
9.61052092705099
8.82144906619919
8.170723724406
7.4900211955866
6.74816985192875
5.85084048654258
4.53271974175591
2.57508197557345
0.0186574367765186
-2.85711253270329
-5.56370841021877
-7.40335551909839
-7.75662156976312
-6.56811040129061
-4.4499035551024
-2.22850495090435
-0.395252716478988
1.10248595461757
2.61935212144048
4.30581402306154
5.84517933639206
6.7433257207429
6.70572658917807
5.57628111349611
3.19080000505048
-0.369037669550384
-4.54019699819129
-8.58633660501683
-12.0258490501039
-14.5975097816619
-16.0288373375719
-16.072591302984
-14.6846945469032
-12.0909511867306
-8.79584952366302
-5.54473260412174
-3.14357601784831
-2.21100599436277
-2.9442555177299
-4.89215378693572
-6.98436683078898
-8.11686499773869
-7.93112722852082
-6.98478063162611
-6.12463884050231
-5.73171079163788
-5.52683057927822
-4.96769654634674
-3.74424748382332
-1.90504041752158
0.376917404870865
2.95869888335483
5.56027366801899
7.64843789136156
8.76833534042978
9.01839545666565
9.08151610541456
9.75708631505441
11.3940580287134
13.6338917609438
15.7304139762564
17.2485062356177
18.3744815909879
19.4474264090614
20.3862682312221
20.7580368765571
20.221615764822
18.6740548674529
16.0238994306375
11.994803106431
6.30891063915519
-0.745495580789758
-7.95884882345086
-13.7892019908132
-17.5050324558129
-19.5131967972566
-20.5286526432817
-20.8405943887103
-20.5087223506466
-19.8183516047439
-19.2561114483932
-19.2054606286819
-19.7131391787206
-20.3398409331012
-20.2023868703316
-18.3625818174294
-14.3318254534125
-8.27718094915365
-0.81989562498769
7.31094547738397
15.3651505665051
22.2890498313006
26.6595955359145
27.4838147221181
25.2554363040744
21.7948258401288
18.7542616124694
16.4747000136655
14.2952115689285
11.5236594776949
7.98953587664967
4.10517329936329
0.651994773748507
-1.69193735965117
-2.78921106166428
-3.0571102842567
-3.16730077788319
-3.70919937204688
-4.86327996899466
-6.29493380546018
-7.57484000970749
-8.74291262900271
-10.2299090978525
-12.1855160122379
-14.087944284362
-15.0933868592621
-14.7050497776957
-13.0869236978331
-10.7433453061399
-7.97377023524351
-4.8234421088218
-1.55781581642484
1.13924098293538
2.61171947674045
2.69049415525216
1.64388515145595
-0.0709670903997763
-1.91061910825189
-3.36356037646267
-4.11470211640877
-3.94201332776496
-2.49634356091747
0.427438645358931
4.28012127316782
7.78919406553196
9.86633645898101
10.3938651301815
10.1041972711458
9.86563698801613
10.0612820084148
10.4048663407063
10.2264486096387
9.0203881263688
6.85391412198397
4.33736863876897
2.18504229718863
0.708700827558741
-0.291278063975085
-1.13722658662579
-1.90565074258264
-2.49676356780982
-2.80069272950603
-2.60539378846604
-1.64287862619805
-0.0174847202672624
1.65308289210423
2.76178874621185
3.12340435783305
2.70317238291744
1.3084780481695
-1.1281011069328
-4.10965512138677
-6.65062016115513
-7.86285149594757
-7.5737179589284
-6.44362648803199
-5.3430185993202
-4.51460332636216
-3.49564006820446
-1.93107770591667
-0.224137566066215
0.777153777907824
0.587187436631588
-0.516579880594343
-1.76924950597146
-2.56051553502392
-2.91371360229734
-3.34638957161238
-4.25821650056097
-5.5426375352581
-6.75312206500602
-7.49052760185735
-7.67333993611412
-7.5623408683175
-7.42860589856008
-7.12757028867403
-6.20833457930406
-4.52267461203369
-2.45647612038335
-0.460881777696433
1.35638696321635
3.02980036449306
4.34448803457352
4.83461724065724
4.22587984280533
2.96716238769914
2.28836098264865
3.47541003299485
6.92362751181309
11.8973539238574
17.0807819267365
21.2337458963033
23.5534982171679
23.7810455648559
22.0563366215968
18.6608863237218
14.0359738651001
9.03544361128408
4.78723048617397
2.0006346411433
0.481130500685291
-0.566923898918579
-1.863950979895
-3.67990346949215
-5.89527988420559
-8.27895110463794
-10.6856322840548
-12.9223320938436
-14.4978264725087
-14.8024605097017
-13.6327563610011
-11.319006637831
-8.30858414159169
-4.89871103957233
-1.43636584367852
1.50205386373521
3.33097746627895
3.83280515932822
3.25151536906489
1.97068881641222
0.152973502520649
-2.12706603467922
-4.43100592053664
-6.03002200688212
-6.61915325748605
-6.65133513888095
-6.76424930025055
-7.10284890199498
-7.27564923581947
-6.70163205990113
-4.99713859462047
-2.37542270494436
0.279242165944218
2.06534617550947
2.92885669568104
3.68511052723062
5.06864270907572
6.85219404522888
7.96637291029278
7.47350446157826
5.44540295923965
2.8913063389833
0.804317992270326
-0.629489221314813
-1.81422844121794
-2.97787413628088
-3.91000019368706
-4.36237675250888
-4.39813436323356
-4.27147954069498
-4.12801942711224
-3.9757059053148
-3.95867739975756
-4.46381500611819
-5.71846856489485
-7.36178728807214
-8.72004848218558
-9.49659696006485
-9.86402658011508
-9.85079106009746
-9.01124761583342
-6.89221831640289
-3.65336656888233
-0.0945724599868076
2.89799195889086
4.97556431391468
6.52814789094401
8.31028482769203
10.804464992674
13.8058330562216
16.4840161153434
17.931239135273
17.9085735665789
17.0991523775952
16.4500235166699
16.2809542802426
16.2019775624313
15.742490941611
14.7005659655442
12.9626762016025
10.4733676805237
7.52469190046615
4.72450128724468
2.48831725270899
0.723846918116562
-0.929367368717372
-2.67430972937309
-4.35963826548022
-5.63817704965478
-6.37585576902574
-6.88784868777646
-7.64711756266307
-8.8044817439096
-10.1155650222062
-11.2236413969425
-11.8619930762244
-11.9127246868566
-11.4519197134414
-10.6996045971588
-9.86012815904497
-9.01612371256564
-8.06528868408756
-6.65538897426423
-4.34134817531771
-0.995401848459143
2.95885106569127
6.67838450253061
9.14379989639722
9.51841867599072
7.73741536363497
4.76976739186401
1.96707953381189
0.0705170571927235
-1.08173678131097
-2.1108272743488
-3.61355103678634
-5.88226156434457
-8.71096372334976
-11.478743801987
-13.6235371781191
-15.0108151944247
-15.7571162171593
-15.8201753949767
-14.9029128567314
-12.7687110703441
-9.67811016159063
-6.50633340487344
-4.26376238795108
-3.39560369455532
-3.58186739772876
-4.08272594749974
-4.05828686323072
-2.74047880951664
0.213130300821552
4.34738457154472
8.58591984662837
11.9507515416089
14.1500001463324
15.5207772004821
16.4960847507302
17.2060910480493
17.5854703217903
17.6733833247829
17.6126615953732
17.483675300835
17.3632401226234
17.3622616832245
17.2860996231623
16.4399393855076
14.1642468089784
10.506682367514
6.14800135629411
1.85368482103336
-1.76619372069196
-4.2060372172325
-5.17813763668677
-4.83573536723944
-3.76187458175862
-2.69704608844508
-2.18962132000463
-2.33993018639134
-2.85254960941365
-3.40450848569105
-3.90580774134452
-4.3947005308182
-4.92380078399518
-5.67590141640541
-6.93748883191988
-8.75548739450547
-10.7432418555784
-12.3287235435759
-13.1543053424889
-13.3045363857567
-13.2330511699299
-13.3622861395241
-13.6770671804933
-13.7589975027573
-13.0907464404045
-11.1777595324876
-7.72173127881899
-3.17329015897134
1.05924590052173
3.49277412646499
3.68819612606484
2.25243372028116
-0.011606013320295
-2.54800776448296
-4.83854979034402
-6.2300517474924
-6.07881380473898
-4.00665475982374
-0.168783449832253
4.61239253721493
9.16366313925771
12.6334380531125
14.8651283102943
16.1035385893061
16.4868259735493
15.9443614416321
14.4968566112222
12.4720400005796
10.3268179640542
8.29583604333572
6.3459389232966
4.50361057464122
3.04187871032818
2.2264844964989
2.02858776385995
2.2004609963806
2.50119104716353
2.75765192503469
2.81341897672143
2.527403555423
1.88216728407893
1.14376330405772
0.794821589607532
1.08670561655987
1.71027430061775
2.14157311077392
2.22626534392156
2.15518644134462
1.98683326919508
1.53426693110952
0.674320013386677
-0.508796392027718
-1.87115221399336
-3.3582373824207
-5.08235765442044
-7.3061890155068
-10.1887352469033
-13.4592689548742
-16.4509719444848
-18.5453989857802
-19.6209638591932
-20.1344169749477
-20.728118585368
-21.5788926340351
-22.0919899784608
-21.4065512427242
-19.2385101424389
-16.0575998839313
-12.4833696432932
-8.81686995958642
-5.19902315487324
-1.87603818199582
0.910699488548056
3.20710703425561
5.41351997193883
8.00753391933552
11.1123433443122
14.3548291756695
17.1976741033831
19.2884282721843
20.4381416239641
20.549252909016
19.7709372235314
18.5099637811998
17.1020982148431
15.6099471914166
13.9776431920824
12.1766773656948
10.2044604084314
8.16092407085553
6.30944757407496
4.89613554526229
3.97569638240485
3.53143310001347
3.64485843116277
4.4131293994822
5.72618456252286
7.13347948534262
7.94599200495545
7.65567979032574
6.39556541232999
4.85880430029062
3.62897766873727
2.68085818933921
1.6013740070243
0.134624053275083
-1.60083113520632
-3.28288786883349
-4.63746930523975
-5.58689213548835
-6.21837699170415
-6.61595127111918
-6.79298273617002
-6.79322202819776
-6.72133279869622
-6.68485088334321
-6.88223494251196
-7.68539051122942
-9.37864401666113
-11.8199738986219
-14.5142048254484
-16.9138267179929
-18.5202671915197
-18.9275888498185
-18.0340726334832
-16.1403174731409
-13.747359054921
-11.350870530937
-9.37440642839901
-8.06376914543111
-7.38635739793581
-7.08669767501492
-6.7796077942555
-6.06493346894093
-4.82737510193375
-3.4136797435019
-2.21902536756418
-1.11571911059544
0.432483412216904
2.7528744129506
5.72221041513083
8.99882031174989
12.1368241225195
14.5308257968243
15.6349119095422
15.3811016114688
14.2531815324396
12.8922726440625
11.6501413092254
10.4850882995164
9.2573484262436
8.08333598931124
7.28129622590061
6.98107836506977
6.99556898192963
7.10165707932811
7.22376280123283
7.32191383365165
7.32177596136105
7.17716107168315
6.85183640847
6.28298559307173
5.47620984946205
4.54945927440081
3.59799753572263
2.60195018666406
1.48603424387625
0.191059035874924
-1.23554200544737
-2.51801315258205
-3.28082781537942
-3.4557983669912
-3.41709565307697
-3.58530657543064
-4.02388983317761
-4.47226081730347
-4.62267005043894
-4.35006961979317
-3.82838442343489
-3.46620354439602
-3.66664808640597
-4.61236808316914
-6.17708595887305
-7.90840685912574
-9.19869440424058
-9.72649740880928
-9.72099401377946
-9.58460350337819
-9.31799062397877
-8.56333753254471
-7.13427028548832
-5.21733790192974
-3.09397792936907
-0.93750896772887
1.06714992973036
2.55279109071704
3.05715328720754
2.43569913391198
1.24508735638342
0.510791641089825
0.938929252361566
2.46117078996873
4.56338486825193
6.75255696105002
8.5763350826307
9.51472958117674
9.16512818630719
7.5446540623055
5.17428785268279
2.83020161509904
1.03830485971164
-0.274271551059534
-1.49935928462462
-2.73967695737638
-3.69921747657979
-4.1401347385091
-4.1706167936705
-4.06804010344653
-4.0245146072149
-4.04547381514532
-3.93092938840542
-3.39713423878015
-2.35313172310529
-1.0209298883911
0.294827496112687
1.48505717511796
2.62588272643566
3.76816666747466
4.77231644494457
5.29661388655781
4.97889782330198
3.69566887864169
1.61150503842561
-0.977522135104311
-3.67776662363209
-5.94873224224767
-7.34459257145366
-7.87372713849962
-7.88231998739505
-7.54446378544339
-6.69952155211101
-5.27539713729957
-3.70720292125518
-2.76485823000899
-2.88440439274488
-3.68990602166476
-4.27654523644708
-3.93236343273636
-2.4047305353964
0.41615567960549
4.58312140175845
9.69005877196259
14.7629557717012
18.8182562584641
21.4209305302382
22.7068361448582
23.0918011964631
22.9721358335921
22.5084378224309
21.6358690827787
20.2913413210927
18.5251365095686
16.366100378194
13.7472054406083
10.6325565288131
7.06223573568601
3.01205896976044
-1.62661705606823
-6.83754918240515
-12.3189888981214
-17.5296119120196
-21.8778939556974
-25.0168719931377
-27.0528095962035
-28.3621268750072
-29.1946979391265
-29.5830559248212
-29.5479273027342
-29.1752046181318
-28.5351989497733
-27.6423996444643
-26.3714288881726
-24.3753741932897
-21.3423914582058
-17.3847178437653
-12.8655315172336
-7.80270910098714
-1.8563000198007
4.89533241828753
11.4537231779736
16.4440338681514
19.1576387926695
20.0112247066533
20.0063999957101
19.8059147711824
19.405234969384
18.5880698668828
17.3775763478411
15.9375370959026
14.3236717631774
12.5280464578787
10.6004109921066
8.62534022978385
6.76695816938252
5.39329894823682
4.91970737496452
5.43839116567478
6.67641504724581
8.29690535296405
9.99087894000371
11.3299968700991
11.8874088111598
11.5841252290094
10.7011509979658
9.52422044389511
8.1402121705981
6.57476165158828
4.94836164793928
3.38558883096673
1.81630483765571
0.015249733759446
-2.07097690630317
-4.15068447370803
-5.86940180108307
-7.14072592227267
-8.05899874018788
-8.67921850654581
-9.09099660512761
-9.50972872036193
-10.0514742315528
-10.5677191887578
-10.8731316026667
-10.976102019751
-10.9858893183838
-10.9800353608145
-11.030964656483
-11.2006060678162
-11.4732021361664
-11.7857617225188
-12.086934271836
-12.3050442041376
-12.3416175237281
-12.1470040052681
-11.7245543213626
-11.0618368451859
-10.1582181687221
-9.07259259244927
-7.79866039786085
-6.15497192392744
-3.97013162355183
-1.3350753355596
1.43238369791609
3.97225495646364
5.98478076477906
7.3499962347552
8.22743420061873
8.87591879052745
9.37206294206157
9.67508431094015
9.89525622364231
10.2730970364148
10.9156827336462
11.6894244157866
12.330147832045
12.6106106318386
12.4918805768163
12.133998880474
11.7109689827215
11.2936449824513
10.9483816790754
10.7568345603714
10.6364123565102
10.3070633186093
9.50317380346216
8.10659529925885
6.15286323544483
3.90981935415982
1.86643672324161
0.424371553541589
-0.377114701092985
-0.754649688915
-0.949301161368566
-1.20354315132233
-1.77390568654784
-2.76894203968466
-4.0298423018501
-5.24708096031333
-6.1310327564531
-6.49176939863674
-6.30093596583123
-5.687972780454
-4.79853987747139
-3.71360402930848
-2.5325016304519
-1.37427155216046
-0.234873960044156
1.0143579972901
2.43255218926406
3.84704827956964
4.78445520586075
4.53708025298442
2.57419783936381
-0.876646606210397
-4.75645464323833
-7.8515143402482
-9.59845439673828
-10.33793662575
-10.9370602135144
-12.1364434672175
-14.1134232169034
-16.5678378572189
-19.0711517176391
-21.1612006678115
-22.2060478294897
-21.516238601776
-18.8059656595092
-14.5851461903148
-10.0774410611369
-6.56964215371449
-4.54980116491282
-3.39534453773684
-2.00454256308936
0.283748974737441
3.44240220702445
7.16552248095842
11.1257483820615
14.7953184522736
17.3724639360463
18.148694352975
16.9627579741596
14.3412546059958
11.2793563484682
8.76153917487981
7.27295655902956
6.68602217831936
6.57222431327687
6.56286284899272
6.50981677175669
6.49574977122988
6.72394773094551
7.31610715039976
8.18106744931025
9.02268126997069
9.41060415382854
8.95443622748803
7.58766122712368
5.67119956025697
3.74843014127382
2.25139317518052
1.40090532660754
1.17490623132358
1.34292355941589
1.68886994003378
2.12372794027028
2.41118210435505
2.01019083223191
0.534955468093079
-1.72731143835694
-4.01180579654102
-5.69025046488882
-6.52363149245811
-6.48960590239687
-5.63617535223851
-4.11599648358595
-2.26059207361972
-0.589071325470493
0.356406892520282
0.363140598162355
-0.244703953905397
-0.854007633083191
-1.01363377738108
-0.656404753514215
-0.0818884436437716
0.167288544698701
-0.417565005166761
-1.99954653555336
-4.34114994459649
-6.96903634520496
-9.31962281962366
-10.887533986059
-11.4230066085826
-10.9799493898687
-9.78402679888674
-8.15445286169354
-6.46933285837814
-5.01022172940433
-3.86689103318529
-3.07974872921032
-2.72042982871808
-2.73420380584878
-2.9048448407185
-3.05373873723816
-3.06872491513773
-2.75576130048775
-1.94293056332408
-0.700668615076502
0.807997044132745
2.60484227640218
4.72271598545297
6.82156077922339
8.27788073156018
8.69576657974122
8.18885771899281
7.1950833069935
6.15795262885067
5.36919988613868
4.97949037845611
5.06388155378516
5.61919701483678
6.49544299696276
7.43728316243929
8.25757376812408
8.89765875017065
9.32676187247137
9.51472818597713
9.48117878458583
9.23906749956613
8.73651001904785
7.93315455756248
6.81376143551933
5.28456560450182
3.24752784387217
0.808759051728575
-1.7917832789256
-4.44648023682542
-7.17019599145891
-9.89639036544533
-12.5055694636836
-14.9679034684312
-17.257845605817
-19.2174566830962
-20.6414080725413
-21.4122286920347
-21.5249034907633
-21.1061133673797
-20.3680294707535
-19.3791080758576
-17.9280401892041
-15.7395743959226
-12.7477736161046
-9.08146438768024
-4.93709702138983
-0.611885013770759
3.43318010207132
6.70285771794913
8.91204589027226
10.1412996667859
10.7849865805382
11.2550233942742
11.6496171886744
11.7979716528543
11.6570980605472
11.4869867987361
11.5932814054798
12.0957877033665
12.9761951882961
14.1473953069387
15.4379788515345
16.6416524308025
17.5832956659416
18.0871814216677
17.9541886542683
17.0157172111709
15.1982760559582
12.6489773319282
9.87541535877009
7.56078800678427
6.07005520435896
5.28364164805673
4.98147916984709
5.10741521358462
5.51497947409271
5.73070038601331
5.1953624414388
3.67008220445691
1.36458170677943
-1.25047838874873
-3.7567827890593
-5.97339790407741
-7.87267009518165
-9.44598478211197
-10.7778053201388
-12.1113342690444
-13.5998407922499
-15.0465883517761
-16.1139491838906
-16.7343309956218
-17.078241095678
-17.1903973410724
-16.9605261998737
-16.4625327710002
-16.065028176748
-16.123079210789
-16.645890416808
-17.2692966296764
-17.5291389127797
-17.1921400441584
-16.3235742180129
-15.0781111168447
-13.5499972847734
-11.7704976158805
-9.60696108885703
-6.67814838239358
-2.68439878182139
2.07145739824824
6.67413669522428
10.1679935083609
12.1023808119091
12.6839576933428
12.5899490138347
12.5357888186406
12.8315337132955
13.304806572939
13.6045327216453
13.5274815275996
13.1607007585912
12.8089690566868
12.6818859770326
12.5932790370361
12.1029783269266
10.9942621279587
9.47256549689967
7.88851471793976
6.42845262032817
5.08344350955807
3.75318431891397
2.35287943161087
0.938272853721363
-0.279369402020653
-1.12038807260955
-1.58469399805695
-1.78036954963915
-1.82168023674289
-1.81145970750303
-1.79026410781927
-1.71509843345443
-1.57799306583235
-1.43973806478484
-1.26496709217891
-0.909208657880394
-0.380988371911587
0.0568397938859856
0.142783390507845
-0.129096632248714
-0.490494532800607
-0.526396654491346
0.0866207265046157
1.33839149137894
2.92308445211825
4.47908737617482
5.62953246331028
5.92825650370863
5.13561449922442
3.54673317009592
1.75509515408814
0.108365752760847
-1.38169243021574
-2.68291018473054
-3.55938978192093
-3.76053344344182
-3.28735355892909
-2.48476577478104
-1.8739146784827
-1.79443100003608
-2.17117372411066
-2.66058985712322
-2.97274855640616
-3.02668974575875
-2.96547696575464
-3.13981263407972
-3.90735305446194
-5.29809799126303
-6.96032620890041
-8.42432719776384
-9.25975114218484
-9.09361251900016
-7.8037682653928
-5.71785584154895
-3.42134187413087
-1.38769662987175
0.109193720058278
0.879437754057473
0.820880330405804
0.0327778665899507
-1.13418215950854
-2.17915952951645
-2.72478135641706
-2.76090091626864
-2.5251130385059
-2.14510728995265
-1.55247372801744
-0.707708663793535
0.293913631074944
1.31358941789939
2.22431668775103
2.95575775475009
3.55889568001491
4.07756885872807
4.34602351486059
4.15382813478917
3.6280001824697
3.1905692867679
3.11238429875976
3.33773140139905
3.7196474084296
4.1520415082087
4.47032899635182
4.49265694258051
4.2128061261349
3.80655617555517
3.48185209190534
3.4143819482358
3.69205645313137
4.1935976549324
4.63071653583175
4.78876827183239
4.64606008321119
4.2562793121331
3.60393422151294
2.59000593899496
1.17999972294316
-0.391005513718853
-1.69083761572292
-2.52850522209554
-3.18927177841368
-4.0511768485877
-5.12299917052323
-6.14777023811231
-6.98663642846759
-7.69654796056516
-8.32905056552863
-8.74895693096825
-8.59011289816122
-7.46980627724752
-5.40226862084276
-2.9059698849436
-0.574811464578926
1.31913751653498
2.72404322558444
3.55210263206943
3.6900538742444
3.13324573826079
2.02118014757967
0.638114971445559
-0.627674997260027
-1.47851743479108
-1.87676444291111
-1.93335179175109
-1.71230580205304
-1.26300620972242
-0.714289720580574
-0.176726392790546
0.366701452707458
0.989530722143953
1.71752523035979
2.48111505417759
3.07214258702162
3.23021666268251
2.8983898873751
2.30996870812787
1.75013092091309
1.3530495429302
1.16297707061435
1.22707223811315
1.56912931574914
2.15803551355112
2.8889769830625
3.56092167284888
3.9799860737645
4.13448963248273
4.17078218112084
4.21733821014426
4.3341181530591
4.51269582077947
4.57615314646639
4.24849685331408
3.50397445416845
2.69012832062076
2.16379398833669
1.96995063054733
1.9745112223879
2.11275156674911
2.3831815164276
2.7427182416132
3.10492912387106
3.35244904780468
3.33279535408649
2.93767023594397
2.17718098340812
1.12166415926176
-0.162719342887332
-1.61056601987308
-3.22820899213568
-5.16236506962479
-7.52710388372291
-10.1636551462591
-12.6917515261729
-14.7529203800805
-16.1545049214716
-16.916344843034
-17.2434626403376
-17.3420218523079
-17.2627683442333
-16.9972996403748
-16.5803328631581
-15.9369564037865
-14.7757770797654
-12.7961289736826
-9.90708720893564
-6.23235094540628
-2.1161860532948
1.87654222142739
5.24817241368451
7.93288417123696
10.227838736946
12.3700781211771
14.2556143194631
15.4909258355118
15.7047002968746
14.9577907131425
13.8285696598584
12.9131825355667
12.2826234789717
11.6117067145429
10.7366570706593
9.8301587374986
9.09362940100387
8.5295997205324
7.99070999338315
7.28426006131168
6.3013308273568
5.16592095828046
4.15514288105479
3.39983854933515
2.77128420603839
2.07214038385437
1.24070754728942
0.424477198366867
-0.0577743063483156
0.0798003952217029
0.851470916933361
2.02287584020724
3.3083999351376
4.41671376387679
5.02601259510555
4.91820702209175
4.07750794279777
2.58366860446198
0.575294556454379
-1.65524456323995
-3.79698444305957
-5.79919230697123
-7.77878221940498
-9.67576046197513
-11.249073310404
-12.3571657750169
-13.0190050999462
-13.2718308203056
-13.1499556109282
-12.7372029936883
-12.1260972379248
-11.3854728584432
-10.6011293279564
-9.85351301043854
-9.1490865645016
-8.47049055870559
-7.85630278079374
-7.30541869324098
-6.63480416346782
-5.53169288718592
-3.73452682867144
-1.20539933319327
1.73199811921774
4.48285182951682
6.60992705288831
8.12623028324695
9.22016328640825
9.85007090692897
9.81404715717487
9.08705866290808
7.91560291482874
6.66341424133031
5.62638920508883
4.90036699356054
4.41702051645509
4.14277303035122
4.12431977380365
4.29555568360242
4.43697653885436
4.39830689969907
4.18449229612577
3.81632034432344
3.30625330935104
2.74411369587112
2.21858000752974
1.70429351392318
1.16262775377215
0.663621265618985
0.304259674478468
0.0933038643267667
-0.0412772287438709
-0.228716013844766
-0.633447382734808
-1.33556057006995
-2.23253010769201
-3.13563950633025
-3.91820808103432
-4.52514808839758
-4.95249529345995
-5.25644041268736
-5.4217687226008
-5.20932292573486
-4.34222130260792
-2.84877481085035
-1.02927332860601
0.862713666879604
2.71130333159142
4.40322628156126
5.80509567572324
6.84462425058822
7.54612388066624
8.05949112971095
8.62724547754224
9.36567393893742
10.07878945606
10.3914670576083
10.0215057833456
8.8767075842367
7.03202453016881
4.71665692596147
2.23438153323861
-0.172259780794414
-2.39580959537921
-4.51572514921272
-6.79827950693929
-9.43558340645922
-12.2061458660631
-14.5980494928915
-16.3276020265564
-17.5371569224113
-18.4609135230544
-19.1090358319804
-19.3023039193947
-18.8376974515334
-17.6183950591128
-15.7439619811302
-13.3972057791844
-10.5460741212293
-6.9610196466059
-2.72218581878948
1.479901243111
4.79184265298292
6.89287565416568
8.16625836664349
9.26346633095791
10.5190214684953
11.7378421151391
12.5760351845401
13.0580773959565
13.5128084374142
14.0426135868263
14.3524070837444
14.1258747539365
13.3060234367523
11.994602840167
10.3220553035475
8.44764365837038
6.52876372107479
4.6687099427268
2.92408088364132
1.30578999801095
-0.19034456984339
-1.45190352423867
-2.23729922315586
-2.42181171663302
-2.16097231496093
-1.72887294168845
-1.33085521604209
-1.12473586570666
-1.2466907255447
-1.73056449902123
-2.49858434917753
-3.42604778740013
-4.31268090539181
-4.87397118148237
-4.9411973243109
-4.62271491896643
-4.1238652921803
-3.50394689735597
-2.75953072219793
-2.01658345998732
-1.46619855113826
-1.19159221822445
-1.16074851403811
-1.31492664641457
-1.61167497097491
-2.01611573543667
-2.44073117699184
-2.71002645930846
-2.6737350598369
-2.33349719203539
-1.76767358961738
-1.01843108843168
-0.173418226914157
0.563692012129274
1.02052396164676
1.17110406183767
1.05707797940757
0.762747505979177
0.475675684040288
0.358882313789233
0.362734674283275
0.337682940177224
0.264439477454396
0.225120238929668
0.274717179086099
0.453191031416642
0.753839736247071
1.00824345502949
1.00313661832781
0.763025692628986
0.530144661417816
0.447281797201177
0.43166302504807
0.348912585022526
0.152449744254625
-0.123576769149375
-0.388261383874333
-0.556668166050457
-0.647583596296351
-0.732625106902508
-0.79814176165552
-0.799065115181768
-0.794868695981485
-0.857902658672386
-0.922736576946931
-0.885221106078418
-0.750486863760175
-0.561331689415789
-0.304305568334513
0.018193306219924
0.321366758305644
0.483202546661082
0.4178741523747
0.18058517604494
0.0297183118792899
0.228757147503825
0.756583499858536
1.38618834264443
2.00892316102397
2.65435396251617
3.27622869283214
3.79082660318026
4.24577798978938
4.70323980395691
5.02980517305714
4.98195910672602
4.4375552065871
3.47959433339768
2.36046760662948
1.38965103688196
0.715045098416252
0.210255205686055
-0.327893345236385
-0.937957811928345
-1.55504403388722
-2.19667513592657
-2.93917567192215
-3.79282847044955
-4.69714973185251
-5.53722742557027
-6.1206684442356
-6.27027516884961
-5.95853486969745
-5.25790502724134
-4.23739170608979
-3.02411499538869
-1.85835504209493
-0.969431317883986
-0.444496541391687
-0.186791412864071
0.109856558938456
0.824962891408776
2.04432947835088
3.40186106088859
4.41298392284135
4.83580215476203
4.64579362794348
3.90301075283305
2.77398458715855
1.51058739610629
0.330973420670284
-0.609743394214616
-1.24414209610378
-1.71054694618613
-2.27445896696443
-2.98927022255694
-3.59253010337187
-3.82625810359505
-3.68984895227358
-3.33290882644342
-2.88930003099128
-2.45754134261663
-2.06181443830094
-1.57828287188041
-0.833160879527335
0.192604748698028
1.33521096343541
2.40467573921369
3.31565570677788
4.10622267087017
4.83547527803702
5.40452936881402
5.53642427887042
5.02618649166488
3.94611405118279
2.56097694262716
1.15991725476497
-0.0299118325248791
-0.95831731771778
-1.80485599580216
-2.75013134558776
-3.69477309985148
-4.31327614047139
-4.31459509668973
-3.58695283626258
-2.25597603853858
-0.694466567030462
0.67829082150451
1.64803949830553
2.13901599980501
2.01933673365534
1.22721172103377
0.0200519235054042
-1.11846838401309
-1.77894422416658
-1.77530931360116
-1.17670533740141
-0.284821719759305
0.575187625504326
1.30334800609039
1.97732690560746
2.62473102532937
3.19148232055857
3.650216699223
3.97322799577435
4.08013198790088
3.9454834318889
3.64785970022842
3.22278239035819
2.62639644653804
1.91033340688946
1.2554118721081
0.792805353457579
0.531860830767622
0.420084534531516
0.337360745465043
0.12563404296059
-0.248666141312356
-0.656045457046105
-0.989612470153339
-1.28758847039951
-1.67823514325504
-2.3060499262121
-3.23720507957233
-4.32441735649418
-5.25595432324407
-5.80473539977227
-5.92596598319489
-5.6448125412859
-5.03448998240844
-4.25938955012227
-3.45998507172087
-2.66530810791188
-1.93306614743109
-1.41892391888134
-1.19268766559393
-1.14614499497522
-1.15291704498218
-1.16647774360639
-1.14698414881873
-1.05135276749074
-0.890511700282243
-0.666498758714178
-0.292571289925007
0.316477497800632
1.13101219621297
2.02943954394504
2.82251229840062
3.26655213583062
3.24949469267131
2.95829547370405
2.66903874333788
2.42583055308769
2.11305800521895
1.73194242630561
1.40965554630127
1.23856360568556
1.2400339376814
1.38081620346583
1.56529836537489
1.71053080136675
1.80713161861606
1.82417434110395
1.67440596335887
1.37897223898423
1.1107492783903
0.972329941409921
0.88470105068509
0.755420577087213
0.60853446553564
0.531815787074763
0.609190644729911
0.859909832786358
1.16616371727657
1.35352423497059
1.37968812684955
1.33220537584281
1.27117575559028
1.22271720242547
1.26185675794719
1.42581171312764
1.596705417426
1.6096782318424
1.40589673548836
0.981515291695502
0.321782561560391
-0.498155631726365
-1.29591134037961
-1.97381366020446
-2.59436808470971
-3.21655255933725
-3.80245757571528
-4.28941484129738
-4.62331004906692
-4.76247163216733
-4.74586243135733
-4.67929967034229
-4.61355511642828
-4.54920024619411
-4.53788221330968
-4.6162508917372
-4.67435411066468
-4.53514123204863
-4.10911582348734
-3.38250354974751
-2.36745781156965
-1.13338571092118
0.224714068217681
1.64582417349527
3.0121209888211
4.08892588817644
4.71245213386479
4.94292785479352
4.9337050910297
4.79208797502985
4.61327824594797
4.45520338183186
4.24821498514602
3.91344444062082
3.55435391443069
3.34465842768248
3.26984893781223
3.16588120746885
2.96086460377704
2.70650739587095
2.43608582354118
2.14738652365776
1.86271849228611
1.59817704603589
1.33964615526493
1.08136645387649
0.804520906097381
0.454430341213467
0.0310797728347494
-0.386485278988472
-0.779403523916264
-1.21723967531986
-1.6993222506763
-2.12983852777694
-2.47337652617002
-2.77866516392708
-3.05941294733896
-3.28110364258837
-3.41935984124635
-3.45380910081066
-3.39976348918487
-3.37282614330322
-3.47580090292545
-3.61797099531315
-3.59302331481576
-3.30304176840656
-2.79816771718424
-2.20208182264652
-1.68808549256972
-1.37161431152336
-1.14578691390192
-0.778037762044425
-0.211616718128513
0.369534298199556
0.77353837899877
0.974052046257518
1.09195120831321
1.30750900200044
1.70570856343841
2.11100085352125
2.20216245347826
1.89463992194169
1.46233615175458
1.19666729147793
1.12110505798361
1.11221918665732
1.11066111239125
1.12775659292877
1.1689911032032
1.20432289484876
1.18208259004632
1.09868327466139
1.03847217204919
1.07158568218415
1.16382027067979
1.26123252540484
1.35533022219536
1.39289781054924
1.27749018312666
1.02567782962443
0.753229198506575
0.491965052483991
0.212561277425853
-0.0125819998577679
-0.0877341941464245
-0.0668829422956807
-0.0569734857259866
-0.0587229396724848
-0.0546941872406199
-0.104447431188877
-0.23219246005054
-0.368137934603317
-0.460973230289361
-0.506409417797013
-0.469894364846701
-0.335435220766811
-0.201375070341346
-0.187558102510009
-0.294746793020633
-0.458081503271779
-0.646744311709595
-0.823425050406767
-0.92517102700274
-0.952172464207422
-0.96053503041814
-0.959083936284079
-0.930156180518486
-0.901367594350673
-0.886036558032598
-0.841233666147647
-0.758687843136937
-0.679563275692294
-0.598401689274049
-0.488107197056543
-0.384564031837424
-0.308072714000445
-0.190424019607627
-0.0094663612544354
0.135000859602897
0.185761449728563
0.211762066442606
0.25961279191304
0.288124476506581
0.270293919047135
0.206242171324896
0.079698087019406
-0.0622132837599327
-0.0916746965194002
0.0197430527945123
0.139989097794471
0.178741177286328
0.203689923898508
0.306314358699958
0.487251934307362
0.688861360034429
0.82713214628055
0.814315152183469
0.653888494136081
0.467770827186274
0.343233181554649
0.225690537136386
0.0313456363144855
-0.233424384069471
-0.508021502667447
-0.71833827006637
-0.782909167916886
-0.700356940628632
-0.582156138390314
-0.492487585799321
-0.361338309903425
-0.14311774960145
0.0869322742692402
0.260690818242877
0.387386761553773
0.470453096645628
0.497940864585418
0.50249729063842
0.51988475255873
0.535277749294105
0.524339117005386
0.464294003632987
0.320208462553043
0.136917898154905
0.0576034946876513
0.108999196111835
0.112831698722739
-0.0419219581369633
-0.220171178239244
-0.255179020264723
-0.138408292972505
0.0768943443362841
0.335082864307706
0.501468603002015
0.454393638405267
0.281883698714492
0.19692674508361
0.259925769327242
0.34266203171782
0.331044629680155
0.226136504024589
0.0979162032863193
0.0342946724480355
0.0566371783048946
0.0503295760926904
-0.0996496106469918
-0.31978560320202
-0.446072898080113
-0.459675602621061
-0.472764152353304
-0.549448337188616
-0.657468106987932
-0.721077028057928
-0.66984267434392
-0.51480111052814
-0.35659679225603
-0.248567502228028
-0.149696750974324
-0.0717246855000922
-0.102643159752941
-0.222839709881745
-0.29702213372505
-0.293101871264476
-0.307508546150898
-0.36437448488661
-0.380312061382297
-0.304507353242387
-0.142913603278518
0.0899892223346112
0.334007166822973
0.488775607181808
0.519861456959358
0.475043986714503
0.402086677216761
0.342038396284613
0.345831194717461
0.39498425386198
0.385156491543957
0.28237285768348
0.192872179016733
0.191412794855222
0.202747541779238
0.129768650272146
-0.0260509130922685
-0.207841502965626
-0.339123130203101
-0.340651607041043
-0.24121039419147
-0.194433022894164
-0.275382014661883
-0.381909684221297
-0.405204274643773
-0.338694148258449
-0.198115290751627
-0.0140575923190756
0.11263403646112
0.108855477147349
0.0262010549488851
-0.0619064243020571
-0.135176658245543
-0.142531901601015
-0.0255930559480668
0.145589577016706
0.248351299396354
0.292605129539001
0.356442135847607
0.43148864621311
0.487046065110399
0.542152546534454
0.557988304942386
0.44328578129754
0.241238412468125
0.114594107373671
0.114296626651964
0.150712068592627
0.179634319824231
0.232013548756648
0.289913178284336
0.294079845514399
0.23505498990062
0.127975798672947
-0.020432519301075
-0.147672574365103
-0.167530765446891
-0.117569267970899
-0.133420617186678
-0.260994091662944
-0.418154516143802
-0.501382832518287
-0.437800313189354
-0.23526623078225
-0.0456854604289138
-0.0415513779484143
-0.202826526106074
-0.361003388253457
-0.414167508998837
-0.36205962452698
-0.225886878695445
-0.071119969214081
0.0052434756195152
0.0042666394324429
0.0083815948529326
0.0097847507474077
-0.0707437679306005
-0.205826334190446
-0.284605174313772
-0.273606657495996
-0.203030597569862
-0.0762543276848291
0.0812880494836733
0.184322109535731
0.189064687772362
0.141062145741228
0.0899452009123773
0.0492851297786967
0.0335983804412751
0.0430467793782728
0.0398848242993639
0.0189071125514051
0.0446739477066283
0.143891447737874
0.234782676378502
0.223008783433674
0.0886162876517472
-0.127904173991507
-0.320689069837103
-0.347250853408903
-0.188536124556133
-0.0005266849522583
0.0946349007970283
0.141517706424619
0.20682330739477
0.267697517815348
0.293274933627709
0.285096649828189
0.235067647440722
0.166451920450597
0.155986903031637
0.21642794884995
0.260229604014436
0.238914357270807
0.184640835336133
0.104745185887726
-0.008118807993142
-0.0946275026771785
-0.109619634488602
-0.111327426967574
-0.153823949786684
-0.204581538858481
-0.235049443589591
-0.245568393679433
-0.187216338461242
-0.0289669835636925
0.121498704357333
0.13242716120209
0.0350618967834553
-0.047422192706585
-0.0804258316372154
-0.100901470178353
-0.115117137971528
-0.122270742163768
-0.140700285637615
-0.141595299434154
-0.0699396037626439
0.0457289105654702
0.126198339934916
0.153845458275887
0.135664188791933
0.0420295844039532
-0.108911341976999
-0.221448827984193
-0.249254460840116
-0.229715444329586
-0.18744079905978
-0.139917713317072
-0.146640877060427
-0.215126742241208
-0.247403322629439
-0.189601609279497
-0.113007228154258
-0.0778072133178495
-0.0584945108272884
-0.0230862412026499
0.0569342285890044
0.227551378455526
0.441766781785606
0.533751869693858
0.430622891341318
0.254473074525363
0.135376628990576
0.0893221797712474
0.111527882125566
0.204038625664674
0.302910528408055
0.338942127324431
0.34217075189171
0.357007044938854
0.330603524976825
0.212461402956961
0.0673442356194477
-0.0289183216699885
-0.0951502362227884
-0.152007361296311
-0.156998310131166
-0.112825740752961
-0.111590724696445
-0.212706873540359
-0.365628848282358
-0.463938395045901
-0.43658942476314
-0.326994793169262
-0.268795026528924
-0.303739068045457
-0.295579825470484
-0.137468931151049
0.0677092940256857
0.157248170967963
0.10831555642056
-0.0067232135898732
-0.115169047985318
-0.141676201315099
-0.0669615028867389
0.0119551038615919
0.0184243336184258
0.0092892758364928
0.0233789400883807
-0.0177611883026194
-0.12583230207978
-0.162266916568612
-0.05159876771717
0.114851144993337
0.243263200933192
0.317712164395469
0.316799426354529
0.233352664161828
0.155327852754949
0.176994177220025
0.271840545698773
0.35511344999092
0.385886353055464
0.333834415267984
0.177151712813003
-0.0027381488410275
-0.0727966596984822
-0.0299546446215851
0.0117916401421272
-0.0048230735685784
-0.0585847794397689
-0.13450414074046
-0.207893375214545
-0.230621683064308
-0.207333986936401
-0.192236429870238
-0.202874320502013
-0.232076586901211
-0.291093795584541
-0.35577059505657
-0.369227561226653
-0.350241465511565
-0.361353584719294
-0.363667539923488
-0.279126145702132
-0.167724234791232
-0.151826886508496
-0.216955392952088
-0.251444877355935
-0.197950039740505
-0.0543936823276054
0.148027909989809
0.308948453742185
0.348604294663783
0.333846518315314
0.368983423437536
0.427011604995024
0.439410773489217
0.444899439936423
0.492792264923028
0.516577174827933
0.448418473003288
0.342666639162319
0.270712230084576
0.215713124242481
0.144655261548564
0.0526413212213906
-0.0803688714784614
-0.23298938406233
-0.288994052538274
-0.191065955047007
-0.0571876420451068
-0.0132228661972995
-0.0298539165213923
-0.0154261153889792
0.0591494094339872
0.162659076571562
0.216056738075943
0.141191938645765
-0.007961709250597
-0.0699596740256514
-0.0078595645238239
0.0363702312300392
-0.0311635111467221
-0.14955568994508
-0.238108852124134
-0.267905808896201
-0.227447036733192
-0.158368911921625
-0.147368485928018
-0.190069368719409
-0.194729812127302
-0.1634697938948
-0.192566049477407
-0.279872300698732
-0.315984592731343
-0.257790408708518
-0.156515374366103
-0.0563951090580701
0.0106585076653833
0.0071639484795193
-0.0289120821516112
0.011620805380978
0.137330215844398
0.211944225227449
0.150036998307438
0.0262984591140936
-0.0480022265427226
-0.0352987451383083
0.0344346388381458
0.0815798973974988
0.0439648320927176
-0.0187052191144632
0.0029563544381827
0.0776929571300615
0.0685392486461929
-0.05129233043806
-0.17260115995144
-0.205895319703222
-0.139323612224078
-0.0114570021913416
0.08932839051413
0.0917397137882642
0.0360530195255036
-0.0011515539341626
-0.0214106770455412
-0.0185950413323252
0.0876468607806315
0.278435295698113
0.368576644552734
0.266470532759545
0.116708942793438
0.0666149452573126
0.0825614964546691
0.0797719725805015
0.0554941539723015
0.0370929836943032
0.0331123211736169
0.0561470781065434
0.103966509760207
0.138465058741404
0.142253073475
0.139716267832359
0.131921817339491
0.106830601390026
0.117838532322496
0.216042360105184
0.319288248383459
0.300686646900956
0.169009044985931
0.0223170369823291
-0.102498729447248
-0.215157932566394
-0.302221873332422
-0.354348616737707
-0.375443138057828
-0.350194874926081
-0.289523784670824
-0.261095334380621
-0.292885927555609
-0.332893187956137
-0.35442762220133
-0.37664922250938
-0.368916305164479
-0.286622618349198
-0.176707423973442
-0.0976516590071695
-0.0125433037748428
0.102043707001534
0.170062627755263
0.15292599916186
0.116675196690066
0.0972376571112261
0.0729988551113292
0.0838772362989389
0.191413473855835
0.340380799827843
0.431500153178486
0.478890223181715
0.539271805547474
0.565726737494842
0.486618520368866
0.347968465770141
0.244153005011068
0.187867972136196
0.138022315262293
0.0679341081890433
-0.0329662808016052
-0.139917771600397
-0.197128840809852
-0.211027422295743
-0.259501018318771
-0.364590158738871
-0.47295522194108
-0.563861605995183
-0.638575827866304
-0.645853136255583
-0.557091979198555
-0.440363654884992
-0.355924242956312
-0.292362777481113
-0.259102537804272
-0.278253194456956
-0.267122396683024
-0.123228052043813
0.0791310132272375
0.165216421868098
0.10081085317618
0.0073546510596638
0.0041986803760515
0.133389784750001
0.341487564120355
0.490841853194891
0.496685375120131
0.437117134901643
0.425209992960876
0.451223000329127
0.456653630704488
0.449901703855291
0.441759163021707
0.389756560265261
0.29921877317117
0.247941103582679
0.242507034539704
0.203046602908265
0.134935918957899
0.137219055682826
0.209950140470154
0.229547850331718
0.127691040534269
-0.0406097695100104
-0.178754704095898
-0.218628850712792
-0.182457883018849
-0.19846596992842
-0.353567443294221
-0.561668144566082
-0.684881551302493
-0.700319261554179
-0.650361862841192
-0.557282673273219
-0.466745483070411
-0.431784081912536
-0.413285106046085
-0.333862304715705
-0.208759820971063
-0.0954382977964508
0.0069566411447846
0.102993263529723
0.170362661113863
0.244803040730526
0.379073979117987
0.511382341491782
0.549687158941636
0.538747700816827
0.562626305519992
0.571564964907482
0.485087282899066
0.358595052808055
0.284170423352998
0.240159274936613
0.172992944985866
0.103932301562419
0.0533110282553014
-0.0083406958613805
-0.0767769210689941
-0.119851410051724
-0.164354869636701
-0.236699594577643
-0.278080157308186
-0.250409421945125
-0.225199140352754
-0.267176133916678
-0.348915045457178
-0.424372917135632
-0.463987825783165
-0.4367213082543
-0.370119620132081
-0.35358109308623
-0.396533789010284
-0.399697203459203
-0.313828607197772
-0.18984776791474
-0.0763560960592674
-0.0045129386523177
-0.0025565974183376
0.0018587821419816
0.150063768557536
0.407650839849176
0.5459133787529
0.460791222308188
0.297688212034171
0.212152202939261
0.224727824303841
0.315558530107859
0.451974687960557
0.537285773765697
0.498048830627814
0.388299792163601
0.303279093131677
0.265565384727613
0.268305294180526
0.320403039023459
0.384573350259769
0.379548652208337
0.275043323691237
0.0922438535557665
-0.145562741789462
-0.361192721757708
-0.431317904697923
-0.356733295672495
-0.29239525315287
-0.332488334366925
-0.415957148046894
-0.469284868246704
-0.483585332810246
-0.465064302155254
-0.439841435293424
-0.45330690098885
-0.491794087104451
-0.50334821608914
-0.499413203256838
-0.494582864090563
-0.407084009688755
-0.192659162302543
0.0265248198878333
0.131391673955041
0.160782466299784
0.175865140179672
0.163124750198505
0.154318044673899
0.228714890278292
0.356599795093188
0.434413045735513
0.448151788279802
0.432750629857029
0.361724109768359
0.237681604535908
0.174212328086426
0.244899688655577
0.367869767935561
0.439751685457552
0.450768748929468
0.404857298856898
0.287981324035751
0.162243538974657
0.127268840736913
0.166689058884486
0.173144345299318
0.104339961939527
0.0071972914469268
-0.0576784726155976
-0.0598322184851403
-0.0421979785306248
