-0.0673362571999123
-0.109879461209494
-0.203931733174452
-0.379626145873424
-0.511888682241162
-0.468733971340931
-0.328568474230368
-0.288158934716474
-0.419038196338619
-0.621932204183979
-0.742811289512272
-0.695166732011572
-0.552154588686992
-0.484227483011392
-0.528992440661069
-0.53309460217062
-0.396555201234315
-0.208835369479454
-0.0680758179443421
0.0521651077042018
0.200178611035043
0.377188056158704
0.578492061483794
0.762735888341432
0.834318833662937
0.77079319223056
0.667456905730443
0.584757349699447
0.490250031260249
0.379478589708364
0.293389811163482
0.214273661467982
0.0927824746699595
-0.0464694713154206
-0.146606205332857
-0.211506883739641
-0.263188313632617
-0.290159413837679
-0.311071194570566
-0.373988221439096
-0.434370311168982
-0.371534574980471
-0.165319536761815
0.0761522432921314
0.25528125262391
0.332449757461984
0.301687087040001
0.221544861634563
0.176474741126707
0.163046096805848
0.137313722442064
0.146935999965953
0.253179636671021
0.386963974693863
0.446366520188864
0.443354338461821
0.421033369341745
0.353633947637797
0.229348923505719
0.0947194075264223
-0.0289118485000048
-0.138351389346085
-0.190237124923961
-0.188472853921782
-0.233750665600009
-0.358898155637313
-0.459388879172162
-0.484790705966222
-0.520342920249808
-0.611753273244481
-0.692775865008705
-0.719869042369513
-0.713210009774416
-0.666572421544766
-0.55621242801211
-0.403873591638089
-0.220962875625197
0.0313279425834249
0.327041629195749
0.526895500233978
0.529613564454624
0.367008002306062
0.129099449881714
-0.0752874530687728
-0.126649592816529
-0.017200622338992
0.108202876720129
0.149893755213279
0.166181285010857
0.214812751839971
0.255261342951404
0.259917535889929
0.254533615870648
0.23906296400492
0.206919276166224
0.199039770961996
0.234589795638078
0.271935931333137
0.292139275049942
0.303665103204136
0.271088314482886
0.185740384270223
0.14249715873015
0.18467464012863
0.185635878472961
0.0406453827428299
-0.168463659632451
-0.32243155577804
-0.407986025783981
-0.427353977034404
-0.342939064638872
-0.175615598778475
-0.0153640781963828
0.0863023996115689
0.128060990253741
0.102794161513751
0.0375768973108928
0.0215262547333827
0.0882384322089417
0.148823678602304
0.118552411585826
0.012433654090361
-0.119841682173493
-0.233821470732194
-0.268677285846309
-0.20681591941399
-0.120987257075369
-0.0793743214319652
-0.076948601797082
-0.0907960375501174
-0.0957348344821959
-0.044050238771165
0.054407399960111
0.102162668127843
0.0660334762863282
0.0371960157101426
0.0608647720718652
0.0703950201596338
0.0442885139892605
0.0413549649127116
0.0536984890840679
0.0085735462546075
-0.0879207732723882
-0.155382329174226
-0.139402578782166
-0.0237976921361585
0.147057339817009
0.22653265540024
0.106654968651045
-0.102636432340628
-0.208960750602801
-0.207211776727563
-0.228864269130393
-0.289877013154706
-0.288523649089172
-0.206415875849003
-0.135495318735229
-0.135085252872246
-0.182027649133807
-0.212841857376878
-0.148758367413036
0.0323547065484914
0.222695242653773
0.294573549286792
0.264731516253113
0.23471167333591
0.23573917156378
0.239375656592712
0.227583818944506
0.180278862849381
0.0968355173125649
0.0449721380046963
0.0807767341416289
0.15633854708625
0.199819480740517
0.205542423798209
0.179250085183414
0.112334123200285
0.0446448172180257
0.0236911927712782
0.0190829419734797
0.0052497620433727
0.0411215638830619
0.133259970720509
0.159704801251148
0.059136102837722
-0.0623989500814228
-0.100000202548776
-0.0595517669277419
0.0258639549836016
0.116259615180159
0.122258154394967
0.0067991473967257
-0.120401812723096
-0.14800265546314
-0.120281976924862
-0.130313674687784
-0.170208095959808
-0.201987103254978
-0.245108911914402
-0.287779926467705
-0.247549133200037
-0.104891210108009
0.0373333344749777
0.0613939517422656
-0.0715258078588358
-0.287775957605083
-0.41266284358174
-0.322724293170299
-0.112182322743896
0.0164869298495307
0.0009139230929195
-0.0728731997750212
-0.126758579132408
-0.120222680466482
-0.032945500808008
0.0793368339784619
0.136067735371714
0.172394764686958
0.26604807813091
0.350173554314518
0.30112193497476
0.161002812650599
0.0750948147127354
0.0815426843579356
0.121597518946928
0.157178459040037
0.165179977459153
0.124861978312841
0.0715767030719304
0.0665144334820887
0.110483239771425
0.164578759305219
0.207714017962196
0.212304548305945
0.147515187438596
0.0556127420671831
0.0181350839152001
0.0193507394415609
-0.0227278988231864
-0.0931511138950257
-0.118063101644598
-0.133975281936543
-0.221660185510504
-0.322776895115396
-0.316465715644963
-0.213423242041992
-0.123282483709139
-0.110628403474448
-0.167186084158336
-0.229495736716014
-0.208051118080798
-0.0974394435224633
-0.0090780719955609
-0.0086356244224238
-0.0285943724932767
-0.0132275734238107
0.0006304993103857
0.0065813168417867
0.0685863552576737
0.195809755294992
0.315620616167983
0.370843677645105
0.347609818846021
0.26803378829216
0.211827988570009
0.233137255051655
0.244947660737142
0.132811272327988
-0.0508991614627459
-0.167695040600023
-0.194433885249108
-0.185065574789429
-0.137688050714187
-0.0600320071657852
-0.0514210796539809
-0.166741381253986
-0.308552606784779
-0.373200902218009
-0.38367810417296
-0.396369649200938
-0.408462075678529
-0.399117438939821
-0.343882081898087
-0.214037073172514
-0.0591419396160072
0.0100294052910808
-0.0033965108591268
0.0228884090985646
0.116453667386145
0.170220165156579
0.127699070888266
0.0366632315101093
-0.0551292785500872
-0.116036587999487
-0.105214211499936
-0.0295676503376817
0.0589960597398677
0.156409112078745
0.284538199225678
0.405012235381976
0.487019434947905
0.585794439861631
0.725921573044659
0.8202705985212
0.808059386986362
0.738493261828528
0.660393533776645
0.570918214738838
0.47668633798308
0.369520130823998
0.187907945348512
-0.0728653424601697
-0.291923611015158
-0.374379656135189
-0.375834318427597
-0.385664065266336
-0.398772441371185
-0.377901700642075
-0.325029084254635
-0.252871279179348
-0.210429230404143
-0.305633350221505
-0.541457128147572
-0.708332657774033
-0.623248001381606
-0.382439200980375
-0.220986623055628
-0.227693062974179
-0.304929069804622
-0.305459508535407
-0.162177435177663
0.036053600679835
0.12326106531276
0.0624036699360388
-0.02586168815238
-0.0649124181540533
-0.0937561374733655
-0.124780837456269
-0.108112806645311
-0.0326073782471389
0.0846277237396709
0.243028857669928
0.376587925289101
0.363549946499656
0.216951504964194
0.0990314598352909
0.0891944153865915
0.11735082550668
0.133988414195141
0.157498562140207
0.167194607744679
0.114882347159326
0.0175793710312286
-0.0788503958183217
-0.173429964154143
-0.258671116715978
-0.280149138713767
-0.229772702462946
-0.190350698558347
-0.226196277246425
-0.309130474154438
-0.364816501481611
-0.324563485437715
-0.184806195928356
-0.0649736221377442
-0.0849507709414668
-0.161018285650404
-0.10302046312054
0.0861604332671863
0.217835932723134
0.200037583074522
0.110838826595348
0.0433579398021941
0.0484909409994585
0.150900484682906
0.300044802746377
0.401114539214623
0.437620754194157
0.43970956051936
0.366816070799883
0.187950415772376
0.0121831672990695
-0.0220662757794565
0.0921393009296939
0.279891270775891
0.472312375020137
0.588852649897367
0.56989453370358
0.453360280055879
0.321273137736734
0.209975554278894
0.145391534497835
0.168199070827559
0.249529039401081
0.292995799039852
0.275738710519717
0.26493143802383
0.270095933999767
0.235165573337011
0.189149751259016
0.226552067647187
0.331829061598811
0.385655391255551
0.32244629885182
0.157384175958544
-0.0687921427642488
-0.280363871934684
-0.406787904485659
-0.477484440767839
-0.563790655459029
-0.647065186264421
-0.669470270905741
-0.649648429769257
-0.630613409692354
-0.605947158656285
-0.578512212908305
-0.574667935930981
-0.566394910386434
-0.511490373707633
-0.45291073294396
-0.44711615160122
-0.466323903535704
-0.486353540697405
-0.548814151977375
-0.649706200933131
-0.720695341799079
-0.763269593585807
-0.828967263418111
-0.870608214217025
-0.795578610331789
-0.638458237015142
-0.513927433943705
-0.44423386491471
-0.371814502779492
-0.273483653970795
-0.144389883100653
0.0379307632194354
0.234150729137065
0.348991768009895
0.399987527448567
0.538793498138781
0.830481421747145
1.13332747857389
1.23792695287611
1.05752376281492
0.71468932126187
0.471828104450093
0.485382400593086
0.629004486576048
0.666199810798832
0.536669623396365
0.348932200866003
0.20202222809652
0.149312049704709
0.212431379222599
0.323781739709453
0.380308013798908
0.390188135845665
0.42619681239482
0.47571459804042
0.500137942570964
0.545430432724996
0.632645375256521
0.677440455711643
0.64955412574776
0.646070507865815
0.720895119842911
0.812248895566144
0.868180307770023
0.882140088618619
0.823065659163002
0.674488152776013
0.500103856700141
0.361453742045048
0.233484026580085
0.0729307568273095
-0.118628375219657
-0.340727446945533
-0.587531325858826
-0.787022041654327
-0.886582653708432
-0.97043053363284
-1.13434015501675
-1.30723468569653
-1.35756011167718
-1.29892735466317
-1.26203585044888
-1.33583133187167
-1.48938315766303
-1.57388476656399
-1.42775406568859
-1.06119855817072
-0.658740902310096
-0.349626232324054
-0.114677223769021
0.0626285502922928
0.149380818929153
0.180366231409602
0.226893470871608
0.258617415820727
0.193416715678091
0.024555737455183
-0.210080609449796
-0.460828734021377
-0.599084476599989
-0.488721758987725
-0.170388556621577
0.185589055959309
0.495269235605855
0.772079425646415
0.981181915206204
1.04727325555112
0.961156592411762
0.76206277485418
0.475976237919869
0.153640261689739
-0.115914608777118
-0.300321933949262
-0.451191276824912
-0.612955244209749
-0.794640506414691
-0.990914394103264
-1.1133287429486
-0.989500714434545
-0.562120408984899
0.0136006260294769
0.552734190776786
0.980822583805323
1.26487964262334
1.39117283834221
1.43139272461766
1.47274862349238
1.4973390235529
1.43328170909579
1.25156578826442
0.959285394359422
0.623339494436678
0.407104003020686
0.413328353801518
0.509845051010448
0.483632818423177
0.318736896432386
0.173048585892605
0.155431442469109
0.230760618355948
0.257970017112814
0.0835064774391241
-0.301974128669114
-0.712773716289102
-0.961621865004651
-1.03831694781207
-1.02447685101108
-0.952594829828966
-0.847673126777491
-0.790646087070046
-0.834226632778069
-0.938746733210653
-1.0469489711327
-1.12668807808146
-1.1310834051273
-1.04084988856081
-0.921855523424381
-0.815171135556321
-0.644585889798305
-0.352274903629827
-0.0117974911834092
0.28815130890264
0.540474084402515
0.757420986130567
0.949826760132068
1.1553901627591
1.36263756497959
1.47369260398288
1.43743213399605
1.3033545238126
1.08389746558695
0.714242826843326
0.182043088085881
-0.433949057790148
-1.01640335314426
-1.39374642309692
-1.41226765513769
-1.15347524311324
-0.906551940643386
-0.813764590251243
-0.726491329664572
-0.475741384151432
-0.0932847616894805
0.267981647300322
0.471664545855498
0.460746832894399
0.302470114892108
0.136189616827029
0.0142029536373431
-0.118533016735538
-0.252673889884691
-0.271741175294043
-0.138973838233271
0.0245256510240127
0.10247075118005
0.0985133399416346
0.0888363082809501
0.172507893661708
0.410892836149734
0.72322176669493
0.942657229002746
1.02354995498895
1.05690387368412
1.08682251856723
1.07483390398124
1.00808660975365
0.897728565114461
0.742148186244599
0.589011438423533
0.518016204230388
0.513135458399301
0.493250420391445
0.454946387359943
0.420745195575467
0.319376348536918
0.0938592044611807
-0.18273119374272
-0.446962102935996
-0.745979119719084
-1.08975198158686
-1.37845359963885
-1.54169630591579
-1.59418317195347
-1.56457904895486
-1.51231176361827
-1.54236746036161
-1.66416789097593
-1.72150012915098
-1.57043612694972
-1.23633031935538
-0.831273736858922
-0.432799124162697
-0.0895440162151504
0.185010524545222
0.461242412453894
0.819675310531247
1.22584430802513
1.56298476391295
1.73215451233802
1.66366084695499
1.3486201059641
0.909970078189808
0.520050960058487
0.239340251803579
0.0375562163014758
-0.0986773375056179
-0.193045449007697
-0.306377916947208
-0.437201003504813
-0.507336329689402
-0.484067714256156
-0.38648468429867
-0.201328959294249
0.0505345155675338
0.241024392760801
0.284380757344833
0.247538607510061
0.197774830908936
0.106439834621017
-0.0230764178036398
-0.135656733084693
-0.263790125503944
-0.471403714028545
-0.667641745249397
-0.684680205346257
-0.512972325325274
-0.290440929128457
-0.112197646095673
0.0095289898390694
0.0626684270131386
0.0330456677710077
-0.0603433179168425
-0.184055050970434
-0.288952013475969
-0.305010747647
-0.230470741197309
-0.169710188738446
-0.18053695198155
-0.184358554430664
-0.12060604399733
-0.0556811781284805
-0.0694953038270303
-0.171136042314562
-0.337927296968334
-0.500318051069921
-0.53472707086882
-0.396902603343335
-0.172249261409689
0.0908411191585339
0.451963276270682
0.921728031953931
1.40189710852148
1.81887687110898
2.16307554370843
2.40602819633104
2.51381960934844
2.49641277732154
2.35900015701307
2.0975791163832
1.77046897317599
1.44162495194635
1.07877818917604
0.656433232282494
0.283142470182077
0.075209494185591
0.0050285083744937
-0.00735377246384
0.0122148522207968
0.0125089817445196
-0.106622478243969
-0.350164934507711
-0.616333089648646
-0.870039553914062
-1.13835888979809
-1.32765031884019
-1.29051962276264
-1.09817271158677
-1.01500375060341
-1.17875320259373
-1.4685374853132
-1.6632683032169
-1.6173126793778
-1.34152304788965
-0.989056901874222
-0.723466590614806
-0.605678859961459
-0.630732220077163
-0.773877218377737
-0.956796516433693
-1.09554594963944
-1.21089613405897
-1.36836174380145
-1.53484803555397
-1.62285248236306
-1.60695575274228
-1.48711751145082
-1.25201970339602
-0.958055469021138
-0.700897245868902
-0.483276839923183
-0.273771428161745
-0.15449853781092
-0.219055442480313
-0.39032512572944
-0.512905760283874
-0.539978327995806
-0.49263212720384
-0.342750736643412
-0.0521453744206504
0.369955490689109
0.915357557477083
1.5659613742634
2.19229847333895
2.590223356561
2.64697191146334
2.38438252420599
1.90597616782155
1.41329042425835
1.14675200226172
1.16894982052762
1.31347800923178
1.40914792675773
1.41266467265089
1.32977587462408
1.19437968181576
1.10092840279476
1.09544070484996
1.09434432999901
1.02157301021483
0.911840950976808
0.79835351957949
0.63379199537757
0.374489585930238
0.0401028283602812
-0.291166810701367
-0.483665479964512
-0.45841531821762
-0.361400794882073
-0.441571868510494
-0.719983936634004
-0.975135565110191
-1.06481250168942
-1.06179501588475
-1.07510777887561
-1.10759706132469
-1.0909613563392
-0.967266695617136
-0.758513773985895
-0.58381556984435
-0.54375643278685
-0.586919902298729
-0.578080109657001
-0.474447190883018
-0.325772662423841
-0.151448039543419
0.050929317640756
0.238014819959591
0.373715035826255
0.458719435023063
0.449322652586824
0.296947508591362
0.0904633591651799
-0.0244166954790089
-0.0553397599230799
-0.115709275100093
-0.230712392640502
-0.351582649533027
-0.462055536345171
-0.545813498858755
-0.567139672387698
-0.54145251476592
-0.485366127468853
-0.318507966685151
0.0074634460176239
0.344933841618883
0.500117937093691
0.472680275270702
0.410595073430621
0.423637292128501
0.51825779715871
0.61262429143592
0.603588284337208
0.503429107887104
0.442861760877198
0.470731088692554
0.484670440128434
0.421746041268511
0.349759757210757
0.311562859087518
0.25214843685104
0.147037228522588
0.0376542704466699
-0.0784376714439909
-0.225410322766
-0.334085909478675
-0.318266154503019
-0.219573229641455
-0.130426767139462
-0.0613248807345702
0.0060098984946305
0.0609561566067791
0.123862780924359
0.216515658880798
0.260211931862302
0.149102904843914
-0.105813115156692
-0.413971448596647
-0.697727064523594
-0.875976046922541
-0.887034505809559
-0.773272215456268
-0.624471952806193
-0.470143383838984
-0.347717213636185
-0.360896546682462
-0.528586325872032
-0.721411874126285
-0.859636377263896
-1.00265432482558
-1.18473941092647
-1.35722461677264
-1.50644171670439
-1.64411320032483
-1.71540346671112
-1.67347258109461
-1.57547325697799
-1.4915314361702
-1.41784748968257
-1.34841267279029
-1.29954696063913
-1.21289505947954
-0.978558768473797
-0.587691361485224
-0.127620908113017
0.363098955277693
0.899213244993971
1.45833734379467
2.00269434298448
2.50745456656476
2.90109340477927
3.10771843729995
3.17367705326309
3.21154319235959
3.2548684396218
3.30211430027013
3.39212791187173
3.49135605711334
3.44656605303006
3.17671964893479
2.78010082611369
2.39347430315617
2.08627326646572
1.88487275451127
1.74386258368906
1.52830684050544
1.1474623761286
0.644195416132211
0.103909838526276
-0.406042981357993
-0.807394655499292
-1.06715570655452
-1.24864019897902
-1.40071792547127
-1.51118246362451
-1.65491953332863
-1.99509140619264
-2.52377532482313
-2.98677915969557
-3.16513924224409
-3.06957183586625
-2.80938191615345
-2.45527151951509
-2.07273472618519
-1.71648697293452
-1.37400336986883
-1.04959337708003
-0.84236943348751
-0.804251983694399
-0.832408314396333
-0.824702401882428
-0.805685670114437
-0.816723540892879
-0.826955689995135
-0.790132346030718
-0.666300569027543
-0.409532951206343
-0.0289195268536964
0.400528163187366
0.820679565277217
1.16611606612202
1.27345726895801
0.988958813927177
0.364342789364489
-0.378105953592922
-1.02088774002244
-1.42686738953476
-1.59150621076904
-1.68657609193866
-1.8774098671558
-2.06746755042045
-2.00499149727848
-1.62025680766917
-1.07861530490419
-0.55918331865001
-0.132831919894959
0.231415637953674
0.660891060393923
1.27776990570286
2.01777736883546
2.65246084370822
3.02765739013075
3.16293984428051
3.1309157197563
3.00297690939621
2.89218438479839
2.87371658383578
2.88195272181813
2.80775455676304
2.62705487822083
2.36128998579664
2.04032765615969
1.74440777532229
1.53161518511986
1.3252957623187
1.015737114843
0.617951675770451
0.199557427502197
-0.255041220385059
-0.798449250562996
-1.42667173795812
-2.07720118309642
-2.63043289395394
-2.94238502614452
-2.98597950416301
-2.89971617493433
-2.81627016983029
-2.7430793266882
-2.64370220513424
-2.49056332749737
-2.24044236298768
-1.90881268324864
-1.61020118714997
-1.3848759397807
-1.10488705249862
-0.686589068370253
-0.24271170222765
0.0993754470877165
0.364321864440979
0.608052224416204
0.801083890772555
0.932766404161248
1.08098459705928
1.2949300291441
1.51699418503405
1.6404627790295
1.56270091782855
1.24953688108885
0.833511055580031
0.529683236906093
0.38759042734174
0.268086348553794
0.0729233604195013
-0.173318985949174
-0.428802143580035
-0.644706084869667
-0.733978443249544
-0.663206964658535
-0.487336789902946
-0.236457028918723
0.0952392020968807
0.445105953563379
0.726282366185761
0.930530310130714
1.03938997497274
0.950263135175463
0.646128823462944
0.297753730104444
0.0787709720445521
0.0320708673830826
0.162365745655586
0.465760442923865
0.84668635661795
1.18244438968098
1.47148641753906
1.80443872617685
2.22642480105588
2.68104628343501
3.0156131309448
3.04114925393878
2.70503914552661
2.18559543939479
1.68446768799754
1.17982137844646
0.540932162300376
-0.198231231604747
-0.862458033716449
-1.34475759624303
-1.64234463695027
-1.80638932721423
-1.97774950393606
-2.33066288472859
-2.88888760467571
-3.50862598296772
-4.05173653974624
-4.4725326689985
-4.79038380405594
-5.06995563074111
-5.34664033703073
-5.52879001561557
-5.48186116847734
-5.19308796154542
-4.72126713436545
-4.04912730848782
-3.12656348026577
-1.97021969355769
-0.625210681599685
0.827536905121558
2.175998904924
3.18199978613342
3.79832591963106
4.09460370029909
4.03292044823662
3.5380531354425
2.7166639521904
1.82167210474972
1.08323949796102
0.690274985790323
0.800020057407876
1.43055043629904
2.41548191132742
3.51379132887956
4.49943732809092
5.19277755974738
5.54438056559259
5.64546655654194
5.53485639817485
5.08997495357577
4.23129345473899
3.11087104900024
1.99085538978553
1.05431550840267
0.372033858958582
-0.0974280295780846
-0.4934756010708
-0.924239689100653
-1.38067803634009
-1.83015320706615
-2.27399020840127
-2.66306319421816
-2.90132501137273
-2.96320954151025
-2.88491164131665
-2.67514935148472
-2.35231546159256
-1.98608084656864
-1.61187980621353
-1.23465288239333
-0.964726820869799
-0.962203157501152
-1.19865671822384
-1.43985252939911
-1.48416607826157
-1.32397121625935
-1.1417178638022
-1.21427059343429
-1.68925693634252
-2.39350414684784
-2.99598145970868
-3.36762600230715
-3.60380427923943
-3.70765379021941
-3.49827821915516
-2.89104402449487
-2.07446176464371
-1.34383230022508
-0.860570671556925
-0.550820153611623
-0.168951317330709
0.450185774203626
1.16103777157175
1.64733288809669
1.7616347667103
1.5640571895718
1.12249829253894
0.509303801022732
-0.0695383372993149
-0.345490359745466
-0.160281300959401
0.491236132919328
1.46538365816185
2.49005230284966
3.34740277288216
4.05593165943864
4.743410127172
5.40209615870515
5.91915645066408
6.26422102054437
6.49223821537753
6.59952316052232
6.45207990450578
5.85758492179925
4.77948667716202
3.53179719333749
2.62111095866231
2.28020671063788
2.25472538349086
2.10072849531141
1.56189779774408
0.647962949031228
-0.446992982181913
-1.43685305618948
-2.12668895630396
-2.54627721650948
-2.77237903544016
-2.70629421245286
-2.26943376708611
-1.74699624854307
-1.64971843323434
-2.20723763100945
-3.14908384610255
-3.97447902940674
-4.36491088343859
-4.36690927018705
-4.20924302027708
-3.99200503892781
-3.67411601528122
-3.32743432720207
-3.17025568604346
-3.32247649967922
-3.74679872144072
-4.43403869045201
-5.42131387904922
-6.62963111802526
-7.85724720118487
-8.88407879212154
-9.46580463342066
-9.35377741692694
-8.44793580186477
-6.84031557748905
-4.69041904863085
-2.18155637349102
0.449832954866976
2.9953771751236
5.32718741702696
7.25995911389886
8.47724329225761
8.74331826066198
8.14390923865571
7.04495363908355
5.85083463819314
4.80329904515888
3.92914504654001
3.16139413398006
2.53502414264243
2.18769663575421
2.12846659607879
2.1614136745509
2.12176396898751
2.02483485781845
1.92209142915517
1.79598968526236
1.64194165857316
1.48824817990014
1.32625895260844
1.14726724907891
1.01664322605943
1.03784307640237
1.30658510942856
1.89823667426829
2.77505877090569
3.71597438529859
4.43425245070973
4.70561157047109
4.35136301205522
3.29010192153872
1.68798677439599
-0.126074879170366
-1.91879592518377
-3.53978207075741
-4.73618226238277
-5.25721495594224
-5.10051511949158
-4.45802240620073
-3.51272874997565
-2.42139384217939
-1.32631550695235
-0.241225963433338
0.922892569753207
2.12013684306804
3.10245063244113
3.6498776117613
3.73814364707096
3.4722773029894
2.9971177592613
2.45274339264996
1.8902703567547
1.27688750759343
0.644463686039713
0.10198550957049
-0.333985464027976
-0.7327793061258
-1.05156415560985
-1.13703048765289
-0.92413985038861
-0.484189415222197
0.0515616771267131
0.471842103936696
0.496258276034939
-0.0395844438013461
-1.04050704028233
-2.21462506016727
-3.23274271771513
-3.91499941594643
-4.37263271498863
-4.87387027518272
-5.4944955797315
-6.0308990310907
-6.28911463812457
-6.2860507687795
-6.15786277030833
-6.05065591899347
-6.08901100303199
-6.28904078232077
-6.50354000950622
-6.51779355440917
-6.13982127820044
-5.19843868738621
-3.61611073315144
-1.54895921461534
0.661242227603751
2.70279648480739
4.35229624908856
5.36113466815902
5.50838700353426
4.84378011527403
3.75709438151829
2.74845866553582
2.14285650682207
1.974807131824
2.11225443421611
2.49012832533676
3.13588188357581
3.9473347602077
4.64373826582739
5.0286919360594
5.11969469160864
4.97725184890025
4.62665101752916
4.1601843858173
3.68666655866408
3.20222119845391
2.71930542469764
2.43943863449319
2.58608543348133
3.14794718540838
3.91250244518321
4.61551213094053
5.00494348284832
4.96627818406697
4.62686001075903
4.15608929206737
3.50462154123591
2.53226203959602
1.30150397549049
0.0309093078911531
-1.17904849577765
-2.41014660277633
-3.77334183836517
-5.30173108123024
-6.92623359300427
-8.45564458088691
-9.61398933095052
-10.161658325429
-10.007363553733
-9.25823562595337
-8.16284437641295
-6.89418254204277
-5.39218348611292
-3.57166048303657
-1.64179847523349
-0.0042640633328169
1.14638789324304
1.95972687978699
2.73816453907818
3.71702427962432
4.90058373264183
6.03146321181369
6.84539889051874
7.3330772803186
7.58608260989305
7.50221717124284
6.89357698534325
5.78544711384662
4.383972220834
2.87264151094787
1.4362600083595
0.344759374573203
-0.173334150135242
-0.0878554446285077
0.423388207699328
1.02138851667282
1.31809645249619
1.09485221737758
0.401003068640472
-0.609105405313564
-1.85793963527779
-3.34529678552761
-5.07597727196337
-7.00070172778459
-8.93624110025226
-10.5668209826857
-11.6279985384659
-12.0659567724938
-11.9648792441972
-11.4218738651253
-10.5380659192632
-9.34907769820148
-7.69881464606764
-5.38879600493718
-2.50306488842408
0.602911192913947
3.60148282062795
6.26881850308676
8.35308219914616
9.61928558231463
9.99848137161344
9.56708164105623
8.46479881139752
6.90519050188459
5.16086972882023
3.49795664136521
2.16512960940003
1.34032649872317
0.980261861304747
0.827440851579714
0.639207334084574
0.316915367615523
-0.133270850182953
-0.565156757065203
-0.684432519251851
-0.303190738420449
0.448830588228117
1.32410685996631
2.25349343193508
3.2974996642994
4.42583588487717
5.4742084957178
6.23239191727605
6.51247046308172
6.23464639093082
5.50574676920314
4.55610770111452
3.60699977931281
2.8458649848301
2.41637541897234
2.280252590076
2.14805778629006
1.67061443668493
0.686451096833185
-0.710009809561933
-2.25357922235987
-3.69260295922924
-4.96814473928044
-6.14040427345095
-7.13698189830661
-7.77769325949394
-8.0676832888356
-8.2011884980568
-8.22464277036579
-7.93570499475957
-7.14743427261195
-5.87426684184898
-4.30301752679707
-2.72424747650975
-1.37437916874541
-0.225640710209431
0.911634819029986
2.0111143958721
2.76277114409896
2.95126107222202
2.72850555084228
2.45742679953988
2.36852918615198
2.35663728982205
2.08779116587841
1.36023475741619
0.353929667286325
-0.515647986204774
-0.914694300025359
-0.732736905863307
-0.100160253868001
0.592322092502746
0.864212047034254
0.537427129046901
-0.132653499141655
-0.827722170180679
-1.50901624350212
-2.29160106830681
-3.17167566434298
-3.97695243454401
-4.43747031133536
-4.30923276333512
-3.6047389159556
-2.65669398964314
-1.79631701662096
-1.03648592445256
-0.147191587085511
1.09935325072788
2.78402752683079
4.72608248742205
6.46816784814595
7.54379208856469
7.77798392278125
7.28541040091279
6.3396446854125
5.30946882548899
4.46290636356325
3.70541420479128
2.7111053570411
1.36847952819909
-0.0729070160189045
-1.26658779884048
-2.02109278736617
-2.36245475129925
-2.46706268465114
-2.45329113286219
-2.21282228348012
-1.59276056605844
-0.74076171756336
-0.0707541929482227
0.142914728964071
-0.0348753544095066
-0.40939495884222
-0.872222030312161
-1.3527016091573
-1.66512872727088
-1.48126246215443
-0.545353760583739
0.968926610357343
2.41476842482732
3.20100022606309
3.32157686401304
3.20147762146843
3.13452319908024
3.04554411998774
2.67422062920737
1.81968733469411
0.480659208497879
-1.15749434321392
-2.89913106385525
-4.62342964953121
-6.11271630024602
-6.97496802475829
-6.92646118225787
-6.05437046645805
-4.70956840401966
-3.27905208471
-2.0992987666917
-1.40644756734957
-1.28558297128202
-1.68571018421657
-2.38373928202666
-2.91447829007917
-2.7661683991383
-1.78598243294318
-0.294186485340403
1.21061903207749
2.33986330221896
2.91064992672273
3.0209616347561
3.05385101755726
3.41485612433599
4.22657657536935
5.34113516115791
6.50207296108318
7.33834371194887
7.39938276247515
6.47146425517386
4.81733980000345
2.97265992928833
1.33690160524814
-0.0375812137054028
-1.34167145703442
-2.69014722044412
-3.89234928043744
-4.6134497556022
-4.70850466581953
-4.26236939432966
-3.43234082126768
-2.47998373572099
-1.81188992614087
-1.67450354684656
-1.82875825471497
-1.71112408547895
-0.905096749252781
0.549738589657853
2.15941190271363
3.29415437103507
3.69073034061958
3.61795727257096
3.44281610978872
3.19740161316917
2.70327800143231
1.88756603365044
0.794752558612491
-0.516097908026996
-1.9193487423258
-3.20975946119002
-4.25768176813903
-5.09175050953212
-5.79870941424575
-6.43003764324361
-6.98208005565773
-7.37035645811703
-7.47532929719978
-7.27459651180785
-6.81253031376634
-6.00925185700452
-4.70410574439606
-2.95849960019249
-1.14533617861626
0.305913677147937
1.17605878414612
1.57449235279652
1.89447543053069
2.48646451424086
3.25468368140631
3.72546444873965
3.60316201447675
3.15492612629416
3.02921541968135
3.74279438389339
5.24024427047946
6.87049723903156
7.89369313050179
8.04930692710348
7.57888779759645
6.85869157233904
6.20246656693038
5.81061124902596
5.60732103753913
5.24882207515881
4.52309602842614
3.63253724926694
2.94302965615044
2.59522081077676
2.46271034037789
2.34456020475208
2.10781173592014
1.74833873069683
1.36647324628303
1.02645732497386
0.67952680067108
0.290693806804213
-0.0831818130492314
-0.450243274494949
-0.971672246872512
-1.79274424062186
-2.93589365854711
-4.38971679270869
-6.09626341302637
-7.82740396699554
-9.26319409091019
-10.2034006250676
-10.604704220814
-10.4971243100806
-9.94843841790006
-9.00289463468354
-7.62931554744486
-5.86674400371989
-3.99185473471574
-2.36845592026456
-1.16575627203111
-0.368640323183264
0.024431555778233
0.004332647761015
-0.260549945896484
-0.368551123809763
0.0917944309396786
1.19742290290946
2.58525828504382
3.76081966038071
4.4417190354772
4.51366141879139
3.88338261385687
2.68484820130673
1.51073182119278
1.0902739729269
1.69242065432523
2.99576530104154
4.46057097835625
5.63676114553157
6.21449291363841
6.05346990500125
5.22383555372568
3.94125778145811
2.48966178174828
1.17503302305872
0.169406299977801
-0.635580578391091
-1.49583976500781
-2.5737627207602
-3.90100042469825
-5.39524771982031
-6.76870319407414
-7.60665155637388
-7.69426499665225
-7.16143663904289
-6.27616875305889
-5.21564374944163
-3.98408877436443
-2.4095044574514
-0.299320068237976
2.29041948321551
5.02628008165557
7.52897923838393
9.45350463213164
10.417460372699
10.1713821951351
8.874998304205
6.97967966660526
4.833101856535
2.55860586580557
0.27628107476027
-1.73272976271331
-3.13299196504238
-3.78115943641144
-3.85656642773618
-3.70188550084552
-3.49263803170752
-3.11641803849736
-2.42539954681362
-1.52199911912626
-0.715764661689595
-0.27902942408512
-0.30759371823884
-0.72363447163287
-1.36479842469258
-2.12018962479592
-2.89097348486015
-3.32511711938816
-2.82767046686612
-1.11233934101167
1.37216902499284
3.77218198651434
5.49674072911715
6.474751358652
6.92630056429477
7.00648528491429
6.61137988058261
5.52202907737339
3.7582861950121
1.68848913430898
-0.229513489324826
-1.67621729673112
-2.50486118500886
-2.81092903506391
-2.9431641256072
-3.19432479221844
-3.50442782014413
-3.637165167582
-3.5242583716862
-3.25249925388786
-2.84129759525323
-2.20558498916214
-1.27289420037137
-0.0630211685499038
1.29146684246528
2.59149086649576
3.65767396213569
4.28809138588359
4.13334622123702
2.86789165703473
0.637308321236195
-1.90311069652943
-4.19858065167854
-6.23558043667427
-8.18990882620284
-9.86948267509652
-10.7617274109283
-10.5499357648587
-9.43335527476804
-7.9510812384196
-6.54005370621933
-5.29298474951898
-4.12542417380656
-2.9852487667529
-1.72636212752598
0.0390304111404795
2.6652035713755
6.07109494032745
9.70738263916634
12.7569993492519
14.3358685256762
13.9054904199577
11.8044165942593
9.20157426416691
7.28759065049721
6.48653170584918
6.36875936652443
6.15611063729866
5.32906633779684
3.87799178950052
2.04351008473167
-0.0325763175684451
-2.22892846976366
-4.16597138198832
-5.34633931338544
-5.63079387145726
-5.37215341759319
-5.05123649502584
-4.94348533113837
-5.12567708809233
-5.59514931283746
-6.26408704061339
-6.83950358866012
-6.74916983010063
-5.3821584316869
-2.64887940416851
0.746960634776015
3.79858427125167
5.91136832386054
7.02310234058101
7.21817959268205
6.47431459193354
4.7399614120944
2.1346740160943
-0.912502982888717
-3.75352507152304
-5.86740180739903
-7.13632898411302
-7.76116726400213
-7.96474645059804
-7.76264926175628
-6.93363688158443
-5.29606179120617
-3.12704890303029
-1.12769722996086
0.214492687059952
1.04824990035605
1.81623855502114
2.77475096920262
4.0032949212655
5.528068967487
7.13481504090977
8.23845974907338
8.1930591003145
6.76586379327729
4.35517898602464
1.85009297984574
0.183258606649048
-0.193944556862655
0.569720155972464
2.14204312118316
4.34830429994758
6.9725682381996
9.46046364906626
11.0720794914696
11.2858172978366
10.026710602133
7.66353180628084
4.81671933259729
2.01530897344912
-0.521785651725982
-2.78088913981554
-4.7531699648816
-6.3836410367099
-7.60738583759952
-8.40901351393651
-8.90650377745334
-9.31536523064886
-9.77860643480123
-10.3466332713317
-11.1212187211515
-12.185408279468
-13.3362253682664
-14.0965203514559
-14.0433997912651
-13.0211025283086
-11.1256239273366
-8.61287249286356
-5.70435464413581
-2.41187391371999
1.27980081555472
5.05069951705662
8.30583752549802
10.6180008867625
11.8967620978889
12.1691957990493
11.5162916004464
10.3040149369592
9.22310643166753
8.91831745752195
9.56077379159596
10.7194367427366
11.611436730057
11.6008919247391
10.5446691504673
8.64322761177923
6.07470650271928
2.92869239331321
-0.607692453817146
-4.16941104591144
-7.27553257837788
-9.46453965826626
-10.5421547394171
-10.7224342684326
-10.3955129176766
-9.84799924030197
-9.37528716423269
-9.44719162266521
-10.3843218468999
-11.8636099424109
-12.970879917635
-12.822379188334
-11.1605531023138
-8.44489357427566
-5.38893219888527
-2.37658349457256
0.634979342201114
3.72030427597945
6.73716612511662
9.49090955200939
11.9019172411983
13.9543651608347
15.6425262522752
16.9446208857355
17.6960718393207
17.5734506923518
16.3803393454694
14.2611261550053
11.5042787130811
8.32045623701437
4.98748435232661
1.96919691151545
-0.38452774196635
-2.118983881777
-3.46984856596347
-4.49150422501004
-4.98350342508674
-4.6930143488627
-3.60275328692033
-2.10458523093695
-0.769484906734108
0.173771485270169
0.971646280276195
1.81625323105366
2.34532261413436
1.88723277770899
0.225325965473784
-1.97796246268364
-3.6579273576644
-4.35813452522518
-4.68059231980761
-5.58774343082267
-7.4013543317331
-9.70397427885143
-12.0051087801531
-14.1134937769978
-15.9334881405858
-17.2593561949319
-17.842273227596
-17.5438830236661
-16.4520204515285
-14.8584298243041
-12.9900713443137
-10.731224165962
-7.72000437737765
-3.72454776776934
1.11549977772876
6.27226121315058
10.9072034724664
14.1352482559703
15.489679614832
15.1767286189853
13.8529606263358
12.2282054597632
10.795777409491
9.68267797317078
8.73204244269292
7.8922396558489
7.44331744561827
7.65983993807479
8.37071072001955
9.04214193999205
9.22279342428345
8.83023205051162
8.11896750157442
7.42163183573375
6.85306362568141
6.28784924688864
5.61531740224388
4.82752923709528
3.8205483019079
2.36412319267853
0.368324577743752
-1.99892880643233
-4.47361902897432
-6.79122783713317
-8.65620000876612
-9.82175912582645
-10.2494089388974
-10.1664101479466
-9.99815641738024
-10.1480626565059
-10.6577347681555
-11.1210326317388
-11.1166209029182
-10.6865327516171
-10.197490681969
-9.77769597638488
-9.12871243329913
-7.90691981701373
-6.06891819977503
-3.77152088314459
-1.08633819600305
2.06732327100556
5.6937613429426
9.44514165503879
12.6326477909478
14.555855193717
14.8265087947868
13.5020031670032
11.1167384025874
8.53345220659309
6.4930259585992
5.22332756452241
4.51381153388313
3.97720848059417
3.10641224632374
1.40159520141101
-1.18812110855839
-4.02358828983417
-6.16119900933764
-6.95522658865483
-6.36398167246316
-4.91636720391017
-3.37199110090554
-2.21999789781662
-1.53383584029569
-1.3237063659885
-1.71758986091151
-2.6279760748943
-3.53162789511391
-3.80195041125741
-3.124052069604
-1.53972574682925
0.681642097716995
3.10128428185882
5.19454980873073
6.54000774944713
7.03252176952921
7.01876125590867
7.14232639372421
7.76225111347914
8.45093491979714
8.31125943857811
6.86221018864595
4.44796842422016
1.84879401347448
-0.28566249100609
-1.74145669061235
-2.77294651815397
-3.82716446590426
-5.12959959983099
-6.58869601600128
-8.03389011291042
-9.32091407460182
-10.2394648231588
-10.5520956318121
-10.1078642558715
-8.78805946608562
-6.49706790545944
-3.41518238682382
-0.150575394119527
2.53826719022301
4.14852819148516
4.56257357208635
3.90805259074825
2.35294371731951
0.0275164572303574
-2.84104832365094
-5.80276947658185
-8.33948186742838
-10.1214110030981
-11.0400958432438
-11.1292687459697
-10.5780287663662
-9.63544900027226
-8.30774545263764
-6.304780889865
-3.49352880196758
-0.29236971133238
2.53719362743255
4.37138114172151
4.94719791618127
4.38745322349157
3.19084537414072
2.03006038772423
1.42319434637414
1.65956403980449
2.97045968975778
5.54014369036592
9.25998383177658
13.5133788071244
17.2400503130348
19.3497434259573
19.2952270411148
17.336708577525
14.2637990731638
10.9234393340052
7.93229645548611
5.55578439329216
3.74329546483879
2.39936862620074
1.59560360973766
1.40429428225054
1.70650780175044
2.36658370331684
3.3740908121077
4.59812281392086
5.66756584201501
6.33299729594218
6.70050739047568
6.8884856983614
6.67206790979822
5.67534472336695
3.77017055980164
1.14708337509391
-1.86547025721203
-4.91357442147788
-7.6473610790438
-9.79275353719325
-11.2629650849805
-12.2339011175865
-13.064817260285
-14.0155323471846
-15.031516106223
-15.908705940956
-16.6198378107926
-17.3280833245901
-18.0831252918219
-18.5828796926203
-18.2548737092241
-16.6636023783714
-13.9431778320337
-10.714336810987
-7.44987956068337
-4.10644863724764
-0.557253826465506
2.83499451997879
5.34050302457104
6.46509410460361
6.30766607878882
5.44848076200673
4.55206795091751
3.93477868255414
3.45422348462556
2.84166052722628
2.03848533015077
1.17380180901388
0.415293067427708
-0.0690321889443903
-0.183244755034506
-0.0175726842029875
0.236470260136833
0.513826444483829
0.939320036316323
1.6959907928343
2.87112612347027
4.30678452106884
5.53181505980408
6.03194984155723
5.74076316465806
5.13400298810904
4.75206705767852
4.80193571328003
5.28809485394558
6.29696933171766
7.97176244813256
10.2127517998611
12.4106404093793
13.5890350104413
13.0975863279314
11.252672830771
9.09511404511382
7.48831900573752
6.63208943120864
6.35294856776989
6.50725087993639
6.99035629947686
7.51013580595132
7.46617260891254
6.17950555927092
3.4443916232921
-0.142789059588951
-3.56161156405968
-6.03188888039589
-7.21954944299512
-7.07165943581038
-5.8195440328996
-4.0893014380628
-2.72926536619821
-2.42533481706714
-3.44280569646276
-5.60259408071053
-8.43665726992976
-11.4235373646001
-14.1157502517375
-16.0982479156778
-16.9938002000269
-16.6143523013451
-15.0141658079992
-12.3547745165547
-8.86445758334632
-4.95433240727973
-1.20671995907193
1.75085670449334
3.26782645861114
2.81692109274042
0.479121852561253
-2.79076192348541
-5.67508356815634
-7.30594098444471
-7.53740176164274
-6.61252791126724
-4.78823594745002
-2.32784661006686
0.24083836786022
2.12874271961872
2.8671219612361
2.88064351075886
3.1879000193383
4.47427873756705
6.62749968089534
9.05158311100939
11.1210492551846
12.4182870716233
12.8766007818417
12.755305701968
12.3631058344129
11.817935283613
11.0243374101681
9.71709698226379
7.5805121203263
4.54435218387956
0.951390987245821
-2.71557363235063
-6.19407036087662
-9.38140466900699
-12.0665861946416
-13.9850859973371
-15.0848930874383
-15.5029068377435
-15.2737717531098
-14.1986031497161
-11.9918722117807
-8.53377225708007
-4.07992975140519
0.75786874128478
5.3293088737635
9.22757878608328
12.2439069481841
14.2390497244174
15.2047665351428
15.304977850717
14.7031750609899
13.4213920136038
11.453979666363
8.98297294031512
6.43233818947316
4.24208775827631
2.50664830410563
0.919724570745392
-0.766841032244295
-2.32905660702405
-3.3138902454945
-3.59271947426171
-3.47516787490052
-3.37451895868441
-3.50795506604711
-3.80328541911334
-3.9805094202285
-3.80234188121251
-3.26615559763518
-2.50350342008037
-1.63023829360236
-0.849077046773901
-0.529415706663183
-0.924702778480805
-1.87838550807961
-3.00526416866355
-4.0698107935749
-5.00529564999323
-5.69620135488511
-5.97271680374806
-5.77232502164375
-5.17918299194114
-4.35147646957515
-3.46155669342802
-2.66247795629943
-2.08753574629172
-1.82229903037037
-1.76892560007881
-1.60427552823336
-1.03682725396386
-0.0258545893188947
1.40736637599751
3.3791124205708
5.84366697150949
8.23038191092141
9.74853076893212
10.0958166757988
9.68301463810493
9.15405789884528
8.77471723081929
8.25057406311888
7.05549273764371
4.88063539632165
1.74001038401042
-2.1866786971251
-6.50287521080832
-10.3852263689004
-12.7874459321707
-13.1162274764912
-11.716845084257
-9.70188942145243
-8.30726105676596
-8.22509261544429
-9.30898620853579
-10.8467279002958
-12.1318305759425
-12.7619755181622
-12.5244331923648
-11.286916093782
-9.06995737742553
-6.0227391096483
-2.27913077628357
2.03211289396784
6.68998799446535
11.4069856978029
15.8001904824725
19.2138068894702
20.8170769517735
20.1709152251496
17.6976123327737
14.4831099257749
11.5649965174699
9.32387637632559
7.48079361011608
5.68809057695782
4.09292149743261
3.24600328888903
3.5110354660367
4.67144227558182
6.05268666322103
6.93798022072569
6.98572285115668
6.40421189446422
5.71639131488469
5.29567221257241
5.0461516669138
4.38178600934271
2.58320357680088
-0.440034591763632
-3.60102845613184
-5.23351543026819
-4.54407617825575
-2.31813208302519
-0.0840402373767609
1.15623957364583
1.2578810684339
0.391169977416843
-1.43940063556698
-4.36311199148881
-8.30140202965299
-12.7162981533384
-16.7914984724385
-19.9742754494479
-22.2902641756187
-24.0778386036793
-25.529083557022
-26.5205531422212
-26.7429141951634
-25.9570259332529
-24.1985986910638
-21.6637700827427
-18.3361208129059
-13.9203124154408
-8.29756891874186
-1.92499789358221
4.27998159969472
9.32984630838143
12.5361648710014
13.8027944544551
13.6161743214417
12.6428328118921
11.4476460631739
10.5990573022231
10.5812518394991
11.3376573476448
12.3127089895985
13.2249345774126
14.3599567229442
15.7448441797969
16.4732622609346
15.4519204750259
12.7698010988365
9.88178380298015
8.27143291410961
8.12029274113523
8.43106328915528
8.31421988280613
7.87618797280926
7.7794039532197
8.2271044098832
8.67765204674082
8.45455907040871
7.40612100548928
6.04421580525195
5.17824575391426
5.26191388448579
5.94168333534229
6.32869123812148
5.73539727165592
4.05305075630807
1.56338256550418
-1.3258431080299
-4.18679685441024
-6.63939276802505
-8.34095320621162
-8.91113778349971
-8.10532720869941
-6.22789097185281
-4.20477866354963
-3.04476880572472
-3.22227907717243
-4.58134710753987
-6.72281884463177
-9.37096350040969
-12.3188001324347
-15.1169942172077
-17.0903433608365
-17.7961348886147
-17.2608978945625
-15.649264161048
-13.0084310134666
-9.57635839569268
-6.03557941878119
-3.08069534321038
-0.857463026172536
0.884068403329324
2.1937408035301
2.7446982652083
2.20502328669183
0.627835376367009
-1.48996802738572
-3.48600544125379
-4.92259905955785
-5.68313021421924
-5.67660339397614
-4.6269400329494
-2.28764241207217
1.19223428280816
5.08299764552171
8.14970779885735
9.12630916228359
7.51929912904099
4.04932285274466
0.180144836764246
-2.82449362683526
-4.51491975061261
-5.2825428327194
-5.88646153205041
-6.68063524772443
-7.15586670071609
-6.35412908728905
-3.73201748054744
0.443384579352556
5.33620844798932
9.95938792125232
13.5366301444008
15.7469849900244
16.6618701809991
16.4557216055848
15.3203943100616
13.6562287056422
12.0880061601546
11.0955015511013
10.6446737417509
10.2220225811084
9.23241731896194
7.45821912168667
5.25473105704888
3.30410350163942
2.15498958733636
1.98503018559634
2.62795453553399
3.59194283674611
4.10099644739815
3.38841102787458
1.13604841140755
-2.25665602018819
-5.76579412808813
-8.26904089996686
-9.24714349346525
-9.0034409491961
-8.1821310766644
-7.2598470697691
-6.51092078458567
-6.07919218471909
-5.91250241994001
-5.9296693496645
-6.34744621577294
-7.51148580233845
-9.32524445087472
-11.1353726569867
-12.2068155295995
-12.09308776035
-10.6509093843053
-8.02049946573204
-4.64006974192439
-1.11375125899782
2.040952400566
4.60606262996233
6.71280447016084
8.63925289496524
10.4669661645224
11.9274538043857
12.5904658343448
12.1973099489068
10.9143194889961
9.3707205778406
8.29459834201042
7.84910229096881
7.38247309534972
6.06252080589821
3.68363330377085
0.662441730288648
-2.57848720423321
-5.95979570881915
-9.6254158110246
-13.6806388144097
-17.9000186524231
-21.5470015125781
-23.6449693474321
-23.5909734937098
-21.5290786768082
-18.2516924626536
-14.8668366466071
-12.3773196735756
-11.2397808908984
-11.1428509330667
-11.1398833414729
-10.0433439443992
-7.01671574923338
-2.13911881711566
3.61105733657945
9.07438572882143
13.5866752225538
17.0120940580255
19.4292206216201
20.9428421560088
21.631198975632
21.5417945191747
20.7632883953883
19.4647283650008
17.8163311192915
15.9944925149793
14.3514353641092
13.3753928600013
13.2445541096948
13.4806551615188
13.1907740958766
11.6191022092997
8.50381063177926
4.17622348734873
-0.53523786416023
-4.65365353421803
-7.48084183694363
-8.79146675908096
-8.78626533683764
-7.9363722764394
-6.73411157238089
-5.49168615377905
-4.38185068971214
-3.53888543033956
-2.95460525363412
-2.37951850974285
-1.52655266700259
-0.37269043388708
0.802875501874867
1.66566461505521
2.14565544750811
2.50662327572496
2.91861958424514
2.95549407792678
1.86232896455621
-0.552503167067724
-3.63257082967589
-6.60423103261466
-9.23648801265725
-11.6323572755117
-13.712896604833
-15.1508816956008
-15.6789463916523
-15.3187610314264
-14.3322567387127
-12.9952180064532
-11.4789644359974
-10.0284429818355
-9.12711256411971
-9.1613894032947
-9.83073970201257
-10.1625284810765
-9.31741772780866
-7.34276775562429
-5.12770050772073
-3.64036308836629
-3.06644212426374
-2.61600239450519
-1.30903025640386
1.06182353785208
3.89926894770812
6.52053162558365
8.54148069421782
9.71763926844617
9.90327961730651
9.23996812189397
8.15026925009389
7.15261816687512
6.75560797202134
7.33979474624266
8.97918147252815
11.4612831523048
14.4956196311082
17.7642311650776
20.7765044009483
22.8327633554142
23.2500791977144
21.747347563221
18.6942322999145
14.8634711515558
10.8234108295602
6.71103637221725
2.65365857411883
-0.931164271457623
-3.73698478724574
-6.02097777257539
-8.2742317832724
-10.490267876043
-12.0449810527964
-12.3430163713201
-11.4372428460076
-9.94051601459777
-8.3169073238803
-6.34058278083197
-3.48598454949765
0.138052892894093
3.65489164814262
6.38102036140767
8.4294872185441
10.0146002051209
10.5915127077683
9.22286064908067
5.72880826247346
1.14525764694984
-3.03793662528946
-6.01998701319414
-8.04869963846927
-9.7028777027803
-11.0393269090102
-11.6976373297252
-11.7385934246497
-11.9923566208182
-13.4503224241458
-16.4663974344881
-20.5105266459174
-24.4629802366805
-27.141586768711
-27.7900357097104
-26.2641523482414
-22.8595080130826
-18.0245306092018
-12.2189039277922
-5.98771529709318
-0.106119474098743
4.52895157488557
7.38362542441689
8.68804717971555
9.21174637532126
9.65668393118056
10.3766665975499
11.4782255544679
12.7914320105462
13.7532022116329
13.7341013927523
12.6641041194699
11.1676545733862
9.99445981898692
9.40737382041302
9.1803592921785
9.16130536821661
9.68655715774274
11.1830304445588
13.339436749578
15.0488017325772
15.4071184097262
14.4994570615594
12.9859995107939
11.2248867309231
9.13235707090199
6.72113157901028
4.41635119286426
2.77539293845777
2.01133379686818
1.85695710583217
1.89770594819372
1.95587915265743
2.06847295165076
2.21946298799403
2.2904024548092
2.19686569886978
1.88612374200591
1.26146228907692
0.247735699113828
-1.13581071276181
-2.83563074733276
-4.77083451432171
-6.72754438393353
-8.41067059732434
-9.6684375336339
-10.5199583682061
-10.9474147526945
-10.8490286084142
-10.2099077515718
-9.1641349745988
-7.94701036551179
-6.93172710822512
-6.56598077718285
-7.05647606691167
-8.17313680857046
-9.44533780636965
-10.453501120054
-10.9335301880763
-10.7627284671493
-9.8911524156074
-8.26988943862072
-5.95695476037951
-3.30352371564619
-0.820957309991919
1.1869635340136
2.66242716076472
3.51908129015448
3.66584885427243
3.32982967410067
3.0221498560399
3.05956001098644
3.271316485448
3.22354099531921
2.70572682816204
2.07018248430416
2.05148264223459
3.03043852466798
4.42356664840002
4.99800948967988
3.93044498475725
1.55588994266705
-0.883985574196838
-2.16424312876907
-1.84899020251699
-0.384559023356939
1.38997202354173
2.76955220217776
3.33107557137316
2.84377265654312
1.25903512438203
-1.26701258900805
-4.42167509115369
-7.67233561874752
-10.1583079900378
-11.0043928703967
-9.97801285467721
-7.67702004589107
-4.96460965182887
-2.40677780434372
-0.322506449579768
0.938149882610471
1.14821077486477
0.712370654876251
0.762422633238179
2.37492754593409
5.56434421590716
9.24235106544649
12.2669675486462
14.3184876617024
15.7166827708287
16.8049717130358
17.7416737930085
18.494681948247
18.670815535618
17.5702727933671
14.7645238550912
10.6399037032814
6.28709283023376
2.87203947197211
1.04015389634496
0.73076312742986
1.43938033796648
2.61374642437424
3.76931850898607
4.36501184180819
3.88561831501396
2.16766551344743
-0.504850347111923
-3.60404934821013
-6.41931980965358
-7.99266583311941
-7.44437880881223
-4.65873451157278
-0.612573970061547
3.07917558803824
5.04562123383334
4.7822017746577
2.63794938512804
-0.62147950835329
-4.22812284972633
-7.67834892406107
-10.9294724077275
-14.3343453147105
-18.1622790971861
-22.1576830946928
-25.6631459647995
-28.0968935730447
-29.2654207896653
-29.4234929458167
-29.1195569881549
-28.7293433745881
-28.0058484192554
-26.2294271122303
-22.7835410277802
-17.4887219352819
-10.6836612806893
-3.34153006354349
3.15900000776753
7.8875421633418
11.0071973351804
13.3793178532394
15.6633470607314
17.9100972255843
19.6936215732855
20.3705244934229
19.5272334154917
17.5696407725645
15.7727030760396
15.4633134918895
17.0654777487998
19.8609075438654
22.5011799050864
23.7300748286482
22.8249522636576
19.6900401009906
14.8712253737322
9.47694627047397
4.61928666458487
0.61845205563335
-3.01241274150027
-6.61422318603502
-9.69692769076703
-11.3712432697625
-11.1848331876103
-9.40244547812732
-6.73894131076989
-3.94496427814616
-1.46013731248473
0.60567736179035
2.12870312154989
2.83170096139246
2.687148475011
2.25363852781232
2.32510267610601
3.26601151201768
4.79147285035124
6.33001799568467
7.51206819010401
8.31479720421052
8.77108899391254
8.61430987163991
7.36015096574365
4.85497392916457
1.71246744172369
-0.912876737680249
-2.08974508203337
-1.73882671484725
-0.599877121485016
0.346316844312886
0.382295783594354
-0.912603845413645
-3.77087393513669
-8.05036836842537
-13.0739356780235
-18.0004243771507
-22.324135933988
-25.785140190475
-27.9323701060233
-28.0749717808617
-25.6452080928286
-20.5456135161762
-13.3718761384944
-5.44723883657148
1.57886014251873
6.41737773795323
8.56710228543224
8.32025420782294
6.57064143169903
4.46889083596871
2.96371915535009
2.532227094876
3.1797062093311
4.47736691144937
5.71858137393577
6.3840173977124
6.47970641724278
6.24621172554247
5.69026937865797
4.70050324147657
3.52062097561384
2.73890447683052
2.71105257239154
3.18141172670028
3.55399028037675
3.43264623133301
2.87659059344842
2.26082908052785
1.9648348530138
2.11507217449222
2.48734934229454
2.61757085316905
2.16666765245861
1.36936712299237
1.03834489438624
1.85452348516481
3.59575833990573
5.19597866285639
5.54892120520769
4.19381659294885
1.40947611820735
-2.09484171218759
-5.57254584451734
-8.47498578163207
-10.4120772392253
-11.0387120394931
-10.1421932119504
-7.81718065615579
-4.46465707160962
-0.668534421015639
2.91417725600551
5.68908949726841
7.20453392656234
7.073376764593
5.07402069662208
1.68412320693548
-1.60892721566688
-3.01270710904477
-1.68577556813649
1.73605152003735
5.77175357691121
9.09730629189426
11.0714467182586
11.6745326716692
11.1982125401048
9.99433987342747
8.39624318963397
6.69489829092554
5.03170237696526
3.36158383677237
1.66929777056931
0.16031093612358
-0.951331976026591
-1.83312526517233
-3.04752671956949
-5.08566474160995
-7.83863839646336
-10.4686390545994
-11.8226047552396
-11.0803348256072
-8.16776833810357
-3.81881624639274
0.589174231675962
3.53199455365455
4.1503317583249
2.68555122287535
-0.0232140296558133
-3.35120515533074
-7.00569468237464
-10.5806512717739
-13.4170324846839
-14.9239249271955
-14.8180097423186
-13.0888848764644
-9.97882752258015
-6.10138118144698
-2.44843429461917
-0.0173389270062041
0.790892784109936
0.415221587174558
-0.319635018157759
-0.852212845448303
-0.978017050924941
-0.500753417610082
0.772757531242514
2.59526336412109
4.24416810030174
5.2059751632655
5.67018446984985
6.12329478128935
6.66961900962089
7.00941883189324
6.98264691481711
6.8924272875749
7.20145502988814
7.96303623899854
8.68220129237196
8.8257626046587
8.38706883149583
7.83967674107838
7.59217580343555
7.56048526246903
7.20976112834979
5.98721071968951
3.79519923905488
1.06121922265265
-1.62980611948867
-3.80131067920111
-4.98046568708752
-4.6922732836894
-2.80590347262217
0.276838565473191
3.85955934005199
7.15117078708552
9.22867585894765
9.17867566683478
6.51252584701814
1.42988025605196
-5.22444636543795
-12.1233881113528
-17.7708822609225
-21.079705271211
-21.9112888681143
-21.0591197445456
-19.5693056545904
-17.9190542310404
-15.8463251018265
-13.1228211390119
-10.4158404563879
-8.95289259396501
-9.12628952670106
-9.81126998163744
-9.39065626375461
-7.20926204435109
-3.76959462750651
0.250829216886964
4.84611706237629
10.5461571963943
17.5366156794936
25.0033013248742
31.4924351089239
35.908699562879
37.9842677929769
37.8720682377603
35.6852140215505
31.579455627472
26.0564474891758
20.0096900252077
14.4032100039455
9.72615325356099
5.66096390797279
1.42727530790782
-3.47344276600135
-8.93795474718615
-14.5677730163821
-20.0097517458737
-24.9737831061731
-29.162572143041
-32.327923624053
-34.377244995211
-35.422587985496
-35.7014228181526
-35.2940683705175
-33.8055442993998
-30.4972643367606
-25.0347619047588
-18.1413014298078
-11.2524671876302
-5.3273893048888
-0.0580887624946004
5.60409812251763
12.1501178995998
18.8926865865741
24.6419940612441
28.7318380868817
31.2477678322187
32.542337406835
32.7857223630181
31.7959040438516
29.1044702229897
24.3836523982738
17.9939220474833
10.9950846186629
4.56763271573257
-0.503201320641121
-4.00317356839585
-6.33111940032516
-8.29414659783085
-10.504363833839
-12.9207017469573
-15.0660829798073
-16.5041994042647
-16.9642593664846
-16.2716032871137
-14.4412679190029
-11.772111552212
-8.69526440683815
-5.50593285244971
-2.23475497666498
1.20012928212094
4.62410648048908
7.40927124896941
8.81295818917202
8.56398819500391
7.02711408795299
4.85591055181258
2.6560296249408
0.873461754788129
-0.322445662102523
-1.10703571014136
-1.73931960000116
-2.1827136829521
-2.1146929389782
-1.36562264075125
-0.349376001541221
-0.001703835003373
-1.03193651038666
-3.06010427681569
-4.74880460329814
-5.04512793002081
-4.09564940554588
-2.78471463326291
-1.7175645522349
-0.901569632993559
-0.081483109172449
0.955108863129217
2.25005454980505
3.63512766159115
4.86892545946483
5.81811041819776
6.39160358531482
6.36359837140226
5.44906174851733
3.60431074405248
1.2454168475547
-0.793931510979566
-1.582845992527
-0.556776278738069
2.16837908728975
5.82052376894801
9.26144004310004
11.3883504984254
11.5113077144017
9.55166428175372
6.01034478893456
1.81292493911108
-1.95952205752119
-4.56091095236849
-6.0344654408935
-7.05775695397104
-8.25504896193723
-9.85237394015368
-11.9517047092662
-14.5784030531918
-17.1258110154144
-18.1871703354337
-16.5207767418444
-12.2265050930383
-6.70339877379386
-1.3663414320899
3.48375309026679
8.48205787105182
14.0427819952063
19.5545032753929
23.7040674771659
25.4204809760586
24.499606385503
21.5325179660715
17.3147339586269
12.2133441147085
6.15016658627084
-0.679059606606211
-7.31154896460924
-12.6144318044661
-16.303640509154
-19.0814555138968
-21.8328428244146
-24.8831896883201
-27.8731093453717
-30.0659408108305
-30.8023891390149
-29.821760335995
-27.181031672884
-22.9703690029188
-17.3574349492679
-10.8860496493394
-4.33057901786577
1.92869126077174
8.08362459317547
14.2600907348385
19.9921706269707
24.6104259173413
27.9755094362602
30.476960326576
32.2485247284218
32.6644658636284
30.865549469326
26.6757044600677
20.7524700963629
13.9767109720481
7.08872356612184
0.864060502559741
-3.85286179689521
-6.48981939878204
-6.96821570065741
-5.6787364820936
-3.45304267968094
-1.30121054910235
0.265318942017442
1.5794425233607
3.18490701244793
4.96795808943507
6.19303947086982
6.32835889350313
5.63339627638447
4.91593210524707
4.7087908523112
4.6121987619342
3.50023198694304
0.514638382445281
-4.12173078279756
-9.2867102726376
-13.8662225109699
-17.4670096983216
-20.3969348072341
-23.0887084017254
-25.5163728773141
-27.076101242911
-26.9483612524931
-24.5868019021037
-20.156812179185
-14.8532692650413
-10.5172373269996
-8.17221209552298
-6.76987866338651
-4.03762019834916
1.07431014465718
7.18401273826958
11.9245866176823
14.1749164160102
14.5831812475899
14.273175751224
13.5467885207354
11.9393394417017
9.29685704369992
6.49500066867655
4.89497412359731
5.08780858196294
6.30149164076569
7.10319890963309
6.67143457261677
5.42513128992831
4.49919996151905
4.68408178063618
5.899846415827
7.53869021281949
9.04182647050509
10.1491930645405
10.9015965592553
11.5101551318842
12.0377055009889
12.2254688826782
11.8711109105253
11.2592315047278
10.777100726011
10.0795116232106
8.09367464748184
4.00605386475479
-2.07237557232262
-9.45597792571441
-17.4427440443636
-25.27422125821
-31.8228395818103
-35.7518569845117
-36.2436335551689
-33.5809735612971
-28.8119963647059
-22.7551814056132
-15.5954756828937
-7.62786401679119
0.0071957193810864
5.85851612777019
9.39095299410099
11.3014308789417
12.5755203904254
13.5121457062256
13.757785611524
13.0229132851772
11.471604646635
9.46386009824779
7.28708805333753
5.31036638466883
4.03487659763351
3.62464405764036
3.63655079211864
3.60899005386319
3.71666235098288
4.43089841563749
5.66940818138022
6.70762735200173
6.94879133430605
6.47985907719474
5.7698872373585
4.99533530335587
3.850636958459
2.07849761416341
0.0169242844715292
-1.7072032260031
-3.05604461639423
-4.67803708985331
-6.8301485391531
-8.63297507339619
-8.92731416445374
-7.73731320842435
-6.46707595078668
-6.63109258709851
-8.60727783699223
-11.5994386566822
-14.5173904544954
-16.6453417900907
-17.5416434128626
-16.7108593376417
-13.7012673518811
-8.43278047789309
-1.29837042697035
6.83270978351925
14.5670184137045
20.348743602782
23.3376206453681
23.8607267112922
22.7557205743948
20.4043327665358
16.6604364181574
11.6327479652115
6.23871180085222
1.80136567310031
-0.93130968568226
-2.27667302197504
-3.01592156340094
-3.39100917458175
-2.95728033053457
-1.46136940725974
0.437693817891746
1.51909957868678
0.957667664197143
-1.10916221787811
-3.75318734362196
-5.88871574150607
-6.90865721274539
-6.85833495354159
-6.0737873323357
-4.80283977589137
-3.2132645662737
-1.56934813705415
-0.26145199993354
0.342308804390565
0.176892842159414
-0.357051722971003
-0.77979801437677
-1.20597972363117
-2.31565892523587
-4.47669222205674
-7.19597942092886
-9.61588741954091
-11.2872376023651
-12.310137165204
-12.9492704216155
-13.2560600787087
-12.9648069299022
-11.7154075815011
-9.40182192858206
-6.2677238614582
-2.74976314385319
0.594839273949197
3.1328867102981
4.49061991195213
4.96881267272131
5.51387016252882
7.2034286541027
10.5951934294799
15.2551202206101
19.8559916497146
23.0734415273224
24.6148993223643
25.2672303394762
25.9244490916116
26.7428275181721
27.1460672376267
26.3281289792162
23.7646963674811
19.5196566872137
14.0863358546288
7.83810497399681
0.800020917635661
-6.88819952669899
-14.4692721644898
-20.7390904198399
-24.7007453895841
-26.043487810237
-25.1472411484872
-22.8161671739215
-20.0866123527948
-18.139174695271
-17.9700865362124
-19.75347680817
-22.5222881631833
-24.7145259193853
-25.1749588339212
-23.7140998790434
-20.832017004503
-16.9313111967878
-11.7985723694868
-5.06029784431314
2.77130868224953
10.1235457582541
15.569950479828
18.8951368415375
20.6335862452108
20.9353757515976
19.4003924634937
15.8839107432839
11.0236614471127
5.93171556423167
1.56927120768094
-1.58945145322731
-3.43076698358831
-3.83011079048828
-2.5319577676986
0.465235483535818
4.48452961002617
8.29898292050672
10.7271296124498
11.2487062689854
10.3489970378348
9.2611511615491
8.99249587750213
9.44498832258372
9.64669654874862
8.78722448711474
6.79446761722071
4.03511551591935
0.86374522162399
-2.41726577063679
-5.40087961167651
-7.64126030144485
-8.98220863199402
-9.73755638357738
-10.3427368412788
-10.8209263104892
-10.8606091745133
-10.4767161893887
-10.2444227964738
-10.6891410877512
-11.7150736765977
-12.835315905007
-13.7252739356143
-14.2595015182363
-14.0928308897437
-12.5547409216778
-9.1694090027393
-4.16992605630074
1.70804430858758
7.89742785228642
14.2168106241928
20.3599157101178
25.429125058741
28.2318747084514
28.062727764702
25.2112485829422
20.8898863712791
16.7102558206302
13.9003731068363
12.6633624882566
12.1852964933573
11.2686321384492
9.04845521448401
5.40729533236266
0.962573989810772
-3.43372382475322
-7.3258099350358
-10.7253404774266
-13.6202002444362
-15.7297480473925
-16.8154578071358
-16.9190962348774
-16.1646757997104
-14.5889155468497
-12.3462678414621
-9.93933225166996
-8.06405312855518
-7.17260227125013
-7.16822134754511
-7.473851496985
-7.31183097936704
-5.93375088649266
-2.90084732556035
1.43733463766169
5.7295325331451
8.26157055090983
8.05843708825988
5.40198796884922
1.45040462182199
-2.40685459834664
-4.97312288791952
-5.54380534704117
-4.11777589468928
-1.29965077957453
2.06359529689958
5.21653962280403
7.71800636656443
9.51785305208041
10.6991398912443
11.0888652733236
10.3124143147969
8.20641309039981
4.87478476648519
0.3823055236092
-5.16547605497144
-11.1128923688458
-16.1822257240698
-19.1950875555491
-19.8661187463938
-18.8673250938601
-17.1853316345872
-15.4594983614976
-13.849011196102
-12.2510112249421
-10.3692602702103
-7.70935675077342
-3.95989891698582
0.490707982167683
4.71955286416213
8.1090518986044
10.8563936506025
13.5543815029068
16.3529530755919
18.5801497439907
19.2173582368568
17.8387368597092
15.0834560342043
12.1105374477215
9.64199209461921
7.68043217161344
6.04007615718945
4.81439910430512
4.2381391275556
4.33623943076406
4.85336066756295
5.44492722648945
5.89550328050604
6.16013432301841
6.14756873380244
5.57682163415013
4.33136837214798
2.96417899635354
2.51564409617748
3.60872472255397
5.74034677049888
7.4872357121412
7.47237782497381
5.31219324276335
1.71169283420214
-2.35314702783612
-6.36276140026604
-10.0493188711172
-12.8068538115282
-13.7656684597179
-12.4779249385074
-9.33489261721014
-5.33102829145802
-1.48720477183455
1.59341456308614
3.67623556788479
4.47967622082063
3.58477974003035
0.932992364010765
-2.81922807369358
-6.64061756465978
-9.63854992130908
-11.1744570524655
-10.8580242987959
-8.72722580404623
-5.30579571606841
-1.3944597906609
2.04489799999935
3.95619737006022
3.67627786769236
1.51515134420326
-1.50279410426345
-4.58771070472894
-7.61406575800884
-10.6456726375923
-13.4379952192154
-15.5726908019338
-16.87897800018
-17.5310436813942
-17.720450009301
-17.3246793695106
-15.9726083558148
-13.3738682725103
-9.48268931309026
-4.45454044625291
1.2969800781957
6.93431171578044
11.2596605811466
13.1663129000062
12.2809481249416
9.39394115869854
6.21054279002945
4.3710876555055
4.51248159317642
6.20374736002325
8.54685211156642
10.6635003904586
11.9276748854153
12.1938067117654
11.7856242393561
11.0158643427621
9.78377556691663
7.84231544295419
5.38289432385456
3.14504936845439
1.89267916497189
1.82115213910975
2.49782616608788
3.37663352243582
4.24500592885623
4.98455741129023
5.05932661577476
3.7624036582838
1.16088203617076
-1.56361412172097
-2.9601718733053
-2.381990778869
-0.272572850758901
2.35095642416018
4.69557128836726
6.64186531904152
8.39793784733334
9.79539372769359
10.2699078531431
9.60806793769957
8.3395827344953
7.21509096078645
6.56243896226045
6.29606385576718
6.29867113256253
6.52547325874323
6.73165442836582
6.28225137335407
4.48324842818016
1.23684011762738
-2.72347523116093
-6.32039328468489
-8.77735272107858
-9.90448719677109
-10.1017273503
-10.1090393352229
-10.4375808907443
-11.0444307546845
-11.856994550632
-13.4591127945174
-16.7212334571391
-21.7030049757004
-27.3605003936197
-32.3464269108679
-35.6032996238059
-36.1419179838668
-32.9466269096323
-25.6968957783537
-15.5777621639979
-5.10497230793264
3.15012488358282
8.00942982508627
10.125946288623
11.0434023690619
11.798041398155
12.3438757345878
12.1150419158882
10.9559670255122
9.5034418546452
8.77373922443816
9.51070131175314
11.9714804086784
16.0293117028604
20.9676523671079
25.185879604291
26.8193564903906
25.1665113005729
21.3042219867377
17.0684267260281
13.6442219391055
11.1750180459736
9.22404468786518
7.28869351247442
5.18104770226461
3.23328516878778
1.98134558104394
1.44771472565469
0.891565569977791
-0.535694405384154
-3.00657468329745
-6.05979554253645
-9.26953546323979
-12.5798069225304
-16.0087358894657
-19.3986463500836
-22.6782207486814
-26.0702610526725
-29.5635775222527
-32.2060099885878
-32.4214981183202
-29.2815271866567
-23.3229392387801
-16.1634638754252
-9.56223302169863
-4.63507888064311
-1.3413041465272
1.51179785184455
5.38368916634013
10.6862631076862
16.2213621772156
20.0146050382697
20.8836314484882
19.3259370906307
16.9101669351409
14.8740337050177
13.4147776667229
12.1715248275932
11.0048156081287
10.2125117159924
10.2603056201406
11.4183334336279
13.4738755024016
15.6734584692648
17.001574492601
16.6342025616715
14.3260297950605
10.560068587001
6.2751872743601
2.25966496018462
-1.20080696473114
-4.04008491004633
-6.01779616124789
-6.9055948571435
-6.97293215337111
-6.96454322293895
-7.53405083934736
-8.82321257363315
-10.5205092280937
-12.1500250590918
-13.2885628288054
-13.5650919435609
-12.5533719953793
-9.93738105335695
-5.96089202254246
-1.51749050065783
2.39353896053315
5.17681914007661
6.63046882509768
6.80742137473275
6.0244496474709
4.69987368070652
3.05722676059878
1.23695575891878
-0.268479771449052
-0.650627791504421
0.475456904396979
2.38697837623751
3.45672593085882
2.27229583887002
-1.26743551850884
-6.03434908976656
-10.8651242497733
-15.3804920667454
-19.5227181814316
-22.7743007048011
-24.2502637369259
-23.3332230124346
-19.9532854672746
-14.5636065146082
-8.23948201188145
-2.60330129888376
0.877996458396204
1.80078175545963
1.06728360223762
0.236705994878686
0.558362545701138
2.43182074022473
5.60148867819991
9.68246310977345
14.3411735997046
19.0513153350039
22.9728470931932
25.2544649714938
25.4845070367717
23.9140959058221
21.2668424321368
18.2153213918242
14.9806047715619
11.4689566125993
7.69451155809703
3.94561978247698
0.66072466332998
-1.75712639600235
-3.23167834663162
-4.27133269063597
-5.6481393661146
-7.57726390920073
-9.41013585737865
-10.3223501663131
-10.1730646375903
-9.64405373712142
-9.709007159395
-10.9492713444332
-13.142391039909
-15.397608235183
-16.7340871705054
-16.6090142243987
-15.0778578080309
-12.6430214286354
-9.84375825055053
-6.72475466516396
-2.75320066000464
2.46615345543652
8.43721915224077
13.9939182525913
18.1572993627832
20.4459677138333
20.5326801081534
18.1979014716312
13.8262322700679
8.62597491432355
4.05199858647568
0.941848300343489
-0.782009408889983
-1.64172939217381
-2.04297693566134
-2.27609546356884
-2.73571390781075
-3.64956746933953
-4.61941545187268
-4.85768448901286
-3.9654735809333
-2.24819076677157
-0.318594130283631
1.40714305730931
2.96029956183107
4.73747138623512
6.91981102241109
8.79343598093182
8.99625324675995
6.79485987895268
2.99217228612521
-0.65850181180569
-2.89857395652871
-3.75763202661498
-4.07177972733202
-4.48351099541618
-5.03152723595825
-5.53518706502283
-6.03189321574117
-6.70284002903227
-7.56831559491866
-8.44988357134808
-9.15320078195673
-9.52403407417517
-9.32717483372169
-8.17652094963463
-5.70849919226233
-2.02188992129751
1.96022334903122
4.82700563887183
5.70414525693628
4.91627870899106
3.51312153202565
2.31090222188542
1.52411174684507
1.04650455119409
0.775756933533369
0.721723744220442
0.94538398844547
1.34898382627341
1.5131181184022
0.879772735907247
-0.81388901731343
-3.26565358113413
-5.72197146884015
-7.39927505669407
-7.91378299241908
-7.27844908284112
-5.48846725619108
-2.43901394275595
1.52748309261833
5.35081025290465
7.9252323760454
8.8913796757276
8.56184614037369
7.35883061149538
5.62081084222225
3.72530518743238
2.0518795022805
0.861520296130456
0.342833469465302
0.647278229456421
1.76196239314918
3.46461918739934
5.44961191575599
7.34941888087782
8.63282680907546
8.72549438246049
7.40708846711789
5.07875642536394
2.56053070576621
0.525606433873763
-0.942067662608264
-2.23431813637513
-3.6878681850387
-5.2289673768791
-6.49776966121276
-7.19921931719327
-7.33629571737743
-7.17164088970244
-6.9100501720952
-6.37842056248942
-5.15315739262533
-3.09990771086101
-0.688458089301602
1.30231914940923
2.35955303924519
2.56367456163377
2.40741538973548
2.23362680672094
1.91599132532068
1.32616085239245
1.01227296970659
1.92879690169417
4.34128747089675
7.36109496530277
9.75671599066286
11.0002526468472
11.4072332402581
11.468206003928
11.1876182381555
9.99931063139739
7.30920919146874
3.18427614679878
-1.54783236930479
-5.932128278076
-9.51487144883342
-12.3485243387849
-14.6093774358186
-16.3191170063772
-17.301411323129
-17.3262772169031
-16.3272558177821
-14.4661411517663
-12.0428480862547
-9.49638877539717
-7.41173265735156
-6.17649894473427
-5.47702191272431
-4.33739384104579
-1.90694799291497
1.66532863905915
5.10363607937542
6.86081816631388
6.30617572145355
4.14704567124488
1.69351407283101
-0.149011852523003
-1.12176132396462
-1.18670960031037
-0.2274771680374
1.78644702798243
4.44490890614277
6.80443114133651
7.8722510899795
7.37235876047145
5.90798336823019
4.22435506776296
2.53738178393425
0.820329729081422
-0.514551542487549
-0.646672760548148
0.932020727260261
3.88613354637338
7.09096402769627
9.13202653030535
9.14218803516435
7.51007523927047
5.58881210513835
4.44888171646992
4.0142307698225
3.47577284090378
2.28388149525865
0.57626153025966
-1.14868348021857
-2.49951196075175
-3.30677608139303
-3.48654121131742
-3.05265160557947
-2.29749143986422
-1.7150730585875
-1.59969220556955
-1.86239202585943
-2.28482731746948
-2.72818270636509
-3.05760707544056
-3.14693553872879
-3.03978659406091
-2.8800341582448
-2.65580960112728
-2.21217597579959
-1.4889734253432
-0.547678040490378
0.596449167486413
1.96943688718876
3.46443410829976
4.84941217950525
6.03366337171751
7.20558721241009
8.49613763786844
9.44566830267689
9.01910196465144
6.42357994321009
1.9175140112954
-3.3592713912388
-8.3011055573627
-12.3714077778306
-15.3676661490453
-17.0854215527645
-17.3301006324143
-16.0553199320357
-13.4716769425471
-10.1033008780816
-6.5335168988883
-2.88492354125344
1.28104673912256
6.3391591739049
11.9357193861702
16.989964059316
20.2995204903194
21.3027356649932
20.496959145191
19.0648431268574
17.9265074008034
17.1678518602272
16.2863451779076
14.6340179774182
11.5783800109918
6.71221364525459
0.26370986962792
-6.81031802180858
-13.3234474459689
-18.502146931426
-22.2221224887803
-24.7314752231333
-26.1956863562081
-26.5529336671057
-25.7960742411582
-24.2155698948716
-22.2031703026254
-19.8974662962784
-17.1670386605902
-13.8801366485072
-10.0563067688241
-5.76392479833863
-0.923735437896414
4.71000604254102
11.0919539303241
17.1945058518398
21.1271287493878
21.5271650219507
18.8938038025062
15.266016047262
12.5924455000242
11.5055738890726
11.3839217821841
11.2258906016294
10.4734421994064
9.18882501780658
7.53743443159287
5.2394015064781
1.72796947159516
-3.13012295101811
-8.61521433205872
-13.5213458802676
-16.9063251917728
-18.4829145897482
-18.4141641340423
-17.0091540356685
-14.7729802196691
-12.4425175213727
-10.4888368707809
-8.59909467256766
-6.05068107596038
-2.63207662135339
1.16838288368531
4.92163248550264
8.76583998225189
12.9111376733362
16.9185126335908
19.8228844075542
20.9698530418688
20.5737177231229
19.4566288792651
18.3343721391959
17.3694855466312
16.3432262778164
15.1011704106902
13.7007397388866
12.2457236124745
10.7975205071369
9.38176389174619
7.8656790822541
5.88492789188382
3.10109842998969
-0.447285706154296
-4.30225900837469
-7.84233660387776
-10.5891023236188
-12.3641020015211
-13.1597638805366
-12.8847754113826
-11.4475054734021
-9.20880128281625
-7.14615911911443
-6.35953129325828
-7.40464033757815
-9.99751390653051
-13.1177052782407
-15.4266297035653
-15.9102539852343
-14.3395883172595
-11.2002958345942
-7.31650666400681
-3.56798767930638
-0.743211415736875
0.569197175943059
0.046501971347928
-2.2645707421715
-5.74173769611679
-9.18497805414833
-11.3442511952339
-11.6057419242129
-10.122520292366
-7.3895500477959
-3.89974168712873
-0.115495721180264
3.55899316283349
6.905892627207
9.84848514534434
12.1587303672219
13.2991654018835
12.7662069885752
10.6527918533496
7.67129426949784
4.49666641392902
1.30267887537417
-1.9135519716488
-4.86203838429446
-7.09171481057378
-8.35831435260989
-8.60946204544769
-7.8194396761717
-6.05758519552494
-3.51999818223706
-0.318194053026985
3.59182956159127
8.14916447891248
12.9564485976136
17.3032921636681
20.3447363943946
21.4142016137919
20.4108609455545
17.9489938122444
15.0859250648374
12.7952594881318
11.4449423600718
10.5770722559301
9.28957084430478
7.03305893424026
4.04949747970554
1.00651560449443
-1.65786867793505
-3.95748932776216
-6.13717043362707
-8.42218466500489
-10.9171410837871
-13.6315672956093
-16.5373795261378
-19.4489934213007
-21.7896220981278
-22.7163878166937
-21.642071407493
-18.4935577152733
-13.5107258385063
-7.21390567577243
-0.671550389659039
4.67638707008453
7.82692232208418
8.77719833193411
8.23775747977478
6.91685743895288
5.06299936301079
2.55635745698981
-0.580755673625227
-3.78913147625117
-6.21177710090501
-7.30419531875762
-7.05507529918486
-5.70372438217487
-3.52523991659021
-0.899632480187823
1.6725118559012
3.77357328783046
5.28247703180581
6.4095177965574
7.5311947331716
8.89426135605436
10.377441229485
11.5286454231797
11.8603427124787
11.1592288631669
9.63040159341404
7.81866540850041
6.290732471683
5.27750709439007
4.64033488519473
4.1531395451063
3.69748698952999
3.23709723666678
2.76720650867399
2.2495812216327
1.49864059524137
0.250534361447089
-1.55828524297068
-3.6992955580082
-5.86490568709646
-7.83310837247729
-9.45325819354651
-10.6488940696691
-11.4456060111406
-11.9282741889842
-12.2140134424449
-12.4287613207635
-12.5624668587771
-12.4094883598936
-11.8092974190298
-10.7971966833845
-9.34724988644559
-7.25886674341113
-4.6207065725275
-2.15199231214126
-0.721231823936361
-0.605863748333308
-1.38558161188805
-2.37786971548444
-3.0068637484175
-2.91638661218024
-1.90883205089342
0.238903133799344
3.81268557970051
8.782442110931
14.3894334608465
19.3391367293713
22.4760069467883
23.2727904771378
21.896134702551
19.0059083376441
15.3692327854107
11.5044209703672
7.69200400241122
4.20475408245964
1.28709747873954
-1.07527510272958
-3.15028741289
-5.16407873068069
-7.08062684993387
-8.68038668277951
-9.81585874055103
-10.5331074114301
-10.8855653596509
-10.7274518138364
-9.89787875347194
-8.567277253408
-7.12964385116128
-5.72923955403455
-4.15134643094473
-2.23704811860017
-0.219086485803993
1.41667285851775
2.38385623529916
3.00309929440682
4.13330318801907
6.43583879580211
9.5758753932705
12.2928184212335
13.3637152960077
12.4802178779747
10.252863128612
7.50243166618633
4.5839773205482
1.3622747837436
-2.20316843989322
-5.62217132502909
-8.22613679212956
-9.85701642409741
-10.8927740869277
-11.5890009476619
-11.7050064492283
-10.848877184612
-8.9905382932121
-6.59535068705084
-4.32615378189812
-2.54100315217893
-1.03949106612527
0.63695242244329
2.76469223881714
5.3912001976265
8.37709262572015
11.1239167253724
12.5804470451139
12.0631280789573
10.0007325675574
7.51204729886139
5.33465712986116
3.40841956920977
1.33718810357427
-1.03845405961297
-3.49104429933739
-5.65030189113431
-7.36716124425395
-8.87632354208841
-10.6067369593742
-12.7806526381529
-15.0766670966949
-16.6418413482123
-16.5768506481263
-14.5183776594901
-10.6913219889793
-5.48878845815127
0.620882219499549
6.66122812160543
11.1288850035688
12.9238435122409
12.2294317071988
10.2317061485298
8.09786754931325
6.35566182676693
4.99086958311986
3.8492043372272
2.93837566574789
2.36267273687076
1.95975655852324
1.20445135803678
-0.319338663871259
-2.4337261342374
-4.47688063265964
-5.81579661283376
-6.21021489779608
-5.81878195456133
-4.96607274556269
-3.90497460385936
-2.75717355400056
-1.52768103915806
-0.0326399415010672
2.01463395480846
4.56200783537286
6.96246325497716
8.44133174633802
8.78229500483197
8.43247482968445
8.10892071715971
8.37725086266509
9.27127495485352
10.108374438792
9.95143886836579
8.48167277053149
6.23928933948853
3.88537722691476
1.48591931007239
-1.27897859659972
-4.40958438564491
-7.36430706464032
-9.53703026296301
-10.8195469755491
-11.595190229466
-12.1604228840879
-12.3024759550056
-11.6156845644819
-10.0934350047893
-8.14759010720025
-6.1354545051558
-4.11008560574477
-1.94665570765466
0.469983258544476
3.04149800712191
5.27232542864793
6.45270857108396
6.20853126761181
4.82637785122122
3.03847113646883
1.6084129240895
1.05723763896575
1.54489286344982
2.8939199138987
4.73860591631356
6.68068782270032
8.41510018858532
9.82854474135622
10.9138690330334
11.4976092577641
11.1599236478061
9.53396896757026
6.63006483353041
2.87031653692776
-1.07851435748543
-4.57512069801738
-7.35091458366793
-9.63322450637943
-11.7706327300714
-13.7480426579786
-15.2126249171012
-15.8890323023117
-15.7509915498094
-14.8299350541413
-13.0820668357562
-10.5350046237844
-7.53829390131351
-4.77069929109074
-2.7755013096628
-1.4102627029367
-0.0165563240614064
1.72188004330328
3.32539170767164
4.00993615643604
3.38980581818649
1.71580674181382
-0.209167750885963
-1.30603933128067
-0.789830944769788
1.33633224566867
4.40553960021365
7.62266600400488
10.3994161394768
12.3707831406162
13.316713862686
13.0939336675219
11.6943514807863
9.4637419354427
7.118615297728
5.31270615593484
4.20574225901503
3.55898388508279
3.14751187485616
2.93779298914076
2.90119503222319
2.77551218584418
2.12302906805857
0.731896613367534
-1.05133554627108
-2.55699576365698
-3.4401752688888
-3.97233105445645
-4.65986280185519
-5.77275263719766
-7.28869799938504
-9.00025629849907
-10.4877843249156
-11.1770973875471
-10.6577798669038
-8.99226774176813
-6.68115793770206
-4.23710137717489
-1.71080206264713
1.23173276678859
4.60017231717315
7.6429090086627
9.4049006217598
9.59526545279357
8.6653420570364
7.22498499039559
5.66745163699172
4.17796846383885
2.76248026203374
1.29155682884828
-0.296944033400888
-1.83213707567961
-2.98772518718181
-3.53436982594077
-3.60646041366471
-3.73293299343959
-4.42613833362365
-5.69032618188354
-7.10372824591115
-8.35515042153174
-9.43702691307602
-10.3151128822409
-10.7223293688719
-10.3830710553704
-9.24017520402408
-7.38700644437295
-4.93160466184668
-2.00722132983296
1.12912887674851
4.03144653999216
6.18721638514856
7.3623211239998
7.77057337071638
7.73510887140554
7.32149111210787
6.54514595382566
5.74372591140052
5.37227238921455
5.50357204989568
5.84795931690901
6.25115657638585
6.91093498593717
8.01560200035841
9.28831094435753
10.0213226935767
9.60964823194407
8.00284893580478
5.62002973204332
2.99233960698948
0.607999693086637
-1.13896122621728
-2.17001068124027
-2.82070418076078
-3.47947716010651
-4.16543223678468
-4.59022686424077
-4.5404274721566
-4.09505047101428
-3.55291304209095
-3.20423116998248
-3.11552293609016
-3.14167967197718
-3.1715808430855
-3.2489582425464
-3.37124204611465
-3.31897017713483
-2.83137936537351
-1.8402671115449
-0.411471012186622
1.39321183994226
3.43957164798319
5.4169531742772
6.93019592019227
7.63457845466493
7.27616293465789
5.72706479978904
3.03816864334575
-0.539774650278362
-4.55441243317655
-8.45311364070199
-11.833109038269
-14.5376212805393
-16.4181497032995
-17.2158944025626
-16.8861093160093
-15.8314478193382
-14.5667342707947
-13.291337602995
-11.915145751657
-10.250558098037
-8.00057718895793
-4.80745320319573
-0.589393013961235
4.18067371008498
8.61098306022936
11.8431323208752
13.4978664066551
13.8437731932283
13.5979119604225
13.5199125113051
14.0455525707916
15.1011926343184
16.2114947791352
16.9185259522384
17.1516256838733
17.0889056737707
16.7126514503152
15.767789417709
14.1876903676545
12.2413330966532
10.1478782490657
7.84066099640677
5.25733294743385
2.63255264982787
0.351294026272507
-1.40846469965262
-2.87179236395666
-4.54122302440649
-6.78919736211983
-9.53306152653946
-12.385535241393
-15.0643810816205
-17.4939806916102
-19.5413575782561
-20.814147820034
-20.7797209478283
-19.1479821181046
-16.2341103754078
-12.8502227252266
-9.70870095391801
-7.10989371666105
-5.35606668458054
-5.06920476440856
-6.633567151639
-9.47688646860944
-12.2689908873284
-13.7753573093766
-13.3949928549843
-11.1741111818736
-7.65824800221671
-3.65064533240969
0.176078168803248
3.53481270817922
6.38979965186852
8.65702795741737
10.1414336374016
10.7765487150885
10.8807000381419
11.1063167645073
12.041199245874
13.8298333437168
16.1864132641144
18.6420249893204
20.6559293465097
21.6789517317447
21.4212420515591
20.0947939492169
18.2735672815206
16.5029819997591
15.0037437482379
13.6017975273739
11.9121343210267
9.68381078007084
6.96942828477115
3.97264524553519
0.902684528347739
-1.97433737281697
-4.38024787459796
-6.26000057013859
-7.81565217099347
-9.20450615915848
-10.3008295182166
-10.8012610922005
-10.5390044955268
-9.7374434688405
-8.93693198136207
-8.55891914028294
-8.58061082967477
-8.74365187692946
-8.92587752064504
-9.10322187074851
-9.13353982044072
-8.91357940907711
-8.69857000439285
-8.96529487568718
-9.90606529195132
-11.2265076529997
-12.4592615394449
-13.3441354007955
-13.8696774696319
-14.0139279170323
-13.5325638089006
-12.1289466525588
-9.86218472480906
-7.20544447610347
-4.62092792954043
-2.28586157445521
-0.299222149095461
1.15682567314006
2.05652616053972
2.74871843696601
3.79081055056165
5.60040906100577
8.16911646480225
10.9550283378225
13.1729867297189
14.4043991069149
14.879930112677
15.0563783950344
15.0056509968233
14.3176793115078
12.5790744899905
9.94626921125225
7.23426618654251
5.3265447326296
4.47760139695555
4.28653202818263
4.25188802150295
4.14724118157197
3.95852341521993
3.73277833484522
3.49637938339325
3.17761503646611
2.65959333250048
1.98033235179685
1.33466863821989
0.816016450311488
0.377030087779698
0.106344302184864
0.222217214823896
0.640636539148032
0.840146602146631
0.327070327068304
-0.95846907840322
-2.75049604734189
-4.72755396774756
-6.59112606325928
-8.04208785452919
-8.79151326695376
-8.61991327195559
-7.4744574865491
-5.51076744180513
-3.01718026188178
-0.356151615066645
2.02045819525596
3.6506783334015
4.22211683825516
3.59771833321954
1.82018346054251
-0.689061960739175
-3.09807382316772
-4.70128642689501
-5.49519064803933
-6.01188156332539
-6.65014902388515
-7.32559247728239
-7.6511163523789
-7.30304019501988
-6.29960149081002
-5.02119928648392
-3.9091860128783
-3.13180656538382
-2.58649050403756
-2.1392505819217
-1.71464260794725
-1.19903582480035
-0.450817555597395
0.514605160256813
1.40441215790446
1.76156898554409
1.27916488748111
0.11587506667855
-1.1188232628015
-1.78108167590219
-1.56903003730034
-0.521232540212489
1.12328730995087
2.9894588024989
4.72257184520448
6.16465104786244
7.22106771184052
7.64199392822689
7.23804762351288
6.28741484348134
5.45520556065103
5.26427851414726
5.6963331723331
6.16108424099571
5.80827106414572
4.14960372988941
1.57832624098133
-0.798801553091476
-1.90975388483082
-1.35664350928088
0.441299048963625
2.55273403926482
4.09392463938361
4.64063400603104
4.1522838290228
2.6931513781043
0.460831185465832
-2.02071090804058
-4.04492026150638
-5.12548808388865
-5.1626293140494
-4.30232839815379
-2.78303417986859
-0.840757062124417
1.3534484723322
3.58413362070154
5.41334756260642
6.3119126539223
6.01385141769425
4.59447058092696
2.27762621480399
-0.593458015981648
-3.46054728360957
-5.71879955343988
-7.07412805047011
-7.65374222690162
-7.76629308170969
-7.62278431668289
-7.312969548551
-6.98731057189166
-6.88572715681592
-7.04744393173744
-7.10978867753961
-6.60085578252229
-5.38202110942301
-3.66916761977195
-1.77075149752211
0.0129038074894189
1.42635748480513
2.44594830518553
3.31635846311894
4.23914511833519
5.13771084018942
5.80367816851301
6.11473429643336
6.03925240794478
5.56353023333506
4.68864552472318
3.47694964995658
2.14451886554408
1.08804834470291
0.605613873058257
0.482923573747494
0.0691590230888859
-1.07815724596477
-2.78022125705529
-4.54106950249678
-6.0302393463828
-7.1396588572502
-7.75076129126648
-7.63670878757542
-6.66751069496168
-5.1301886590195
-3.68104177104285
-2.75550995126076
-2.14630017118326
-1.42269875866166
-0.577554334872788
0.0960279599773932
0.590525237509011
1.2407726581626
2.30961226859586
3.87876060129015
6.06032757345481
8.94617577200309
12.26732356809
15.2851378984048
17.1642206989048
17.5106946587917
16.5257037385651
14.6093393184318
11.9666359191132
8.75601410630994
5.40293909884351
2.41026892700847
-0.0734141000547488
-2.19202149263963
-3.95150187542114
-5.16003291632068
-5.78431930744526
-6.08271972182679
-6.34071650914474
-6.67405798774665
-7.12065824581718
-7.75297245918823
-8.60650234067007
-9.51064508321344
-10.0446458270906
-9.80306744330723
-8.75811460029442
-7.16216752319148
-5.02833987633647
-2.05294618844275
1.71761754956079
5.42375114224702
7.88977327572774
8.50930586369407
7.57388205763032
5.90678398543961
4.26391457938936
2.93843098824816
1.77042922449184
0.437241839228572
-1.27028667015717
-3.26446458533464
-5.07807430093596
-6.15060689550928
-6.4549338605626
-6.68082367682799
-7.5295793783874
-8.97063954148044
-10.41402590524
-11.4162054484859
-11.9359018462987
-11.9999091150246
-11.3906423255104
-9.77146985874608
-7.12088913122578
-4.00943985647598
-1.3309423693829
0.320740651990436
0.94378190306781
0.823652901967094
0.199341742156248
-0.637428331232693
-1.18385463262058
-0.940446218755004
0.278736452777805
2.33097879381597
4.91481215915121
7.69179326702703
10.3302581193472
12.5012493054135
13.9378342339825
14.6555265945591
15.0571848697738
15.5890561599235
16.2637395574668
16.6453155779377
16.2618527437504
14.9678013366168
13.0385515159822
10.9781260428976
9.08421829154144
7.18192964649608
4.94790314009998
2.45555442102647
0.214585240447964
-1.26652440298082
-1.81202192369345
-1.62514970716288
-1.22298097848846
-1.25834660073635
-2.20947859947702
-4.13034535659927
-6.60659878948009
-8.90212664179655
-10.2736570193809
-10.3388659272802
-9.2332874151964
-7.46365292475624
-5.66566288292468
-4.39674800180239
-3.90178501144794
-3.98023258876972
-4.19332112257755
-4.20337841433519
-3.83685140717763
-3.01943469919634
-1.93832440139748
-1.14609291593674
-1.16966412934037
-1.98779127199486
-3.06080775548295
-3.88922927784714
-4.48500697668058
-5.29633316601895
-6.65834970813885
-8.35348903783612
-9.82484399393574
-10.7519919042967
-11.1874476548926
-11.1987229274355
-10.714313040667
-9.72870415277128
-8.35223506219065
-6.65758074850259
-4.74651032964011
-2.94252604162355
-1.65552871625563
-0.980365264594289
-0.453425291112501
0.822974329264932
3.65263563341711
8.02197400500966
12.8602105908187
16.7238361144469
18.7539385469572
18.9136372922893
17.5444759719378
15.0464170352574
11.9299753601703
8.80963268549728
6.16353380420803
4.13424472359862
2.5612049004297
1.22156066319015
0.129400128103602
-0.428857984870261
-0.245395999459504
0.511304461442109
1.43583414455896
2.17366113939337
2.49062732845013
2.26693076122825
1.56507085922732
0.596713671932869
-0.416938691574779
-1.26091451936298
-1.66715306867955
-1.40861526574416
-0.475770124804463
0.87734896720993
2.23008794814722
3.17361657787113
3.48858517673701
3.1268572649701
2.03709948778126
0.232021335101028
-1.89473509415702
-3.59827244255385
-4.31292739518499
-4.02414359868063
-3.09823868389503
-1.95567617990829
-0.923484986768543
-0.178551483812389
0.252861074252961
0.378780414060223
0.169567616546855
-0.345040487880042
-1.01557038030283
-1.66646458399883
-2.13342142870791
-2.24020457572798
-2.00206394347813
-1.89124608579736
-2.60464203470002
-4.42652248813058
-6.9654935843796
-9.55419930640184
-11.7659230870614
-13.517521737513
-14.7864551934249
-15.3359077953349
-14.8052658228868
-13.0756847956335
-10.4217197063021
-7.28992465102441
-4.12171917403998
-1.3978503854254
0.491289898951267
1.6306345446102
2.64252280886309
4.17446820845979
6.38184355186906
8.94666091229067
11.4909872259232
13.8968763566506
16.1957346544471
18.1342393051656
19.0106814492759
18.1823313776416
15.7195831417751
12.3808905562737
8.98068519814494
5.92502329571429
3.25462750858978
0.903446837583958
-1.11319016546214
-2.67132454349953
-3.6977780351901
-4.31682956681821
-4.67675846030318
-4.63753096210023
-3.8683361200082
-2.33879626050499
-0.567988668127365
0.66099779099464
0.815656360301398
-0.006977473977402
-1.12747821079823
-1.866005988765
-2.11775971887552
-2.18805174530146
-2.164679390721
-1.80523304441059
-1.03339797097812
-0.195444516464412
0.244164108385339
0.0390150943922762
-0.811762408107966
-2.16392749012915
-3.7984411911891
-5.46910161974481
-6.91860295283187
-7.89446284092717
-8.20003459918079
-7.70214881072059
-6.31102274551371
-4.08444857976246
-1.36630463843557
1.29137129103029
3.33827593903549
4.3423279606778
4.12103417977502
2.96161078178081
1.56840220508133
0.568563896585805
0.0976434823088132
-0.0586588995965158
-0.0419461174922668
0.264360395527054
1.08915251581517
2.46412754479143
3.98257805010098
4.98935062449773
5.19491629698519
4.94541189977131
4.65686199966269
4.1770141933832
3.00002324237585
0.983421509551464
-1.39787680413638
-3.44013113005589
-4.71199820240026
-5.24736292834548
-5.35073602974689
-5.23420840695218
-4.87521635408535
-4.19378966602031
-3.2333209266411
-2.1632228948485
-1.23254908312436
-0.683311888899591
-0.56327781283949
-0.673772042635623
-0.799845789161552
-0.868809127420943
-0.798313286225069
-0.380955141630386
0.541762927420233
1.90343440755694
3.46773867628562
4.96885518659813
6.20898975694877
7.10237470854047
7.6010144052507
7.58608970167269
6.98163873785506
5.98811844068586
4.9736799035666
4.04871602054049
2.96200445413289
1.50970091881784
-0.148630606346087
-1.64902510849678
-2.7292660495874
-3.34343083181081
-3.57187217807822
-3.38935271121187
-2.55481197755206
-0.979844871696105
0.741389149179777
1.48099933424845
0.470711023506536
-1.99098164557349
-4.70045269946163
-6.36010670958586
-6.38630840757026
-5.1345110174782
-3.42860062794174
-1.9518009223963
-1.05239347481401
-0.778699873686806
-0.823143388940288
-0.666776466625149
-0.0876919807530903
0.573367434639918
0.758912431898798
0.11063948806901
-1.46315064078268
-3.78013879192539
-6.31468097128918
-8.37870289179319
-9.48738381618944
-9.47238359295849
-8.34930487989959
-6.2926195888279
-3.68236496174045
-0.95112417762132
1.64105169702832
3.99921237623773
6.04364450966173
7.66973082888009
8.79295256166276
9.38247027954734
9.48918915187058
9.18311981363433
8.39597332827402
6.96336763076979
4.95250681426011
2.85267847277162
1.36217723371045
1.02599988619275
1.96455917958436
3.73380674125106
5.48048802675966
6.42857761712286
6.26928700898292
5.15004621617325
3.53504485303705
2.13264769456628
1.62337673043935
2.17059520545053
3.21219289920616
3.78287751639233
3.06846225258968
0.845005225602403
-2.40266794984503
-5.77936855697151
-8.4485317730508
-9.87474770152215
-9.87088786365902
-8.69152989540325
-7.00157522246298
-5.47885755060767
-4.38638609049363
-3.57936232169457
-2.80845676752141
-1.92560485660779
-0.974488633571762
-0.239063913155958
-0.0622084359887418
-0.479611628904725
-1.15205047307545
-1.73357441311019
-2.17537629172571
-2.63701993986747
-3.23688871651847
-3.92127378143482
-4.50439550011036
-4.822676885498
-4.83766709103777
-4.58634087797313
-4.1618760982418
-3.80915857925357
-3.83100583075096
-4.23724444903787
-4.63399778160331
-4.57410169132412
-3.88047269686653
-2.60146700858808
-0.873867317637377
1.08574592987509
3.00675741915137
4.65603756483602
5.89254244540605
6.71312369002594
7.2693621924395
7.71574186020869
8.02372214963199
8.05898862730071
7.82438461873235
7.53076476588422
7.44921684963535
7.69500738996908
8.05367681864264
8.04828141361972
7.35127399356381
6.13459850535823
4.86242863785613
3.77752545552133
2.77178648546376
1.69797155576782
0.588754932862068
-0.371934202186277
-0.871435407271233
-0.521915368010974
0.885125170466959
3.12363053471944
5.50911988938255
7.06870095003267
6.95240758302401
5.05581018777831
2.24294430443778
-0.317899039356956
-2.07603461145315
-3.28769272582592
-4.47771692888372
-5.90388802213652
-7.44049539048932
-8.8526686911883
-10.1880786937727
-11.7737370409756
-13.6580844733174
-15.2241905586666
-15.6388926208973
-14.6279644841138
-12.6562487293546
-10.4853847689391
-8.68532214481188
-7.38311911327077
-6.2785541817569
-4.94426683032038
-3.20910444373839
-1.29221014952537
0.360303230440195
1.34431183496769
1.55612390031362
1.35248655043595
1.4443389202004
2.51432102587683
4.81016052826459
7.94187322290214
10.994215676526
13.0360139267245
13.7611107767338
13.5927228720568
13.097496477675
12.4821281141688
11.7195580221478
10.8638587191326
10.0560954059248
9.38221498911182
8.8037398349615
8.11418591648554
7.01398910918321
5.38577774710147
3.44362237372688
1.51843231981063
-0.197845343980411
-1.65402798679171
-2.8703624710485
-3.96502596442408
-5.16564041652543
-6.75866014020923
-8.98174952459259
-11.7840254142162
-14.6478029215327
-16.8461615697997
-17.9482881523723
-17.9675773607765
-17.1128777180124
-15.6175674148419
-13.7395803052441
-11.6864292485819
-9.53607125901468
-7.34824290328258
-5.26867857826993
-3.39711797684422
-1.6716230431492
-0.0484508225040378
1.29774287554972
2.13502718664482
2.52434523170705
2.89557353002213
3.71136248218501
5.02413817841141
6.40524207511881
7.40720761502639
8.05176584516862
8.72720843289308
9.66607206754353
10.6728342013319
11.2916889665095
11.1348109433935
10.1839611104245
8.86946426040852
7.70139417663168
6.79516140736933
5.97100681218806
5.28301189197852
5.11340191982613
5.69111727122881
6.79780713070513
8.00024991765014
8.96133636188569
9.52001246706121
9.66697389192945
9.50345785128528
9.16280241030796
8.73535879155176
8.20453766760399
7.40930906365347
6.15970549609599
4.47521001064693
2.65234649026041
1.04805653897567
-0.180004063569588
-1.19979012474443
-2.4973210245886
-4.60245964790263
-7.53814747216271
-10.5875925229819
-12.8972114520252
-14.309583708044
-15.3896125818744
-16.7118637446856
-18.3465482906533
-19.949265465781
-21.1380945225365
-21.8089060503635
-22.1444662160073
-22.2433372386598
-21.7858315825826
-20.2291752746132
-17.3180684396837
-13.3042111355132
-8.75589963953559
-4.2939500476159
-0.484117142073892
2.12392928143985
3.02753039882231
2.14994541318706
0.332129302770842
-0.829259540193934
0.0577901740688468
3.35686845452733
8.42408399118779
14.1049007309109
19.1710514289773
22.6750267350861
24.1878675361634
23.7302065044439
21.5578740791864
18.1242548281638
14.1224231628671
10.3281649801941
7.30493016900728
5.2096457350102
3.80014992777217
2.67899664352002
1.6622085794431
0.862670415086654
0.323709297224368
-0.243407329743956
-1.16964259386046
-2.46301054671503
-3.93384042950365
-5.49376483866138
-7.10263690745817
-8.51033001210564
-9.20723125124228
-8.67383490469129
-6.76336026442392
-3.88994821162809
-0.740318176646602
2.20775606839743
4.75397772387992
6.69179268859759
7.79068638564454
8.07235053652842
7.83776716155736
7.40431946415183
6.96333643856796
6.5659186931191
6.06062738274926
5.19190533536664
3.92765441769619
2.55904105661195
1.38858860772221
0.448853846179437
-0.470255690816559
-1.64782007169848
-3.20059097519485
-4.86829793899647
-6.15568502274592
-6.85706113304184
-7.30184808213715
-7.92661019401308
-8.77117887951244
-9.55828144416325
-10.095675763544
-10.4173634879137
-10.6420573674102
-10.8348408482894
-10.9595359300342
-10.8806648679487
-10.3720706909147
-9.14252531922486
-7.03317436817398
-4.35983504186134
-1.91808204230785
-0.424291613805816
-0.004726844035636
-0.289753613300757
-0.77133393333273
-0.9564898936047
-0.484261937956148
0.652796316294254
2.12934440363103
3.65258568669643
5.22787157068991
7.05014815608622
9.19400292848811
11.3512633440017
12.8730255398985
13.245024703972
12.5427610963845
11.2636668650187
9.80737104758271
8.35917268587943
7.13949284929177
6.41142032600706
6.2429783893059
6.48077727653085
6.9198346569126
7.34315543354681
7.4908298101079
7.18174512251006
6.44226607984146
5.41704535747375
4.2006730296608
2.81279260199082
1.29166839046665
-0.201045011034081
-1.36837198591892
-1.98404734639057
-2.17264301271031
-2.37575370327925
-3.00253482115585
-4.19661732278551
-5.86883123684987
-7.78667678623539
-9.69039165614001
-11.4773861732473
-13.2355559154373
-15.0340008625175
-16.7516077075941
-18.0787841971406
-18.567612844804
-17.8181732958818
-15.87349712683
-13.3707926750201
-11.1000702026197
-9.46270839947566
-8.40994729728072
-7.6595756048755
-6.81688817292202
-5.5046347057402
-3.57100936450839
-1.12953538001942
1.584290603529
4.28802682664143
6.65291135267746
8.38311403925904
9.33178925959134
9.5778808489436
9.4693878376651
9.49241961933614
9.88434046642077
10.3982223075147
10.6296568651108
10.518888476799
10.3555306894433
10.4046010192789
10.7301832407627
11.2514790006127
11.7595011113759
11.9734908208555
11.7223750444852
11.0254995486813
10.0277279352845
8.97914066986296
8.17375612553839
7.72005178981339
7.4438056008892
7.11835049704394
6.64244276002999
5.91300214903803
4.72556091281488
2.92534862829448
0.561833072767427
-2.11413595268132
-4.73109325922452
-6.96541950174053
-8.72589452016809
-10.0929740609845
-11.1026669400828
-11.7810376705272
-12.3276727030835
-12.9651189258238
-13.5808935508361
-13.7558121623057
-13.1931870735656
-11.9883086656276
-10.4873684128391
-8.98639530224163
-7.55461351039939
-6.10029827538093
-4.62235126205281
-3.35873969371795
-2.61067477583099
-2.48326666059252
-2.87732104657102
-3.59794427259074
-4.36070398115881
-4.87676258346089
-5.06363268324787
-4.98322966524317
-4.48537924466775
-3.15772791883325
-0.770004147451665
2.36231698487815
5.49459531921397
7.83693590481142
8.89295311763431
8.61191854098442
7.32492059782569
5.61571475109515
4.24061341446186
3.88523669293644
4.7066942083962
6.21179461165758
7.7957421878739
9.28659942930571
10.7885223031744
12.1496419730723
12.8243570454668
12.2750988222069
10.4641144134161
7.95678548677307
5.4923154516307
3.42600513037443
1.66711910539678
0.113167060639853
-1.09349618631217
-1.81099383736494
-2.18013188492032
-2.52336249189521
-3.07801936333828
-3.89420682234642
-4.86807196321318
-5.8196292385674
-6.62562103093991
-7.2764997586353
-7.75492409866806
-7.95706046223121
-7.81429348838241
-7.39381487843753
-6.84236344614954
-6.3365352856744
-6.04657853590767
-5.97283907834691
-5.82312923549211
-5.18160220403256
-3.81509303290974
-1.83705278611399
0.296114801388546
1.95959382934911
2.73151180731451
2.66821851141227
2.14782164603601
1.49614948323966
0.838011730150024
0.184038901640379
-0.454802515259454
-0.955555437021724
-1.0654940989173
-0.624946110441822
0.206396077235723
1.06505333302194
1.66657265970464
1.90214222365011
1.81557117504909
1.59427309689157
1.41724006280517
1.21495375405652
0.748646049757207
-0.0042649553093951
-0.72887332292124
-1.08848645453409
-0.988138226521123
-0.528966561268542
0.105749510519468
0.761476318654772
1.50439338023848
2.63156652815428
4.31864860107365
6.33426074077192
8.20284437197793
9.55817979009283
10.3250033845818
10.6777741819196
10.7913249101489
10.5403518350964
9.56868602088612
7.77605681015791
5.59789853792835
3.68186396697657
2.37695947482428
1.56387702210399
0.854908913199156
-0.0650766115928361
-1.22717420212127
-2.52923823082044
-4.05213646711639
-6.01750413099155
-8.39533874838062
-10.7567575067452
-12.5555016342298
-13.4233458423838
-13.2762391138658
-12.3479255541555
-11.0783236391373
-9.78553817209328
-8.44252667688718
-6.82639089013008
-4.79917259503588
-2.411686705007
0.118801027407639
2.47593772000511
4.42783287184632
5.99261054295464
7.33071942930737
8.47501233240086
9.19419349848869
9.04394417916569
7.62775420521421
5.0739586131527
2.24405714463916
0.147009624094684
-0.953362229995851
-1.70143520515575
-2.95488585842605
-5.03180508090891
-7.49453492458098
-9.50274338138345
-10.4639565589825
-10.437232767728
-9.87753952531546
-9.09450645277848
-8.12253384285231
-6.96524859166347
-5.67584300338667
-4.22420825429314
-2.48583734436328
-0.386876951672463
1.94915092444162
4.11259202051561
5.53353934542491
5.90265825260236
5.47662312326185
4.84867380623808
4.46758752148034
4.44526509914019
4.65504791333014
4.83769921720165
4.72564315581299
4.25176791480631
3.62807717141652
3.18856273534715
3.22895149833401
3.92509952497665
5.16764141948484
6.45972261859277
7.20841504167322
7.21053125786455
6.7720092784919
6.33940737097578
6.05260225537427
5.65462270909269
4.85287238461855
3.74426311873374
2.77335316309184
2.28099924398967
2.25055612639022
2.46107575293019
2.65344100596708
2.5460005669481
1.93877968085019
0.871744886069495
-0.433523019221482
-1.75449048552653
-2.92248896857428
-3.8373732529519
-4.52789325720172
-5.08014367449802
-5.47657253357622
-5.63216299217501
-5.54044416231836
-5.22406066106334
-4.62252126157471
-3.70014017807787
-2.5983478108656
-1.56701530663608
-0.837688916638354
-0.625427006190476
-1.07594323017303
-2.0692634303621
-3.19060141026976
-4.01799477409682
-4.39553607726506
-4.42851906014295
-4.32280931709119
-4.2242016573438
-4.13290074238237
-4.0054243167898
-3.93444272486366
-4.08639234735152
-4.45835677688875
-4.85041043604901
-5.04638787875203
-4.87270375013181
-4.16831354651244
-2.88527176180826
-1.18883216580596
0.620134987910862
2.22300007841267
3.36195761187278
3.97132013263067
4.22078028688155
4.31028741270706
4.31140549047873
4.29545955231111
4.39746384272117
4.59550085549783
4.64060413724992
4.36046123431488
3.86557600607244
3.37029447574402
2.95216237323989
2.50794702630439
1.83640033246983
0.808406157693074
-0.438427654059065
-1.52394792699789
-2.11037699954838
-2.11888904464298
-1.68968797473385
-1.06644977415925
-0.513029161711718
-0.181360558895721
-0.033362302303326
0.0376793675152367
0.0947456452525741
0.230363992191683
0.569355579458924
1.08587588348309
1.57415142326124
1.85453808701919
1.86332130581404
1.58864720407682
1.11978532275089
0.703165710878965
0.567219880684552
0.74044885233199
1.12414322371897
1.61716453510487
2.1040049273227
2.45852628084621
2.60851153067907
2.51990602456759
2.16901519587184
1.6101954418597
0.978907229456345
0.380267241260242
-0.112055252141664
-0.376987835982448
-0.349630494353347
-0.172594621379292
-0.0713652943544184
-0.123757189883483
-0.27835755666099
-0.503928202712028
-0.790223970108848
-1.08758169411122
-1.3474901686481
-1.55351259994403
-1.66945837522795
-1.65038060275709
-1.52249703250657
-1.36436234904234
-1.23914341587928
-1.21133023087623
-1.29923124241099
-1.30995786522792
-0.903053227228736
0.0459293781737378
1.27730935269363
2.3813853724055
3.05073150187416
3.1485990338328
2.73703793944265
2.0193057442421
1.13281997408573
0.0787819267688968
-1.08767588770701
-2.16388200145969
-2.9634178788351
-3.43245212390948
-3.59799982385057
-3.54343742489303
-3.41674693368577
-3.37677228317559
-3.58523740975843
-4.21865674488902
-5.29759026423624
-6.53529829177774
-7.56790425147025
-8.26966413554372
-8.65134680028967
-8.6015429448348
-7.96948980939339
-6.78576692311195
-5.22255951340232
-3.45516239946669
-1.65995934748554
0.0234781063849109
1.61469675680104
3.21568820282437
4.78722167988677
6.17987196331782
7.35580142027245
8.37256053945659
9.2015167229821
9.75318850215176
9.99941032132732
9.92361778332159
9.47308142908971
8.68690472806663
7.77173958017902
6.9738716137496
6.40654410227973
5.96625480655001
5.40802231730242
4.61203014317301
3.76120682242491
3.11062090916869
2.64816761265475
2.16185618116988
1.53033768471779
0.746655636903505
-0.202579037092698
-1.27200679496592
-2.30050473142483
-3.16331500671026
-3.83652238930158
-4.24101055470379
-4.21017730031799
-3.67967080201385
-2.78496828371261
-1.77937397398284
-0.947960031908591
-0.530933143878302
-0.629650976243132
-1.21270742626941
-2.18423383659636
-3.32465709500551
-4.23146541914903
-4.55533562043144
-4.32137783618442
-3.84033878662693
-3.32077780668741
-2.7449945302405
-2.07529589726983
-1.39317379543018
-0.843396055047378
-0.517053933998346
-0.3394484304905
-0.0944634886167399
0.313288139905623
0.657409097735023
0.572999953681134
-0.118158767456824
-1.33351385268279
-2.84397681999225
-4.37589565132362
-5.71360230078332
-6.74747536231392
-7.37432928646987
-7.47194525291047
-7.09988960263954
-6.54884293442737
-6.00511978819278
-5.31843685589662
-4.24327645652955
-2.74168099381653
-0.949975845749851
0.967695601465379
2.83737701544035
4.46691561890618
5.66910973723228
6.28503594193169
6.30017919957073
6.00561863507583
5.89319431618954
6.24916374256282
6.90192538164499
7.42696822345773
7.53815065751803
7.27286611580851
6.89648613293863
6.64202895152343
6.48145645851601
6.18058858153896
5.59699093103705
4.82381634127924
4.03682821674541
3.33299676139194
2.70221222325746
2.03388851750102
1.21295729142489
0.304307605901123
-0.473202105123727
-1.01459531259214
-1.40734810630691
-1.72298093767078
-1.93479228407251
-2.04616277037416
-2.09540081822784
-2.0462236773971
-1.83284660360022
-1.44939629300565
-0.885401748411554
-0.11566072214326
0.731393103178751
1.33316186927727
1.37604492882747
0.721114466782765
-0.551332145833103
-2.10193054204435
-3.43502495673002
-4.23040373511559
-4.54967991944219
-4.67070920485184
-4.83975731280652
-5.20384833098548
-5.77902394846179
-6.39481364438156
-6.81897697034224
-6.98385553288483
-6.96529756079444
-6.78798012363754
-6.4494574382788
-6.10064534540824
-6.00472716940344
-6.29444840661933
-6.81627451411143
-7.14812441898422
-6.78805137857332
-5.46885526775403
-3.30437371091101
-0.58960966733607
2.40821517436569
5.38226483780385
7.91091899113501
9.6159058724031
10.335359483038
10.1459889489327
9.3457206342617
8.37888361849528
7.63126950415415
7.28619840865428
7.34320447731808
7.60664521356481
7.70033622087188
7.36706019769556
6.75690518428839
6.18824733068687
5.68686766965165
5.00466982991921
4.01181406192735
2.83744236201079
1.68737132964122
0.699750313259963
-0.0834632894935528
-0.736430419277258
-1.39852220266386
-2.14610649583207
-2.97520964411624
-3.9014928415404
-4.95867096633479
-6.09770365981546
-7.17607100090042
-8.00794707665528
-8.379145669094
-8.12615219684273
-7.26259093617353
-5.94987000717251
-4.37896084985653
-2.78377181190067
-1.45243900293027
-0.560391990536788
-0.077881591122687
0.0757162840975798
-0.0559307969418998
-0.335713370074134
-0.509181930706656
-0.39613068393435
0.0040208433005844
0.574856069740399
1.14469909436156
1.58482334967828
1.95736350879027
2.44259673952453
3.05407218450235
3.58331876641261
3.8452032599477
3.79819154306961
3.44748509433046
2.83293029507582
2.10232599290104
1.4457066229819
0.969356010629584
0.690790469623031
0.566730679495479
0.470507706107034
0.25031499158407
-0.135214471076703
-0.619600212221922
-1.15547573471623
-1.7282212578172
-2.27044708796858
-2.65548871401409
-2.71998233685571
-2.27564943977439
-1.27374870694657
0.0017774981878831
1.101875723591
1.80383434496014
2.17446037193613
2.30030834725037
2.16271096050058
1.75364907815142
1.16500133360179
0.564099763256285
0.0914077281004469
-0.289971864635928
-0.781985778741442
-1.46636176701634
-2.14016897913178
-2.5885912343805
-2.88104088372002
-3.21666127766721
-3.59037007782803
-3.75493216610479
-3.43575099322425
-2.53756519740932
-1.23708297345168
0.116130008273892
1.23908370586895
2.00257891285437
2.29491941090353
1.996763839624
1.19121928133072
0.266309279041415
-0.300978536385848
-0.248971510396586
0.324589202838398
1.01318888060427
1.35533555855263
1.18326282171353
0.704378079678242
0.199258457068187
-0.217113850271567
-0.484337359259981
-0.487861596189006
-0.21086125811689
0.145456786116643
0.285950214141926
0.0238500325624244
-0.572046083719556
-1.16495429003571
-1.40928479396005
-1.26983456611126
-0.937768328808563
-0.470174429218356
0.247408289724236
1.21693387100289
2.25966530363552
3.19305811283434
3.86268612672947
4.08128900380161
3.75076473738696
3.00705455703507
2.13646314500494
1.38958589066229
0.858725639342469
0.433815766996544
-0.0664264995121051
-0.626120671827416
-0.99666837921608
-1.00631925394278
-0.773807204021475
-0.555424808015668
-0.520280936822875
-0.701301962844143
-0.989192375255964
-1.12448093251432
-0.855450153211585
-0.166272170921743
0.728729579746647
1.57265319608912
2.15404093090165
2.31790371709963
2.02261739827492
1.32197938074965
0.275890267835825
-0.981713028964167
-2.12542377605798
-2.8009064572128
-2.90819998743707
-2.59908528297609
-2.07263460885272
-1.48084068911871
-0.915551865149133
-0.389239215675994
0.0790704920508472
0.345888632361737
0.229826866762279
-0.291267727372948
-1.03291551241602
-1.68555167387148
-1.96097333105152
-1.85407021360425
-1.75843159164792
-2.09593387065264
-2.83875303015137
-3.58894470675186
-4.04383491922682
-4.17250564008579
-4.03880342126276
-3.66631487022903
-3.03591542117045
-2.11276496401314
-0.936693128534313
0.294824352947721
1.34788637656176
2.15777443317801
2.79817884535098
3.29969932075944
3.65563461493784
3.93180102205408
4.18094177548898
4.30088867962077
4.12391657388157
3.59716469018731
2.81838726495821
1.98640392590945
1.31539614530888
0.887034457277217
0.629157605393928
0.517390882760354
0.671854841391486
1.16895285290159
1.90360542052704
2.69134242749133
3.35389624292573
3.70941299393182
3.66152940082174
3.29363836036759
2.75353854962372
2.10935303171243
1.38846545667909
0.621789508935488
-0.205003699071149
-1.09758329925715
-1.93863341214603
-2.55977619683034
-2.89489055609667
-2.9811703382297
-2.9137187644188
-2.84565486994611
-2.86033111375334
-2.7967518599712
-2.40128077308017
-1.71528616955505
-1.13634892192427
-1.04021033212624
-1.46894770304851
-2.17574300963218
-2.8275534795326
-3.1889596618179
-3.23060454278347
-3.04146739386696
-2.64430910964408
-2.03170074246431
-1.33278509981502
-0.727914383820152
-0.236518866189402
0.220665652851808
0.632505307802817
0.93725296100162
1.14098396666652
1.27122274805676
1.32399825682534
1.31409300817772
1.27201835637991
1.21055065150303
1.18531859099803
1.28231248696699
1.45145098783115
1.51043880584144
1.39619817995979
1.23830297222615
1.14939841122822
1.13287112227908
1.18030825212862
1.26198584303649
1.26765905414967
1.13207189850118
0.95491562994295
0.866808554411825
0.854295487465927
0.801483259602718
0.621839825629615
0.306176163802894
-0.0717819193784925
-0.384334094035193
-0.568238609795084
-0.690249890691559
-0.816733595021521
-0.897170021613052
-0.868996258513848
-0.767080973632751
-0.64098767020654
-0.485783370453653
-0.313030928044762
-0.176377137272717
-0.119372821238539
-0.181702909761574
-0.386820512636651
-0.653282392385203
-0.83783347838085
-0.909873125939857
-0.944300176449964
-0.955970536618843
-0.904424752935267
-0.798492181160763
-0.626952964794973
-0.296759087826837
0.194416858025777
0.661219072705678
0.941362062233572
1.06033858981317
1.11690728379529
1.16347082637059
1.21479174902078
1.2249983913102
1.08936778395223
0.78177481388031
0.405056149999662
0.0369247708020582
-0.335739035484653
-0.684746573684479
-0.912091112653843
-0.994385035090747
-0.999059635405229
-0.948706991520089
-0.825596669135736
-0.683748069365099
-0.59445411200785
-0.529146616954904
-0.433019694475202
-0.326974430780147
-0.230401505002095
-0.101870706558017
0.0747027790682824
0.266255969159725
0.457619804023262
0.618515957633202
0.652100671524876
0.495966161002949
0.212437588405256
-0.0845667587160006
-0.302004923404236
-0.368655743005665
-0.294612895599755
-0.200019213949493
-0.167277423172353
-0.151934999766843
-0.141290573547748
-0.244596533494083
-0.508938490442859
-0.807483626913834
-0.998318969178561
-1.04111476255954
-0.923282646478962
-0.626486751652072
-0.184351316858505
0.325826051022591
0.825176594996502
1.22629357074476
1.46204800933099
1.54389800167326
1.51038195892435
1.35058064950053
1.10264059130863
0.970460955312191
1.15877400857806
1.60487313178625
2.02373955822091
2.19227164939321
2.08649422707999
1.82675361108617
1.58974141406362
1.48699262274007
1.47467058325379
1.44556790501871
1.35982329041124
1.20165857108619
0.923282556661677
0.52137381134225
0.0262512112439496
-0.627970297712723
-1.518846753231
-2.47998215612015
-3.14524760076645
-3.30607506140817
-3.08843071461292
-2.79009409029895
-2.64949745723133
-2.71401337513255
-2.8550934796725
-2.95400170454075
-3.02507785107149
-3.06054364799612
-2.90351329395029
-2.45354722274751
-1.83424295460306
-1.17266690618264
-0.399981346154182
0.537048095373608
1.43991335729507
2.02223361452017
2.199066569569
2.09129568029191
1.84231471252572
1.52695123957978
1.18383800156572
0.882764615402002
0.744160381491098
0.819804389650814
0.959497175917492
0.948669191908833
0.781772910278073
0.604927701983604
0.406228525143962
0.0025001881446177
-0.667000447032818
-1.43276267814516
-2.05495707397683
-2.35457400116211
-2.26582047637745
-1.8763627931913
-1.36213043129363
-0.862015270730029
-0.474961833035101
-0.284691763628758
-0.254466254980758
-0.193567079410136
0.0590171041462254
0.51512439519166
1.12389231251249
1.80212729123213
2.37224438919874
2.66658840432079
2.7050499306201
2.64394667751786
2.60224208772618
2.60966577120424
2.60694761591889
2.45378949022398
2.07867454356439
1.62385119167393
1.29162613409737
1.09005651845646
0.895849631568696
0.687027418155443
0.518078373033597
0.355302270283796
0.141948420841097
-0.0591728641377113
-0.159875912072434
-0.183806521932658
-0.193133426469891
-0.199133690175811
-0.202767599917586
-0.198397342532843
-0.149137003936551
-0.0782238947083672
-0.107855794834726
-0.296704463346141
-0.54663571882987
-0.741765357421829
-0.853881995662816
-0.893073589267425
-0.891762247165488
-0.91106884330891
-0.949458113032494
-0.934534749202249
-0.887914035493964
-0.938591125734404
-1.10482697832793
-1.25472549627313
-1.3214906724364
-1.36348393191812
-1.41942930236731
-1.4835466219125
-1.56673472439583
-1.62884221311476
-1.54609255062453
-1.27348043811249
-0.938658693290438
-0.697293884803227
-0.6033453360404
-0.645498369567104
-0.774940225863419
-0.89074494127282
-0.933648329127284
-0.973805829630826
-1.08562969318663
-1.20677323669265
-1.23825611707841
-1.18085058630998
-1.0760318167277
-0.928939143531215
-0.740331317870454
-0.500010165706594
-0.164275275073178
0.248516102321201
0.609569948081863
0.819904604126067
0.89935644565462
0.895737837338015
0.846684507351949
0.832876239969751
0.907657687893071
1.00080289136603
1.030744526042
1.02671715605983
1.01365024163551
0.911661455835412
0.677169929273136
0.411280325974972
0.236896079066697
0.177973394654027
0.190650575760843
0.228989067113075
0.297163976467039
0.464906683260644
0.752831105201483
1.02443489987458
1.13200483976559
1.13348656016021
1.2012498092457
1.3638558197362
1.51177056903755
1.60384460129287
1.69300060958067
1.80700533309815
1.96179724174753
2.21173721845715
2.54787024891883
2.84278920026146
2.99656814722302
3.03610713259427
3.03576001296495
3.05099931484465
3.10114469691981
3.09969102357862
2.86899750852583
2.32750879823761
1.59165797696908
0.856104093667745
0.271948749198937
-0.0753540593443953
-0.199334174959029
-0.212957048556126
-0.231319018849906
-0.337113060800037
-0.632324608572918
-1.15848367433674
-1.77270466762607
-2.2872427632505
-2.69662273929427
-3.09818195280229
-3.49377965465125
-3.8513392359902
-4.2253771815077
-4.63794557316507
-4.96772326279339
-5.09922530795689
-5.07814410014196
-5.0316430787197
-5.02136135617753
-5.0162452464856
-4.93939715647794
-4.73370586800038
-4.42352958627396
-4.07272638753592
-3.6746758792175
-3.20390524330918
-2.77832975485329
-2.57585122769039
-2.56820026803731
-2.54703062733085
-2.41662855572024
-2.24529641579134
-2.04109774234632
-1.67062765080683
-0.985604835838815
0.0703733415846893
1.39672991118865
2.72061021597781
3.76852407371107
4.47887424498114
4.94156387318483
5.19706756123253
5.24894516283522
5.19684952296067
5.20322030247442
5.36152886871917
5.63092054252565
5.82386748619448
5.71780389774129
5.31649252011749
4.9069753203674
4.7204697345832
4.66676643306817
4.51347106288783
4.15899688164351
3.64306309165427
3.08296917003066
2.68314904992934
2.62360032902472
2.85331682255967
3.113802988951
3.17440619675139
2.92341271216634
2.29923171617374
1.33637508674501
0.26138456707407
-0.620142775131658
-1.14361262068894
-1.36056116694333
-1.46964487492419
-1.67212047569233
-2.00147618624181
-2.32297917908885
-2.54359620014407
-2.7099653582395
-2.88300107163964
-3.09969980756497
-3.46691723705804
-4.07997696105522
-4.84748089812866
-5.58149186677325
-6.20748871317847
-6.71495580593333
-7.00023287681783
-6.91921236248748
-6.40193192738998
-5.4395701645111
-4.10000254501182
-2.59437075241568
-1.19391772363212
-0.0953059432131659
0.548653552452123
0.600502852094958
0.0802023679926788
-0.766244318144479
-1.62179075636031
-2.24121315981143
-2.47349985587623
-2.30830089154082
-1.88817137978596
-1.33235445152174
-0.586917113648789
0.428773697973914
1.61010005082771
2.72195765138079
3.56822005044004
4.03979316801647
4.15018547624372
4.07361215248711
3.98363325340268
3.85182967732264
3.55856926443827
3.12754318659841
2.68526013698356
2.29515047223619
1.98084497059472
1.80361854170239
1.81100627404235
1.99396679013393
2.31202422616659
2.67742070364824
2.97431868443139
3.17619587021008
3.33667617516977
3.41828875782896
3.30089932852465
2.98742358264183
2.60469049761152
2.20338978906323
1.75473187109905
1.30479768286959
0.94481186997031
0.678988293287379
0.450215829626961
0.217387642255303
-0.0677552679663784
-0.456071145195049
-0.929639740762732
-1.43455771243748
-1.98481157346964
-2.62660317492313
-3.3262990355469
-3.99646142008622
-4.57153767981771
-4.96294056261373
-5.05191679644519
-4.84332737218887
-4.52156999971497
-4.27349109060442
-4.14641469810005
-4.07911046671689
-3.960957132572
-3.70662212090708
-3.3678482019655
-3.08771567543303
-2.89782569683938
-2.69392852016661
-2.41559157731841
-2.07971906426968
-1.65901102954842
-1.09158193344897
-0.353317343160089
0.597422489186961
1.80700770843906
3.14294442994723
4.29204074353198
5.03084551338489
5.34208321275002
5.26774947876413
4.85074751344555
4.20246292960221
3.4555727257306
2.6928614352196
2.0117129303115
1.53243768127942
1.26255802660803
1.08339719634519
0.908169294144193
0.724610592930012
0.502242336644373
0.218892397610638
-0.0478595018944725
-0.203916381827105
-0.25588255164953
-0.218635724067356
-0.0226569447571461
0.347575457111189
0.75274502115022
1.05087348187146
1.2236105509193
1.29567467367922
1.26270115023248
1.11688955032863
0.845742892414152
0.439238288991916
-0.0509626402269646
-0.543766160520978
-1.02010928062027
-1.45944388035242
-1.74042616623663
-1.77720436285541
-1.69688414361121
-1.71983474495516
-1.92139563731655
-2.20843178408615
-2.42779767726545
-2.43698100275868
-2.18462399749262
-1.74278173815186
-1.18282643034424
-0.506695047215803
0.214429613960439
0.804786394505757
1.20792400649915
1.57063855304241
1.99366151639722
2.36270710784346
2.51045074774791
2.39862668823482
2.09198575314936
1.69490534739339
1.33720794224126
1.08785108762097
0.871735287890047
0.558867147078114
0.0917874927996929
-0.5202834430663
-1.2160469629545
-1.85336703746783
-2.29919148504445
-2.5504565537112
-2.65855511407513
-2.62565171131843
-2.49905853389262
-2.41527820997752
-2.39936205683244
-2.26141026156769
-1.81761436335429
-1.11302335323078
-0.38137392626864
0.130914010084215
0.341649741157577
0.422824482615697
0.629584945646174
0.987472015830327
1.2873629392338
1.40394969118458
1.42304798654472
1.43654959164571
1.4026735097089
1.23352741076812
0.908370284815612
0.516986093808691
0.219213088843367
0.0829463515147722
-0.0076874189255735
-0.157747707574723
-0.246534525111216
-0.0740942800355497
0.346543686153921
0.806611643046769
1.13269294977918
1.25316221381071
1.1386950693437
0.829220361359538
0.434725910111355
