-0.206265304064034
-0.118275129895971
0.127442831261255
0.339424429649955
0.34348236850794
0.0986040630142011
-0.207926704869863
-0.283460291358215
-0.044157393917944
0.290533459206811
0.469566977676837
0.446760086973288
0.320585042187661
0.191296162035768
0.111926632067286
0.0777520136582355
0.0589925347382928
0.0748904211862953
0.162416228896945
0.261893157346616
0.262793150949229
0.178857784548941
0.131297553908082
0.139685765177832
0.0713021518806234
-0.187415288561458
-0.616629210830328
-1.08639264650305
-1.39449276605382
-1.3550177287847
-0.966010748450386
-0.45335463167845
-0.0958687444195311
-0.0252427611438685
-0.162479883090598
-0.30686702669804
-0.347279101885417
-0.407549713186939
-0.696137867817777
-1.21622282903614
-1.72549573608559
-1.94901679474717
-1.73037290328732
-1.06174903115384
-0.120848517278494
0.780468824459334
1.41008875341887
1.7253567714045
1.74038878190804
1.45480150416629
0.978775939795482
0.544304874970511
0.310700075253484
0.268314804260808
0.3121490675049
0.291272065145228
0.0744811326412714
-0.275697820594422
-0.466217750790739
-0.246267376208795
0.322907930481813
0.929715410079838
1.27930794036429
1.27948372834678
1.05320527052844
0.804189295887493
0.63911919852476
0.536092906277908
0.464512289211153
0.427226804825921
0.39452412420403
0.330314300005187
0.267372931372711
0.242553960037568
0.21916852465846
0.171399184287828
0.143646538032669
0.148481120875545
0.131965838960627
0.0907304633577529
0.0824571103186346
0.0921167004325091
0.0274061895237566
-0.152403325554349
-0.435316519545291
-0.845732747984123
-1.39158538797225
-1.96574624482743
-2.41493789998813
-2.65526089308164
-2.68123399036466
-2.58183265017493
-2.54801511379019
-2.66113247960747
-2.62789354717067
-1.9316792871214
-0.388381929200653
1.49734476272148
2.8282111470047
3.04493847608925
2.39757000249746
1.6542801835981
1.34018221988786
1.35646293202574
1.33412406813368
1.13221747883376
0.863989743427294
0.63967402824789
0.480309118608063
0.374465449176425
0.28311069650205
0.160377125059797
0.0132816498129919
-0.136003599053711
-0.314362214154839
-0.526091429779568
-0.677625455668774
-0.663817853686219
-0.468201838543206
-0.140658523630299
0.22705277048716
0.487895368076504
0.524440415004462
0.370615724698139
0.157306188094326
-0.038005192207353
-0.188479588721647
-0.225086746402593
-0.0714593976754993
0.251621860590707
0.614615629005081
0.845081444182651
0.833059797197673
0.638931914827854
0.433713267295859
0.276531915196249
0.0744439496750723
-0.182356594780936
-0.323006828495812
-0.225437408825478
0.0106667515427314
0.202977345427642
0.273666824095901
0.246703698091671
0.167440548711147
0.0569250234504248
-0.114013452479865
-0.37699609891262
-0.666946202197048
-0.87432802378146
-1.01328116285812
-1.18521935970832
-1.3668910932559
-1.40986908791366
-1.25396157718622
-0.982516052761663
-0.682204737162088
-0.381094857098225
-0.101256409948341
0.117427753587784
0.221120496944997
0.1542892631489
-0.0560548247118915
-0.230380862149194
-0.153704407167887
0.217919188041221
0.712851358260095
1.06834095713795
1.08448681128322
0.772768151034077
0.402199950661845
0.284516316355545
0.472550634552186
0.74580866015342
0.858808485199791
0.715921529754858
0.381282893436235
0.0297215345782747
-0.171473236209068
-0.210144284098364
-0.211599780377345
-0.264507295551179
-0.348391240396263
-0.413823327201354
-0.421381808957563
-0.32674338654258
-0.136073004400308
0.0616243088335436
0.195206751427798
0.279737995173236
0.353130892203092
0.444768058144016
0.591633307742625
0.75793461842886
0.792016658044407
0.59675330534245
0.263864093867978
-0.0688028551614587
-0.379098411442614
-0.692065991390957
-0.982810368539694
-1.21937831395933
-1.38123466091444
-1.40723577660586
-1.24750345065108
-0.955567004799344
-0.610308772890364
-0.202000129112978
0.279657587607631
0.72145772000482
0.974020922700158
1.01051477638541
0.934995490029575
0.876872374008347
0.874823857330161
0.82494038894587
0.597857515759877
0.238359169996478
-0.0478724455645478
-0.140868058580305
-0.132061183845062
-0.170416185484873
-0.287606366519703
-0.413775234835056
-0.489748046265742
-0.5308197301462
-0.596858382995988
-0.675134062398706
-0.61264016313735
-0.265673685051344
0.289854242421223
0.80642869124397
1.09054259037172
1.08320260725022
0.814459601586683
0.412691366908947
0.0745047432164771
-0.0811117684293041
-0.0711669667732718
0.0418614654205826
0.178774170029563
0.208180218485781
0.0481911087276162
-0.20106594092101
-0.363348256429253
-0.392293475508377
-0.358855765289105
-0.31838722877722
-0.312443034178982
-0.398242928411981
-0.555330503677001
-0.651529451969446
-0.584167149315441
-0.395520560193784
-0.233406990147639
-0.235355047528211
-0.399669845379592
-0.5471148934466
-0.505082063450204
-0.327893012330569
-0.205108668929737
-0.18419792753835
-0.156018948710077
-0.0711041588174558
0.0402676149621437
0.237894696826466
0.644151090431851
1.22680618445123
1.74839652560736
1.93996152349115
1.6867724310153
1.11529159974779
0.516671317984434
0.104307311188049
-0.135087658036101
-0.303845191785883
-0.420225524374728
-0.462619730872418
-0.450313086346938
-0.378226375503471
-0.179674946145439
0.158870230075838
0.513687654904948
0.697396425357452
0.584625980989071
0.196185168793397
-0.291863809826958
-0.674136563058311
-0.885803987042272
-0.995385505424891
-1.0761863610119
-1.20190120086662
-1.46445884096546
-1.78684718727156
-1.81058234402056
-1.2313290960739
-0.233822143178298
0.606492985119978
0.871179329224955
0.648070531183065
0.369221980851343
0.38758297583297
0.692853177482103
0.999622012416524
1.09810557536685
1.04409143014589
0.970369928582135
0.865746364610922
0.659066044139042
0.378362512671013
0.0967710792050316
-0.160272706778213
-0.362268968960981
-0.429639820856831
-0.295202536031185
0.0320478725424802
0.426562110458645
0.648250565655036
0.499717813287246
0.0362598027436629
-0.46678233691926
-0.766293524975577
-0.79851944879846
-0.639421587118302
-0.442858578261639
-0.358891341467749
-0.394919113434019
-0.41482598840318
-0.338675900589206
-0.226678802709727
-0.114434473477121
0.0787213636592637
0.407689108222362
0.781032238623901
1.0140243223534
0.950070426296688
0.589265799656293
0.152698993887833
-0.0723059428940503
-0.0027149750239275
0.198341169709441
0.336405729112558
0.332865936275476
0.194928422285734
-0.0213783443389268
-0.231871506457083
-0.403205149091604
-0.57282600585401
-0.749589100980977
-0.896276330519124
-1.02537414450214
-1.15936546815862
-1.19545720651276
-0.989662688665372
-0.580478860642934
-0.176870235421592
0.069695821978819
0.184893119478243
0.306290853083248
0.55652887761581
0.919686144299684
1.22108292706889
1.2948011674282
1.15176723831791
0.916413191045976
0.671199445272333
0.45585549071826
0.320874938079089
0.270280570715423
0.237318405959457
0.185814084366319
0.132816882626896
0.0464673447548219
-0.149143279848859
-0.452870156324243
-0.769284276068168
-0.990560920093939
-1.03859650732505
-0.906980009304261
-0.714154251830333
-0.612411803021406
-0.597166668570957
-0.501551008800368
-0.197910420134856
0.281914309394373
0.793892328513585
1.14728794555987
1.19153611721965
0.959552200177499
0.668117981583375
0.503649975399005
0.4789871490547
0.502731360960034
0.469484473889576
0.306588635499906
0.0577511057333433
-0.125785586051469
-0.175397476013727
-0.210830957675473
-0.391577564140383
-0.760879115866172
-1.25668579846717
-1.73299201371159
-1.95730984487771
-1.76115253047812
-1.24459447793974
-0.72091078783489
-0.443499899527064
-0.439757299759082
-0.54390916148881
-0.53126577648608
-0.302173138856359
0.0375276102772103
0.349680855092433
0.656220806331537
1.04091853699928
1.45048430022827
1.7359867307488
1.81847630199671
1.71165979731623
1.46582042248165
1.16134722705766
0.87590938483455
0.627696665972025
0.42469607014737
0.333773830976654
0.395780603200579
0.527176250784134
0.604274315040319
0.57553655319246
0.438380465414678
0.220728010780296
0.0169092574616657
-0.0863518840937905
-0.125862471750655
-0.199271074744766
-0.331631932733818
-0.495695806524623
-0.682213272488601
-0.863471084939689
-0.975374496784131
-1.00840604779174
-1.0470108989182
-1.18501577323603
-1.45647228511673
-1.8264749273957
-2.17333841510846
-2.31699427938647
-2.14374400446806
-1.68849828961145
-1.08922390116093
-0.508509637582078
-0.0523157246420255
0.312383598197997
0.685444130544528
1.02185859516216
1.13482331956508
0.9850180548077
0.793686362723803
0.772865514463
0.900440292580662
1.03650742119664
1.10230172636766
1.07767554967609
0.975134143383173
0.884055707186924
0.923749917446816
1.10197564767927
1.27740402004527
1.26486407710908
0.979433802968423
0.541225343592649
0.208404516233945
0.111205826606758
0.10847683006129
-0.0023020707181016
-0.232109835976807
-0.44451007972362
-0.532402325318683
-0.472113207821835
-0.311760407105863
-0.155809874966886
-0.0737370233640946
-0.0282118076124986
0.0294377659198044
0.0657745429681911
0.0639566078680363
0.0968641672204702
0.184037425854691
0.212675189226374
0.115347133706868
-0.0176878147156073
-0.0964534864243665
-0.160012274432683
-0.275715637354649
-0.422905482309553
-0.527031040887111
-0.556291937174465
-0.57826552855181
-0.712773052196519
-0.963803322471442
-1.12416942259481
-0.971559577738031
-0.565500015127543
-0.243514846864256
-0.330582133862509
-0.911978051264627
-1.7721222137463
-2.42114456825036
-2.32629363721448
-1.34483837576386
0.0787004132390229
1.24585379717879
1.74217646475171
1.68409299250664
1.52172164942969
1.58692945524796
1.79334944883288
1.81319218219962
1.51392403579597
1.08979000527795
0.777400812088346
0.61079713013827
0.482844947261166
0.302440285620206
0.0558516526256966
-0.192624113988262
-0.359131675546739
-0.445505941460593
-0.525488091316726
-0.606186766289369
-0.620861276072788
-0.575381502944648
-0.570624045679141
-0.676891747643338
-0.890161202831333
-1.15941472749009
-1.34957834934289
-1.25974622241473
-0.805108968976149
-0.144848712256459
0.433568600312808
0.726674584206614
0.725812974373987
0.600943027625037
0.569288093692846
0.719128777437757
0.982451710478212
1.26359610066451
1.46839561839452
1.43361756645686
1.04876129701356
0.476022778164469
0.046093236232622
-0.0912628726224744
-0.0630255298412901
-0.0559777438645968
-0.150452530422626
-0.320222839094476
-0.471034252401252
-0.51102607925022
-0.445349389513385
-0.36064496275229
-0.31578245017742
-0.317437192687687
-0.368087310675569
-0.450414490898443
-0.517454385084268
-0.568495626505256
-0.647082329760671
-0.719282611695836
-0.681418213052319
-0.519820603423425
-0.330282639851919
-0.175418877881064
-0.04083320587769
0.0985967121428722
0.263947992296264
0.462429288352639
0.627861758681454
0.659405729654464
0.56037911313123
0.43781636810241
0.355522382035327
0.304246642316227
0.294162034294343
0.334327748605895
0.346405605030625
0.231519956032215
-0.0009441665397727
-0.244321956205707
-0.377110323721303
-0.318241656261592
-0.0976242488797616
0.136716284770241
0.268642603132846
0.320587446994303
0.350591605119851
0.352055190105501
0.317915870710124
0.277748725911499
0.220505614148124
0.105783900132082
-0.0304728332838642
-0.119502252063982
-0.205402550858991
-0.403362627197453
-0.722551498260509
-1.04980808703947
-1.2815209028829
-1.39513448110028
-1.44548337649009
-1.51793253794517
-1.60014201786625
-1.51353576070323
-1.08092112762419
-0.346633606846371
0.440712108543658
1.01643827829425
1.23963453384719
1.15079864398216
0.949322538423087
0.845165885467447
0.909688388507317
1.09951236761742
1.34328401313326
1.5232662412804
1.49106621296356
1.22969414574023
0.911732172226727
0.712678751437543
0.65616695754999
0.659038261741706
0.604121504908403
0.383379718417928
0.0006207881807257
-0.388747238067305
-0.619552424199918
-0.646523543997194
-0.519855502832404
-0.354967034646026
-0.329397237637459
-0.545467677341466
-0.871774817063744
-1.05997444533768
-1.01526322876126
-0.831626048003666
-0.619934456929656
-0.448066581391847
-0.390067043079368
-0.494988439074582
-0.729733739768516
-0.992847641567579
-1.13148988369414
-0.987987382727653
-0.551011129175999
-0.0222713687277205
0.372424547121513
0.585221440188412
0.698931067238747
0.789639675492237
0.90735073927657
1.06724766103004
1.17941924155976
1.09446326095603
0.786394078424303
0.422325183172372
0.234362253856275
0.351907144635403
0.686289703201708
0.939852242964527
0.849408933314379
0.468970577291266
0.100226455357861
-0.0525257483655076
-0.0323206532129843
0.0168430055874184
-0.0085194894835487
-0.147812236042175
-0.36850458423212
-0.590516295106652
-0.774362290080269
-0.948669462462814
-1.13407139111217
-1.30879046940874
-1.45707813704478
-1.5817152397211
-1.67596939857352
-1.72893814275359
-1.71252485973049
-1.54325852757998
-1.15345867037621
-0.620707843048499
-0.130609119883642
0.183883051444446
0.297778903066458
0.262557322782074
0.204750306280105
0.275124837750837
0.533948841976083
0.947773135052057
1.47219585549913
2.01273542990096
2.36321688060916
2.36686617678753
2.10587650020817
1.77678151024239
1.44896424409655
1.09223836651905
0.734473369766274
0.440225648632228
0.223075569899762
0.0679839890413784
-0.0498760497509125
-0.180470046548333
-0.326203850790168
-0.394552273054581
-0.33648956474955
-0.26328927091334
-0.312728303503188
-0.462408616027418
-0.563417027839022
-0.511399291944107
-0.345157954626889
-0.223700711802176
-0.297382619944603
-0.54651976658278
-0.79266721263128
-0.913111034043686
-0.94469931038316
-0.936383687247811
-0.849734957437538
-0.663249544482616
-0.431366473827066
-0.194072427764026
0.0616571142080575
0.347050732038133
0.668597510936463
1.05249110155401
1.49221748029691
1.89352261445227
2.1181509146188
2.07568464618136
1.79050066691231
1.40795047056418
1.07534921430281
0.768587768636582
0.330875492519949
-0.260859667948594
-0.800264498294252
-1.08403854558759
-1.09647427000791
-0.929720140908188
-0.694515826956757
-0.542033982127213
-0.606963535795566
-0.881344924610333
-1.23270289349015
-1.54218436146943
-1.77436343579684
-1.95137179800238
-2.09178714398703
-2.14558047041315
-2.02149205633195
-1.73604648181404
-1.45399846447481
-1.28021895681221
-1.1056052366861
-0.77444909022262
-0.303153331831588
0.171896639436734
0.553998666523282
0.808450604671247
0.926027540810889
0.92124658901297
0.81254116667373
0.62378023250144
0.444585078575422
0.397468335997439
0.486221924170463
0.58771711974347
0.648549021215097
0.761863849991038
0.992757611027995
1.25217618361424
1.3948987155583
1.34890924586677
1.1433721477308
0.889929515602314
0.702977249591928
0.58332028171734
0.445896796204548
0.270948357054245
0.120079953318297
0.0167841304829989
-0.0728581743208992
-0.166059868740365
-0.25118121641298
-0.298568236089158
-0.249804594998122
-0.0923439979920401
0.038863224357592
-0.0374728048972015
-0.312300534675303
-0.551374765396443
-0.516353916418641
-0.166361890312776
0.318252852429348
0.663937760428052
0.730723834607303
0.640621537479608
0.5991381979125
0.633239988286814
0.62886936259308
0.524165438979026
0.295333949391124
-0.119401522064686
-0.6805023540687
-1.14399347300224
-1.28272121379686
-1.13358511701621
-0.917404594642134
-0.813509668207385
-0.861896884443351
-0.931012879284392
-0.735298635346026
-0.0695483545280413
0.890960692918692
1.64404868729724
1.76734233696095
1.23752038529658
0.40683947212134
-0.268911822007718
-0.536868131757522
-0.452443305033852
-0.219874407822235
-0.010415315679532
0.065613267705404
-0.023231564443717
-0.157338874391147
-0.139392071150752
0.0873461537005048
0.380876454462224
0.573646421963517
0.610398457302096
0.540731312348774
0.484103625089329
0.566506377910425
0.80535177085495
1.1091420793968
1.41656458853739
1.71957063653466
1.94869604527763
2.00196837394911
1.90100954725047
1.77339160649981
1.67812387262321
1.54258905816441
1.23717026405222
0.6682126220287
-0.112927714743075
-0.865396477195979
-1.3445237004761
-1.55620451817279
-1.711667780117
-1.94494629065138
-2.20434682930399
-2.37944659782134
-2.39498262226435
-2.22576042829911
-1.92535925005203
-1.58872228904877
-1.26169397613302
-0.987332035606075
-0.900042027327584
-1.10015847106447
-1.45998569773761
-1.72189909893297
-1.78487150731688
-1.79303864670479
-1.972368958481
-2.4335884330704
-3.07002255966634
-3.60916407112665
-3.82325927122494
-3.69003926017883
-3.3024472065492
-2.70360919324757
-1.91736741429473
-1.06850124243455
-0.359701005308564
0.0536630299972612
0.167444213638087
0.180190984118321
0.395880188119817
0.966796183557519
1.7618839738627
2.52685060530397
3.07109696733323
3.28333635206392
3.15559263385745
2.8772760537902
2.74760014216275
2.89503487473167
3.15814732868018
3.24906184688981
2.95805853702139
2.27959008894856
1.48075592644547
0.97654424032076
0.996971851173552
1.40335750290716
1.86273893593952
2.11919136582598
2.10781895109995
1.92566107454421
1.69833495073225
1.43403340806341
1.076763608967
0.704585038613766
0.515220138187569
0.579585459622834
0.772260360222873
0.965950907395015
1.11415636500997
1.13263738334997
0.903496763959867
0.43628603005062
-0.114260980882986
-0.570022151460802
-0.752998635613404
-0.487012299607971
0.23280929103702
1.07796015360311
1.51920987519692
1.20045509089582
0.233012075027056
-0.870035334040161
-1.61224261299922
-1.90060341957086
-2.00981761314443
-2.2363641454883
-2.66980848293748
-3.20608835287393
-3.62582068712324
-3.70093540240523
-3.35564846688858
-2.69149974396502
-1.80794568858762
-0.735817339792043
0.38764541400275
1.27020121529431
1.71033489279435
1.77533774087887
1.69181631105266
1.66573220698565
1.80409277761874
2.11358096729288
2.56952437720279
3.17811674445335
3.88847000114759
4.48167394078562
4.70411633484206
4.52071660237456
4.12929690826676
3.75814744064371
3.52508363609329
3.37535244167111
3.03701610456522
2.16021394474313
0.621460919033313
-1.3807671642728
-3.51522356847792
-5.44660712815305
-6.85997861091091
-7.64052883044055
-8.05100497683518
-8.51862928694477
-9.21485956387971
-9.9689904303624
-10.5607150540625
-10.9570248768071
-11.2499665142361
-11.4338228385847
-11.2787238659545
-10.4745650884356
-8.94811118705991
-6.98267383687306
-4.98944441814963
-3.25598363762902
-1.90252180982245
-0.871380152526682
0.0756896843942683
1.14331149159147
2.27782241202559
3.33032714571734
4.33097073214186
5.32674097285649
6.04760137887714
6.08728939924528
5.47553206629766
4.85336876375893
4.98248589999599
6.11683940211865
7.8164081876272
9.30949082739795
10.0704715686369
10.122755511923
9.85791296282489
9.64175073166711
9.56691307536135
9.4444402784669
9.00018327157786
8.16525093108036
7.16099482125591
6.24964568564506
5.50586396483203
4.90010804494056
4.43827007576287
4.09135798148633
3.72222423572495
3.20643347935179
2.54459198496451
1.81116831088219
1.09874529588085
0.517206678662227
0.114410551534236
-0.199184974354105
-0.536455784859352
-0.893764286207028
-1.22861361503619
-1.59595163910237
-2.09955653015458
-2.7530659094095
-3.43297254892887
-3.9526095415393
-4.23690368093381
-4.45675192326832
-4.87599814078551
-5.51857276456076
-6.14274145978285
-6.61438121707956
-7.12795099370585
-7.92955671263875
-8.92309974536739
-9.65047265283647
-9.63974401128702
-8.79902979221376
-7.52429221253624
-6.34375442450162
-5.39023214558404
-4.33202804561229
-2.87241380264643
-1.16868812724369
0.291880513083124
1.07996791855354
1.04261402400432
0.271653566862642
-1.04693651837318
-2.71235838946523
-4.40138026412919
-5.60038884587079
-5.89483553074373
-5.36346177971323
-4.48751086623806
-3.64519633186815
-2.87683991709378
-2.11176060469712
-1.37348278012468
-0.721073991464181
-0.148986372238324
0.434246627825207
1.18749575454469
2.23448757570595
3.53703460862146
4.9390292904264
6.33708588470251
7.73649632864886
9.15170273617013
10.4881397918007
11.503631321521
11.9374348360223
11.7771419315231
11.3353843790484
10.9186282981336
10.4750070950212
9.72082942970291
8.5613505165965
7.24430714325311
6.13117509351753
5.37841250959412
4.76519860491247
3.83115093524979
2.32203102922145
0.500770954712471
-1.10484215020648
-2.22063248593556
-2.98209524493619
-3.66771421047525
-4.42660687560719
-5.2216391946335
-5.92442083232456
-6.46401579677947
-6.89752295994314
-7.3097698069626
-7.6968781753453
-8.01593678789449
-8.25576005226103
-8.35926908893577
-8.19493490390318
-7.72608807718756
-7.10321480050189
-6.50596760512996
-6.00231907783333
-5.59087667309897
-5.24722088247673
-4.90745553338538
-4.49813677482099
-3.94971022452599
-3.11441549542127
-1.77990217223751
0.104274499043202
2.25706979019559
4.2014213878106
5.5585665011207
6.24100156318353
6.45057840746486
6.47707898965904
6.43443042504619
6.24014215517827
5.86860173466638
5.47716553797413
5.22518508762121
5.11804065244047
5.08083742369292
5.04636727530853
4.92991138113161
4.63188332974459
4.11539528170058
3.45534410941676
2.82339047551648
2.41098208261602
2.2815526664681
2.26906448543118
2.07307658948685
1.45662139441396
0.344718147309091
-1.15838302820199
-2.76340242684185
-4.12706011514493
-5.11049679061781
-5.84846160021593
-6.53870714050027
-7.26220903730418
-7.97053707525815
-8.48984559719009
-8.57018686997896
-8.07932392128101
-7.11972186216388
-5.8788230781894
-4.46673777400949
-2.98114829208473
-1.58805899723983
-0.397853766502428
0.676553294023183
1.84760962166095
3.24903898072063
4.78336629238642
6.10515991058677
6.77804357083355
6.5357891499972
5.46217463561622
4.00430246758313
2.81233371013798
2.36593108674837
2.62447333774461
3.18886234246743
3.86372406318772
4.79539472987401
5.93584632164575
6.67401697157915
6.24376599112436
4.38059543223321
1.48991580520023
-1.6660250638519
-4.38254101610182
-6.3053385284403
-7.45699075146456
-8.00631672105625
-8.09962333666295
-7.91286854810509
-7.63207856350324
-7.25124395849569
-6.55610554130025
-5.41559321167997
-3.9673354571185
-2.45100939773974
-0.947970976562256
0.659753009349732
2.47438107185272
4.3318306859438
5.84606523312042
6.7800888335466
7.25449773616093
7.44188929159183
7.20589509495302
6.29551053967958
4.81746373520494
3.27569539001445
2.18786636194517
1.80838734983269
2.06809285134812
2.55234900813073
2.62457755811774
1.79379397974688
0.0422353138528203
-2.17033548815647
-4.18132470330615
-5.47763976026635
-5.89457410362068
-5.51573484024817
-4.47456446858772
-2.99198401681012
-1.5077334588018
-0.466930387430554
0.0896625045396774
0.480592241979477
0.851867366901436
0.910736875166629
0.296379458700711
-0.934736879522609
-2.29047217756996
-3.24296196317448
-3.60209259118689
-3.53181263748377
-3.27384178222001
-2.93065088890705
-2.49169668604009
-1.94313879980727
-1.33166740879508
-0.829331199359989
-0.7031985257707
-1.04845688403555
-1.5728788226163
-1.84273458509951
-1.72586758539865
-1.39460495892519
-0.945921167211987
-0.281866213759976
0.620452732492565
1.53633739181931
2.1559797744443
2.35851595704914
2.34860715934051
2.52727250486996
3.13651611964102
4.01150341051287
4.73784175188378
5.02005809975644
4.85617812722838
4.46023158953054
4.11859128884093
4.03123372849488
4.15363409220054
4.2039229454397
3.89827055425205
3.20051404459848
2.36876481513097
1.77707723846245
1.62572814439793
1.78643048083755
1.97776629760875
2.04541608770648
1.9670112046592
1.69890686768309
1.22600822178898
0.689741860630277
0.261631430942217
-0.0649010904773699
-0.397847650983436
-0.721151819154555
-0.910000824664127
-0.976740990754982
-1.19852087523005
-1.92308502553344
-3.18919568887986
-4.56233115432502
-5.50878126304328
-5.98939764720647
-6.47336310402163
-7.26345039524164
-8.07001211674358
-8.42166366244595
-8.24838586523461
-7.85569467717983
-7.5194601193745
-7.30295599876841
-7.13609243969804
-6.90048956298359
-6.50663241704528
-6.00442662350046
-5.55883888572478
-5.20134740584704
-4.62106297085036
-3.32361063114846
-1.09285386328625
1.72060616890402
4.46526844307528
6.76027978365251
8.70180760334799
10.5037078020248
12.1234314252039
13.3382880457546
14.0547227001161
14.4089496636468
14.5499485795744
14.3456514891044
13.3977212332206
11.485557305192
8.94060630632277
6.38249050753855
4.12632633474537
2.09820523468239
0.2925317609255
-1.06030129818402
-1.91671871260176
-2.72117892286051
-4.04359357466245
-5.98010291620321
-8.0201459984288
-9.49848227556639
-10.1717145652767
-10.3598801183768
-10.5254646381822
-10.7897104479267
-10.9147101861314
-10.612904716211
-9.71289330589052
-8.12679591302962
-5.85797927392584
-3.03955992887879
0.131289687585472
3.44703522911237
6.58482267586545
9.0338002568716
10.3182417061316
10.3715434126258
9.63838942423351
8.75500544281331
8.12427357003931
7.79938770483899
7.68514970298157
7.65096784220608
7.37775728342407
6.36481939513405
4.41153986672618
2.03389228107876
0.0914777123972079
-1.11029556649002
-2.20952690649862
-4.18288518532581
-7.36849227903205
-11.0831214888857
-14.1438965137827
-15.7418541496824
-15.8783295000643
-15.1087188935683
-14.0034835274708
-12.8200758386216
-11.5018132999868
-9.90373857833634
-8.09782392300671
-6.44004664638581
-5.1959675089551
-4.13126003821726
-2.64938389901056
-0.34781113373695
2.64484770871219
5.8076511056606
8.604627955384
10.8071095203685
12.5291433464138
13.9225391072547
14.9056218719198
15.3226537211059
15.2484136376033
14.872626041356
14.1462617489591
12.8411884076161
10.961858360849
8.85255863553719
6.90803358995101
5.38889254038229
4.47669477673066
4.24265656373572
4.45189983406876
4.5073306472498
3.73262444374389
1.82412434402333
-0.89876616360349
-3.67754410657837
-5.80403721586875
-7.04900553712965
-7.76662871742665
-8.64514927416456
-10.2229091177625
-12.4653728688107
-14.8035681117807
-16.6512262740186
-17.8339376819781
-18.4896789051585
-18.707095030916
-18.364516068011
-17.2223588735323
-15.1149656989405
-12.1346831394534
-8.6446630616546
-5.06275371626839
-1.67490726419682
1.33343928534281
3.84401010920643
5.94279879053921
7.95192004799866
10.1141780678589
12.265522942782
13.988900212467
15.1385422860109
16.0965568741751
17.3876703870368
19.0257054799321
20.3492699867353
20.5933248450355
19.539478120588
17.5117652359157
14.8836759167171
11.7752693344413
8.15301410985872
4.09886715576081
0.0524322723879904
-3.21811435299382
-5.12735899032449
-5.85519891459659
-6.22097760468505
-6.86524147772709
-7.66995215908873
-7.99494735669036
-7.34332217191974
-5.84724557040859
-4.32102959771129
-3.84288386846367
-5.06624978784477
-7.76393431489606
-10.9213216841069
-13.2174450977305
-13.6575948897531
-12.1763065478011
-9.76761966760062
-7.76788853717201
-6.75793300269431
-6.15858939618178
-4.96851642624725
-2.85565001659218
-0.42967365605494
1.52410359738151
2.87183583352546
4.04229827874526
5.25528340987306
6.13714140611333
6.15273090676457
5.17488629749682
3.52371685558769
1.63875393750881
-0.175217108246602
-1.8061555743272
-3.21908897358272
-4.27207401719363
-4.75960119563165
-4.70841775994524
-4.41694487285401
-4.00900295024486
-3.11224113252481
-1.22507913539229
1.62517914299893
4.73364641442362
7.227602337786
8.66959471812059
9.17953201438161
9.04923268107699
8.391363008596
7.30634035870872
6.2655823043309
5.97406173141747
6.69037890721858
7.80585567138408
8.19862108016293
7.0675434388082
4.60295976968813
1.91257632845248
0.0682776727689831
-0.921791191129071
-2.05380310910578
-4.20196767875798
-7.27695853649289
-10.5426157671758
-13.4189040629362
-15.7441190471343
-17.4770913258554
-18.4504629425699
-18.4298640933769
-17.3166971844798
-15.3075684638709
-12.8753998223224
-10.5213433593233
-8.4561581567951
-6.4934888435402
-4.2928436548454
-1.73713783581216
0.995170320327665
3.74493513708743
6.54613593276703
9.3386690282725
11.7741472574355
13.6195191428666
15.1566706018554
16.7991801436874
18.4330566893053
19.5262433152569
19.8192097414523
19.5348401968245
18.9327900075045
17.9660029564867
16.3684896619555
13.8829823776398
10.4905503590462
6.62774651404444
3.12361541654872
0.731945302413481
-0.345974911532185
-0.519966757987719
-0.49672939360956
-0.889252188764344
-1.92563607320616
-3.33730395998691
-4.50647504920133
-4.84533504577162
-4.19481082272577
-2.95676723815834
-1.82388537743331
-1.31787591974454
-1.53625520692761
-2.21655790039288
-2.89800060833494
-3.12550113204802
-2.76643788364729
-2.13522689972447
-1.60879069131328
-1.16344905188554
-0.492423100631308
0.475229134431333
1.36247386504022
1.62563472242443
0.949592930028419
-0.596696740203596
-2.77700907721756
-5.57927893297883
-9.2241149021768
-13.6116201341922
-17.9515088028534
-21.2078087692981
-22.806806803522
-22.7933012016836
-21.5799647131807
-19.773510834057
-18.0127622096395
-16.7229376429379
-16.0603134743764
-16.0589827989384
-16.6269400683587
-17.3927692121226
-17.7679650898354
-17.278481660937
-15.8277837724842
-13.6166911515246
-10.7502256770683
-6.91291581297297
-1.61992964922051
5.03789340869364
12.0455047944452
18.0772024418395
22.4014615029451
25.1330145188535
26.8602450554814
28.1865324502537
29.3742030373249
30.2118235750115
30.327348193485
29.6498944138516
28.3996853735222
26.7060900211157
24.5278660960613
21.9482902436218
19.2814395788297
16.8218922483769
14.626486827715
12.5426513277396
10.3685372403663
8.05413091171241
5.82734459392459
4.03649756682991
2.78628764018748
1.77721805191925
0.536222978313751
-1.22646348092178
-3.47241635789351
-5.96984627249459
-8.51500407622595
-11.0417071709346
-13.6198163275697
-16.3734063862815
-19.2242598592653
-21.6065265499619
-22.6638604843104
-22.0079898011624
-20.2177176015246
-18.3671146306593
-17.0689739382927
-16.1077198510402
-14.9318453650595
-13.3250783400507
-11.5967456535582
-10.2101260472052
-9.22835605454306
-8.15689865748593
-6.43299257698355
-4.03765013902083
-1.51910497025815
0.518768941314917
1.87189943200999
2.85637870199904
4.13426970389618
6.25939294702779
9.17848487528358
12.2075037406795
14.5967712618578
16.1092590793803
17.0717650579753
17.957736091501
18.9035865483014
19.5587453605996
19.4671972733382
18.6345387968631
17.5714174178026
16.6919821944486
15.7910062316247
14.1780596148862
11.272791966939
7.13624821222298
2.54015246977776
-1.53379270613076
-4.55584357606582
-6.62728627578871
-8.13482626525542
-9.47011334294618
-11.0732200335201
-13.4332260536122
-16.819788631008
-20.9865076386169
-25.0774962948504
-27.8199280977842
-28.1055228658968
-25.7389554260575
-21.6631967298481
-17.3425155285692
-13.8709350975353
-11.5089908212639
-9.80163023135392
-8.09294335922909
-6.09528501919934
-4.0205782722852
-2.17220588886035
-0.607132692756782
0.661158985170374
1.35970133729532
1.17498900151285
0.250776432907262
-0.751327373854914
-1.1339158518723
-0.624109487598724
0.626247411472491
2.37152231153604
4.47380010883938
6.76594282653682
8.93906488255748
10.8078335567184
12.5718291653336
14.5345991317379
16.609420139031
18.297025859838
19.0355048634396
18.415452085835
16.3188518258173
13.1950324530087
10.0866617520548
8.04327172114666
7.40314491362889
7.66582890391696
7.97346332755116
7.68017702947067
6.59194572045181
4.80063022357697
2.40044701019114
-0.518230592046799
-3.66455706205341
-6.57532111333211
-8.89608455485356
-10.494546463516
-11.3465906052793
-11.5042336901283
-11.1389311511276
-10.4311567554836
-9.41429441653692
-8.02253425116785
-6.24949203428483
-4.18572325419327
-1.95252877779206
0.35589874960979
2.72073104170619
5.1948209019637
7.78405130219331
10.3499113392069
12.6668061616016
14.503312388835
15.6476362354618
16.0197662359319
15.8005829718444
15.3018891981126
14.6871752029091
13.9168175921676
12.8747097642376
11.3779480439684
9.15476522170005
6.04321818252748
2.25100250167994
-1.66032935151239
-5.05422250235386
-7.52264260414201
-9.06026074313793
-10.0115055333138
-10.8090161411413
-11.7441069274584
-12.9173668831705
-14.2569095334007
-15.5999300021189
-16.9001741934339
-18.2538217912596
-19.5288350411497
-20.1713735840269
-19.7418269314734
-18.5961869843566
-17.7637866851986
-18.1112322451806
-19.6341665120529
-21.3631037832304
-21.8848317011538
-20.2671611915324
-16.804603334335
-12.895883898265
-10.0788930925573
-8.9950149879421
-8.9739145822349
-8.45977271155247
-6.10189035847938
-1.80487790868415
3.20269965720613
7.43287536285215
10.3359000970213
12.5042381210186
14.7892433990995
17.3397429564635
19.630473211754
21.3346188984011
22.7479085221021
24.1243766988617
25.0122018444443
24.7442305247958
23.352095660175
21.4448177541902
19.3253285348613
16.829562356153
13.9941968619733
11.2344197811728
8.72038837751126
6.1205669178209
3.23560018283853
0.530793098662638
-1.29311905531824
-2.12399832049484
-2.5556136251837
-3.2018964697106
-4.14126910488975
-5.07817987597781
-5.74554084572992
-5.94215567586327
-5.42033581594394
-4.05841813880296
-2.04868964731492
0.332858992602165
3.01868652974387
5.93568365575357
8.60025245516106
10.2220604420614
10.2436166404262
8.70621237622138
6.16971141378924
3.27827144354446
0.254453486605889
-3.1481293614626
-7.03434803477996
-10.811713551413
-13.4705447643568
-14.4115842346743
-13.9204107882918
-12.9302050881575
-12.360451760586
-12.4755334712077
-12.7214887949368
-12.2501238635433
-10.6613864976682
-8.24523235925388
-5.66747274750476
-3.55910849397215
-2.18517776827676
-1.21777794267236
0.0429192507183762
1.91057641957185
3.79110530989696
4.69361751918671
4.37364429476437
3.78389082936299
4.15229344801828
5.63886779017226
7.17135857668003
7.67080723182383
7.10763862480769
6.15691490052714
5.18969568711328
4.03019681170348
2.5159542121213
0.808646386625218
-0.917509575385681
-2.78059474858345
-4.96405348750607
-7.1714322735092
-8.44856191470269
-7.82085905235413
-5.20748364819547
-1.46968630606919
2.51069993400965
6.41548922060603
10.0149958115081
12.6694588248712
13.8077340867867
13.6299576155046
12.8095090789326
11.5185928846837
9.13309316654709
5.01924533431086
-0.585838800384317
-6.61772543031626
-12.0318342268091
-16.449928768043
-19.9749642704671
-22.6683365990387
-24.4686431833187
-25.3962487877152
-25.3996378429242
-24.0525603309944
-20.8973214079001
-16.2830606338179
-11.5252995283897
-7.90951840360151
-5.62229658870092
-3.86776032308337
-1.91665251815722
0.268253745002933
2.41794993261845
4.52950689195014
6.77081937752924
9.04335801691089
10.9854735940496
12.3679706462984
13.2757104244597
14.0122353414256
15.0348505596865
16.7456410604227
18.9493791886115
20.6400375192155
20.7540547557665
19.1804654307982
16.7797232728241
14.4502960185308
12.4710655301639
10.781955868784
9.56251617564443
9.21609192014639
9.77231716562336
10.5262401083661
10.495096549806
9.27979449376552
7.39278674985554
5.76660347008028
5.05526758545089
5.29750080868951
5.98171654483509
6.42346551602612
6.23617700073885
5.36499693050035
3.62799152688455
0.643021853429707
-3.43847157690912
-7.49194305673268
-10.2954103460239
-11.8079713389013
-13.1878146138523
-15.5408817701786
-18.8944306618583
-22.311653160665
-24.7320020286957
-25.6884846765997
-25.3752345995665
-24.1469606454556
-22.1406989644291
-19.5159893745043
-16.8248911634266
-14.7677355789136
-13.5573403745825
-12.7353129378412
-11.6478599589742
-9.97133458339663
-7.74088732116138
-5.00793517106366
-1.69937666167205
2.05237387352916
5.60538982483651
8.16869055264278
9.54263740248212
10.2604790908607
10.8914673753225
11.4097745802265
11.3910703479185
10.7135644008916
9.92790433836092
9.89281036067893
11.0136217915933
12.8424216513662
14.4386522854
15.036524456985
14.3526387279737
12.5281600246202
10.0561979214494
7.65518218307417
5.90657027500046
4.91873635132726
4.38182336210699
3.88186264141072
3.11224539568974
1.91079524888992
0.225815216439943
-1.94570255870139
-4.56965988851546
-7.49091809338162
-10.3969928520981
-12.9120975441163
-14.6971815814174
-15.5329830342622
-15.4524965572083
-14.7438114139973
-13.6773678302324
-12.2936965349859
-10.6002411236427
-8.88659647893649
-7.63655985649606
-7.07163968744978
-6.83108824643428
-6.12939068931171
-4.30037865836043
-1.3081529979292
2.2608093409541
5.75794388515706
8.95166574828455
11.8852052376829
14.4388080859005
16.2510589539798
17.0246134295741
16.7788582233618
15.8746086546613
14.9223024790113
14.5956781883384
15.2847432838977
16.6996581681064
17.8104382270019
17.4495993823241
15.2475473717832
11.9516245785395
8.68635530203056
5.98573694157459
3.67272137646713
1.46370448246642
-0.631620555519243
-2.44819029061169
-3.95762705650806
-5.40331923692896
-7.13865362770165
-9.14493507726684
-10.7332284664005
-11.0424068567225
-9.90464228343903
-7.97978815442575
-6.04356943566115
-4.40335219406423
-2.98477091741428
-1.73208719516724
-0.93211298308681
-1.27990835791898
-3.43053841341764
-7.2141475194038
-11.4048213253803
-14.4954976795438
-15.7166681618912
-15.3785453040307
-14.4588054683596
-13.8080804811168
-13.4420479465069
-12.5782066646058
-10.5815872320044
-7.83972323391987
-5.50626245030719
-4.42105886640274
-4.4231193913888
-4.64169054093531
-4.32037589699366
-3.41739560315798
-2.50153253457827
-2.04830053602934
-1.88455845589294
-1.44503614344527
-0.520569302594096
0.444227276302205
0.874941783980815
0.837517944952802
1.17420502015981
2.69847324987058
5.23011580915056
7.65835826957788
9.05821721762429
9.53399809996253
9.8804330686841
10.6471756115843
11.6895728524299
12.5197414594853
12.9141143748708
13.0668266017229
13.21458456674
13.3960799976286
13.6889779958786
14.2911929996347
15.0365438624265
15.1829014502083
14.1469938795333
12.2066445664258
9.98863294717401
7.40702874705412
3.59319012829904
-2.04517209852695
-8.89134690729576
-15.2668806061782
-19.5062560954217
-21.0669580065788
-20.7545581188595
-19.8963106260355
-19.2626938140759
-18.6645560749198
-17.3906987066504
-14.9776035625827
-11.6864828601961
-8.27679246197206
-5.23011028708284
-2.27905034151014
1.11727184096743
4.97430293755474
8.78045218583832
12.1967504550677
15.3151997389744
18.0957144247806
19.8783548185891
19.7845367717382
17.643248563935
14.3197607573324
10.9026266225888
7.64716001659508
4.09315263078377
0.271337106599073
-2.76428113671741
-4.01176149094525
-3.76088593543396
-3.21879595196929
-2.98267270678231
-2.32056867114602
-0.0931591498098299
3.8032884965688
8.09882138237195
11.3063714736741
13.0657778290478
14.0763281730541
14.7171248218161
14.1113662558296
10.8361599987485
4.53062312467081
-3.29890210698833
-10.1486685644258
-14.336757140316
-16.1019145243292
-16.9800905855392
-18.2336475764341
-19.9908159667188
-21.6481502440637
-22.5877029709641
-22.3879663729628
-20.8568151299654
-18.3670886692224
-16.0753199512115
-15.3573449994752
-16.7093831968906
-19.1550095175108
-20.8276964645124
-20.2779891409792
-17.3775826454809
-13.1227936255828
-8.67073044871774
-4.55393652695065
-0.714324414627162
2.90636757733472
6.07417945292064
8.65600496670002
11.076932203522
14.059885778284
17.820010059509
21.63406811484
24.2963070370615
25.0462284629272
24.1492971904311
22.5941264025749
21.075263338144
19.2690259072398
16.4139324738096
12.6783522021098
9.47548761746506
8.10308342288634
8.41757369327872
9.15201071358025
9.21481722095277
8.40196134747367
7.21304495874538
6.3858503910312
6.4181141936901
7.15251045858081
7.79496316770039
7.47462929471883
5.8130224812638
3.01986867186301
-0.415349968716058
-4.13267303699166
-8.12072117890355
-12.5400163739618
-17.3168440879597
-21.9300583764557
-25.5099603794633
-27.124286183142
-26.2598778883069
-23.2851635053837
-19.287259038501
-15.2518858327482
-11.5280810076958
-8.1798758983644
-5.55997863037473
-4.21455625485399
-4.24957871861993
-4.97815557724242
-5.29334607886181
-4.41989010325753
-2.29151774655938
0.775284642930075
4.52581977694908
8.63584149063318
12.3852980601373
15.0215091620647
16.5464215479222
17.7397748830429
19.2406646523885
20.8645752056326
21.9175690429521
21.9292946280609
20.9412749975432
19.242296940008
16.9912148655477
14.1153100831008
10.5442458191234
6.50740749095635
2.59937761943189
-0.379101830232199
-1.70293780339736
-1.14843227354793
0.686498299125522
2.67316927408035
3.88287420345293
3.85435899632387
2.20448732970727
-1.45437149266426
-6.82852630695899
-12.549299488206
-17.0930183886424
-20.1827092565953
-22.8521990245717
-25.8952544127635
-28.6146152165545
-29.60044862551
-28.6478415736536
-27.2567747019894
-26.9251767878742
-27.3987318668837
-27.0290923315437
-24.5557212229814
-20.1126520445497
-14.6927324593917
-9.05817063924864
-3.24595171118583
2.91257991375933
8.78474564193614
12.7411094311961
13.4146435868423
11.1398254589587
7.81196793110583
5.3782607592174
4.75740443053475
6.01736669883367
8.9410214540686
13.0716759466653
17.429841343156
20.6006721883679
21.4337562109797
19.8464666397116
16.9300480345525
14.1401303604431
12.2949166025439
11.29968514232
10.7066815765574
10.3308186936866
10.1964612299467
10.0787748270222
9.52790296905923
8.49851534736977
7.65589174224038
7.83963330995607
9.37609698750263
11.9563342233868
14.8577127295068
17.1660553184847
18.2247447911973
18.2328240565223
18.1399302052251
18.5602130145077
18.8522537463906
17.4783549360745
13.2473542815967
6.24053097228751
-2.22401352917415
-10.426061285562
-17.2072081279118
-22.3033762965645
-25.9329088537132
-28.3283264015286
-29.7559964261119
-30.7855809449843
-32.2867019188799
-34.9479327655104
-38.5521191525818
-41.6836085499723
-42.5193843888048
-40.2880185697784
-35.9007566113518
-30.9517207280617
-26.162343986658
-20.886065575684
-13.9423134554954
-4.81449242215207
5.71096691645893
15.8013601940684
23.5412134942214
27.9664814714428
29.5119426753175
29.6788396133413
30.0556817208066
31.0518329856947
31.3482399661223
29.1208344756951
24.2506928471917
18.9315596167815
15.5585880520964
14.2173747284983
12.6727284295024
8.66376541975588
1.90546862449683
-5.86777727476661
-12.3086902463089
-15.974771890219
-17.0388826312046
-16.8602673826904
-16.6713105397794
-16.3945946562349
-14.8415893886256
-11.3232535956996
-6.88083905886962
-3.43825560246001
-1.72423661382053
-0.566923808987553
1.57474670787013
4.88451501519477
8.29782077089547
10.9470894743769
13.1233904650364
15.9086986559707
19.9503403271038
24.4550892110457
27.4348543326981
27.1936841411565
23.6863475730607
18.5116033691997
13.7548278375728
10.6445104659735
8.72244040236114
6.08363021549197
0.870283478476504
-7.06283917287519
-15.9766741794487
-23.6942683331929
-29.005683764262
-31.8163088553244
-32.5495264237514
-31.7864879833203
-30.2037798168436
-28.3294373785094
-26.1681533291966
-23.304160781922
-19.6131295739184
-15.7134572055586
-12.3753622542226
-9.52678090022311
-6.26553396387679
-2.06189653164198
2.3385969792679
5.60543326458281
7.42813826940052
9.03047235338075
11.7636374296477
15.4368614664199
18.5616793783311
20.1928393761193
20.8650776537136
21.4751930972297
21.8649362391145
21.018021740155
18.3256978442652
14.2283130655095
9.83000644616879
6.20606542610498
3.87855366302745
2.63695130086284
1.89400944206872
1.30737260122512
0.976592573396632
1.11102171601685
1.81497794197154
3.23025468553618
5.43509091214494
7.83335984939437
8.88544537307584
7.00785410782102
1.99179151312157
-4.62168401427177
-10.6822853241783
-14.8193967638467
-16.7595996075416
-16.7858560299489
-15.3222320252825
-12.8734776765398
-10.0244591072917
-7.55495906795466
-6.56234191689138
-7.93378939781879
-11.2650190382387
-14.6139769263581
-15.8038442202455
-13.9730363608044
-9.80238829455228
-4.60399540050642
0.51774779092414
4.93977206444548
8.48726729896037
11.2387224778616
13.23679557172
14.4043116224434
14.7649528757445
14.590325666631
14.2035308619595
13.703866388633
12.9498629508909
11.7057866653907
9.70628933955643
6.75958252710003
3.10020184574311
-0.415819280558161
-2.91147034519565
-4.43347651108842
-5.88986318792408
-7.84838849631864
-9.87934879781934
-11.403981272619
-12.6181819623203
-13.9898242260192
-15.2599613529113
-15.6318334954345
-14.7519424021597
-12.9217919381143
-10.451498185525
-7.30388910619801
-3.40678451334851
0.969235429600477
5.22685051325099
8.82299839213074
11.690951214081
14.2304895851056
16.7865000737442
19.222622156502
21.032305462213
21.6289746029418
20.4657908479522
17.2542731768066
12.3741628747485
6.95808933587709
2.37824052140881
-0.481405601573871
-1.68896764222789
-2.16813439907523
-3.00170619734954
-4.67108753645205
-6.90102204751722
-8.99338545283112
-10.1753219397559
-10.0826157323177
-9.38209998192793
-9.562132588757
-11.4582118482319
-14.1207029463598
-15.7309838524442
-15.6116507721433
-14.844237141217
-14.8865770872566
-15.9812710174385
-17.0115948808805
-16.6891645244583
-14.7739661442681
-12.1423083241363
-9.68801760447164
-7.34779046236871
-4.4405446985124
-0.860761846101209
2.45946928321934
4.4676901655119
5.16293132719606
5.59050690844595
6.71033528940222
8.51164169339047
10.3134426794241
11.7066658629698
12.9469577494845
14.4588237713572
16.2272537926927
17.8076680452041
18.7638362010801
18.9469511992131
18.4705560915454
17.5987260946734
16.6669532322689
15.9937503859821
15.708250739998
15.5330180344032
14.8011962022859
12.9298490037363
10.0135228287431
6.86885045907343
4.37202311318897
2.70761548829122
1.23696428487667
-0.940276065370795
-4.25477983965035
-8.30912142943797
-12.0626485218609
-14.4203356419308
-14.9244294049277
-14.0788640455512
-12.8929182239148
-11.9170076089274
-10.8022589697318
-8.96936625125926
-6.54999007539861
-4.38900378028738
-3.18955425116191
-2.87136703300542
-2.67545239072885
-1.73092100320092
0.325814799113899
3.10392877553983
5.9288841686998
8.58040537889564
11.2656245707923
13.7875955500765
15.1867927538226
14.5418842085292
11.9171272665538
8.25970257068566
4.47256673004473
0.752606199740198
-3.24609966577425
-7.75399404719847
-12.3868329715233
-16.1813994843651
-18.1154556918049
-17.8377648753602
-16.1650317802695
-14.7683326006878
-14.9722436710235
-16.6503610558696
-18.3890909120734
-18.7728881131444
-17.4587477325447
-15.2031807015365
-13.2143644760095
-12.4424644453721
-13.0230649206564
-14.1532801986174
-14.7182259566087
-14.265337523223
-13.3951789957232
-13.1958624825102
-14.2016622903795
-15.6757982473666
-15.9017183603602
-13.5070479912339
-8.74156774723119
-3.39757628465351
0.612874898420983
2.65598176396596
3.58639050167567
4.84325975072603
7.37085091582718
11.2197865687824
15.8936892231194
20.818878081409
25.5350002447997
29.8188995148806
33.8127040205826
37.8001634069718
41.7270692982853
45.0904915923991
47.2354080656886
47.5429859713114
45.5577028113369
41.3562909631783
35.6865089745366
29.4114626576653
22.9481430043811
16.4270738664196
9.99985468549138
3.62138523674686
-3.06495770741725
-10.0797670490035
-16.5129630987676
-21.0104115765508
-22.8257890234723
-22.2052773565192
-19.899036607497
-16.5309028617785
-12.3704294120327
-7.50585076687133
-2.14615301339511
3.22043301471837
7.89669306401617
11.1892276564688
12.6458071989261
12.1558659219618
9.78487966758187
5.52370616489082
-0.675227798270824
-8.56477633566285
-17.3801189769718
-25.978241203913
-33.2306289964881
-38.4987704197636
-41.938450286094
-44.219197019545
-45.7346807333655
-46.1603622266584
-44.830123346452
-41.2819166435426
-35.4465393300659
-27.8933779001488
-20.1498285901967
-14.1372162464545
-10.689640237225
-8.8651186879683
-7.11734076558144
-4.95227260862445
-3.07008780587684
-1.97405798098729
-0.814176683930433
2.16638283389467
8.02199133867663
16.0359944096576
24.2910498555703
31.1208320945806
35.872865426494
38.5975871356135
39.5429396539588
39.0329322912911
37.4870168134987
35.3382008724967
32.9568815363163
30.6507062328662
28.658255704999
27.0812189407722
25.7338149263929
23.9152818481527
20.3178554965365
13.5071430180717
3.11859799680467
-9.04212834076144
-19.4351929658362
-25.1135861815511
-26.0021529886466
-24.6168906754954
-23.4258260926281
-22.8918776856134
-22.1528126470408
-20.7791298555888
-19.1597973483155
-17.542735741834
-15.4581011511338
-12.1515980687875
-7.18138844667918
-0.540680057216815
7.47556475958846
16.3378187693215
25.2684924178853
33.2164578588555
38.9400886833215
41.3311893605394
39.7876523195778
34.298560853804
25.3752845520336
14.1287233425254
2.18969432134133
-8.90927685674807
-18.3476505797444
-25.8306718990515
-30.9806254194446
-33.4264817668376
-33.6213462323823
-33.0493619538061
-33.1039290884572
-33.8657460706208
-34.3362866459887
-33.666959527995
-31.6062330830596
-27.8991323787815
-22.1803552705516
-14.8586884288586
-7.40523101798076
-1.13179432930591
4.00168372671298
8.93759147809131
14.2053318276376
19.4774181530486
24.1267482777245
27.6404953758239
29.4953067358787
29.1668396993799
26.6017568092087
22.5308294148826
18.084935116446
14.0969518050811
10.7587992958741
7.72704172189947
4.41735167772961
0.366928797811433
-4.4812962854098
-9.81138784321032
-15.1325001706761
-19.6766536871024
-22.1419842406742
-21.0996956334947
-16.1480346204633
-8.60030618466152
-0.821712508281516
5.0772117016977
8.07911968399674
8.51535543439303
7.93537776080784
8.23949291550157
10.1963001305137
12.7742437952146
14.3709024675799
14.7036156656427
14.9764428777257
16.0076339769424
16.7642492644522
15.3333479251662
11.1529130147776
5.72849634982058
1.20543728819657
-1.22660775953841
-1.61126624519008
-0.738290529587384
0.337773268014081
0.926593184444059
1.24949238525642
2.04661232959452
3.52547001001005
5.06939772613256
5.98150667989195
5.99496616954815
4.91954989199409
2.30469035520921
-2.10849804574741
-7.64056151782187
-12.6178573913953
-15.3034356632424
-15.1127824497189
-13.0026706892893
-10.6432096219068
-9.24436555443314
-9.1228057609331
-10.0379584422629
-11.6473863179251
-13.7744868312997
-16.4689829249194
-19.8004523437513
-23.5575130704236
-27.1572055544657
-29.7501036613698
-30.4825504504843
-29.0846323616328
-26.406407969025
-23.9592609920654
-22.523321992946
-21.3909687557544
-19.2960953618989
-15.9449614958296
-12.3300075380627
-9.60840397518811
-7.93448828337056
-6.37064881296382
-3.68989430922268
0.801284999974033
6.93739741099686
13.7940761937567
20.1316315759555
25.2788160728155
29.9183444923861
35.5695332605212
42.8115951419241
50.3401962121281
56.2141600882431
59.6000221403516
60.8092617902144
60.3231716942417
58.7675322405634
57.4162660560362
57.3379011334847
57.5480017846313
54.7290570433672
45.5758410162119
29.6971561143837
10.3103872286194
-7.74075778371388
-20.6850827351265
-27.2049359152279
-28.2197912646282
-25.9813966631656
-23.0674717830166
-21.3241220362143
-21.0701998770452
-21.2057957131861
-20.3178568504212
-17.9168077241725
-14.7828921729249
-12.285014420205
-11.4298176250137
-12.4293945932007
-14.9597912672324
-18.7305865410714
-23.8718184276792
-30.8661107134479
-40.0346372582457
-50.8519574150849
-61.6347337658684
-70.098406898126
-74.6131421321928
-75.2088470291505
-73.364619876771
-70.6122860731367
-67.2138733845469
-62.2785875869768
-55.1005714406007
-45.9036303091365
-34.9895034711621
-21.7662189405457
-5.54998778609757
12.6337532661504
29.8402125004691
43.2749208047968
52.4727359362812
59.361573486993
66.215779174012
73.3694758977948
78.7869659626718
79.9924967175817
76.4876425234815
70.2589696498376
64.1712389023103
60.08360513243
58.0935313488204
56.8686543152277
54.5515938431747
49.8048231566341
42.4428655485794
33.2847309385769
23.5181181223879
14.1637767852586
5.86977395611203
-1.10411070704754
-6.86490586718106
-11.8427143030506
-16.6093280114405
-21.4606344250146
-25.987687913078
-29.147189431829
-30.0131846213419
-28.6458978895441
-26.2280933053264
-24.2227297532349
-23.2482306707733
-22.666681758076
-21.1847770062476
-17.8864624378842
-12.9984768033129
-8.05732566434782
-5.22054255955609
-5.70366916727532
-8.47622526252611
-10.9708033606605
-11.6052207307402
-11.2601731403028
-11.7856368858744
-13.5279800530899
-15.0563885110253
-15.0027084596597
-13.3818015528985
-11.2579626301189
-9.86783397630015
-10.0475758519429
-11.7566946351429
-13.7957006083154
-14.272205005623
-11.6888851726322
-5.8490233217283
1.9564106441313
9.53663281426669
14.9209877810758
17.328845428842
17.2187152637751
15.459909720534
12.5297543417902
8.45148796646018
3.2475509596835
-2.85382970469661
-9.7277916654594
-17.5444547922821
-26.2096346657464
-34.544460238832
-40.3860917635818
-41.8540498271661
-38.6020187542633
-31.8915216501667
-23.6529073635817
-15.5170452169584
-8.36566684971682
-2.26344848272957
3.44713323816818
9.84508363298478
17.8335988633556
27.4362651489358
37.4037443183302
45.4246169747635
49.0471822078039
47.1859702025896
41.279793887552
34.6378301583283
30.0163673626511
27.7399385168137
26.217952359277
23.8394781349765
20.07432698191
15.2812688132631
10.1351499499095
5.19452693360692
0.621315121344743
-3.71248914083554
-7.66636847265127
-10.4793191151616
-11.2652776881421
-10.009621647243
-7.98616975680369
-6.8884737507365
-7.23453981737764
-7.63427404047019
-5.8666225588654
-0.722407769645739
7.21738604832181
16.1920308373466
24.1565664342155
29.375943438409
31.0168770199791
29.6105006646975
26.6987325002771
23.6587874494626
20.6583585062584
16.638328938763
10.3970948863196
1.89875115757384
-7.53677689311272
-16.4762464843691
-24.4695182124649
-31.5143549450797
-36.9482253083724
-39.919163732234
-41.0989149555095
-42.924421680874
-47.2322622321846
-52.7389670278468
-55.5920681041627
-52.896885250994
-45.5098081731489
-36.9871497088163
-29.9849013198708
-24.1874876223001
-17.5760284317939
-8.93584336988045
1.03420335972488
10.3359836749981
17.0105531998783
20.497717676865
22.2506909652597
24.6578998013157
28.7207756395826
32.770696847243
33.8203121969053
30.2035276174314
22.745261065702
13.6704529473607
4.99195312225466
-2.05264957199315
-6.88059126530955
-9.66219481992201
-11.3266762472707
-12.7587737868388
-13.7905880916892
-13.3652030060423
-10.8991022960038
-7.23131977415561
-3.90960163723016
-1.4121780337497
1.74890806586474
7.56096703264267
15.7153239975045
22.8778262216311
25.6984423846528
24.2511560304947
21.444982763029
19.3323657730737
17.4406669248513
14.8223527090955
12.0328693551288
10.1303431265895
8.84282746282345
7.00322513810958
4.41252984782676
2.18700018854557
1.22737472584497
1.18337436843158
1.26941928085049
1.59337469152639
3.16970155857149
6.6779558906308
11.4970598491596
16.0390548225818
18.9895150058734
20.2501291389289
20.6285772060073
20.5015305625634
18.9621235537751
14.6857822277433
7.64920117024382
-0.477541749020985
-7.88294751182829
-14.271603384377
-20.8014990464801
-28.6586450522147
-37.8501294560389
-47.0260925017635
-54.1490125968141
-57.5854288791134
-57.0139576268584
-53.432299232332
-48.2035641487334
-41.9863679966261
-34.4361469211656
-24.8538785679263
-13.272684084189
-1.0934842476571
9.46818084109576
16.8871748432458
21.4714117429109
25.0021584631661
29.1200843155595
33.8140227318383
37.2917503209965
37.4667744603846
33.8603630175535
28.0708490388209
22.2614956895066
17.2900954585823
12.4799429853276
7.10047016276925
1.77052998630394
-1.79818341816099
-2.4861744247491
-1.10598720773589
0.102463652229278
-0.577879119045362
-2.85296911648165
-4.76175497452389
-4.38632381293582
-1.35396769868529
3.02085514862132
6.88581372862652
9.197103685317
10.1191622606057
10.4098110560303
10.6980720053914
11.1949980594247
11.6042652628765
11.2697381408949
9.91344752099318
8.31987781295744
7.66198698169007
7.79428518798267
6.7852517152196
2.85941418732255
-3.3621496857701
-9.31341423214242
-13.3290324820379
-16.3447569605322
-20.3372348232787
-25.6318920546841
-30.4234578221058
-32.7014139811339
-31.9541615101351
-28.9851099980928
-24.7247830647169
-19.557022380048
-13.4787305552102
-6.56103441455465
0.67374042272492
7.04559761987186
10.8185486194245
10.4028706249694
5.61333864834578
-1.50820335044062
-7.57379639842412
-10.1269707008262
-9.184129592291
-6.57063322081211
-4.09878779441962
-2.56582033454334
-1.96871833470706
-1.91017412491723
-1.636728649486
-0.159781811935614
3.12736138636531
7.74423201110244
12.2032474944872
15.0993161571251
16.1444082681556
15.9768209210941
15.227486241153
14.2515141220861
13.4832446976284
13.1746566752046
12.6992007538067
11.0520831454123
8.58727559984934
7.64012383845182
10.5640256860385
17.0747934774929
24.0290348029052
28.0336538434304
28.0106777655532
25.1405643740372
20.9248323614655
15.9674939086051
10.2972656339328
3.85420069839959
-3.51532807263087
-11.6147540774533
-19.0256473943115
-23.531831135001
-24.187048682481
-22.5971339042878
-21.5360620356003
-22.4171574073763
-24.4276150360165
-25.7893262700289
-25.2325729681851
-22.2043226672735
-16.3398280637578
-7.55164823078839
3.14988926011881
13.5229772093282
21.4716330691907
26.4621492836069
29.0348453758485
29.1448507404547
25.9444091327164
19.4117628558231
11.2496574290508
3.55392761377155
-2.83696525198992
-8.07788408176272
-11.9722294178453
-13.9415677342135
-14.5105131558105
-15.9463102432583
-20.5203018753361
-28.0521503257457
-35.618898824815
-39.773913617481
-38.7923105703519
-33.1548115169203
-24.982500862175
-17.2910191961278
-12.5245607075311
-10.6635973680373
-9.17547968988953
-5.73766680722411
-0.926607420924561
2.38967876692224
2.25565441062185
-0.307756370795747
-2.43248641921741
-2.03388634755076
0.880126952567242
4.96055493338099
8.93117560711236
12.2694784790678
15.0234207851537
17.3670739896081
19.2949121440757
20.4928614307719
20.4591442542056
19.0337594154785
17.0610551093355
16.3213326178986
18.2951459789831
22.8283332191417
28.3279009113552
33.3319178640782
37.3812324983574
40.1989964669008
40.8509493896465
38.5256211675374
33.8400265309326
28.6210156580537
24.3164974127602
20.8703559030882
16.8968407138738
10.5911823232796
0.835332787881771
-11.818511330037
-24.9784753369609
-35.559138259577
-41.640561013661
-43.6581010487118
-43.8419397820194
-44.0713253585994
-43.9239167883464
-41.0508154830854
-33.8265216757896
-23.5251647643964
-13.6058304681666
-6.9160648093432
-3.75331189792664
-2.38947762270747
-0.927517662998976
1.51067696171666
4.81695802389959
8.26759463050256
10.7380075046913
11.3243183243296
10.3730108046881
9.4285127871102
9.37219140736327
8.90741780039253
5.89059966933966
0.222335030864969
-5.55219619097918
-8.91261608566192
-9.97530503295614
-11.0148446943487
-13.840033792811
-18.140348368652
-22.2641886422998
-25.1284479446159
-27.0382852439594
-28.6400909660319
-29.4354463269504
-27.8359679072738
-22.8242223537173
-15.2125089856812
-7.04094220873447
-0.0403592321717928
5.07704361396582
8.34463562151818
10.3693735791932
12.3998648337568
15.7589986761571
20.8086706060801
26.8385311071418
33.1213544372125
39.5641341079561
46.0721816152695
51.8082600845934
55.5339839361073
56.4294255842469
54.2950456349201
49.2930106672837
41.9774620756328
33.4495325633004
24.8442414913859
16.2745764680305
6.5905081036892
-5.18787995965438
-18.0632138784146
-29.239707197065
-36.5175670625874
-40.1206258619882
-41.7076863448402
-42.1154964178459
-40.9509386265437
-38.1394006290333
-34.7004696310719
-31.591069130372
-28.5339899368708
-24.5515345217467
-19.313418262319
-13.5389820438491
-8.2416656115106
-3.86354450912143
-0.0703006124130374
3.76941539229847
7.83623992504554
11.4273425432093
13.1884808640666
11.8245507967061
6.84966021554217
-0.918002655402717
-9.34058083483247
-15.6829826702822
-17.9628515903581
-16.0674233247146
-11.6062337299165
-6.5188318803734
-1.74185041525636
2.87100227779349
7.6416101282592
12.4011775685945
16.6534963420429
19.9848569506539
22.0037641955531
21.9879173026971
19.058753160004
13.1681668835995
5.87384054717592
-0.499582288630504
-4.93896697192453
-8.6052884175302
-13.0707638113904
-18.0237738668077
-21.4290711252858
-21.7445259595435
-19.0933861333557
-14.1903267655514
-7.13732347041693
2.02432418916591
12.1386903185024
21.33581566695
28.7874388673053
35.2959993069239
41.5282379110652
46.1336135009205
46.6593274023349
42.5830977031538
36.6137931183547
32.3446901384419
30.9429149138761
30.5599172115797
28.6033717629943
23.9930664209954
17.3685882943997
9.87341600404108
2.20938056963555
-5.42269637000417
-13.1424780375663
-21.4626732291213
-31.1890019170673
-42.7121167546577
-55.208040473676
-66.6125541735703
-74.4569056030775
-76.976789192935
-73.9765962680482
-66.9978235683014
-58.3659771276018
-49.5605584154621
-40.3992315903883
-29.9302669615762
-18.0351306819143
-5.9481774756444
4.82568906234612
13.8530211207048
21.6475077710406
28.1678253921596
32.1262781796368
32.5101318470021
30.3814155861276
28.0326708382865
26.2377573675395
23.4954313607003
18.588309626408
12.9780695131702
9.70293056259653
10.2067535256287
13.0408037759195
15.6846412580644
16.9526246951873
17.2105669960654
16.6857095701213
14.5306779770445
10.0787143189876
4.59950497364642
1.013268732364
1.47830153857339
5.31238743945451
9.42975694126704
10.9045646909713
9.13987124845589
5.66351631312851
2.28887691996592
-0.0009629206373905
-0.677473371721377
0.645536446973756
3.480051074302
6.03573624559671
6.41191790807494
4.281910419461
1.08636038025131
-1.32414581077744
-2.02715370597754
-1.28645775676173
0.103781786163222
1.61912873324674
3.15787175885124
4.4136545881362
4.42924176429515
2.29147797090706
-1.68395472002998
-5.92331187496948
-9.01501337133933
-11.0051619916557
-13.1599273030161
-16.502122267472
-20.5969055083101
-23.8175640841453
-24.9455974296661
-24.4491486541782
-23.9027502597387
-24.1320742648427
-24.2774315607462
-22.8543873303002
-19.4975228149938
-15.4311703398699
-12.2861593717656
-10.504168281188
-8.68059812641984
-4.35822567634419
4.03188326691205
15.250025738612
25.2248893815528
29.8102766592718
28.2231804622047
23.5066858814902
19.3262490540326
16.7776733753965
14.6117791043903
11.7396269574806
8.58800537627357
6.30992402579056
5.54693983130763
6.01629887229246
6.69073036720889
6.27712112176044
4.1670215763279
1.3523911732326
-0.0326925737131529
1.25523199128247
4.06405957093329
5.93996131078934
5.74305657760373
4.58482936743225
4.0588595656023
4.2896926808607
4.2817634354102
3.78102227036081
4.10839937280643
7.05156129235083
13.1160430072104
20.7954259371331
27.433415939744
30.8497687020038
30.1755133687844
25.3671489753577
16.6891486039705
5.14163467407286
-7.40316749200884
-19.5205397203413
-31.3011671195671
-43.1052917750531
-53.618700613697
-60.3158538903978
-61.7142227694047
-58.0606915269112
-49.895843675053
-37.3316154356724
-21.3591059336524
-4.99807932717605
7.83747408154383
14.7757500655971
16.2193018035111
14.503203070307
12.1514965231204
10.5070089680098
9.16085302883911
6.44745049949972
1.08566135602303
-6.18717015967695
-12.8296818242511
-16.6810456658791
-17.7952310918358
-17.8068991943392
-17.6280168712709
-16.3225330467196
-12.543094532942
-6.59933696795979
-0.29602024387737
5.30334447592563
10.9950711587077
17.7923162388435
25.0031817063568
30.8743811298668
34.6482116421298
36.9282241555972
38.1775920190631
37.8758721267647
35.3596308891692
30.8952067165149
25.8325773562563
22.0997708760892
21.3073749806193
23.5194088931135
26.5754693641429
27.095062036874
22.8281016415914
14.4631227478791
5.16539181557487
-2.01018161768522
-6.54212553427749
-10.2633071648684
-14.8501454697441
-19.9085012327104
-23.6425394132849
-24.8205052127918
-23.5966706718853
-20.7563102819684
-16.884341650279
-12.4811254449662
-8.38077938382731
-5.39964090383047
-3.49868426679345
-1.85794391087661
-0.120623864420436
0.9037035671212
0.212097040124411
-2.23984326122839
-5.98827898006358
-11.0732782790499
-17.5167774321491
-23.9823870224669
-28.2381676716928
-29.4383257192859
-29.0802935890767
-29.0236243082423
-29.161648747977
-27.8832456029495
-24.4569367645694
-19.8695877556531
-15.1713839532335
-10.0080595193474
-3.44067172691544
4.33291506029346
11.8069164696211
17.5165226570705
20.923060424473
22.0233675990043
20.8655815143471
17.9649340587259
14.8638817957401
13.5280695421197
14.7700384525241
17.3861344069112
19.0701926666016
18.2126739323525
14.933753149514
10.7450937400519
7.38309508172083
5.62077913593624
4.81770480262739
3.68872474725449
1.72304818057062
-0.268025957632318
-1.14251750968658
-0.624113527792681
0.873285561053604
3.27657524617805
6.9622345397949
11.6589061547597
15.7244839139732
16.9491480960734
14.2114270311558
8.44439868621238
2.04613675165045
-2.78889369579425
-5.35957932200828
-6.21686323451736
-5.89536747751485
-4.35766027579225
-1.84558205033359
0.321138945817654
0.561264852727131
-1.29294753548475
-3.65786293360047
-4.8539444287828
-4.9683937301922
-5.88929971744194
-9.48663870705949
-15.7074017342698
-22.2624949495455
-26.1489656983325
-25.7410625681836
-21.6086250380908
-15.412014059165
-8.43722111479989
-1.67603081907486
3.20561761001063
4.4137644072527
2.20489865134057
-0.340473425220433
0.183135051203599
4.24646651467596
9.26886776225346
12.7165535810437
14.472715341972
15.7354700275554
16.4561561465784
15.1074758774948
11.0250053325367
5.92789373342448
2.59043801781183
2.51175987517658
5.16423045940758
8.87617099395396
11.876164476979
12.7973282986642
10.8009146727172
5.53211230130421
-2.79122795710076
-12.9649434380823
-22.6941364860589
-29.6611291228648
-33.1474730362777
-34.258585740585
-34.041562658985
-31.5004067977259
-24.160927008493
-11.117326635055
4.77063602220557
18.5131567645726
27.0595062846829
31.1719215974113
33.1168065970974
33.492331313537
31.1440364063267
25.5347146189997
17.9835173168843
10.4766385388412
4.08672746332276
-1.126523499185
-5.20814772470748
-7.78049280860684
-8.34767228869261
-6.95591615623425
-4.54621814379785
-2.56541281975034
-2.03793088586621
-2.9931877627133
-4.90419168106595
-7.59599551772696
-11.4131944837653
-16.3567567021112
-21.3683287315273
-24.9243851829207
-26.3835947651235
-26.3510137191912
-25.4484501772876
-23.0058663650482
-17.5342367609402
-8.76547749120136
1.07438865757548
8.62080569354507
12.3638384739191
14.1462130521954
17.3261593813879
23.4556649754564
31.1000266708642
37.7969052955175
42.3617087144515
44.8164870703302
44.7555859573805
40.8778968008298
32.4777229528843
20.9859238834955
9.59619575188131
1.24722543800183
-3.11267780529155
-4.70165515483148
-5.91472857742637
-9.07505299171998
-15.3069142931924
-23.8973892168693
-32.7741650617694
-39.905799647121
-44.3011958874993
-45.8210733998748
-44.5720896207933
-40.7808428350975
-34.8536316938633
-27.1484651934512
-17.9162337690359
-7.8247945988468
1.62637646055692
8.66755135544766
12.4975029487725
13.9897023753412
14.9934165144183
16.5958647914076
17.9172507516183
16.9002962513086
12.6176451187756
6.70100541193431
2.19528503830107
0.987927134141298
2.49813148301137
4.7302773252022
6.24294457234926
7.01612138616157
7.83184756395562
9.34378513468206
11.7139016585483
14.5012947345668
16.5261251647486
16.3317834985606
13.3995785054576
8.81088839847814
4.35347257260935
1.08715311957987
-1.02455537248855
-2.44293902789312
-3.49054703611941
-4.27388460444303
-4.63316380266611
-4.04640344741318
-1.90777383845239
1.78514389367762
5.94700787328331
8.80248079770438
9.13026629113131
7.27516486536945
4.73991011984228
2.65551693078939
0.856117449330362
-1.42599223810611
-4.25870987397962
-6.75407150317738
-8.05538042325971
-8.25194297359599
-8.1429161797487
-8.25727586197903
-8.42779072050662
-8.47915993713774
-9.08891626456266
-11.5267301212894
-16.3746842741314
-22.6450772783618
-28.1690134052382
-30.7222010949148
-29.0355691010963
-23.3711929898488
-15.4270209871359
-7.28245155823426
0.0960857574731453
7.33977048320907
15.3860438200012
23.7504753575317
30.5426308934135
34.3441669452958
35.5655551761885
35.5506227648024
34.6847246874064
31.8205386478031
25.3299232390745
14.3870865114723
-0.315761485615195
-16.3642080833787
-30.248392802985
-39.0562504997056
-42.0538908655792
-40.5010338698445
-35.8784072408686
-28.5163986871352
-17.9906100131936
-4.60566033852367
9.68148492245537
21.8481602714524
29.5777980904814
32.8908737591673
34.1088172921966
35.8552323126406
38.7959528685058
41.2513217855726
40.8208234174312
36.2016627735941
27.7621295665803
17.0031102242827
5.6040637364131
-5.53138649465203
-16.7056021067674
-28.7200922287824
-41.3657281784212
-52.6121466584823
-59.6354209580512
-60.9365834109927
-57.4147748730206
-51.1657384742767
-43.3871003320949
-34.0159258830084
-23.4562318601421
-13.6226449994035
-6.28126471965609
-0.722660656698334
5.81715823538835
15.1380913961906
25.9938205308622
35.1235821708262
39.9484753604427
40.303588866247
38.1138883202454
35.6187630011768
33.622385428411
31.2749146288574
27.5386250253608
22.6257193429226
17.7194971570016
13.4631980747489
9.20682263349774
3.9441619880434
-2.23486742456043
-7.9077400406034
-11.557438321594
-12.8675264654827
-12.6541739851702
-11.6582217412435
-9.79823040428128
-6.8427720485673
-3.49579768181697
-1.22725802443435
-0.828622872019773
-1.42617412473115
-1.23482049751445
0.675839029514645
3.50427128313985
5.68556386358194
6.57519137137587
6.83804084011999
7.14438684403901
7.02859885403488
5.55083117561326
2.82016513970481
0.144107740168343
-1.52552735623258
-2.87777276251181
-5.74227522786496
-11.4169302696729
-19.3700668785587
-27.2714422252276
-32.4098055009979
-33.5984719581836
-31.9633742766405
-29.7663422057969
-28.4324902060096
-27.8020682426684
-26.9919555488677
-25.2631044928655
-21.7759310082697
-15.3265584288551
-5.49001440096801
5.88278591028395
15.3152816860866
20.5214627980456
22.2442432349952
22.9731495086853
24.2754351325011
25.7772656463867
26.3184260873954
25.4262633566237
23.5980757200925
21.5512161757287
19.5366886497891
17.4634167040661
15.4784709239456
14.0246261109088
13.1423336225152
11.967581271655
9.30599598974196
4.88752449031345
0.0247454470409949
-3.1742926279372
-3.57803079059055
-2.18697022937315
-1.33361089189757
-2.51120198266552
-5.03532313216673
-6.86131511525267
-6.50264971072757
-4.12418572296224
-1.14849622757283
0.892104742628258
1.25686159325494
0.143109285196336
-1.73106252508342
-3.53480411524139
-4.5054833394021
-4.20794059243652
-2.93550189111251
-1.70110150760956
-1.47360856394284
-2.29066302307835
-3.25631885428867
-3.51597127213969
-3.11257240220711
-2.68797741313551
-2.42254946122375
-1.68694855256548
0.0368452388424426
2.34212952433413
4.57624684826461
6.99727394638379
10.2383601759454
13.3951229010306
13.6790447142086
8.85880302011854
-0.257034160743953
-10.3226943963912
-18.1593230513366
-22.5976773801971
-24.2584943404111
-24.4310605839119
-24.0849443623055
-23.1757970373287
-20.616827519911
-15.255134689991
-7.02901032579042
2.90697683581239
12.9009237535294
21.2429768727747
26.3011906845074
27.2065994829682
24.6216106439422
20.0748866802096
14.198268995191
6.28798067053999
-3.9557521339706
-14.871111936146
-23.6479085880578
-28.4246288306234
-29.2020635414729
-27.1312964430929
-23.5144125287995
-19.2611928457778
-14.6535341525602
-9.54657552009265
-4.10747027762912
0.754279062472893
4.09313607056781
5.98787155486815
7.39762296404966
8.90573846058783
10.1812839140153
10.9351644655037
11.7815358348435
13.5522382761524
16.0888215781579
18.3329469885392
19.5091204737029
19.7530456528989
19.6516362639606
19.5883572280411
19.5579206545428
19.3158488304165
18.6144072337591
17.3724923773427
15.6159510499698
13.3297260249948
10.5779998910168
7.74322217674329
5.33410607541568
3.41972548918846
1.44942923616537
-1.1668527794259
-4.3016782662061
-7.06323799889066
-8.64172738207032
-9.18646294439586
-9.65112100683586
-10.7126749599554
-12.0811848895825
-13.0319428924582
-13.3908630475041
-13.7113676792079
-14.4999631727571
-15.4147328576286
-15.294168200258
-13.1208551409617
-9.16737338593406
-5.14629928074535
-2.97820828721054
-3.31748319553896
-5.27849684549806
-7.40322775716952
-8.72048425636405
-9.02294651409232
-8.41788775587335
-6.82890814416032
-4.15190397337521
-0.970556708294834
1.27368226038503
1.36437514193032
-0.431089211929695
-2.58882118443095
-3.85571996386401
-4.18650853642827
-4.11555075063724
-3.65174603830639
-2.16765151060424
0.665837171105243
4.09168487690046
6.60737994294805
7.16409232711092
6.0590004339364
4.71585538859015
4.59189562119064
6.08896950745662
8.27709071592667
9.63836237809093
9.21150974960635
7.19215330169652
4.645695845005
2.75951414649459
2.1642383961698
2.61398115485341
3.22558473352063
3.18453317116559
2.28346162219134
0.797653663073525
-0.900003412867594
-2.37327661437503
-3.05398598389516
-2.59882570232578
-1.3137899281084
0.0758955287901665
1.1008329345924
1.79404240844622
2.29205743775974
2.46066133718406
2.0901804288763
1.37317276104052
0.949909094511131
1.31618708991153
2.25139041642538
3.00712229059967
3.05192249044334
2.45320819546669
1.53535644957054
0.415778462320316
-0.975812545786734
-2.49045570245666
-3.4645378476684
-2.982343238968
-0.71424214596585
2.42716891481463
4.75958755353478
5.21775951982484
4.23572974686757
3.19976563233568
3.10699108360771
3.74937992701108
4.08495575585509
3.38810325063741
2.06941013766255
1.25465059576148
1.50758966519351
2.23947973453835
2.59053890609034
2.54954975611242
2.66895832582629
2.74417665096982
1.44979148082188
-2.24834493838837
-7.56781693951797
-12.3264089167188
-14.9770171409578
-15.906006886199
-16.6533597947221
-18.2046608874702
-20.1455830891879
-21.0832259762961
-19.6814710984492
-15.64474911737
-10.0284620786844
-4.47740889343489
0.0112548478498017
3.57420512354088
6.89830417080884
10.4247647787749
14.0366018674748
17.1591863770363
19.0497865807946
19.1321922206313
17.1767460206779
13.3560166671502
8.35656297345668
3.28971882587526
-0.904190430049921
-3.99025823766831
-6.14766651345937
-7.31456951929233
-7.21817501899132
-5.90373776692395
-3.71684456627494
-0.82472008352365
2.65255677922104
5.95002364517803
7.69590403154054
7.03248728799777
4.55426706597312
1.95413536138544
0.721013488682693
1.09202073208039
2.10928925412029
2.56940546950482
1.85492957726581
0.0120096927654286
-2.50850475096851
-4.88262903829517
-6.04312991071482
-5.43212633050143
-3.78475264188806
-2.71849944876301
-3.15762702817652
-4.30501512300464
-4.53513831157518
-3.30963998378667
-1.82910804822481
-1.61945250964783
-2.85304281538483
-4.41379174877146
-5.26612268194497
-5.16001659126167
-4.10137090312398
-1.86855176149972
1.54870233131637
5.35092619022625
8.25922298822727
9.57050912286637
9.68652506984537
9.45865042648913
9.18830419864772
8.52313254168676
7.18492899067317
5.35899242538948
3.32805089341575
1.18951664298413
-0.874396267998518
-2.44422395805622
-3.25532249345727
-3.50894391250929
-3.60846292021193
-3.76810416874926
-3.99874220998592
-4.27540782894687
-4.4867875306954
-4.23530224432719
-2.94627426023301
-0.467435256944854
2.4477922249333
4.59212555128028
5.4199768793816
5.47414590138089
5.53142949990946
5.62506970665569
5.22251952189341
4.14567827625157
2.89145066655445
2.02024633370557
1.52245658132013
0.957018256904994
0.12010339557822
-0.658222281272385
-1.01378597415757
-1.14232019532372
-1.57686026385488
-2.45609464644213
-3.40833245957386
-4.19464119932535
-5.04578601673279
-6.16487343897877
-7.21532503045885
-7.62508372003002
-7.31612113047823
-6.86988372408142
-6.88360406571126
-7.294558457017
-7.49561611631395
-7.04968676537314
-6.01832418053662
-4.56231007968354
-2.64805221946032
-0.430063387906385
1.43244137163602
2.29956106995433
2.31275525378906
2.31514501542806
2.98475293903809
4.19025015562275
5.19489416326828
5.39339620140002
4.82415114734538
3.9998313096993
3.32112487576653
2.77170122475565
2.16834264198394
1.49555810666851
0.870109925015625
0.326055549897689
-0.201856699726388
-0.719856988482439
-1.08921934676352
-1.1319584935744
-0.856110981468878
-0.537962696517026
-0.452753925293561
-0.529496203269564
-0.435159974338707
-0.017757521642372
0.498502662425819
0.781945199209209
0.701105628029044
0.343350666748683
-0.117821728607183
-0.515577565814204
-0.734312417609126
-0.715001621700272
-0.453297934341316
-0.0628264902737446
0.209381755456377
0.190126314691086
0.0081430520957729
-0.0150885533751459
0.298307351581786
0.844485568389831
1.41287087816404
1.9424921250556
2.61201037378324
3.64133130655886
4.9611803255989
6.17687701851236
6.94218461339202
7.23173526814522
7.1522231779748
6.72759434243395
6.0937173340662
5.67742602505249
5.82748776920061
6.29789754286812
6.33614997740058
5.33431783045237
3.35032536122377
1.06298320579617
-0.706044584126681
-1.4875414085506
-1.3507939806482
-0.760340722864762
-0.276512294406999
-0.243752427433516
-0.625063684319379
-1.16433823187656
-1.7800424045243
-2.78033038446188
-4.66488294760365
-7.69937609640636
-11.5636224771901
-15.3042887481286
-17.7693557862884
-18.3307925666924
-17.2237249455141
-15.1689405558589
-12.8010278452751
-10.4037259101717
-7.80994199243169
-4.47498621762234
-0.0896836179128292
4.71034196273234
8.65128170428735
10.9982663815395
12.0435134361989
12.3126521520038
11.7950982705265
10.2920307042909
8.1488180429973
6.10347094728431
4.35743313011549
2.16000768950572
-1.34138632551294
-5.82563011194275
-9.71522166118362
-11.6828371300983
-12.0768356709026
-12.4343867716942
-13.6152245596283
-14.9044165984923
-15.089706819842
-13.8985161853879
-11.9589203609649
-9.68728339586766
-6.81925299229808
-3.04385930119761
1.43037429895632
6.19595577978562
11.1810769510408
16.4535388637177
21.5770962045467
25.5299591670206
27.3389015216195
26.6297110986473
23.674247396608
19.2352066380348
14.3471208602861
9.91705938472456
6.39857919897248
3.85660729182439
2.17689489232544
1.08001672450491
0.12227998279568
-1.06617755296864
-2.51704774013384
-3.93859925620315
-4.96955374044981
-5.45330316827568
-5.55683416402819
-5.61317348823996
-5.79219865943786
-5.98688302081018
-6.06844062359939
-6.1010957586739
-6.15450537800905
-6.00096163076713
-5.20977369635243
-3.64329999681894
-1.81057229783812
-0.553632989718831
-0.225924175621706
-0.27142515432136
0.168069897667357
1.26358243563032
2.31413758652939
2.49358903790827
1.55341760463061
-0.162456595188403
-2.09992099917592
-3.80537759376373
-5.04840568516142
-5.78334625429686
-6.02764304775343
-5.82181478171745
-5.2696125014773
-4.48213077656251
-3.47732876553388
-2.24940188902326
-0.927664457997606
0.219216953298032
0.924464305409305
1.08018867986465
0.862343578505707
0.683946006175929
0.869803647221344
1.35564714207629
1.7958342998608
1.9119910719478
1.65454694054875
1.17477410786995
0.803730656877244
0.910748706735887
1.55884520479345
2.34179510052047
2.68660940164388
2.30046832760368
1.33310853948593
0.215482755565251
-0.645402249504838
-1.09919566069653
-1.22519901222617
-1.13242105031909
-0.882014426911708
-0.558503168785192
-0.258439304931351
-0.0078584558239559
0.188955196306207
0.249220049235214
0.0712448803320648
-0.360782192435628
-1.01589021856072
-1.84857153904112
-2.70011269432415
-3.30328676108295
-3.48144654191143
-3.24415248914727
-2.68079513114359
-1.91154066197102
-1.14372376941865
-0.624540001564529
-0.496548256341939
-0.721271364482809
-1.07537290713544
-1.19857379686722
-0.767729395987414
0.285461134254232
1.7414194414775
3.25613220106939
4.53637752865208
5.46231378797773
6.1351697604447
6.71654879458654
7.14336648572938
7.11038326256461
6.39905477281196
5.12277430772067
3.64200882986936
2.35961471654535
1.55980791782828
1.28613976852195
1.37247333287371
1.66255163519813
2.1362602125578
2.78111282754281
3.47344788068842
4.06890108005728
4.49967902234659
4.71028471064176
4.5924116171874
4.05563751649799
3.1287370735706
1.97047379104776
0.769398357655596
-0.394626291381528
-1.52335276655413
-2.47197866856797
-2.9256190301997
-2.80427537728285
-2.53772523137814
-2.68266562207275
-3.35788378079888
-4.2883006204346
-5.35947347129911
-6.91097201024596
-9.37419618572171
-12.6107027938757
-15.6665705576457
-17.3722311000624
-17.3610805230226
-16.4338507472731
-15.7511095858252
-15.6613964499729
-15.394773833352
-13.8322789954229
-10.445092446262
-5.53141601507385
0.208354367610238
6.07090359610499
11.3657384982082
15.4201304539357
17.8773535853831
18.8646972686839
18.6517542853818
17.2900039147138
14.7987178604696
11.517089053431
7.99427505696615
4.65131587299488
1.77162635053509
-0.356280908286435
-1.57961653731578
-2.04405448526014
-1.95297335856989
-1.28335694710353
-0.0217739311968213
1.38586323790302
2.16259123741044
1.99162537157181
1.60171738931703
2.2758242207702
4.55599306138097
7.5386128775269
9.634435217813
9.87439642819987
8.28343674966579
5.32560327333002
1.52289299824342
-2.4637879050768
-5.92343155733415
-8.47046432439727
-10.1678165445368
-11.2609092179335
-11.8869616268688
-11.9676648595366
-11.3084194906668
-9.85899144567734
-7.80367662567616
-5.26397883492068
-2.12469771087906
1.53238510058299
4.9978700649172
7.35336610233757
8.29970664319811
8.26612658278531
7.74245565676034
6.81645977960156
5.39796293076314
3.61949251181176
1.8471251061436
0.371155376283327
-0.776567925534411
-1.66732494237211
-2.27163001396156
-2.54331111670332
-2.5824031193648
-2.49274468231092
-2.16917866184348
-1.48739437469657
-0.656591126369678
-0.13828119358216
-0.210774766509257
-0.749116238841335
-1.37777708018425
-1.71509123140784
-1.53691006958278
-0.863291486472124
0.0537923592262474
0.850773154206389
1.22821061675233
1.12431446757412
0.757484431078216
0.400958299580785
0.0879113190888431
-0.341135207626732
-0.916578991030056
-1.47253348124017
-1.92903700687579
-2.43299606532112
-3.13402710917101
-3.92426407232365
-4.45080362670167
-4.38240510254374
-3.71113180236822
-2.78364928172054
-1.96181115501811
-1.29515508922955
-0.620602958113594
0.119307021817943
0.824513714392579
1.41227853761746
1.86012731053658
2.14593363549015
2.29662632987562
2.41639666521244
2.559349106617
2.666921041235
2.67901908602423
2.5863845722695
2.36104643188095
1.97137200312971
1.48893483901133
1.10719198587579
1.06530109694136
1.55198470332344
2.55735783885124
3.74178963620666
4.54729138945675
4.56366249820312
3.83912052048363
2.86553838186423
2.2372457621701
2.20574042182723
2.50857248738153
2.68618617885706
2.5243315167816
2.08012117599438
1.40579393580302
0.499599828131096
-0.51668800503651
-1.41229802725878
-2.06144255252886
-2.52325336492011
-2.93203355803946
-3.36904826390674
-3.78624482718699
-4.03893885886091
-4.07197677581127
-4.03489342060658
-4.0652058241758
-3.97957603302891
-3.36713975485689
-2.06108639066848
-0.45173040903365
0.703528685191183
0.822327985111894
-0.0573265776564155
-1.36252880831575
-2.55293917733484
-3.52602149662157
-4.41516699269077
-5.17285124750553
-5.5440398090871
-5.38775531160611
-4.85917883446588
-4.21976229755793
-3.50089242678294
-2.43396626070419
-0.809106065998787
1.13357435553571
2.84153353346296
3.98472401986022
4.63355522445995
4.8790821580915
4.59942104972687
3.78992482516609
2.90519660967108
2.62679999256233
3.27160551171394
4.44693335218931
5.29674952596387
5.19989486821251
4.30844943382779
3.34143603623425
2.85722302131554
2.85673112569576
3.05684300058292
3.28998532327886
3.51871558200342
3.62516993346645
3.3531632120872
2.48535015570701
1.10179172280978
-0.337080891326912
-1.28192350888553
-1.54198518631037
-1.38859829909301
-1.24476949925527
-1.39172281941515
-1.92845562190887
-2.83753347653309
-4.03286987534269
-5.37508624496245
-6.64940035169912
-7.60783173419417
-8.13826035808338
-8.31102814628403
-8.11950844578024
-7.29922248653698
-5.63604723726326
-3.37651740993566
-1.06826574142168
1.01299811961957
3.08225185893103
5.43916324501068
7.88689880800545
9.56529085879885
9.49322769759481
7.47740423398271
4.45744481370447
1.81007235980101
0.342779871646271
-0.0291822854688336
0.114621923954809
0.21933960888184
0.0571805042271548
-0.241792542221017
-0.43109853496161
-0.432338939746397
-0.337241389250284
-0.217007646537641
-0.0898440272656804
-0.0266046224218254
-0.123227280228882
-0.378970562454706
-0.685605997616575
-0.899840966980614
-0.917764612542929
-0.776641561672734
-0.691059834453424
-0.900235995830588
-1.46318994444837
-2.19254574107707
-2.71106557545311
-2.61614721609283
-1.78212820268351
-0.561527832824917
0.451062363347269
0.941537293866087
1.12971379154898
1.49694245918225
2.27039679425741
3.12103162660466
3.36442591914684
2.54394559282166
0.83289160864494
-1.1431504719139
-2.74028978392547
-3.4997372274232
-3.21435933621183
-2.08677844877092
-0.730521737869961
0.197860546231864
0.397999533158567
0.0014760340431679
-0.59603510565509
-0.986494722138488
-1.02239861863214
-0.894040257154127
-0.864748927830744
-0.992255869136948
-1.18740676983061
-1.38418734823317
-1.49401150833573
-1.33870591206456
-0.802626151891181
0.0255804943275907
0.940885412842027
1.77144348758082
2.4280432272134
2.88718019579926
3.12336063902271
3.05486562784211
2.65158897849988
2.09969997282357
1.72074311826556
1.69013075362523
1.91141640202702
2.12707955635025
2.06958520469189
1.62140824627643
0.984351227421226
0.601316261599002
0.762054052841723
1.34275908950034
1.9829868073649
2.38724352700741
2.41920880384394
2.06791827482733
1.39960590006487
0.484326721551407
-0.615872625822085
-1.76081560740253
-2.72504469046592
-3.32693530811953
-3.50713876069054
-3.3076741852939
-2.88662336699888
-2.51974163923631
-2.44785644948484
-2.71377397806209
-3.19334689921986
-3.69378613517803
-3.98020590702338
-3.89260629489662
-3.55092794734566
-3.29621263784861
-3.33585006827497
-3.53313223475747
-3.52862478287503
-2.9671938811358
-1.70340650322729
0.0436051627502179
1.76911649841802
3.02240438106411
3.67090080469952
3.86103060926534
3.82715175448825
3.72896827350457
3.56322380507178
3.23426930456473
2.7606534161958
2.32421400510859
2.04678769287609
1.84262456313702
1.56925306772384
1.2003233127236
0.795556644502135
0.412199404608724
0.0602347375630785
-0.34057061470528
-0.908149960853497
-1.60998552711996
-2.19609009560861
-2.39914130678756
-2.14889934256078
-1.58842040680436
-0.989833475064139
-0.631460233791986
-0.584292248638632
-0.580305955197088
-0.20158011476795
0.766671694691276
2.16190255271964
3.52265069899394
4.35732231165963
4.51509680651998
4.31350977862422
4.17480552463309
4.20042647959705
4.22321629330225
4.10863200295332
3.79645367990956
3.18106098688432
2.17864724047184
0.883759434368037
-0.440315371764377
-1.48213887090633
-2.00522059542161
-2.0288150793534
-1.96377835770713
-2.42922537113262
-3.79490783792037
-5.84670628528762
-7.83563303117566
-8.87550335470211
-8.48811111520832
-6.93066726090715
-5.00507305073966
-3.50709364920815
-2.75636512433285
-2.4550578031017
-1.92725050089048
-0.685929117970577
1.07032488677284
2.6039242381848
3.40282045100207
3.77078927042605
4.58613233710551
6.44791792632942
8.99775920114139
11.017414373399
11.2632610125122
9.36382650352942
6.01919104624143
2.40679376690937
-0.614610566419304
-2.92707035608218
-5.00626397694953
-7.31765582469635
-9.74520778398337
-11.6460720314799
-12.4331288419519
-11.9415136613398
-10.306008980869
-7.82682185934722
-5.04710872879919
-2.67520731070008
-1.22544296462707
-0.735254063492487
-0.737689688777002
-0.418949260711404
0.947109515010646
3.40238937245928
6.19519757020522
8.4050879912185
9.54702192217914
9.55352644531017
8.56078296910153
6.9660182459954
5.42218485095966
4.430586713903
3.93423381692127
3.44672625233985
2.5958597693952
1.48840605223043
0.532261413370064
-0.0446632755911919
-0.412767620515937
-0.876328347200422
-1.52273012354435
-2.20920603184477
-2.76279736313689
-3.07946780788663
-3.13841340232644
-3.01664210050139
-2.80303697243557
-2.48496038339785
-2.03886593031772
-1.58386848057679
-1.27826518246385
-1.1084100485699
-0.926487771361623
-0.647242468547793
-0.303896015783459
0.0230003494452086
0.266615378521496
0.4532421391886
0.765022893599922
1.40971377735677
2.34676490094925
3.18737799959254
3.42550000978198
2.82378299346543
1.64000652751848
0.446453291664068
-0.3548996080254
-0.792890361087762
-1.06400654335623
-1.18961709004992
-1.08397699044778
-0.797003003900179
-0.499441951883483
-0.313435893530683
-0.269619291636531
-0.349050434549426
-0.508977092235354
-0.736944469893511
-1.06108691528603
-1.41512783339868
-1.58020493034902
-1.4193156611657
-1.09661358815351
-0.908845372317519
-0.965028929536636
-1.14452511466296
-1.28395577966443
-1.30672612486419
-1.21176809068009
-0.973207524021444
-0.477851493953385
0.34179553172547
1.31862802366132
2.15630906167274
2.746617509848
3.22280947618089
3.69223655051419
4.08900344535394
4.29956702780582
4.27792824413132
4.04375726632597
3.69267840327775
3.34837071669309
2.9720643197478
2.31104413555689
1.1886803860126
-0.21050433500095
-1.44972091857635
-2.21701679287669
-2.59860562539924
-3.02660923002692
-3.9058767696961
-5.2207163430612
-6.53273374821766
-7.35304543960657
-7.44434230492063
-6.85197036312693
-5.86689622048451
-4.97364761398724
-4.60206467041433
-4.78442343492606
-5.08723815612126
-4.90236107343094
-3.85205947987865
-2.07375384773266
-0.165737193160443
1.30743592206485
2.3223926412906
3.29115654871199
4.46814506469047
5.64070963771469
6.4065069756964
6.59154247971345
6.36770809381167
6.04733935366781
5.77011517441943
5.38315070568471
4.68143721067685
3.7291228346575
2.81766545482271
2.13856281278625
1.6529294859429
1.25982490777864
0.934317177371961
0.694858942569872
0.526643055247821
0.342005179127466
0.0300553688342592
-0.40732442320396
-0.8344755113369
-1.14180993176057
-1.294025845164
-1.19946170431926
-0.776839087731511
-0.236164132035452
-0.0399966011385117
-0.455748254521684
-1.30829022248429
-2.20531814142318
-2.81841433280268
-2.95895048050313
-2.62161007613711
-2.00935567149466
-1.39092358116118
-0.937690358772804
-0.724219376525863
-0.743729845979974
-0.859902757090673
-0.891671319379844
-0.803454428862882
-0.719714994557611
-0.772968372375036
-1.01860155198558
-1.41579623243631
-1.78254972606888
-1.83887607067613
-1.39990303068495
-0.521026896486898
0.545662334902407
1.49125366600387
2.09671010198279
2.34519075753151
2.3828075617238
2.34365312978278
2.28328864723641
2.2562592037365
2.28845073610015
2.27772876298545
2.10592924076758
1.8343872072511
1.61844770998788
1.47207768297622
1.27493759266462
0.9616770270948
0.581524167991879
0.224046285179544
-0.0407418039664932
-0.216727338174794
-0.413778431035327
-0.754049541891002
-1.24502921388592
-1.80047240157386
-2.31903811151294
-2.67851505188953
-2.77776267931815
-2.66983147560133
-2.52599575784666
-2.41181926209474
-2.22527392231326
-1.87113254314674
-1.38240838252507
-0.886139257505175
-0.518202913917879
-0.308486829972744
-0.118132292616525
0.212866721425187
0.658050513986889
1.06087887328826
1.35625949287631
1.58640442509597
1.75270802646557
1.82322244694902
1.83848402773198
1.85390521983404
1.82611098252454
1.67137630115679
1.37368118996707
0.965808027957922
0.47977484934052
-0.0483818473888145
-0.578667646614046
-1.05544378371404
-1.37372374790355
-1.44549117963863
-1.33020207750146
-1.19433769652933
-1.12806047988383
-1.10927591118506
-1.11468078695944
-1.12474922136404
-1.07235789617982
-0.943432541370355
-0.860664317956644
-0.918785568027769
-1.02378891924623
-1.0221145010128
-0.899425836406642
-0.78047505999856
-0.818690126928499
-1.06125180589844
-1.29298558135597
-1.08959089179426
-0.214229169063734
1.05594008379214
2.11356727103928
2.50630802847592
2.2125753831327
1.5591770423575
0.952768647561833
0.610598774787616
0.477095132045289
0.409583708742309
0.394356102316261
0.508288187594323
0.738445627103878
0.944227413211256
0.973122935919639
0.782543542247443
0.485375353385025
0.251212251316212
0.125403644079622
0.0283167550240394
-0.0358168509199416
0.0821801944483452
0.466301157814004
1.00711366661523
1.53382832672571
1.9404232448797
2.16918367984191
2.22651580576862
2.22485732105251
2.2742387214487
2.35807082684017
2.41741629264237
2.46000688136366
2.48983970422556
2.47153203007269
2.42929235687349
2.38600415381072
2.1589577926408
1.45850426119022
0.272321358264542
-1.04264877878172
-2.12054797485659
-2.89910047354298
-3.55098515105061
-4.2522418207945
-5.07327717459093
-5.99260750351312
-6.91316090395976
-7.64823035319387
-7.9603311525807
-7.72641058502385
-7.07341760194847
-6.22850291474189
-5.23158946531372
-3.94769183198706
-2.32190312299207
-0.393431027107988
1.89035488832649
4.55443386048307
7.24000044049179
9.22416767100703
9.91414468438438
9.25922898541959
7.7168358064191
5.9218676764323
4.34277034257672
3.12146838356193
2.17000891127293
1.36011565667759
0.572414332224643
-0.333410963174552
-1.42244287706315
-2.55376183790565
-3.45681971038959
-3.96291072656669
-4.12394053313895
-4.09159733182984
-3.88611014078703
-3.3537529616191
-2.45685981983699
-1.54567347250237
-1.15649418126485
-1.52532009393833
-2.41518560707845
-3.3490173877901
-3.85225635966836
-3.59495793200552
-2.58654991696177
-1.24805974523154
-0.10917856221946
0.578107007743305
0.881624442061546
1.02019458077081
1.27517380092098
1.87457206421735
2.78953375980479
3.72950057701658
4.38610480693915
4.60390831244044
4.38550941134991
3.88581336698597
3.34944607650926
2.92758941685394
2.59602545146151
2.28446249232423
1.96279017752004
1.57239861697632
1.03947803473115
0.408929196191261
-0.174794900863072
-0.640322945012648
-1.01949603339457
-1.32327349956342
-1.49278671487067
-1.44249126758905
-1.11562450394911
-0.573079012677289
-0.0130146522316028
0.398701608558125
0.662098534207962
0.817474690953332
0.816117201246145
0.652163615221309
0.498590779387985
0.556899924458503
0.830733979305974
1.12380042985854
1.19274783402338
0.88741552173373
0.255563382899069
-0.466191307523899
-1.04714401868286
-1.43317122232893
-1.67903913440138
-1.80836853630058
-1.826764017667
-1.79981728073146
-1.84913135002395
-2.08196688303159
-2.4856037300835
-2.85637768248087
-2.92259936048792
-2.60362551763648
-2.07897663245793
-1.58085764607382
-1.21172342522403
-0.960666416358207
-0.768768576940899
-0.556863984329088
-0.277696468561344
0.0652435120430778
0.47662202083639
0.933217349628673
1.24459680147782
1.13282157854253
0.558782736331485
-0.166286657581662
-0.677859102467745
-0.881455517856893
-0.957692050692141
-1.10798355130549
-1.29510779580033
-1.24182821042313
-0.749327784114272
0.0244763011495159
0.722749357611359
1.17621012962883
1.48788048301634
1.80468118357664
2.19259799417747
2.68334578037593
3.24900077259541
3.73904112667143
3.95450470093257
3.76654220901949
3.16579259782356
2.30467267027765
1.4623683384128
0.81972344518408
0.293438164182439
-0.292722428699593
-0.942944922285798
-1.505500001591
-1.86420283289793
-2.00775919169237
-1.98969831624642
-1.90462832527524
-1.84246154117816
-1.82499760823982
-1.82591302952757
-1.80582796877326
-1.66303942899297
-1.26141845354291
-0.615173445304194
0.0610241338447345
0.564993816282626
0.859087336748113
0.989808590894229
1.00049185418217
0.938184945058646
0.833105608752422
0.683969428658052
0.532807519043852
0.491294681574706
0.623731475332238
0.858048096711181
1.04845334897519
1.08496480703464
0.96218248127221
0.793065665572749
0.699945500377701
0.653165337799522
0.520368011287553
0.289128813570543
0.0700958561279596
-0.136063236326462
-0.464077879058625
-0.937931393512641
-1.37886906858833
-1.58938772923223
-1.51345372130003
-1.24007162981415
-0.938627136105061
-0.734476669297792
-0.585687361576403
-0.357290376617181
-0.0356869406666663
0.250166942878578
0.423467823742778
0.51935875485234
0.533267321405287
0.356152627968647
-0.0984063538872306
-0.754020497012101
-1.33783819678662
-1.51519354046762
-1.19204455510001
-0.683494785151681
-0.443610242850367
-0.624732561973177
-0.991123131149976
-1.20706213395481
-1.11090570971852
-0.776761170465887
-0.414640286128018
-0.182447824786616
-0.0493759672290485
0.130772089199281
0.436907154580262
0.835345109762855
1.24969349304007
1.56855008420669
1.65196928021188
1.44470152832711
1.04441261859367
0.619546271277249
0.32345140298442
0.254245021826855
0.372773947661554
0.48793123653312
0.432783085502162
0.218100089868896
-0.0492203892969658
-0.305751996408862
-0.517127502345758
-0.624972644972841
-0.592001890725276
-0.443691918873448
-0.23690548314226
-0.0389887208716066
0.0917921664652261
0.175175681770836
0.301827302391533
0.502299256711449
0.712465461959312
0.89779293630601
1.09004696992994
1.28886730947252
1.45184697652853
1.57757948545898
1.69911528436454
1.82062485392029
1.91520540541949
1.92026019339901
1.71050430737771
1.1884322667699
0.440698075389382
-0.300151334336578
-0.871953777837341
-1.27670664932452
-1.59626695052338
-1.92036253943572
-2.29473342871851
-2.63580809222204
-2.77239431286281
-2.64664408624785
-2.39234382926643
-2.19078471270134
-2.1343074614296
-2.19530926017899
-2.22128027772442
-2.01249090734405
-1.51175696103128
-0.880612322663274
-0.332731445581134
0.052755352676238
0.339650353220299
0.645323946509977
1.04580951860935
1.48604763847156
1.8097003495991
1.93955252706533
1.94639398384945
1.89170017580327
1.74300383970613
1.4967211876731
1.23231887596813
1.0146171371309
0.877511837851563
0.878098183152001
1.02528632930183
1.1971704872595
1.24380025298693
1.12386708176459
0.892249127115041
0.652047629359149
0.533407524280047
0.566923852757169
0.559000781371498
0.257496185370642
-0.338004311683281
-0.96274892506918
-1.36479442321838
-1.49778901156812
-1.50601814410686
-1.60107477303501
-1.87428351385177
-2.18539301973282
-2.29617200469943
-2.08934845288647
-1.61119617468108
-1.00455268624708
-0.469270399285491
-0.160899692091107
-0.0543112734257231
-0.0131629576236243
-0.0039398717174571
-0.0994074111202351
-0.288842017197379
-0.451747727863821
-0.490993897855053
-0.340430309166056
0.0865800954133299
0.78469719103149
1.53660862782677
2.02529081045422
2.06871843559323
1.76410717460309
1.44451818884074
1.40291787410208
1.58529736275517
1.66704415615065
1.47706185382444
1.18422972867754
1.02034542816395
1.01111846633693
1.04625580935311
1.03744897718702
0.933287849820725
0.699790591448362
0.317126252850089
-0.261534067585096
-1.06197001230686
-1.92132594631403
-2.5194052064093
-2.70212925901452
-2.65959295034809
-2.69577431561985
-2.90461397204244
-3.09809930602512
-2.98718735293707
-2.45137469719986
-1.66546343887679
-0.908787585872372
-0.267951211322134
0.349601781286672
0.940141752463572
1.33611443549714
1.43641422389224
1.33821683048969
1.21561070182414
1.18515175607274
1.27636561878774
1.44999047054087
1.67265481099062
1.96145428137412
2.25259145454814
2.30371752377321
1.92628600553837
1.27084720622145
0.697981575681254
0.413932882616496
0.374083584440603
0.449193635817744
0.523240743698633
0.492239737594928
0.303606536128642
-0.0144702908396498
-0.388538157144244
-0.715472778502435
-0.880894412121972
-0.861031519203306
-0.771726409475209
-0.749954867684909
-0.847364726186941
-1.04899006840909
-1.27630117601454
-1.3827609095366
-1.2910006489033
-1.11985508074853
-1.05864573090241
-1.15428291000589
-1.30288086627024
-1.38011775024813
-1.31867780650509
-1.13646432812187
-0.920737471137977
-0.710176313432172
-0.416128566430077
0.0445598651214703
0.598439192570106
1.09369716283093
1.43147866190072
1.54117452644683
1.38043956359389
1.05387571938876
0.790564647754394
0.740073714328781
0.882200090007434
1.09977346867259
1.22966868796156
1.1214566031798
0.765055417658754
0.302967418382327
-0.129444391215155
-0.487403034508739
-0.749942778823094
-0.907779429579498
-1.00929099861116
-1.08970593546852
-1.08729620059534
-0.936761133489345
-0.674245790263429
-0.369746321622835
-0.0649984756049895
0.177464338168443
0.30837425977782
0.390057967951106
0.506874324817541
0.595084709059173
0.517764220687078
0.283220573301404
0.0603035026615774
0.0049592026356813
0.148133435970085
0.398653253913234
0.601158146144774
0.645961565130764
0.541264278435387
0.341172480906642
0.0700213410377621
-0.209306701053169
-0.36767220546546
-0.353465294454068
-0.247465899389087
-0.101263700645261
0.144738501246432
0.533567078594844
0.998548631035751
1.40290320300267
1.59758709429522
1.51055640387926
1.24978822166064
1.01670135971924
0.868977752542579
0.689193810131959
0.401489703195351
0.0693778690330064
-0.221259392835212
-0.422668183802942
-0.491086269507967
-0.442495716542928
-0.414160071837839
-0.563903706487434
-0.949344845645547
-1.52574625580283
-2.15209447553534
-2.61251401354903
-2.77574344259355
-2.71443558273828
-2.56319406094154
-2.34364803776833
-2.03337605417917
-1.67804511208411
-1.30488962344352
-0.839123458512635
-0.225008634615077
0.459092119264026
1.07362628504159
1.5089177689328
1.6821428516083
1.5629317056018
1.22457851893135
0.80646944454336
0.457008136663371
0.317943342196497
0.435597634821014
0.659579327255524
0.763348505452299
0.68881036530131
0.573611961992623
0.555608555118227
0.637085115899398
0.714724951609458
0.695285127188902
0.616036763476664
0.635820897715481
0.829093693619421
1.0360001427864
1.02689939058431
0.753378920430507
0.333515998818368
-0.0984178506049879
-0.411769610308928
-0.491822866587529
-0.362668343211958
-0.193947177641018
-0.120706250432292
-0.14524211827661
-0.196900803667588
-0.179088191547447
-0.015282139261431
0.240888057906214
0.406279961582966
0.347157342564965
0.0728821586875924
-0.352005066026323
-0.829898827257357
-1.16111963353498
-1.15070951200015
-0.818371684248396
-0.35749442217445
0.0921521942882733
0.500840299577116
0.843342640254185
1.05609746367339
1.04908354085674
0.735828898307218
0.157248198332384
-0.431683675144383
-0.726300280001593
-0.626015270618455
-0.263711516507984
0.146617694903077
0.422286279207935
0.466591675426526
0.304066424945479
0.0292491363567958
-0.28271452609574
-0.560447128916733
-0.69871853851769
-0.654232752694765
-0.523065453691761
-0.421575220886111
-0.36189693341811
-0.30983500537179
-0.260831624675179
-0.210372908244585
-0.144772637451379
-0.0670178836774821
0.0413528191339736
0.223106259182773
0.430545932745869
0.506792653066467
0.375941217886136
0.160363311688019
0.0355964272492068
0.05551606076692
0.156549684013283
0.240110862497242
0.244764664083849
0.214455326105531
0.243639881809622
0.290901521352402
0.170377385956134
-0.188275737742156
-0.607371773622543
-0.862106240848797
-0.902217566020971
-0.848825333180268
-0.868474590293089
-1.04156522894608
-1.28998274455445
-1.4689649516982
-1.5346081810095
-1.5238010527049
-1.3971057701893
-1.07228426757209
-0.60886252014651
-0.17601613631646
0.165124129933556
0.484534737653042
0.814061982394025
1.10223280186524
1.29921339402814
1.38228696139061
1.35282156026881
1.26527001173422
1.20048993818988
1.20621230117549
1.31350438785844
1.55249693309564
1.88127469393598
2.16626210264376
2.29137923263092
2.22946578935587
2.00786675866722
1.70381372042161
1.44389329533236
1.2659273834681
1.01690535872544
0.541238359301068
-0.0730103500897014
-0.565182074649789
-0.755518930546114
-0.656589576830742
-0.45010621154563
-0.393417361550997
-0.60845270701267
-0.954542697496192
-1.23178953829917
-1.43600381009664
-1.65750527197481
-1.84582034983851
-1.88160956346621
-1.7930088150218
-1.70565369164787
-1.65055492350206
-1.58352090821274
-1.51925016006075
-1.49558675533413
-1.43805437687053
-1.16448694227901
-0.56716950895383
0.189279045113461
0.705277248032134
0.706594629638741
0.35492973311017
0.0653304381120709
0.0374015904081523
0.10414988271649
0.0119101957650191
-0.285434589721991
-0.600583938267801
-0.701173417986859
-0.539888828771938
-0.307425437231867
-0.203135022357796
-0.198877737356914
-0.142345207354412
-0.0196102357921968
0.0534535719854151
0.0377866423134023
-0.0002346257470427
-0.0173618862195058
-0.0333817294175731
-0.0945992089106886
-0.235436214559028
-0.401856136629565
-0.44299229706069
-0.274870845833736
0.0157222137548562
0.319085227003247
0.646053611430167
1.02683840062165
1.37379630104245
1.54136917587439
1.46657922061302
1.22851895481624
1.01877017898634
0.995687066633869
1.09473434568694
1.09031956309855
0.927412576280412
0.849652867705556
1.12270812290007
1.77446587122566
2.62072788453052
3.35575125849872
3.62612386459291
3.24399246859005
2.3758177821292
1.39141632215635
0.535591400265496
-0.165644401445785
-0.756822512976462
-1.24208185938836
-1.58679152388245
-1.75143161399684
-1.73918352125079
-1.60434489676095
-1.37918622410852
-1.06555272926768
-0.751984889384954
-0.608021010910153
-0.679019015867133
-0.816386966564947
-0.87679340625688
-0.877255974493717
-0.933313365104034
-1.14366981745349
-1.51482299000217
-1.92105685731074
-2.19407070125292
-2.29903744292162
-2.32441501894763
-2.27629303006718
-2.04111408415867
-1.60229722278594
-1.13913354296323
-0.853911365256796
-0.802246564820816
-0.877633678858476
-0.859678212665636
-0.5379307338176
0.101035673583848
0.84544375245777
1.44238694360436
1.74827781370008
1.74774693699976
1.54818871288393
1.31870875273429
1.13742957968727
0.953518616314331
0.75080163832117
0.628179157842535
0.641777614010415
0.687531949567233
0.619421006541893
0.400998940450878
0.119818376283114
-0.0697875044649444
-0.060605853574976
0.0683018923061363
0.114527806483565
0.0158730840797277
-0.0897781927163828
-0.111549360062785
-0.128668275684026
-0.215060586994396
-0.314968642535486
-0.345555313603919
-0.299963027136854
-0.226509312239699
-0.180481215235089
-0.178846448376587
-0.170842830215259
-0.111069872534781
-0.0419029382176791
0.0166831930385579
0.205470723260674
0.660487440717309
1.23676502749612
1.58950125809383
1.52196057835214
1.13103229534366
0.668429770575044
0.358448812639341
0.28078131065572
0.351829180027483
0.444849434880333
0.512873422539514
0.552808197939471
0.528118969059266
0.415714861845764
0.26411256968666
0.134108969978926
0.0495621534045803
0.0381011803956781
0.119250125634706
0.232514455531273
0.277365421156598
0.215745601006181
0.0644183324082586
-0.139980238583014
-0.310773376974191
-0.369156330967907
-0.373273267394398
-0.449414161523271
-0.588200445666847
-0.654457185988102
-0.573093408588433
-0.368444823326258
-0.0772932995349293
0.243147680354298
0.482949679163649
0.566916157706643
0.520698050037886
0.399202193280006
0.235870377252446
0.0782721004021845
-0.0392317074583886
-0.157745321323785
-0.33161837617396
-0.543521282231351
-0.756492259957053
-0.975086542908635
-1.20153766038383
-1.41420811775568
-1.60543912535496
-1.76543485760157
-1.85803888586011
-1.88132516462938
-1.89265144372054
-1.92034383997471
-1.93036064392438
-1.90495007981803
-1.8427655738374
-1.67485223768172
-1.32098955124167
-0.834654767251828
-0.364861857137541
-0.0028428662708181
0.226183696410188
0.305310097434805
0.281066700687946
0.301594720167237
0.527705677414397
1.05801610993199
1.89876137189241
2.8824855296433
3.66436194930599
3.93835695086384
3.65844308706705
3.02084685311436
2.30940359802317
1.76217407800075
1.44739951098755
1.22951382964481
0.947863567399868
0.593768248328336
0.219031207817692
-0.200757835935325
-0.653529081392735
-0.979974501889133
-1.05051747342477
-0.949062196484238
-0.863417732093604
-0.88784335694986
-0.985113799293875
-1.04456556725279
-0.959601797580294
-0.71477305493353
-0.370415199484364
0.0612051566413903
0.618795930027383
1.23218006008024
1.69364822172429
1.84864893177618
1.71214630267089
1.3898877780663
1.00505312118805
0.680681042328053
0.469931319829716
0.324962689361453
0.193893874228794
0.0723498499537912
-0.0690057000548821
-0.30489719293657
-0.692751656162508
-1.2546661254361
-1.9471834435109
-2.56550897438308
-2.80282523951687
-2.53742921895419
-1.97984048598952
-1.44856769576679
-1.09097860471609
-0.875007121671039
-0.72663908843158
-0.598149295965937
-0.475982503382714
-0.358034415611241
-0.211108901698127
-0.0125756847866284
0.163653759649432
0.228001164552358
0.235760882248799
0.310321244519399
0.425245468449213
0.42981782075951
0.275032350604875
0.0775662567291444
-0.0168695603945695
0.0529141128140965
0.231770866852166
0.37299953398108
0.363174649126482
0.238724631417562
0.0999088115686389
-0.0429655142677938
-0.215162235915692
-0.349275647229376
-0.360304863025406
-0.271143366612585
-0.150431399671362
-0.0231099102922437
0.0960985341360877
0.204023826916556
0.358860976151383
0.590216584533645
0.778646450723177
0.765113789299657
0.553273832668864
0.302124311869704
0.175363375849106
0.264210250022582
0.560067682561597
0.9383600069012
1.25682493812445
1.48183566716438
1.62363899870265
1.60732524606641
1.35523746067286
0.941187799527296
0.53303484490937
0.235917443585307
0.0596257191233486
-0.0455964165870377
-0.158639105158397
-0.30960045373084
-0.436735266172268
-0.494732263284937
-0.554005245012356
-0.707948636856134
-0.947548488817177
-1.20535085739487
-1.44468339394504
-1.63541333671297
-1.72041902511075
-1.65826649290247
-1.44474368887891
-1.10451181538428
-0.718212872949048
-0.389720621410408
-0.125164340786468
0.15939542364029
0.469270936627584
0.688098576082798
0.72805378128584
0.618804655851481
0.458290287058377
0.361731722960644
0.405440519953211
0.535588614404355
0.598588769831425
0.520263459552354
0.368012781601114
0.21463547614083
0.0752084539113295
-0.0033054846536015
0.0545169491080859
0.232190840850776
0.42169479075908
0.536190285772921
0.547526425021304
0.475736239088851
0.402847315174808
0.420843330200473
0.537151974155522
0.695536036870356
0.852396691509204
0.949435527912877
0.887023924509582
0.630509104265195
0.274860693681043
-0.0683627545021239
-0.355563918642862
-0.550926953272897
-0.63592589226498
-0.720629154103206
-0.976862488002224
-1.41266526859649
-1.84018966198586
-2.06858170741134
-2.0409343060367
-1.84212021508079
-1.64290834881687
-1.5534046161695
-1.49526109555645
-1.29921971632406
-0.908186609787463
-0.399479680171991
0.122660217445385
0.559435175838237
0.835685553856558
0.982663797639195
1.11230131839179
1.250848866378
1.30772248580729
1.23156311437649
1.06756164663467
0.863110456337986
0.643045709037648
0.453497122842181
0.332505531764392
0.276452814402062
0.2764433515429
0.329565201580838
0.428597945104222
0.604402680547106
0.904447741698563
1.24966175681811
1.41861860576827
1.26987946972775
0.892231421061586
0.483783418147793
0.188822768480202
0.0613979940140557
0.0416264838311909
-0.0327889846040981
-0.252851852333302
-0.521116308005536
-0.729674431888415
-0.9347507839213
-1.21529535366315
-1.50210225950866
-1.67407677664424
-1.68736048587233
-1.5326361371931
-1.20559614092313
-0.774478824578967
-0.376351892895567
-0.13022627120795
-0.0990216507661753
-0.276059233895358
-0.551450745959824
-0.761932289998292
-0.816649541017504
-0.721473226710685
-0.505823699150399
-0.20808560801205
0.121935184674118
0.482044915355789
0.893855167596322
1.28655721409816
1.54816145023534
1.70551753828106
1.87642846385195
2.04332318906281
2.05279258455217
1.82768091756826
1.43172043871659
0.967542505325414
0.539837810455282
0.254873908622479
0.136041746555056
0.0877396942644025
0.0045187991684382
-0.145852804995768
-0.340479308377902
-0.494660051975726
-0.483834357078388
-0.307966259532563
-0.16592332172026
-0.23722358782219
-0.474101041587965
-0.700370212907243
-0.807227733044441
-0.791912534405275
-0.712322831427526
-0.635592658388319
-0.56017383358186
-0.419435783636949
-0.217597467388079
-0.0704887362744663
-0.041325611357599
-0.0469289316305908
0.0021174061709065
0.0769888565780745
0.0887973261540273
-0.0361181081408304
-0.335521863089582
-0.749850293414086
-1.11229119931464
-1.29666425682238
-1.32062750517376
-1.25547724141962
-1.13745554410432
-0.999097175364685
-0.869727927444624
-0.71479948366671
-0.455265802392726
-0.0473060730829557
0.487503136718819
1.0423101395926
1.40959932599266
1.41054235054246
1.10450591748483
0.767703354433393
0.616595987501331
0.627079065084677
0.617631545120636
0.437257310600359
0.11056339908416
-0.168217810046638
-0.260335453765891
-0.267189853623343
-0.348796733278226
-0.434586505986931
-0.3224619407445
-0.0066909681436569
0.303312002842097
0.459058524714633
0.506661790044116
0.576237793719174
0.744998020791497
0.972965982497706
1.12618848109099
1.11631765078881
1.01031388625774
0.935453548185368
0.937584405094393
1.00675331372766
1.12150421148264
1.17240510092494
0.981363870493749
0.498151024998272
-0.123468982625702
-0.676584962135546
-1.0275296297201
-1.12683664360554
-1.03206223313916
-0.902305817055296
-0.868899888284237
-0.93014753626605
-1.00938757098612
-1.04351917137735
-0.993317285918875
-0.8687109151874
-0.756681921833176
-0.727817846604795
-0.742888271218815
-0.742245677726336
-0.746527024659955
-0.771228654827307
-0.745272674893545
-0.602990008709859
-0.370402188384485
-0.130451785686694
0.0153156432518837
-0.0126468731652351
-0.167379860339241
-0.271079638214867
-0.211516509563313
-0.0712456349702971
0.0113664032365568
0.017048913623174
0.0264578917266985
0.12887620486345
0.380377577495516
0.750756492072422
1.11539646986249
1.38480951056541
1.58760356249882
1.75704153030358
1.83600297570993
1.7526312812223
1.49211544358882
1.08861046904913
0.644006530286951
0.299636809441335
0.0858163548180796
-0.104700014999796
-0.300704201030545
-0.35644206627929
-0.183528797512656
0.0720148491614829
0.192905622502736
0.0925746131273753
-0.212505956825257
-0.673029863853299
-1.18055640359519
-1.58959203587154
-1.81007745389097
-1.83866019853874
-1.74113054597792
-1.62693736896703
-1.565866041905
-1.52406064529428
-1.43473596218159
-1.2711864771492
-0.994792289133756
-0.545452685843776
0.034659516901269
0.575634674359062
0.940772728669471
1.11393894571477
1.11948000107971
0.996463382913349
0.852842085554979
0.797280353894837
0.820482042913335
0.848362673395373
0.856878027424194
0.859176712755274
0.884868577723557
1.02008516694888
1.32069457897083
1.64517768173367
1.72776085381966
1.46388396386572
1.01681499206472
0.628182416888453
0.398509795145069
0.244967014924537
0.0275006513182458
-0.274724155626193
-0.531051159284973
-0.64214768594144
-0.670056616363507
-0.695294457474881
-0.672635333023553
-0.56304327614653
-0.463818039518411
-0.460330905229633
-0.486059424849159
-0.445407694725439
-0.346554317924561
-0.248032031126034
-0.194977226853657
-0.230049800848191
-0.367763184362855
-0.571283241028422
-0.811374469217419
-1.07175025087229
-1.24601512885672
-1.15820710013136
-0.772683064108261
-0.279343517255334
0.0950014669324123
0.273937533635492
0.315979579134136
0.313280640095179
0.321586386081351
0.342169839778853
0.381119906846953
0.491673357135094
0.677649741927781
0.823322237572151
0.839767168677179
0.796722005044848
0.783364023206203
0.74297322165265
0.572284121959332
0.273934990242407
-0.0996014794756552
-0.52878167188259
-0.95397398254322
-1.24624535259131
-1.33864150651587
-1.29081408237522
-1.19698123009075
-1.12242376864637
-1.10430258812753
-1.12280289463429
-1.11417775679302
-1.05482460231005
-0.957596965888566
-0.793742055599787
-0.531413827303526
-0.230256901479692
0.0069752861112128
0.143647325177797
0.206738790678643
0.248065636296515
0.349899009987863
0.569123492212288
0.851451128677185
1.10690865925393
1.34631380294072
1.61026092243648
1.82762694883518
1.90229024263198
1.85549009017587
1.73714548818234
1.51585685257558
1.19521226645292
0.913238270759602
0.804268832225371
0.84967610526121
0.919236857248652
0.884559299043011
0.697646124295966
0.437074321098381
0.246722319824753
0.171342086856299
0.108655211947668
-0.0544946234275019
-0.356439068038349
-0.800024447938975
-1.32693026872039
-1.76027172842564
-1.92857634886226
-1.83958382770486
-1.62425493966064
-1.36727629844116
-1.08218225228067
-0.775292105783062
-0.459941427019401
-0.155008190600347
0.112875060916558
0.328997722259159
0.472146903915787
0.472492196981201
0.285533958254804
0.0187122612853972
-0.133799765446857
-0.0901487618867271
0.0904359676939149
0.32209218340998
0.491531007137277
0.435846948733792
0.108609630091715
-0.306018380501162
-0.588568993848597
-0.693762154863129
-0.679407330010527
-0.587018339077631
-0.48290960215405
-0.469135016596848
-0.574397583681657
-0.721803685840768
-0.817286183882357
-0.805466102786929
-0.677188616142916
-0.481233212552033
-0.275486160738911
-0.0436063522452449
0.259928558134331
0.592996071940053
0.852180421701018
0.970883582346253
0.903227478697111
0.617480956563405
0.202481980421799
-0.146085724293271
-0.312731893670568
-0.313277196310099
-0.179145358029063
0.0435922966544872
0.240454057474378
0.365433060401341
0.568534955336843
1.00976787143242
1.59920614559401
2.04277003000363
2.07747172559698
1.61735080936246
0.821828425932061
0.0796084956627614
-0.250598734241292
-0.16933981351154
-0.0070000870247767
-0.0620643646418551
-0.352609085959237
-0.66748351892894
-0.770684747122846
-0.604169988239344
-0.327830456521009
-0.117123124142285
0.0295915217087516
0.19744275393065
0.358147167394878
0.397038192366181
0.272559477038148
0.0398058357029406
-0.222404973401767
-0.435918296738614
-0.557914248048045
-0.639712201476504
-0.767494333617022
-0.937897011322861
-1.06969424380038
-1.09440393586833
-0.970896381918661
-0.703687456159282
-0.402800498585045
-0.221513306822072
-0.210107992991868
-0.318186533485446
-0.496409845711872
-0.690666570437028
-0.81052648013767
-0.815417514251048
-0.760929143211355
-0.684465225453731
-0.542044391541569
-0.318562517453299
-0.0932167381314956
0.0555152403572007
0.137455190000011
0.260365918743714
0.605745139675113
1.27459789258562
2.05075006295089
2.45125460555119
2.13571113665139
1.19802210660672
0.0491127564799732
-0.873257969636214
-1.3241187126975
-1.35060353251613
-1.18331837370327
-0.961675642894974
-0.620190494298862
-0.0694433100082096
0.641120464016239
1.38402213404792
2.04527460713258
2.53551559428042
2.83631444982882
3.01018163282644
3.05596805580412
2.857040384881
2.38304856661537
1.77738705604256
1.13090621928733
0.364348087581569
-0.556313994766525
-1.4753603475224
-2.20700603988061
-2.69359570193225
-2.96187180964196
-3.03723057157778
-2.91676024132949
-2.56875824101856
-2.00115420668747
-1.35666985926683
-0.842114271218182
-0.54209938863068
-0.406753655948731
-0.389826941862455
-0.453993240345645
-0.489771860807523
-0.380123808342671
-0.103305322660901
0.30836690487615
0.810056077305722
1.28081410129825
1.53584226675712
1.4651491388873
1.1082201510154
0.626217924366304
0.266953073472169
0.253604633576058
0.571017091911179
0.915692787308998
0.952506435532694
0.57654476238041
-0.0874638611132553
-0.816147179281127
-1.39163060627816
-1.70664508712889
-1.81377273816169
-1.83595189785373
-1.86256853978301
-1.91945448664847
-1.92545154685916
-1.69642505395593
-1.1295208760198
-0.357088120621233
0.39350722126646
1.01515913975768
1.48496972302836
1.73875081581574
1.73921583152912
1.57927780015859
1.38153884602038
1.16858350389506
0.921310115456258
0.673701297589325
0.479636803874981
0.357597196958429
0.288098632660747
0.212171930218621
0.0683748110006561
-0.122635000450374
-0.267246773750054
-0.301645476044122
-0.211007314347843
0.0168900531331716
0.346361802863503
0.635696456080936
0.731111599298525
0.605183868351935
0.359764418409515
0.152002675326999
0.135813226201398
0.364342884524845
0.707183865480743
0.953986850208936
1.01304752568129
0.942172406058918
0.832223881192791
0.728951984471953
0.602137606064684
0.368131464151153
0.0393495937928484
-0.188412090194437
-0.152097551347908
0.0228453268540093
0.0463734432058506
-0.202377517456632
-0.598322798661834
-0.956134446058188
-1.16763792505624
-1.22354696051575
-1.2033631306643
-1.20058689816034
-1.22929522198343
-1.26590611878504
-1.33808430820017
-1.46741625073089
-1.60163409920632
-1.71096087982449
-1.83901022954295
-1.97197360008576
-2.01007018478445
-1.93580817445338
-1.83457629439966
-1.69779243129588
-1.38931644756023
-0.859086345635566
-0.23518494554828
0.339907249824025
0.854754983093476
1.39063902488096
2.00129591317648
2.62242321904789
3.09203056378294
3.30917351787523
3.32723766871839
3.19740020787682
2.81777935247825
2.10018150033816
1.21643488786487
0.519998761297096
0.238709914929269
0.30862620202269
0.476080657959458
0.54766642003255
0.560885511398238
0.663821935621593
0.825153629787124
0.802536359179827
0.456647119136181
-0.052190160921279
-0.45954353565446
-0.65784336870554
-0.709305091051309
-0.730905714008113
-0.799659866204849
-0.875318248336355
-0.849803264709999
-0.744251923820553
-0.737664162046671
-0.912290340355943
-1.11442784322456
-1.14569847178541
-0.957375668529813
-0.623758062269082
-0.265818763450353
-0.0100840840681035
0.104870846718712
0.169539802958323
0.25856206307256
0.305052621184803
0.209598056750044
-0.0066789065788433
-0.237834386982097
-0.405879864077786
-0.505910017365659
-0.619201548270815
-0.862167972634781
-1.23948836159681
-1.5967628248553
-1.76530709859409
-1.66797621998161
-1.291176714777
-0.708183814050283
-0.133444088157055
0.201874695013984
0.249629389327558
0.146201810336682
0.0662568671437441
0.12212882864242
0.285400805488344
0.349977457242186
0.135375633888625
-0.200949352623098
-0.231695100140463
0.269169262055431
1.05808306695155
1.66838832202969
1.79803012167807
1.4401609466492
0.780471737722637
0.066990616560225
-0.448904592934159
-0.576588068262755
-0.354721300130295
-0.163198315733095
-0.487140310010792
-1.46742625554106
-2.7730750284588
-3.94426590539307
-4.71977857364351
-4.99547714504702
-4.66161122493161
-3.61681707618536
-1.85325635299404
0.551349127946771
3.47943681554746
6.76644995832777
10.0765803692271
12.6881172964808
13.5683099328612
12.0705139456405
8.68897847141463
4.87133334167239
1.94490742317609
0.311040698380084
-0.414537756562433
-0.800281762162026
-1.23170743432711
-1.87672641713018
-2.73627178047959
-3.64657977545627
-4.30012261333609
-4.42620753035777
-4.07487963732812
-3.65305511466039
-3.56151302397616
-3.85231100400727
-4.29735172274982
-4.63652880685265
-4.66129698728855
-4.24466302557467
-3.46946354112512
-2.64219214425585
-2.01366143466018
-1.43984530416036
-0.400181968987706
1.47471519187121
3.78501715240563
5.42485233514529
5.5113131698207
4.22970351899373
2.58554226138572
1.42257558816074
0.911841089357587
0.831281510898633
0.92088697697458
0.923199022886978
0.597554730670812
-0.151560934097243
-1.21258130682419
-2.32107649027841
-3.18160064331242
-3.65151130833273
-3.8336087419725
-3.92520200602668
-4.0291578227726
-4.17538236546982
-4.3825513232852
-4.5569134067493
-4.46099413705078
