-2.39339872676698
-2.16578228518293
-2.10394612372461
-2.12842429592438
-2.14504356185047
-2.12915030577875
-2.01601146101635
-1.73415758232579
-1.35674722237561
-0.973635702538492
-0.520388341428728
0.0330039262531581
0.55057238982556
0.992482788669576
1.5031041589508
2.0962094302952
2.61111572838128
3.05408008919172
3.61757779344729
4.36060521696217
5.16923824265976
5.9052460207337
6.354080089537
6.2756569916531
5.70802103817545
4.951328646181
4.18177152255981
3.38931337982692
2.6531527030146
2.13485264926106
1.84755614129618
1.66606959924909
1.45634199093162
1.07912925778015
0.474470495798703
-0.180390063336491
-0.640546989813971
-0.939677073724262
-1.28761846060882
-1.66769005178441
-1.87456879078116
-1.89525852737661
-1.92768039347907
-2.09715378516329
-2.38252364421238
-2.68230405898199
-2.84114756978224
-2.80703292922741
-2.74106975750385
-2.7457803425969
-2.65667786133015
-2.36396373598094
-2.07233760438242
-1.98342571838355
-2.01818659953428
-2.02466668129926
-1.92956681910488
-1.62260243662283
-1.05610320115062
-0.449123708149681
-0.0633714522439977
0.140381435286631
0.390673027090783
0.823465938577309
1.42727210574913
2.02226884537184
2.28824212164973
2.08766798351564
1.66776421562325
1.30103861069306
0.938548501361183
0.448198771095861
-0.0833789329863875
-0.51639558452772
-0.864281042525991
-1.15583459512817
-1.32103535753727
-1.31114496642872
-1.12104307335861
-0.714442808611849
-0.170610040149427
0.214988357000314
0.246162885489002
0.0580889889236676
-0.179505905002701
-0.493822647007486
-0.862408252676898
-1.09543231650751
-1.12061781038472
-1.07521298106122
-1.06395190239431
-1.0731087864311
-1.05889131041526
-0.94811990481363
-0.705243164709351
-0.464606484383593
-0.370962957407429
-0.336988900115494
-0.216340041558525
-0.0406148523943551
0.175969452492416
0.559563045768438
1.04469020600602
1.29399207657279
1.16053245188634
0.860069943401734
0.608708811343817
0.46858474121729
0.504853930986707
0.722635901449688
0.952093404295029
1.07852779444747
1.21646650514609
1.4722979885188
1.77380857922276
2.05543221989293
2.33457453774328
2.5396549189911
2.56550135465225
2.5104357693788
2.55569056596018
2.67386674621759
2.73871513818212
2.76718408126725
2.80520634823088
2.79940842491865
2.75638993993235
2.7604006532392
2.75809580614243
2.60078822750261
2.26362361425088
1.78274329234093
1.1374888309887
0.405829552238518
-0.195803786386272
-0.577150991745849
-0.836882926159078
-1.04556527377994
-1.23775480048557
-1.52697851364837
-1.95568064729306
-2.38801042932323
-2.73627967947823
-3.05092537430093
-3.31791817199038
-3.50322875309995
-3.78168172587219
-4.34987157399896
-5.08031035067253
-5.67224673467292
-6.00168490685395
-6.0964732120475
-5.99443757818347
-5.80964167211146
-5.68763301845383
-5.56515010108363
-5.21981372300414
-4.60439400433874
-3.8707336471938
-3.10677901372432
-2.34933848849493
-1.7441849791353
-1.3776909650419
-1.1010891120311
-0.771549706688272
-0.451576319110406
-0.208068551082409
0.0240328403002739
0.316443533300355
0.74773572275239
1.47003160090207
2.53075976088091
3.76349960450331
5.01081174560657
6.2207972595678
7.25503121204679
7.92663051535159
8.26497540806298
8.44166141414797
8.48882697301351
8.3431365256452
8.00809857817123
7.47548939305465
6.71288601181073
5.82593721232264
4.9610043074653
4.07154484950098
3.07320172356514
2.08763661807699
1.23148910091122
0.371554919531959
-0.631245357531337
-1.64817648136427
-2.46105753347362
-3.00833247821136
-3.33501720206872
-3.5123973924683
-3.65937494406135
-3.83693176025581
-3.95023995356347
-3.94071837787614
-3.92160741912451
-3.93022619350171
-3.80358036746558
-3.48838790139883
-3.16105348605118
-2.90742168944821
-2.62205593399427
-2.27239676565489
-1.93426936392635
-1.60426334440485
-1.24153809854308
-0.863177269877066
-0.427050164854962
0.1560131099581
0.809626330430365
1.3585397833208
1.79082413189668
2.18783374663578
2.52751019599243
2.80010140671287
3.07381806814962
3.24183173460073
3.02523040789886
2.37399509004677
1.54101242758264
0.730261921902235
-0.0198753665976833
-0.705645361821911
-1.39818348475059
-2.23438315953453
-3.15276702504676
-3.88525121148656
-4.35047958883935
-4.75271733379288
-5.20078284465768
-5.56211031330416
-5.7520918383524
-5.83153037906911
-5.79114864074548
-5.54209666231741
-5.0950372858102
-4.52559565487793
-3.87733083718451
-3.22309917162779
-2.60358574273502
-1.86948182874548
-0.861165684162405
0.314023828625168
1.4561762918638
2.5496557688873
3.62112941743094
4.58760982498266
5.44267059490548
6.29233083533276
7.11221535064314
7.79060748821256
8.37920605231042
8.96176354146705
9.40888520947434
9.57923632769252
9.54469884782162
9.3649654920177
8.92605317735932
8.17240226096928
7.20353377989757
6.09817532691006
4.92358602864526
3.82289968337066
2.81714301597988
1.67962253861891
0.22033070959166
-1.49425127213474
-3.30848333487633
-5.10809627573259
-6.73317809586032
-8.0532361217817
-9.15283878562292
-10.1644411893722
-10.9692002597114
-11.349965752575
-11.3149023231544
-10.9905799659464
-10.3865510441736
-9.51321170038416
-8.51720005285774
-7.53791452177753
-6.61781890814192
-5.73973484924105
-4.75137128374882
-3.42304842186352
-1.80877962866933
-0.320477365708552
0.735319895077881
1.44796711889342
2.07728283839311
2.81850353464115
3.73415354927213
4.63740594087131
5.19062323611163
5.33691076330203
5.37886917717608
5.51373435991857
5.6777266614816
5.8981949047349
6.32512970971257
6.88167526774936
7.30763575342533
7.51848007434158
7.60200903437181
7.57993684752876
7.39598296706482
6.97084752286091
6.17487742349869
5.0054624541689
3.84199958512914
3.22781296369037
3.3396603953455
3.87288420541888
4.36162339319336
4.4045205642143
3.79407173186587
2.69328634081236
1.47946534411126
0.268952740804784
-1.11731688226182
-2.70314566813548
-4.2705980012378
-5.68899676497198
-6.93353170379084
-7.8744017898001
-8.39136087805164
-8.5570447434002
-8.4997173673774
-8.32074410003719
-8.24326576265238
-8.50849865279668
-9.0430130029878
-9.49203135251042
-9.55287773001653
-9.09809312350023
-8.15706142812377
-6.93971785277788
-5.66567726994449
-4.33395125832151
-2.90989570471561
-1.62578280730954
-0.783777042285603
-0.410197587881357
-0.336375725481078
-0.386492071640855
-0.33493910638932
-0.0042074918230099
0.458261495782235
0.712070757586939
0.690329017706402
0.615510860066458
0.579571727462626
0.495903105110209
0.4472213674869
0.714784887186349
1.48140178653688
2.72273608308655
4.22682459518538
5.58392882835389
6.44897957165638
6.90982333743526
7.30178100760577
7.70127309654738
7.91529273436606
7.82013353840857
7.42158275312759
6.80237176145538
6.21710509760892
5.95509572986892
5.98684655985826
6.02618399441863
5.92114973530978
5.69117928379594
5.31433480820413
4.7707571950358
4.12716924026745
3.40092518206088
2.57276032997159
1.77525390439722
1.17551093874488
0.737782679671063
0.389606108530774
0.233922501216379
0.313418607807967
0.411244010275562
0.329271572435227
0.108242706316702
-0.211600674593101
-0.815918152113654
-1.98170284816825
-3.86463780298717
-6.35576906761737
-8.9328907148481
-10.8025632438961
-11.4929563123189
-11.2328416565531
-10.6186503545858
-10.1299918162447
-10.0030657690459
-10.1659323975386
-10.1918479797421
-9.66162846853461
-8.59551145270555
-7.28836442125035
-5.88973066492845
-4.39538466231291
-2.81854721182255
-1.17295178135664
0.486657164240332
1.97358419279487
3.19025393954184
4.33351081257078
5.57370177138445
6.74055006353692
7.63217257589925
8.35273230884732
9.07989908645322
9.80663575826964
10.4791246034754
11.0689450987373
11.4344911740633
11.3780398120992
10.8058507670745
9.67111457461145
7.9697485023338
5.97284520740275
4.2215382519545
3.10528566439902
2.58221160137909
2.32969043832955
1.96405334301113
1.14440171686241
-0.286497767920381
-2.2399363282583
-4.53043097579964
-6.90322509430304
-8.87195610527256
-9.92744534801889
-10.0819090430748
-9.87612121464556
-9.76650563026774
-9.79089961827236
-9.74489689112889
-9.36392235835853
-8.49261685183336
-7.34473573092365
-6.39515541997546
-5.88368568129692
-5.68432168127571
-5.62239646211567
-5.54733927444558
-5.1995101832784
-4.39128465864092
-3.18478242960368
-1.65544503257235
0.209041822909746
2.19502489036786
3.86225810207895
5.00730441549668
5.76916814521394
6.28410919454994
6.58478372594955
6.71991195176155
6.65690744223362
6.21894158754779
5.31598957121486
4.04510589439924
2.50038206029443
0.756651886053341
-0.948560454909173
-2.31288404086896
-3.22391003600724
-3.66961650147858
-3.54950999947908
-2.85981767895658
-1.85377803436722
-0.752229372421705
0.447697747615107
1.70289928158757
2.81306300766586
3.71470702023687
4.56073858268373
5.46847244324343
6.44923632142322
7.49788571596155
8.5521179192137
9.53001942448251
10.4830451903335
11.4594206860981
12.2701430368779
12.7152308653258
12.8622726075062
12.6912131691158
11.6918891152222
9.27593740847941
5.46870926094798
0.95317883127888
-3.37765497793777
-6.85812377921522
-9.38666440161347
-11.3996031511416
-13.2920563708407
-14.9562142144674
-16.0433699737951
-16.4210417498446
-16.1874162939093
-15.5060458584792
-14.5740984688747
-13.5090272324279
-12.1900926513947
-10.4221290538663
-8.22076620175731
-5.71036125479443
-2.87083838073085
0.342027062341978
3.7815255632154
7.27068332396033
10.8270318943535
14.5616958494037
18.4493642408186
22.1132469645315
24.6713110801205
25.0958946916958
23.0664666601164
19.2386535320067
14.5132104138256
9.45260657798319
4.52305845243716
0.29257859856353
-2.94089770490907
-5.37719064097521
-7.43329071995084
-9.46270625783639
-11.6676956708361
-14.0271775933183
-16.3801428925997
-18.6359624290264
-20.7073351970616
-22.3288882467753
-23.2704076141969
-23.6116486943101
-23.5148997126186
-22.9212340027241
-21.6975747524096
-19.8191823917985
-17.2515270703944
-13.9613191278387
-10.1479346095376
-6.15449312643822
-2.10686782164028
2.04858158508961
6.15065317220626
9.76572753489533
12.4840290281831
14.0380885314574
14.2912530099219
13.4062072740584
11.9564872144821
10.7555500297132
10.5937074700763
11.8528448036788
14.0235845140029
15.8736636223354
16.5264835041648
16.1974841622068
15.6554628009194
15.3306788286751
15.1834803768457
15.0696327725721
14.9854393861385
15.102145044251
15.5260904390176
15.9422510553291
15.809790426434
15.0290030792294
13.9350805410268
12.5051167375151
10.1725836637013
6.63021991138509
2.3159731089839
-2.01968318067691
-5.83941425879839
-8.92781344607161
-11.3403654309067
-13.2908967342344
-14.9807941900993
-16.5782621866592
-18.2524432911716
-19.9870508057119
-21.4837728679795
-22.5397919726036
-23.3469869282692
-24.0847545542767
-24.4444568872643
-23.9355072940636
-22.4378581135256
-20.1555606802478
-17.3557199066783
-14.4391443528724
-11.9057608203963
-9.95061151403827
-8.27230701201867
-6.33749520367042
-3.70682823807077
-0.270521397942404
3.64789131413815
7.56851554968562
11.2346890928288
14.4662670925327
16.8086244641329
17.7790094456732
17.3850137633083
16.0889814501226
14.4486487294283
12.9945294756534
12.105818304643
11.7657548669415
11.6792298762506
11.6213654145373
11.3986759010003
10.7175668867079
9.50620941997553
8.11370018500626
6.84895941533668
5.6391743423981
4.41551298809004
3.45757606236374
3.06594500082597
3.16798323571451
3.43064253348478
3.54782019248167
3.34535212491019
2.77907714168208
1.82531323588305
0.348683468694479
-1.66189823959818
-3.70156695237048
-5.0307098037679
-5.39457725889449
-4.96920253425436
-3.63415672793847
-0.948644540814939
3.04402621716859
7.43669078939662
10.905185148666
12.3070383424345
11.1149587334428
7.6895458437343
3.10954329613259
-1.42768677150788
-5.09934223627888
-7.60574877840835
-9.11293044237565
-9.9819366414052
-10.4484364593837
-10.6708545648152
-10.9551755381846
-11.5938066920597
-12.5982467622539
-13.8841765870733
-15.4684704666263
-17.1964568447217
-18.6324745756185
-19.5224945017332
-20.0479916335269
-20.4573583142843
-20.7741497186266
-20.8671102626278
-20.3624469010795
-18.5225349220549
-14.7553199567408
-9.32475250393316
-3.16727151680752
2.94461537055566
8.67269056257565
13.7136585083584
17.6197437727052
20.0160401900268
20.7276565667018
19.7449845969886
17.2508994218841
13.7308465724984
10.0436721754166
7.19361377337556
5.72449167913877
5.41182433038728
5.82860780485086
6.96459160506235
8.88772137089928
11.1410820379129
13.0045567883982
14.087200363076
14.2650429438603
13.4030710841188
11.5265601980239
8.97404298250668
6.18958887796724
3.63944901553589
1.84443651660664
1.0463836279434
0.917876674108285
0.929511863908856
0.804918464825221
0.401397954247752
-0.458208778734479
-1.71768007681015
-2.95096607623155
-3.74027215307717
-4.0196258245408
-4.01176560701688
-4.05869516271598
-4.46632203420867
-5.23740845840435
-6.00950563587173
-6.4415327361891
-6.47414445285934
-6.06634897310625
-5.02112024270027
-3.28678854236665
-1.16588079694674
0.847978543170864
2.22168418391356
2.53719928979062
1.84842995573151
0.774695497542218
0.0221620809714252
-0.0817171512589802
0.355405755491257
0.866013573655284
0.849147221401429
0.103978876178235
-0.941172570553259
-1.75535919827217
-2.22535416797391
-2.53276853016622
-2.91901611312035
-3.66060687308355
-4.80713175196547
-5.9018963228962
-6.40988867761647
-6.38917292528663
-6.37540807144529
-6.72782268403129
-7.34636172901087
-7.83303977755573
-7.77571954428214
-7.09610723772076
-6.15058732307773
-5.24942919106455
-4.17000218676355
-2.43190169615922
0.0910808536910164
3.08350801624212
6.04895672151739
8.42114913258012
9.78718636309427
10.2275332846443
10.0479026525655
9.14832526399926
7.25102559728292
4.73646179783655
2.52459252965481
1.04136440056691
-0.110922481871782
-1.42604706243307
-2.88760065128723
-4.06584994010918
-4.52475638344194
-4.18726017033077
-3.42205837572283
-2.69284690644302
-2.14048919010203
-1.54467553242259
-0.480509709171782
1.52581187064056
4.60709669008758
8.15824991410064
11.1116507407189
12.7185579007017
12.9999450372569
12.6307241075972
12.4213608487024
12.4946579457846
11.9294084514421
9.76984320617619
6.45077437733416
3.62816383675926
2.4943130996592
2.74109985204898
3.14908172443482
2.66706088154915
0.986807825643743
-1.33851635213677
-3.27221848052527
-4.18378054941016
-4.38552402290739
-4.66995027015039
-5.61027206113889
-7.47452805747842
-10.4184790074851
-14.4431572821969
-19.2302271842664
-24.0072069751658
-27.5941000342024
-28.9731589412256
-28.0630681479558
-25.7287692637497
-22.9886462107943
-20.4090312479713
-18.0335997561468
-15.475635206045
-12.2620293111196
-8.46844997564494
-4.83987145554527
-2.04934197197727
-0.0504020649046928
1.78437731366939
4.15390428428077
7.33439219816354
10.8656854846865
13.9723329552045
16.6231722293242
19.825305194527
24.4905357378603
30.2389589594924
35.4998945057259
38.5653729762538
38.6219083188308
36.2473107820479
33.0033282942499
30.1758261619512
27.8273624122399
25.2482206318766
22.0752353110156
18.5553494753287
14.9275009682793
11.0641393948964
6.77060059595054
2.21429506160368
-2.0288087972299
-5.46183826280694
-8.25164838127254
-11.0926895761934
-14.4207835620713
-18.0834475035892
-21.7694451585295
-25.2609647630859
-28.2177913994798
-30.2277943245084
-31.1862476873835
-31.3214571365576
-30.8874610029504
-30.0157828679115
-28.6815301092267
-26.7447504348225
-24.32325946948
-22.0132894485572
-20.2453144639278
-18.5743719702729
-16.1801314398187
-12.9258345281553
-9.42884889775667
-6.2643039495615
-3.47016628094559
-0.625015628346823
2.79349033184736
6.8233268886237
10.6596225845925
13.2463589917238
14.3596052949701
14.7842546814445
15.3529836793989
16.1159100724143
16.459558876315
15.7609988141489
13.9705982654074
11.7614538824266
10.0459395428002
9.34707410339065
9.81552525713303
11.6073268185937
14.7355113366463
18.6364479093955
22.3245155402015
24.9743453946033
26.2013168157621
26.0095440572736
24.6740413567854
22.5231830375895
19.728710525361
16.3162565975379
12.244763859038
7.4957932729763
2.4008484778294
-2.1802462204181
-5.49606932419842
-7.70122609356105
-9.53631572483489
-11.2996819705729
-12.6148934118638
-13.1046691456657
-12.9303226564269
-12.8269735289576
-13.737908388823
-15.9756630726839
-18.530841385687
-19.6844176133735
-18.6340392649446
-16.2740487522874
-14.2439630721009
-13.4870058832246
-13.8079888388303
-14.4823586761684
-15.0567946996537
-15.6289464520572
-16.4511226000703
-17.4184120007535
-18.1533834965569
-18.4701368900619
-18.434670190675
-18.0487534298751
-17.1406490813645
-15.4513577989994
-12.7031830015745
-8.86069589478205
-4.43276161266042
-0.212627152333215
3.33403866161091
6.22664484055444
8.73697758608669
11.2794923862816
14.1763319832414
17.186357182692
19.6431028300604
21.3458576144928
22.9342407937582
25.2369765278508
28.6255552682217
32.897003501437
37.2297703892361
40.3547481915599
41.3388500711873
40.2391416900715
37.7854108581137
34.6525053412613
31.2105057611791
27.6104201200966
23.7794125460748
19.4279882084982
14.1509574759686
7.49534405598187
-0.806768485356491
-10.3355552216407
-19.8780538327011
-28.1633447885944
-34.6195885627368
-39.3067630632026
-42.441287806726
-44.2040184519154
-44.8186867204736
-44.7485618491854
-44.8333742767486
-45.8707141871952
-47.7968332159216
-49.5840629248765
-50.1070294017481
-48.8034771695878
-45.5768945478027
-40.6225783342186
-34.3782809754478
-27.1916964768462
-19.0677969066972
-10.0247874571907
-0.462619677817975
9.09069311718708
18.327157063237
27.0640577076338
34.9975702145875
41.5321676801665
45.7764925207685
47.1800866124281
46.5782366535717
46.1855058472895
48.007532739915
52.2516685007063
57.2868767031685
60.9283409542114
61.9230678499779
60.6268862821327
58.2686855239606
55.4622025920718
51.7612908072375
46.7116152624123
40.5520908627975
33.502070751822
25.1984247894392
15.4207405789409
4.70685125229701
-6.19959629533632
-16.8580163926515
-26.7473322308066
-35.037466557349
-41.1674111091198
-45.3465114609562
-48.3216793829
-50.8297287894149
-53.2862635733363
-55.8501573185616
-58.6006431636168
-61.372085662992
-63.4451561561491
-63.9598755463943
-62.8865896256194
-61.094015407855
-59.1963148914663
-56.7727258831183
-52.8863772428646
-46.9558517066382
-39.0441550399741
-29.6444034905935
-19.2468731957841
-8.10083437816942
3.32188467646301
13.7104859347864
21.3979541988112
25.6853373363856
27.3055341162861
27.5619356375779
27.4718713627565
27.6897537899741
28.5742270266423
30.0515470678068
31.8001539373037
33.7751203159093
36.3317480511601
39.7339096457112
43.6256130165595
47.0086671323275
48.8620760112653
48.9763107777011
48.1018232877646
47.1312973697704
46.1976593259052
44.4674630163846
40.5793438570481
33.629528555908
24.32536382137
14.9286567161031
7.41200379827705
1.81924144885213
-3.14843278731255
-8.38560879562942
-13.7649948559711
-18.7924081699881
-23.2509696819713
-27.3725182743901
-31.6340093446165
-36.1828686747314
-40.4529181558005
-43.6214336187963
-45.3577278549208
-45.8974353529373
-45.5658066748545
-44.4220879640202
-42.2296376860786
-38.7498293510938
-34.1968244247379
-29.1874363113154
-23.9476615217973
-17.8400244076222
-10.0992892800728
-0.850788434838466
8.93912471502882
18.2426917055304
26.345157128812
32.7769438838407
37.3237365783291
40.0347863041581
41.0955506280319
40.7001180978733
38.7683323474012
34.673871703131
27.9028564202546
19.440783134247
11.9055557685176
7.69433400592762
7.22352942541064
9.08861232921861
11.3892518381231
12.7337372301017
12.5940549750548
11.2290980291629
9.34357104248563
7.73960222979376
6.93240581754809
6.63111416906776
5.80645718925746
3.83346737249674
1.29496288798117
-1.02679503940982
-3.68465478222278
-8.34651185220748
-16.1038938216691
-26.3790393961702
-37.1987431158479
-46.1512278361797
-51.4961973431234
-53.0600076477126
-52.2372876707472
-50.9191138541451
-50.193082237477
-49.7750036182013
-48.4364147414862
-45.0666960526679
-39.5212916995182
-32.4649372672488
-24.5625819000318
-16.1646853636887
-7.65416521941828
0.414888508603709
7.62616106280249
13.9394552577882
19.6894039745723
25.3748731259705
31.1389204771426
36.4166683096685
40.4098865675568
42.8222474463378
43.8233529192653
43.5874972771551
42.3161012400242
40.4599567131832
38.550010226553
37.0253610319782
36.3318913041553
36.7610480399443
38.0449525489724
39.3998286405187
39.9234210135515
38.8092738630758
35.6422158112206
30.9214956602458
25.9326029678024
21.6749102143265
18.0529926847528
14.1612296427148
9.01433871155091
2.04841537275396
-6.51578826471061
-15.5974363522534
-23.9109965536894
-30.8783081387846
-36.7552170157354
-41.9780218733528
-46.6249470908647
-50.3639589124506
-52.7257785564595
-53.5826720475066
-53.4006122143551
-52.7884836359275
-51.854122243148
-50.2339255446696
-47.579485438238
-43.7477497811845
-38.6584420724887
-32.1602802807256
-24.0545599267843
-14.4390659903083
-4.16534768248673
5.41737489969943
13.4864127740169
20.2305544317183
26.1710082296291
31.4193888036842
35.6742256496903
38.4140313254774
39.0411054598347
37.3953370666051
34.2234149578102
30.7962695883684
28.1206408807628
26.6580984801515
26.399443681992
26.8699808607473
27.33098314434
27.2228908602528
26.3080120281714
24.5013932229999
21.9335119696191
19.1195369890335
16.6183164572087
14.3619994948131
11.4505137302025
6.64689948292135
-0.762883166735824
-10.2189964302508
-19.9798428092543
-28.3185539260837
-34.6073290747397
-39.0514155376532
-41.8422926253789
-43.0955949154024
-43.1689831900364
-42.3669440256542
-40.5307797202706
-37.3571543734695
-32.9403618066623
-27.7353681850412
-22.1449036279381
-16.2701591551966
-10.0220853134335
-3.60941338233843
2.05721482634113
5.8604461044008
7.61708538124506
8.41211482708312
9.60073821635894
11.6737570569229
14.1117868112629
16.1455692139554
17.651687323489
19.2379138403071
21.2125315988423
22.7044721837442
22.3940137735385
20.0867781350021
17.0463031292595
14.7442355053689
13.5693522241864
12.5918512360205
10.3866708097149
6.49253086258823
2.32421803779436
0.114268078187063
0.656480541608834
2.6900487108678
4.71785257849933
6.58461119925038
8.83366221677645
11.3032808918673
13.0794742461779
13.6095605984467
13.3823491337115
13.3302337274223
13.6192231816537
13.3388952513912
11.6617096098369
9.05869367848147
6.97572866868746
6.42641862069669
7.11055787865862
7.68333569597937
6.78506054712057
4.13965253085802
0.668858546572912
-2.78864921885421
-6.6327338367394
-11.8773962653669
-18.6134088206579
-25.5872601946962
-31.095499257241
-33.9937325649881
-34.2020681104166
-32.5903264401073
-30.1813028326077
-27.3368033033252
-23.8786691584431
-19.8618312387327
-15.8308034390874
-12.3479856787808
-9.66311819797583
-7.90696119844244
-7.29577778895738
-8.0000640185345
-9.91910098547783
-12.6430377079835
-15.6042407691703
-18.1638472391556
-19.4203227584216
-18.1704449585281
-13.6569496924222
-6.47729353937959
1.69280681974178
9.22548036960225
14.8780100392663
17.4031142964307
16.0274432436187
11.6609648544036
6.89613243396871
4.3440671430124
4.98963148239527
7.8598138613486
10.8990893404208
12.4448128517258
12.3972571152608
12.1126566294208
13.1681446475076
16.2074416971896
20.6120300211391
24.9433778089373
27.9080396511278
29.1698943038289
29.1662498270036
28.2695388273645
26.5234324482646
24.1128453629598
21.5968221337692
19.5911122586115
18.4669455976302
18.2440252894839
18.4619788646414
18.2648422779961
16.9149949146477
14.2021016592993
10.3340590962338
5.74439504514097
1.06966031490992
-3.09054093295422
-6.55130050940062
-9.53164962619496
-12.4303525517435
-15.7713168673596
-19.9657338177976
-24.842897410001
-29.8016471048946
-34.6148664704737
-39.5966251453446
-44.6977642197686
-48.7675003516812
-49.9827227583549
-47.0751827852964
-40.374722190868
-31.8215254838331
-23.8299292177741
-18.0877344236793
-15.3350380968154
-15.5171312139522
-17.4017059580615
-18.5682583209426
-16.8826769478904
-12.1722507402868
-6.05120377602948
-0.216439503340442
4.77040441175295
9.22045873415541
13.2429994419891
16.1682575805008
17.3031222638611
17.2975042152093
18.2066038330733
21.7074308404636
27.50459878224
33.7877039735858
38.8654954692786
42.0921696985713
43.7735851546938
44.6723158105003
45.3855364595983
46.0486010089364
46.8032190589403
48.2795326413331
51.0934640435904
54.9261245531595
58.4860120022251
60.4958613667888
60.6720798555481
59.4367348876634
56.0095124367986
46.884470736269
27.762700439172
-1.686350020285
-35.5231655453775
-65.0668572498953
-84.8049625627873
-94.906371422922
-99.0260782153879
-100.519606799836
-100.357653853065
-97.8074773588544
-92.5286932863373
-85.5990334396256
-78.57360244877
-72.2150613633852
-66.4305244067713
-60.869333061218
-55.1421757257663
-48.8146803836253
-41.6316943948953
-33.7023536192618
-25.3187770527325
-16.6472629587904
-7.59442737198346
2.15798719227024
13.0383683344483
25.4458109331836
39.4790125745629
54.2911951741546
67.5822408730271
76.5271087966117
79.9197616962279
79.0033255710941
75.7450770626218
70.9206130889996
64.3692593157259
56.2971093676458
47.4774814405948
38.5762974737696
29.9832605283434
22.2200151157005
16.0939381006797
12.2364338323138
10.3963450014853
9.36238964322291
8.00192818325878
6.36688704136691
5.31197843215353
4.97305479232196
4.03307350869255
0.641218430693314
-5.94446013059858
-14.3752466311199
-21.7923884311881
-25.7350033852771
-25.7116933703519
-22.9788170123575
-19.1249826558965
-15.0899358914193
-11.1183034353748
-7.11229538602964
-3.01639510110859
0.996123189178621
4.81131661628607
8.74155051870209
13.1636402516124
17.746480150422
21.5164855225233
23.8368595114013
24.9844819112869
25.6470914102642
26.0055758686837
25.3492395609864
22.7220436223954
18.1176727000639
12.7225248294948
7.64946743347842
2.90392867658066
-1.96691622780907
-6.88400963176727
-11.6402727154485
-16.8774958189906
-24.0257547654725
-34.3502343952035
-47.9505823148879
-63.0463936625816
-76.2872923898524
-84.6382439825343
-87.3034622499326
-85.5962520124988
-81.2571788274536
-75.3173201202251
-68.0993549661809
-59.6474853251928
-50.2469326009833
-40.6682616481744
-31.5330333368842
-22.4122048226143
-12.2262914624058
-0.92584179604211
9.61834274007986
16.8504271237639
19.7135792809722
19.6372072365109
19.4900971002576
21.5168802644631
26.1209637908491
32.4140690494908
39.4382366075638
46.4656616937334
52.5970361484926
56.9678571053014
59.4994045062744
60.9910340663944
62.3148856135504
63.580550703099
63.9484464399971
62.235415168257
57.9749791101201
52.0327623084482
46.1733161562359
42.1375196486941
41.0580835483038
43.1778254293724
47.578743557473
52.1829105026211
54.3460943238166
51.9261093718497
44.3690087165538
33.0000085055972
19.9830234097506
6.87834613381019
-5.64848826450676
-17.0870303570592
-26.7557847639868
-34.240275212305
-39.8063407977218
-44.4986298700726
-49.8607185752607
-56.8078359274253
-64.2565996020649
-69.5088854961416
-70.6809198925157
-68.3804177750844
-64.592726769936
-60.6223878825526
-56.7961076042681
-53.4404292181531
-50.9444038802852
-48.7998282770618
-45.4203976444742
-39.4663614268139
-31.3236613075975
-23.0681856391227
-16.870876549833
-13.4128924960264
-11.6532539288882
-9.78849608316307
-6.51628003788657
-1.95945833728106
2.40088581495962
5.08917903499228
6.03965133883328
6.28465394068639
6.47813499584988
6.54853823336555
6.79505895000074
8.35065867353903
12.1527549999441
17.908063331807
24.2055601628835
29.3829144685933
32.4889370698164
33.8369095420978
34.5916542936975
35.6886490425714
37.312673900876
39.3308944490626
41.7139482567051
44.3423654134038
46.7805015357934
48.5351131388607
49.4339780629962
49.5608858189165
48.6946149478453
45.839272664419
39.694113896484
29.9245211670998
17.6562330855714
4.42411553154834
-8.79188927154932
-21.1107850488635
-31.2617060502845
-38.4304225585773
-43.0804752217297
-46.2638490757274
-48.495131511233
-49.6649507472105
-49.5613217385677
-48.090987578261
-45.2928980739258
-41.4015724201322
-36.8430959113346
-32.1400168869462
-27.7074375135988
-23.5362430620922
-19.2535202574327
-14.765561117349
-10.4495679132135
-6.24733219373584
-1.06812440846949
6.14381214448418
14.8739685663728
23.0719740116907
28.7374462228814
31.3727046111671
32.0410126688002
32.1177563421479
32.0032573306906
31.146771605943
29.1619380667175
26.4145009681911
23.4153494248862
20.1778174932355
16.4810118729625
12.4691418191825
8.82442034104766
6.46696607801186
5.80869761326564
5.90702972550152
4.68696877297892
0.574481113093633
-6.11849666828338
-13.4947766349109
-19.3715558265697
-22.3600798411633
-22.4476333301565
-20.8578943744542
-18.9627553873684
-17.1981924922774
-15.1822864122999
-12.5337477481961
-9.09672875997102
-4.67298739097718
0.72074062842656
6.07287130879552
9.19664759409363
7.96261384389619
2.30515420685222
-5.01849956780028
-10.2691830284948
-11.5799181648742
-9.8187538967117
-7.02089228059801
-4.66929162817513
-3.19658603606524
-2.15677625923121
-0.69553077825561
1.6249141309111
4.39906671269698
6.89992323383342
8.57650664787957
8.76797656943829
6.67132380525498
2.28267395039786
-3.06234145364384
-7.61380456610517
-10.2946215894109
-10.6431061856465
-8.50141132435357
-4.52846283534001
-0.687537363586371
0.577620365959468
-1.93905987366852
-7.28421543961115
-13.2084866466771
-17.8931032190924
-20.6599068201618
-21.2331609760693
-19.1010715834001
-14.0105385157722
-6.6627259291108
1.3835781819935
8.26475755586484
12.4924054734367
13.9248648256883
14.2614158238281
15.9080421447261
19.985927664967
25.5353298031437
30.4040027414295
32.6382041239956
31.5175566012039
27.9299707448114
23.7111118459206
20.2333330139797
17.4990169469216
14.5453715351947
10.6107635571178
5.95913428640007
1.71209888376859
-1.13913503215461
-2.5703508181675
-3.28133490473716
-3.76633022152104
-4.00576848188707
-3.99883321254049
-4.06254950784382
-4.56275975085826
-5.81402235305297
-8.14977461052482
-11.5000898192033
-14.9125015288023
-17.0136806193277
-17.0357810687505
-15.1830181699638
-12.1331890008251
-8.41342810362582
-4.1744168876378
0.548511329075169
5.33812935554564
9.2697458360147
11.4703471312423
11.841470392206
11.2618434732323
11.1255855202331
12.4337323898515
14.955220466527
17.2157361889138
17.4109825628831
14.3716242772272
7.93946590990652
-1.16620967832574
-11.9321276831511
-23.729383735719
-36.0139502197687
-47.0788537313609
-53.9822071001592
-54.7672727611829
-50.5363148877481
-44.493892865943
-38.9334135101027
-33.6590437139306
-27.1818150279757
-18.8189930371042
-9.53869787836393
-1.18150214559463
4.90972638631175
8.63264802674511
10.9116039143978
13.1431458508284
16.6014183142603
21.5494399226016
26.7302537096047
30.4575417613415
32.462142377837
33.9719933246336
35.6908778779683
36.3882296405441
34.0198746409902
28.0280069576982
20.2056131947757
13.2465713544175
8.54025908066534
5.53178400951799
3.13521915604452
1.17464200132045
0.0771212214018379
-0.239479298536439
-0.425772838103188
-0.854169609636419
-1.24209175847411
-1.03961640740241
0.0158796824872741
1.49012746141253
2.21235119204733
0.886581522680215
-2.99005348231749
-8.71283440364357
-14.7645769001485
-19.6297662726358
-22.4311691599543
-22.9421752613346
-21.1091870338839
-16.9048946703209
-10.8789215102632
-4.42969055957671
1.04102880864144
5.12239759773213
8.21195351713288
10.6520834015759
12.4570058178145
13.6069158559763
14.175380071849
14.2530720455264
13.9736129925941
13.6282795356658
13.7073734017514
14.6123834504709
15.9930462356003
16.5720985636737
15.2925998953073
12.6917127998336
10.5162813469075
9.84237166824127
10.0141179640793
9.41172281226546
6.83239653672586
2.21919122628731
-3.48457680716215
-9.06763356388717
-13.6775764992713
-16.6718213554952
-17.1848908286024
-14.5140575500554
-9.09155796849481
-2.68570263782697
2.5277545816118
5.05406261204043
4.56852395200629
1.70138970028445
-2.85976576608867
-9.34502993997332
-18.6134274058832
-30.4174506134167
-42.2712327131447
-50.716195084119
-53.9204512853093
-52.9650510920703
-50.5857950607
-48.6075997585669
-46.5784525476363
-42.9261197003527
-37.1081406056129
-30.2205301560323
-23.8636891001974
-19.0102512624791
-15.5874004498874
-12.3383427708607
-7.22140175602408
1.30822697045897
13.0994072783974
26.2577044060144
38.0361344751745
46.0780979577936
49.6374943348908
49.8885991692102
48.7645531660306
47.5683969586604
46.8457177962901
46.9178101164181
47.7523002496567
48.5554464786524
48.1675519363853
45.9913926066027
42.4491474724767
38.6773643420108
35.770755067345
33.9899745075763
32.446460580639
29.5478823361856
23.9230066918531
15.3373656050015
5.1183086222686
-4.49053117254524
-11.9009464084685
-17.1110213686199
-20.8398677452031
-23.1989259482084
-23.8547954807337
-23.1308433624944
-22.0836254628382
-21.3828465716933
-20.5350504815875
-18.4342200540015
-14.832852919688
-11.2698546259979
-9.96703155072181
-11.3517863540002
-13.1994025437553
-12.826026099989
-9.7450065888264
-5.78148628359033
-3.23081511271323
-3.44930175166841
-6.544513623133
-11.513670206344
-16.6938002286965
-20.5849140241217
-22.6634922194984
-23.7547560989404
-25.5399961916642
-29.0755768915259
-33.5111619129657
-36.6088844571963
-36.5778015896668
-33.0871169424554
-26.7951633008948
-18.6602966409172
-9.74022830116529
-0.993051701959692
6.98765946317428
13.8328378615754
19.1140820003757
22.528455943477
24.2302950039437
24.6367864986604
24.004693712453
22.537333563995
20.9440823689391
20.5667435080042
22.439283203215
25.8796161961653
28.3017933805402
27.0497540816575
21.6052892649716
13.9143315432794
6.80487967462027
2.14313011826357
-0.213893452223767
-2.30090998527131
-6.54656935274984
-13.7838914891164
-22.5537809807544
-30.1355894564716
-34.0675125130723
-33.3160473263838
-28.9197304797006
-23.3984902340989
-18.7679760871729
-14.990130043712
-10.6282826312271
-4.84031517210362
1.55232500246377
6.8230668229021
9.9428365251177
11.3870587804035
12.344854204267
13.3022133389798
13.7435885057671
13.2038786228549
12.1385757544265
11.5968063395631
12.3642552570344
14.5009341896241
17.3589925295436
19.9850295882129
21.8502608971224
23.2501583192971
24.7731115119006
26.4731272152966
27.7473575873678
27.8345183388579
26.3312576274927
23.5417791668593
20.4195757435269
17.8035533321893
15.590431458759
12.9074554690816
9.09240989795945
4.2940630703686
-0.76671653582919
-5.39966097635016
-9.44301904839791
-13.3220924452113
-17.4547389416974
-21.4797771527061
-24.1920425733144
-24.3468297015466
-21.6401452782568
-17.0478521934645
-12.0818774576784
-7.47524150124205
-2.78971661837738
2.3197208142211
6.57057810140903
7.17800688714014
1.80549803841395
-9.22934966629102
-22.3443325082969
-32.5472266657887
-36.6645882436346
-35.2806845880237
-31.7305928576328
-29.413405600775
-29.9116954858225
-32.802717632625
-36.5498337896249
-39.9165789678901
-43.0634061722149
-46.9271456161033
-51.1010858689667
-52.8504878261436
-48.9028021752395
-38.11756873168
-22.1914426140381
-4.15361614071514
13.3665248760641
28.5926194093111
40.0997174288073
46.6919505113421
48.2146116099151
46.2838296409491
43.7296993893901
43.0733282079163
45.3348322728306
49.7990519602318
54.5814489422979
57.6817825195058
57.8807224285953
54.870713525579
49.0911786583242
41.9489877486808
35.6325827504988
31.6129074723674
29.2004463315797
26.2291875381421
21.2793739966314
14.8466326240525
8.40315348081753
2.78582950521174
-2.36976293356062
-7.89055422341424
-14.0423704660525
-20.3912336924964
-26.5853858357906
-32.7759466441535
-38.92070742349
-44.0983421290756
-47.0540766447333
-47.2772741238701
-45.3123733978542
-42.2916569787426
-39.2217342941672
-36.2438838727627
-32.464169145773
-26.8888432362766
-19.6108495629927
-11.9620331041034
-5.67483363251076
-1.77107452092793
0.410638695536184
3.1739441006392
8.59567133528622
16.2683142323585
23.3445013245758
26.9983590060971
26.6120107297532
23.8296832163753
21.003472709778
19.4532570726237
18.7620786851038
17.5525388436758
14.8050461650638
10.4402074400065
5.16975238302679
0.187911721472249
-3.45834201255625
-5.75396088541799
-7.76018376772521
-10.425103402545
-13.5238181193075
-15.8814143703142
-16.2961152872906
-14.2170759741903
-10.0703103850077
-5.12027351049157
-0.606545006935742
3.13323596102384
6.50863248146121
9.8085866662439
12.6853916067552
14.2331251134847
13.4741309274683
10.1718910235708
5.22564850314727
-0.139534715611626
-5.4430998607144
-10.6682406847282
-15.0896073148684
-17.1439847570968
-15.7729085838054
-11.6959638019024
-7.16958445073995
-4.31369347754635
-3.58540649828237
-4.04164469504791
-4.86589958008501
-5.81718007820584
-6.1235176357181
-4.25311574682674
0.282723579276235
5.53620148228783
8.3900941415026
7.19597428972975
3.05382500240939
-1.1991260910763
-3.20507643341132
-2.66964813282484
-0.974164964799585
0.699043236418242
2.58716412242875
5.56831909579431
9.52451818779209
12.922769932051
14.1128054318269
12.9449572449179
11.0112843477921
10.1870971973316
11.0092552778502
12.6465457387104
14.131177913623
15.0354989744869
15.1219030244187
14.0510288933836
11.4912271402324
7.14144325254184
0.941005066660126
-6.25604300080344
-12.5770741598976
-16.3070311124953
-17.1730543825992
-16.4399446870889
-15.9880139414025
-16.9964121649257
-18.8364511711239
-19.3622702142317
-16.9135248392915
-11.9705490996303
-6.51981027412928
-2.16899859341079
0.79637684605692
3.0682760330248
5.57888389083155
8.85574441496599
12.7532999131161
16.7745793610615
20.5205131209037
23.7244890628756
26.1428032483926
27.6082003273025
27.9158397409249
26.6461040161219
23.6763026422546
19.951917816714
16.915021145254
14.7295648232787
11.6801012677504
5.78515462878174
-3.30921274936265
-14.1690808403335
-24.8434374908689
-34.0448966823343
-41.3677867665423
-46.8048410741011
-50.3678560107901
-52.1128154274719
-52.1338268694042
-50.4394501010689
-47.1845722263229
-42.9642820990255
-38.2856527892724
-32.6601401759142
-24.7643838635701
-13.706407930177
-0.0518001521102484
14.0164703824897
25.2880455063655
31.0317154999486
30.8608196122056
27.1354521479492
23.1782560210677
21.0453454949337
20.7817212790737
21.1985548050833
21.1197082747074
20.2430799264638
19.1532372410126
18.5873107513564
18.7076916880085
18.9979245458909
18.6550954192411
17.1200627950685
14.5494667909237
11.8211077816929
9.76977893057477
8.39556040961626
7.09487472999929
5.52311086731352
3.82848899254719
2.1992871376171
0.643263490913575
-0.83604536217533
-2.1272720368446
-2.98395971386132
-2.98934653526699
-1.76255759890944
0.622172123890267
3.43289637806507
5.46269618432169
5.55120692930183
3.41171063092035
0.166769390700162
-2.35717604137735
-3.25874582356562
-3.3083109092088
-3.79270492034586
-4.76828217950208
-4.87513676565526
-3.07648475648808
-0.247552305497357
1.51735671619298
1.14874314812703
-0.436460695722711
-1.63676766819708
-1.70365664636409
-0.83994591067279
0.413463933681863
1.43475243181348
1.66330886163888
0.934517618089087
-0.473815605643075
-2.25953354951058
-4.39893749509017
-7.01815814229844
-10.1051524269053
-13.2944119434337
-15.9346507077326
-17.6492794536157
-18.7764564891429
-19.7437982909367
-20.0803139134791
-18.8217724315661
-16.0080653991045
-13.0063642943773
-11.0796198231663
-10.1385544311923
-9.02606894340164
-6.62277929016293
-2.67308550395989
2.03040132603858
6.07328063017151
8.1497247588835
7.66042818163245
5.06060443931275
1.7790353135572
-0.7558080314468
-2.43803192223068
-4.46254698986317
-7.6820752028164
-11.3500642226196
-13.6333457131411
-13.0180640099076
-9.37474859393853
-4.24270718010503
0.0642396996603719
2.31324091395769
3.41180897701707
5.28914214633931
8.83553290112235
13.2396949670348
17.1370399380595
20.0061343505565
22.4647374719121
25.4009409660283
28.8262018771956
31.6369059909429
32.6239979527108
31.5694053132606
29.202571430352
26.3523778865907
23.3870838641566
20.2774396698188
16.9841545367077
13.7783586186304
11.0718413066506
8.88561227333741
6.79579514434951
4.51634852142511
2.15624242689561
-0.150301888593618
-2.35853510950125
-4.21640008643021
-5.44398102017151
-6.31058420834293
-7.52851219239838
-9.49085985656493
-11.9325087323423
-14.2511834967577
-15.9470242926416
-17.03747137193
-18.2951200825784
-20.7464566191475
-24.5891701154159
-28.6896440272423
-31.324826744289
-31.5139450754686
-29.7453168984708
-27.386298263867
-25.2213192817112
-22.6709446653964
-18.7942712823429
-14.0021053198807
-10.2081000386151
-8.9618841893871
-9.66938904547638
-9.87609232351892
-7.28489978134941
-1.65294433326817
4.98971193764836
9.93167480890832
11.7342597718938
10.8798579631445
8.99903349881291
7.74056766121898
7.88085520643447
8.86812933144146
9.36095199774246
8.67602639125789
7.65765123094143
7.89191090061235
10.1665615766447
13.7594610901381
17.0445954502116
18.7954963169966
19.0748934912176
18.8392421768009
18.747320077438
18.6763165600335
18.2824555985972
17.4189561652051
15.9520198137673
13.7764582909972
11.1557760556447
8.6193883025769
6.45836928692209
4.58025710046502
2.75741686828088
0.788636445185132
-1.42229652329133
-3.74806388257593
-5.93325441971504
-7.85703555991868
-9.48052947763393
-10.6036397097148
-11.0608625036475
-11.1280078860208
-11.3377979783907
-11.9088309428094
-12.6456491597149
-13.2751055569569
-13.6131666949364
-13.5603704915791
-13.2024952321925
-12.8784928280127
-12.9784751579074
-13.5024828298664
-13.7055725460091
-12.4077197267002
-9.03513900642296
-4.27996142605142
0.531575310129953
4.44020283161034
6.91097174265172
7.47353177022004
6.09990241841477
3.79967184945536
2.2451204568716
2.65234500243657
4.9567104919719
7.81226367193979
9.54311459669455
9.54176796125997
8.67713138764119
8.112667730372
8.08015461966868
8.09379050708439
7.84582071001089
7.36950444381965
6.60612102902812
5.29088030000319
3.26272395204141
0.751593696328857
-1.6017700777221
-3.1103445867555
-3.61979286606193
-3.61214327725137
-3.58824181522926
-3.56747586371381
-3.27265390789962
-2.43302247140416
-0.852380047662975
1.35399935908161
3.54464523371
5.01842337086054
5.67493391415729
5.83982034419701
5.58198933733702
4.58370977065985
2.58011171410984
-0.27505791478641
-3.31465352184177
-5.58638672734836
-6.45546078926579
-6.05411671387154
-5.07237480934426
-4.33166865078057
-4.60078350213992
-6.26084847318344
-8.78722501422902
-10.9158025598427
-11.623808325913
-10.8548563388766
-9.37719062035501
-8.15897942572551
-7.70687427683138
-7.75717532760362
-7.7022669436811
-7.29733215304578
-6.62537151736734
-5.44248446181785
-3.13972103329999
0.456164376645745
4.64376717010334
8.3435507574062
10.7664358698869
11.6954861865141
11.5486451029002
11.1699055621176
11.2298087586205
11.7666156374894
12.3337542936546
12.4398786749091
11.8937499224916
10.961330375212
10.115631458106
9.46172072366429
8.60193514684997
7.19908102736994
5.38344284901056
3.50566640995288
1.80941819646253
0.39395776353063
-0.783549034544648
-1.81103384636548
-2.53462022640382
-2.63423164632604
-2.18222962662935
-1.73108668752577
-1.63868104733955
-1.7240066564303
-1.72964867699568
-1.69488622945371
-1.77615712611308
-2.05879597001292
-2.58114401980775
-3.30857039757725
-4.16817502491916
-5.2853193842345
-7.00170997631021
-9.4420208453125
-12.1713571610605
-14.4036330432012
-15.4970612322364
-15.3391716022102
-14.4260611494553
-13.4078606917182
-12.325096869689
-10.4905151984473
-7.34428676657309
-3.19473344682832
1.0544735755745
4.67114569809369
7.50668790816472
9.87336495331981
12.0424526170352
13.7884742314416
14.6081668157819
14.4072791965543
13.5918305934142
12.4311224892417
10.7994022584603
8.63167277812173
6.17024354580061
3.65237668237546
1.1178347795135
-1.37063559227697
-3.48799247456652
-4.69194387294977
-4.65286584650225
-3.82270989769934
-3.31218989470032
-3.84567788085453
-5.06565029100693
-6.13315309934097
-6.63038700034218
-6.58375361409516
-6.06985399733843
-5.20153706162615
-4.19340851430189
-3.16530636168907
-2.11503498536827
-1.12294919938877
-0.190192170649415
1.10333937552418
3.22231337261727
5.84762599085831
7.8896413884954
8.48814127237901
7.78907339827497
6.74076916512601
6.21789409387289
6.22807263619291
5.96441490295797
4.7381973087558
2.69899333602018
0.53040038145838
-1.21796827796433
-2.31216054060237
-2.76072202147885
-2.82902055957959
-2.87324527271953
-3.04725138667635
-3.3342380567604
-3.72345021257613
-4.12811366036068
-4.39191952018537
-4.61616400479652
-5.14462998569422
-6.0001010076005
-6.66684468065803
-6.58109926494387
-5.57673036791349
-3.88850862959592
-2.03043831669881
-0.580480564776116
0.230142088650922
0.697875972399172
1.30637404108499
2.31348650560336
3.66502279590346
5.06952165381186
6.14953286493221
6.77431170811624
7.21743030356242
7.76249066144098
8.28588484295678
8.45456600130706
8.12407784868954
7.35874964865693
6.35742026313392
5.49763378623617
5.10775349331063
5.08308345320119
4.99200689858679
4.54235952402676
3.74525675730987
2.78223929583105
1.872497844226
1.03165210818914
-0.123166347790029
-2.02847886793014
-4.5999127462459
-7.24416959121928
-9.33041524780772
-10.470078466719
-10.6728699882465
-10.4824280722473
-10.567799717165
-10.9594145562518
-11.07876434363
-10.6172158779454
-9.94076994647528
-9.56644565310081
-9.62572135415127
-9.84679462570611
-9.75614825655452
-8.94325258817802
-7.37798604701147
-5.45467665932798
-3.64007308870295
-2.17124521801004
-1.07103610554774
-0.215806921534965
0.651110313867573
1.78819040361618
3.35062123816301
5.47866124722009
8.25344132000424
11.415528388452
14.3386158156175
16.3310879034266
16.8129481269316
15.485856896266
12.7756603858344
9.8950191968543
8.02771301685594
7.55085698356348
8.15220823744744
9.25343166455352
10.1053623947834
9.9658274239968
8.55030233945717
6.17148368374736
3.43070492006466
0.919253959298323
-0.985090192713921
-2.27844364708084
-3.16338917034572
-3.68227111022588
-3.73628323695083
-3.37209456897653
-2.7575377865863
-2.03910943813744
-1.51817079663757
-1.76286082585133
-3.26512216989793
-6.10243723838971
-9.97395538134707
-14.2876739084224
-18.2063377348786
-21.0025747413628
-22.4940740403947
-22.9039767547375
-22.3434470387752
-20.6781794135654
-17.77005293907
-13.6752707174983
-8.90806581713646
-4.59900356973422
-1.74104463986658
0.11899575211632
2.91070864826951
8.22308290935166
15.5307713971685
22.3685305202067
26.2225597580746
26.3511871844126
23.9138375658564
20.4398062162876
16.4998785433236
12.0657887592069
7.57694660177679
3.92022006528122
1.59009289933624
0.49770878136616
0.453744885249477
1.33471811402215
2.85740389620121
4.49209178066929
5.60868179055511
5.80804958254111
5.31031254445554
4.8294723409306
4.81579248435097
5.03489834037129
5.06363728960029
4.86224789795598
4.60875295120329
4.23640385897753
3.38724106572207
1.72841632360073
-0.741219879500693
-3.59923071721032
-6.27854549917517
-8.54520604466914
-10.5556369141261
-12.4013303313585
-13.8858101574907
-14.7901860180021
-15.0554117101558
-14.7954227034873
-14.4614820437296
-14.670636504283
-15.3443316652805
-15.386889814407
-13.9286736985919
-11.7146535805216
-10.6035327539222
-11.5993665371655
-13.6580288551755
-14.4942936333606
-12.5665958322878
-8.35831213530218
-3.67863685095383
0.223700051752508
3.51953109227471
6.85274944719103
10.199286210381
12.9166809456081
14.4195749771465
14.5358380206887
13.5337472622142
12.0120055773621
10.638864397641
9.9118409074903
10.033645789597
10.7557134019997
11.394441997086
11.3630905241273
10.724392313207
9.95845597406748
9.29790576811108
8.63452384102233
7.9142034905583
7.20320600535057
6.49630098429171
5.81489679746708
5.33353700120378
5.14603312925476
5.08830609885556
4.92255389139402
4.50566244229563
3.80060953364167
2.92924775788373
2.10315559980129
1.38342615970255
0.74857914543317
0.41840367862832
0.688895869380336
1.37340941069584
1.8010620749897
1.40446129792639
0.0112280750085295
-2.33173982112839
-5.49541682045502
-9.28362045002347
-13.4110303419839
-17.3420143890573
-20.327195954312
-21.9804875146701
-22.6565153631681
-22.8867320312803
-22.6887079503928
-21.7845001487172
-20.1777119261198
-18.107812014806
-15.6219587908688
-12.463612741532
-8.30993345557379
-3.13060252525582
2.48544140666372
7.46895992884402
11.0546198201525
13.3573925880624
14.9346225735528
15.9906808994633
16.2986233425926
15.6668277823768
14.2148354184506
12.3686448527651
10.6704362374949
9.37061939416697
8.23251245146249
6.92273390250508
5.42603261205422
3.94042661884619
2.66560976432186
1.79601747318745
1.35091019928615
0.961948627862108
0.220283113813502
-0.764018049142737
-1.4637199776204
-1.48327415632263
-0.794453004113609
0.287245794647475
1.16569024121001
1.36948300043758
1.07937726376639
0.968308924959887
1.49364394894151
2.5798134580151
3.82678738723593
4.75549256658128
5.06765004559734
4.9150486779704
4.72458059935031
4.65258437955765
4.4658825915305
3.9786388107865
3.25729653707607
2.36426240141333
1.25391516122437
-0.060365050733258
-1.54707945199969
-3.3140046731136
-5.45672031477184
-7.84421775256719
-10.2097349480694
-12.2924443269445
-13.8712308555431
-14.9133363465572
-15.6560406314477
-16.3180521387602
-16.8286433761926
-16.9299563497745
-16.2870437507444
-14.4739412797071
-11.2332225305751
-6.81154420669137
-1.8047951797727
3.15344507369258
7.32555688865286
9.9503423972347
10.8712119935631
10.8079671429153
10.6802567177347
10.8834435467239
11.2619059277215
11.3783930388996
10.7863959803257
9.4326725286964
7.80644647541785
6.47599851549689
5.61484194932023
5.0976288567271
4.74689955833525
4.30254218234702
3.46412214483902
2.21195046642221
0.93707748491622
0.137934773605126
0.0520325710993245
0.491234256091668
0.921345761143866
0.892514489536234
0.491518009486831
0.115810425464196
-0.167080292532299
-0.614149511692111
-1.23496354932005
-1.73542665147112
-1.98776500110496
-2.13394336147424
-2.31945154064596
-2.62192063000336
-3.07117741872785
-3.57434695832654
-4.04573287213789
-4.61636682032284
-5.41065730324798
-6.19776844875083
-6.57987521238731
-6.39582588352205
-5.72603392479955
-4.75079829261485
-3.75834293905404
-2.97919861083495
-2.30990040557305
-1.45564900899525
-0.299559980584217
1.07035302408662
2.4897218724966
3.69158660467227
4.4479479150945
4.87092267259665
5.2325314243471
5.42206488722371
5.00519310991578
3.92316929516449
2.72684921706625
1.97466082401128
1.6903198899285
1.48931853537274
1.03199438836457
0.358913248765653
-0.126078476608948
-0.122400609104843
0.159344562491819
0.312736738689984
0.317696985417944
0.444215799542954
0.758906993468384
1.10557054281489
1.37973807702565
1.53315445619795
1.53939177913788
1.52497380787044
1.66980565870192
1.92671864052333
2.08885155165437
2.03941092542694
1.71312558337978
1.04161856826069
0.117286863485358
-0.888352199460684
-1.99569197658901
-3.18500193798319
-4.02039401596442
-4.09628305332762
-3.75036195532246
-3.77502058974288
-4.54572002790739
-5.85412283704818
-7.34873188744976
-8.70763735335758
-9.57126308177746
-9.67540401730902
-9.01091783813369
-7.72923518211003
-5.9528132181498
-3.63477454791652
-0.512950864106936
3.56271339634154
8.02714400380865
11.6263233886542
13.4182330394564
13.6148662828064
13.242967165938
13.1133827055574
13.1553701824513
12.6090558436939
10.9321349780482
8.5444104770726
6.40965313357954
4.91384040484498
3.58765311065962
1.87616004890098
-0.325144833936335
-2.79211162913827
-5.10258655839334
-6.79021490767001
-7.82613694583261
-8.74551113651159
-9.97418433750277
-11.3598941503064
-12.6018211732417
-13.7073856190468
-14.7776515559675
-15.6480760675676
-15.8431364056248
-14.7408956402146
-11.9786746983125
-7.93880284393455
-3.66395044205118
-0.12687274845137
2.37465957539256
4.29838850788704
6.58603287318676
9.95022751870905
13.8711883948527
16.4943598101053
16.1358136770095
12.9155842355495
8.6109879421175
5.11299356687962
3.27832774189417
2.8487101423707
2.9781395846775
2.93622325973526
2.52194811256574
1.86764613953757
1.12268454360268
0.497404910203458
0.233568563778864
0.287503603541967
0.38533426159101
0.479657234634742
0.719417150174592
0.966186132122764
0.831656797181778
0.208167856377426
-0.590598219047461
-1.11701009038022
-1.01491525091578
-0.242360770616099
0.7624134653384
1.43841556524887
1.65979683196671
1.65266158769291
1.52575519737968
1.2416504758072
0.841812047309306
0.386522038888935
-0.116879619038154
-0.561072467150341
-0.807094430513951
-1.00990518227905
-1.55473311958837
-2.5814555088678
-3.83106931681734
-4.94776011679631
-5.68497426770006
-5.94186982959352
-5.87709303220075
-5.82440442538825
-5.89375269354739
-5.89441436313356
-5.72840628405547
-5.49186603899066
-5.16629427300124
-4.61244072353309
-3.84244879160677
-2.96329138107733
-1.9741894969717
-0.884749813009744
0.146657071698538
0.97372039909598
1.60306487635888
2.1487917542258
2.77862716417145
3.56481161785279
4.28154846861354
4.61693198862607
4.62061300679545
4.56278164144038
4.42052437550209
4.00579033096965
3.48166690687849
3.20719996725374
3.19509129081891
3.16659287466864
2.95243790174494
2.51641418127247
1.85826744754958
1.14925647413087
0.677268846864708
0.477149768975563
0.282539044358674
-0.0619659018777978
-0.406294402208017
-0.54571120802535
-0.424094486450082
-0.117944073350337
0.189245640714016
0.32630322166928
0.340394798067891
0.393470073853767
0.467197640806132
0.462385661717288
0.472781318769446
0.605489302701541
0.712607550922189
0.626399259511341
0.410716054795924
0.141513006930908
-0.232329436152646
-0.647873865884792
-0.896392244066235
-0.898550413976089
-0.712689724463092
-0.364534842410401
0.0485567617560571
0.295602501584296
0.305051941924176
0.282876135687195
0.432704301242736
0.824556093396156
1.44270121999437
2.00860664616252
1.96126955001415
0.993619808942753
-0.582046926269551
-2.18518889551576
-3.35939622665792
-3.77930828258743
-3.40101856543441
-2.76005391187102
-2.66757139828928
-3.43572751621086
-4.64490461819225
-5.61906493002195
-5.87347845076859
-5.30064402812372
-4.25577081798946
-3.28738121382657
-2.58870227122752
-1.97956559032538
-1.45880672421692
-1.3003295110685
-1.52439848416825
-1.73004021402407
-1.55129484510863
-1.00477373541217
-0.396158598530224
-0.0174296385954119
0.150058077846976
0.409657931172166
0.908044451042797
1.46266672164915
2.03843774846539
2.97552261644895
4.39310291580333
5.78474248869626
6.55998923452819
6.65776561410672
6.4579346232492
6.41692519850302
6.76927571919278
7.25444556599594
7.30153195226899
6.75695019037551
6.11793286649404
5.81769247826926
5.67388234047208
5.23833681760276
4.29642132050202
2.87624715358565
1.12916435916852
-0.685199972052334
-2.3484788445994
-3.79957859725627
-4.92290028224568
-5.45743175398257
-5.38287655019076
-5.10660581370544
-5.00069691635422
-5.02486574019005
-4.92939902064003
-4.51298810683353
-3.68624628996605
-2.62649603941942
-1.80014103887627
-1.56677672954173
-1.8780441603675
-2.42178146270217
-2.78422141090161
-2.55444073317597
-1.71291938258868
-0.852063473437325
-0.63915246597764
-1.20204904876463
-2.23710349045619
-3.30272358685639
-3.79191783747049
-3.18776510503862
-1.67517406331986
-0.0974896615786837
0.848214153645086
1.09046592444226
0.989103689387804
1.00261029637392
1.37120230402881
1.87637388274241
2.09407243779307
1.93137549222208
1.62189486851334
1.27116392776307
0.832714116821831
0.46237294006106
0.433448724656935
0.73081073002449
1.10303047189937
1.41486590877068
1.63785752233872
1.68408401546907
1.51245069794351
1.18801740827247
0.712533608583903
0.0463438890124322
-0.710975607004458
-1.4039189920648
-1.95399297220635
-2.2500508190385
-2.19361684984671
-1.96603708388843
-1.88812107147932
-1.97489199425183
-2.00115318514585
-1.92881482466005
-1.87837995590663
-1.80497632944831
-1.51314006600076
-0.824446694084361
0.383433514646572
1.97967146133245
3.4132383770276
4.15744607893782
4.27394583719214
4.17936495132081
4.05795959114177
3.85117235860917
3.54210413119527
3.13871603645586
2.64287556891253
2.20832877903917
2.0385184959861
2.06257698339069
2.01438821378658
1.81332050152592
1.5684880811253
1.31799591223824
1.07366688400302
0.93490726004101
0.859357244588998
0.587528082272327
0.0644197367609744
-0.373952757405894
-0.434057213078063
-0.190220145961058
0.0865521526597567
0.160343917695706
-0.0359549353305454
-0.296789993263575
-0.355664766747368
-0.282523934457751
-0.358470614063073
-0.552385344126299
-0.511782229823108
-0.0546064658658632
0.652924375379425
1.29645479213491
1.55680429034534
1.25589872415003
0.489819211473617
-0.602575178868844
-2.10047264398458
-3.99827892921754
-5.89376046166665
-7.37334281685961
-8.39415586098817
-8.98021625315027
-9.00241896515415
-8.54579204856053
-7.98782148952892
-7.444399022808
-6.57500893927148
-5.11434534618991
-3.23618683281363
-1.34849372037894
0.106514714026371
0.67832742468696
0.152418545644791
-1.12419056590163
-2.30804785259379
-2.46414982263614
-1.0756189010794
1.48625037841257
4.09065211069055
5.83720870374457
6.8001532620237
7.52372117474144
8.15766563542043
8.46969756239498
8.32623303025667
7.77507271009323
6.90175486723295
5.8008251775179
4.53195410895736
3.15392270632013
1.91621625325646
1.12698988892299
0.692891641781742
0.191409459017955
-0.510117297324937
-1.16939362750032
-1.67227882586377
-2.07861728191095
-2.24440958045555
-1.91373004289087
-1.08148190718709
0.0835608378208501
1.43622535205952
2.71687730476492
3.51748095536422
3.59002852381606
2.98669082899166
1.92187626320936
0.769965815465872
0.0564782316805078
0.0668832602509513
0.534152707982863
0.966328695091039
1.09861455907199
0.845005399478657
0.163006943168044
-0.791903823025967
-1.69680240070069
-2.38674444408329
-2.89432544505705
-3.24238906123057
-3.49225840345575
-3.82086670221876
-4.28796013551987
-4.72263897610653
-4.93678398891466
-4.80259839722074
-4.22271028415516
-3.37229620204964
-2.75215902143784
-2.61348429271465
-2.60056898333977
-2.27837669895187
-1.66197380984227
-0.99251615717638
-0.378846520912874
0.21338698042801
0.962467777173939
2.10907334146917
3.53455465000932
4.63363835158904
4.90775774525277
4.40875900543812
3.43960872726012
2.23598786544103
1.0789628009974
0.275987982344437
-0.118898745538561
-0.255129054625046
-0.17153238609159
0.160793563697554
0.607106905705712
1.00367309046065
1.34359009760192
1.55922501294312
1.40425082150488
0.814961934922365
0.110132573375686
-0.326585957937109
-0.321171177026171
0.097572061137176
0.699563626022569
1.15764238546374
1.34780092384942
1.36604820056075
1.21366012742671
0.795061943139106
0.204846985421136
-0.35085900342872
-0.846131613807811
-1.35489255193655
-1.86891405257135
-2.40994694964667
-3.02028980543575
-3.50878905415424
-3.57913066016227
-3.24905895220841
-2.76915016750504
-2.23467845112387
-1.65097227029324
-1.1643511941569
-0.888954841567666
-0.755876503079818
-0.736522870012129
-0.9007672039876
-1.16216685313385
-1.31802095521718
-1.35741128835359
-1.38219937171121
-1.28721141479223
-0.869393451095824
-0.136322885237501
0.810169987703678
1.97792729975252
3.24502255753244
4.18136263044813
4.42447217753463
4.03841174963438
3.38467610664077
2.87484729539446
2.80675161756446
3.15001836278431
3.55518656626235
3.72779344461668
3.61943109241769
3.2466736951471
2.66313930393015
2.10039269748659
1.79606928783581
1.74345019188827
1.84133343837164
2.06433792039518
2.29181546406353
2.29361527165028
2.01828382837654
1.54198379099441
0.73522616439956
-0.614162369314796
-2.41840175722072
-4.3590455691509
-6.14304905560124
-7.45593095234291
-7.99322992794068
-7.76526737393488
-7.08826765960531
-6.20667514844326
-5.23054947669993
-4.39352294878514
-3.98734992783592
-4.03354200028749
-4.27425052754149
-4.40304553805806
-4.12559640868508
-3.21873710915982
-1.75650764631976
-0.107247424588085
1.34713541220158
2.27763398423867
2.37498244704833
1.6568693359697
0.652818215973979
-0.0441890458250614
-0.186204956235383
0.324130918161237
1.58795723337285
3.44297789179477
5.38594383490416
6.85624376327158
7.40788949101985
6.86914924508391
5.6935423364355
4.86476993777684
5.09640238050416
6.30004326100956
7.8617281129325
9.05389078628636
9.27367277617583
8.42406163451
7.0543088869732
5.79651846472074
4.85078148295836
4.1961809540265
3.85692672918935
3.71310805460041
3.45676525905469
2.88921168873047
1.92291192476097
0.332315381683545
-2.08018925981577
-5.13533500974657
-8.45154891898575
-11.8188800560376
-15.0997140595133
-18.0178847872726
-20.3240375449583
-21.8868286795924
-22.4922291011073
-21.9328413050582
-20.3286610758616
-17.9832665959958
-15.0362593575288
-11.5966986122362
-7.94541952182444
-4.27128763268069
-0.510820988156247
3.33128416361788
7.01891296588496
10.3119651636329
13.0405525478648
15.008520552262
16.1007980922479
16.3528955784493
15.7914692000737
14.507393866066
12.9057921323305
11.435123769036
10.0715868707799
8.50387043537226
6.729435450143
5.09387716921778
3.93495396111671
3.44987407662661
3.60328221159374
3.96731116037723
3.97952291720172
3.46923790704673
2.66362024601567
1.7658776110109
0.882336178794957
0.212590484937025
-0.116171304784526
-0.309783220911511
-0.683133402052382
-1.33155530780339
-2.21262118962549
-3.2217279135917
-4.00575933746273
-4.11610159129428
-3.55027811985623
-2.83661168719932
-2.51962816918497
-2.77638501582097
-3.42570993325939
-4.11964178133403
-4.67149027003771
-5.25104793340081
-6.06574925260087
-6.94286249094331
-7.46111972764897
-7.32755898746394
-6.48802252393871
-5.2125366910514
-4.16024387218896
-3.8457992674893
-3.91070450736049
-3.40360251075326
-1.81961407555872
0.530280646543133
2.97705556998652
4.86267603700559
5.72957296206233
5.59211645716218
4.84055549664558
3.72225721969638
2.24114344359263
0.582639215433198
-0.821879978618348
-1.69484529944342
-1.99776973428663
-1.69699707670827
-0.847406512884635
0.210975237666583
1.14061973301617
1.97577446288326
2.90572143105651
3.85608904880094
4.49042591006711
4.45857723567029
3.59897991823454
2.09047726445185
0.348245021820018
-1.34541175024506
-2.92243650647154
-4.26119989557607
-5.21035048789474
-5.83987859137589
-6.25199849555745
-6.24059432638011
-5.54937809983653
-4.32654738799871
-2.97262613766839
-1.67875726796964
-0.307355972006399
1.41904403055774
3.58094493687207
5.74556532592554
7.2853218121652
8.2424724698819
9.32773526880758
10.6985160747782
11.4012392788502
10.5295667524358
8.41276885724026
6.24436922336826
4.92719711718959
4.48791630917039
4.23480915805744
3.37333798465653
1.78893466736959
0.239186834405636
-0.449090699616775
-0.203647177276109
0.469371677607875
1.11620237699678
1.48021670434105
1.39284512210688
0.868289082515791
0.0994186739305217
-0.754731203987964
-1.5995141462336
-2.34271633000552
-3.03375835096349
-3.87405067266911
-4.91638944040558
-5.97641420780749
-6.8926991401937
-7.64891549774246
-8.34619785532944
-9.26083369990436
-10.630420970311
-12.1605823096886
-13.1740852343468
-13.4694307016968
-13.5309483278737
-13.701116742631
-13.658259449204
-12.8491110293333
-11.0003564260108
-8.18606378164621
-4.76635134597809
-1.24919800432857
1.94195590995104
4.44321461168431
5.83093761306518
6.03227775058975
5.87512400313741
6.66625592557122
8.96163738121009
11.9589180403904
14.1406566553722
14.3967187170699
12.7325090358665
10.1764498688087
7.89745899801038
6.29029409653361
5.05969255236282
4.02303222139569
3.35340457782427
3.14334842853831
3.25855491039448
3.55820451512264
3.86586860071005
3.88023751482817
3.42689470272927
2.63826332514338
1.75431355624836
0.94616417407176
0.305694020081503
-0.225483856289467
-0.797538723062403
-1.35705579252839
-1.64146486282958
-1.54607654331558
-1.18372826371382
-0.630873690956389
-0.0088857550247117
0.343825276705233
0.217481395112184
-0.152994282424551
-0.433529035815858
-0.525839921400351
-0.359238907749573
0.175467733149977
0.878690333031407
1.26200650413083
1.05620099507746
0.393284017712241
-0.457159563007101
-1.1985893789029
-1.50377148517478
-1.27391326446387
-0.790715315746211
-0.367208604991099
-0.0495514017719257
0.182100363176032
0.228349705188414
0.0109943860238482
-0.494557253222357
-1.37757226415226
-2.68025675717461
-4.2478525171602
-5.82872566482
-7.12554950139774
-7.7880891313097
-7.75461179799113
-7.51587940862603
-7.57966669306031
-7.79589692666361
-7.60461589575075
-6.7112362812128
-5.20402818829337
-3.39591259333643
-1.8369604531711
-1.0211822012992
-0.819781898682525
-0.601064605511611
-0.0140693883799483
0.699593858175891
1.09853954165096
0.909659165370277
0.171513171130584
-0.717646951990979
-1.25922431849363
-1.24485112341191
-0.679250210105699
0.555301655524108
2.5505786921802
4.95376187249437
7.0780006761248
8.40717590785659
8.78006433658257
8.29126095881345
7.29702872243623
6.30465856426679
5.59129738416049
5.07244292307099
4.59913610042788
4.16653357316117
3.89123354376936
3.99903266166168
4.65899985144486
5.65904327819865
6.49861214112266
6.87105939886531
6.76696325319369
6.22252447580163
5.37800500049493
4.61331256992337
4.21247143026809
4.07596388830739
4.01014522408481
3.95705609542027
3.7601489189371
3.13440138752933
1.98626458128318
0.357107187692149
-1.89846411168874
-4.93772743737361
-8.55333496557516
-12.3121306242474
-15.843631188463
-18.762956633804
-20.6517014982566
-21.353987000944
-21.0845298273508
-20.2170636871017
-19.1385286552267
-18.1000798284889
-16.8856099617426
-14.8174395178227
-11.418629310565
-6.94408696482338
-2.11654288618227
2.39626406118518
6.19855414278488
9.29354418416614
12.0560801546032
14.6804204786661
16.7204748161655
17.5685973569012
17.2085264974542
16.1334105129859
14.7672839386264
13.2511209015367
11.5368918564933
9.52642089456021
7.33123323858855
5.36449154885171
3.96462990845137
3.09096130610266
2.54924398488949
2.24097021479378
2.09589875309691
2.08247553574427
2.2602721156262
2.49545118534263
2.34489184819984
1.61881385362385
0.758244713482651
0.293471278521499
0.280999021759474
0.52135988439529
0.884408877849989
1.19180978272799
1.17425981114434
0.718146312716155
-0.0924183016179922
-1.16665507763366
-2.41648091153974
-3.70108558959671
-4.99130769371885
-6.42423237271005
-8.0118792582028
-9.50606154283749
-10.663003827285
-11.4048380770256
-11.7426216886842
-11.8308265166973
-11.9667958502342
-12.2453131607329
-12.421113409788
-12.275531216612
-11.7295113630623
-10.4732154457877
-7.9858040924329
-4.11062110105181
0.674993389553976
5.49408606779432
9.35875482963069
11.5822013417552
12.2708339185419
12.1567917133943
11.7955829952434
11.2456440062306
10.4610666463043
9.49773553168558
8.39187442862096
7.24884704292079
6.29952872816372
5.57773014205975
4.80128315400974
3.74981742581859
2.45687555977471
1.00801273042448
-0.471344496201774
-1.66672377976967
-2.29877957131538
-2.46290293067737
-2.49166152363631
-2.62796228604857
-3.02171318198044
-3.74789322840074
-4.58908690436762
-5.12169375866794
-5.21749086679015
-5.14442239880494
-5.10278544712932
-5.01332754652454
-4.72390233612212
-4.08668410309269
-2.96725138569367
-1.45233369912385
0.14588440509633
1.62022259578262
2.92679625146107
3.92462733063123
4.4249649706852
4.47825119476367
4.33693524698392
4.22943937394418
4.28865542886724
4.45310571653881
4.40324978069479
3.91303623581189
3.17942598422202
2.46587818361503
1.67679879896314
0.687968996887099
-0.22388758437353
-0.666337032649051
-0.546380550857561
0.0045491838247489
0.761491181923748
1.38236410850262
1.63648430470327
1.66620989295401
1.70277069650264
1.63575211699455
1.19243060283353
0.394015620828928
-0.47787759167605
-1.21817581480267
-1.76941627964618
-2.15409931657369
-2.50839183597746
-2.98008626986513
-3.51732260349811
-3.9187392476989
-3.99972283393935
-3.57580387350323
-2.54422939843201
-1.1364687785782
0.179896316350636
1.08839220847361
1.47938000639163
1.34471619523168
0.957095005885923
0.784819131072448
0.79660718068812
0.231057596696549
-1.55046962988869
-4.34018125212629
-7.42739726884475
-10.2041327021158
-12.251672145311
-13.2551426469031
-13.0270954678519
-11.526762978282
-9.01626785079192
-6.19663435510697
-3.74078247729122
-1.62091114808588
0.657315190347345
3.18973103642676
5.5117232990138
7.18173751222957
8.0588726071564
8.18569331839759
7.89961205734651
7.90573210035613
8.74197073245918
10.1862426566782
11.4226561250422
11.6678532587982
10.6113690432652
8.61944254775918
6.58763971450341
5.24654756145491
4.5899961669498
4.17609938324897
3.74238102733199
3.28669773594453
2.86946862058257
2.56454009658078
2.33332089451104
1.87989671812489
0.907086669785122
-0.517975537154664
-2.04528363004908
-3.31563255007355
-4.06204570022727
-4.2814552020525
-4.39208493402279
-4.85909410126503
-5.64363929394456
-6.30995324011084
-6.51954590136964
-6.16475746751769
-5.33316095696944
-4.39630370842255
-3.78233863662378
-3.48735228801255
-3.13600820606488
-2.53618197007604
-1.83719192009093
-1.24233294148063
-0.904071286739753
-0.957693009126111
-1.37022024888736
-1.91973567954268
-2.47821044801585
-3.03240358913062
-3.36559971486994
-3.17324887637877
-2.55947851023596
-1.9036121553551
-1.2168780872563
-0.17647788720938
1.22308469674321
2.5426057333066
3.36464201127137
3.56987832704983
3.31821140473506
2.94983946336342
2.70977497967578
2.55229205839065
2.41614907393122
2.48403770076378
2.87149772770873
3.32578389407635
3.52517056347436
3.42773268694807
3.17566028538829
2.93297886805194
2.81919386576456
2.71208772054346
2.24569344744347
1.26135076878974
0.0275025749231877
-1.1437060376347
-2.15007346682195
-2.9018941905139
-3.2893227839932
-3.39343889308066
-3.39781746358689
-3.34392586315194
-3.21644584782955
-3.08894172039913
-2.96527762817986
-2.72062774146845
-2.38353484669141
-2.1731731709564
-2.09575507252681
-1.84712751169187
-1.26205570301234
-0.559734746653384
-0.0971913910381713
-0.103274831917072
-0.508461504757229
-0.825830658218777
-0.485041921253134
0.52678562939458
1.66787526265048
2.51782171827122
3.05375509399014
3.32578592346869
3.32941309471321
3.15723249538869
2.94800496253333
2.80756292577341
2.921493954465
3.42337854442852
4.04030445406279
4.24364367635683
3.80879222295814
2.92551601112959
1.88681886942358
0.976658505237513
0.431383251455747
0.230735541715623
0.134555300537619
0.0007039377109598
-0.202886838014191
-0.585904358864556
-1.14132096441112
-1.5042580205299
-1.30511450963286
-0.641481911685828
0.107032211534417
0.761311152259111
1.39240768761705
2.10676298609251
2.99315036935885
4.07686141585171
5.21122252347076
6.18293544885069
6.83246657223414
6.85013034889069
5.72067555868546
3.20132716755112
-0.370590917724972
-4.42766854545097
-8.52120403178462
-12.2671112088954
-15.3587898106393
-17.7136016530721
-19.3414036602358
-20.1461463093631
-20.0424208244346
-19.0728477074556
-17.3146307461756
-14.9017526787391
-12.0349861907989
-8.65959081206264
-4.45407247737025
0.429410801300042
5.06805624440058
8.72084379382788
11.587034027184
14.1267182018424
16.1312925755069
16.9608793222387
16.3720072919007
14.7837868675177
12.9147305055804
11.2901456696867
10.0132248080401
9.0069246174893
8.38007648943705
8.25793518726379
8.29032223571801
7.80349390600816
6.56363313345925
4.98533332926159
3.5166785151752
2.21904036696795
0.953356308015016
-0.390811306094169
-1.78900006188523
-2.95412975070719
-3.50597818575291
-3.42135791811553
-3.06484919505967
-2.76918318947483
-2.68839358040487
-2.92588459627177
-3.45766800286041
-4.12290529663017
-4.94980432882639
-6.16744770855042
-7.68234737781474
-8.93810759731184
-9.46775149971891
-9.24192159994577
-8.47066942721879
-7.43611852665856
-6.44769571948226
-5.65850412715518
-5.02930813698687
-4.51173807885483
-3.93050712212528
-2.77274503028141
-0.656945561575313
1.98661597702345
4.1953753341665
5.40266362796214
5.71731031374044
5.46275081685759
4.87972097559063
4.17383669872061
3.48158220088826
2.80160740648542
2.08617037795235
1.28363475541544
0.33044714999067
-0.648285760999319
-1.24735197069957
-1.17521242619507
-0.553888738132901
0.375643903745365
1.50874472558032
2.67309915467769
3.59435716820063
4.21042039873022
4.657745577613
4.9448256493548
4.97500086021001
4.78223779071116
4.46431823431694
4.06248204281273
3.66183059733843
3.32459830683931
2.846017558439
1.90173510296643
0.461591629485173
-1.17195281006223
-2.60115412842716
-3.46776564818408
-3.67181240558081
-3.58010176523682
-3.65036203172602
-3.81693674811208
-3.6296870561535
-2.92488432942539
-1.97632618568043
-1.12165349286605
-0.574274960602405
-0.409425857710428
-0.446781781505689
-0.357196696325642
-0.0678478538194294
0.219317364385394
0.478151123040918
0.897238890301772
1.42472744854189
1.78091963213181
1.95595700971945
2.18998232309271
2.4372736009067
2.25753542306728
1.25641945813102
-0.530588591408808
-2.56199415288017
-4.06930367700286
-4.63395794116926
-4.47175639018111
-4.05213498564165
-3.67702459075294
-3.49826213979858
-3.52528847352615
-3.51656701616144
-3.2897989693423
-3.1196664953149
-3.36662895719947
-3.85617583762864
-4.11670156071515
-3.9991066518897
-3.582870957858
-2.75800060052919
-1.37617213226465
0.335887569894933
1.7606056609479
2.23055928761666
1.52992900203084
0.30683309157573
-0.251146279529811
0.488449517357679
1.97689349223116
3.13541657924735
3.35612501165067
2.74963704966269
1.88113657116612
1.51292139938566
2.17679085806435
3.71038867703732
5.4242957724591
6.74240661688488
7.49524723586768
7.82921508601074
8.11813697522913
8.68536840120588
9.35754711659721
9.53633890768864
8.8030631126997
7.21190363228682
5.08308070649192
2.81358765776131
0.747932571771142
-1.03510787056135
-2.67523512439379
-4.18482727114524
-5.37909167228361
-6.12357289596182
-6.38997015672558
-6.22052406483729
-5.89905422858774
-5.8716850407081
-6.22096722539996
-6.5085477260829
-6.27623766704991
-5.37537078187454
-3.85596773309131
-1.9884364326269
-0.320820378473915
0.707993342715433
1.10782446436727
1.03074316256187
0.461675402320718
-0.426401807444198
-0.977006043813542
-0.575326276544533
0.700725828927143
2.1793125893068
3.09427623572579
2.90426273521995
1.50365398631982
-0.727438017998455
-3.25592502371863
-5.7004039252387
-7.73353739078671
-9.04938448613041
-9.61870213829063
-9.65255939003769
-9.22854253980588
-8.25716877924786
-6.76424455917101
-4.91173218564413
-2.8812902358357
-0.959774681586925
0.497149051081389
1.35891280349973
1.77568393750656
2.01043756810595
2.54746385542744
4.14736579202146
7.22378402195663
11.1173704508431
14.255782032811
15.0798709043389
13.0095911797645
8.93528358624707
4.73121050761869
1.87959096700726
0.544952855417207
0.0846162387904713
0.0446381368508597
0.314062857114983
0.724570138580267
1.00676454675332
1.00111349546114
0.674464255324967
0.127426274761072
-0.334194050016796
-0.451455108407751
-0.358575207518908
-0.341439684090076
-0.334767417909681
-0.0162865486181922
0.740088002887677
1.79811509525276
2.95894131276371
4.05340783616692
5.02838108679519
5.92975249910389
6.59586758542754
6.58819598022207
5.71292352165729
4.33737628201989
2.94055297256056
1.67191399197813
0.534443429697069
-0.359577352128141
-0.898453638021143
-1.13850372904424
-1.36194339296708
-2.01769114226508
-3.30364799418715
-4.71340268330085
-5.40611638877331
-5.13382842208881
-4.46624012034356
-4.17172072263266
-4.71926171354955
-6.14663514604083
-7.98194783481267
-9.48215366690407
-10.2511162814368
-10.4094945788173
-10.0781405980948
-9.19562131177032
-8.04952586419382
-7.43485426482796
-7.90724397063375
-9.12981317106992
-10.0571437937739
-9.56574172896957
-7.15539069357408
-3.48650327405582
-0.0636874795677675
1.95785493678796
2.51193868017334
2.16671631383034
1.4407681450244
0.723302425611435
0.372564572768461
0.572779014421361
1.2070992118998
1.9542570284971
2.5711142591903
3.21129737861756
4.3213448373661
5.98031591725322
7.58235371703104
8.47527728068539
8.59625981735439
8.21965754886062
7.56155660035858
6.9179556500118
6.65207303303765
6.76859267825617
6.95422726526763
7.11756013189805
7.41129185623636
7.77227103504902
7.94574200670052
7.90698652457717
7.85063989335111
7.85823475545966
7.86065027615635
7.74365744650013
7.27461324169047
6.1911082200722
4.55829075016275
2.78258483683201
1.17392853758553
-0.260868422551996
-1.62464411615316
-2.97273645755206
-4.22511021965393
-5.06212840291488
-5.11522758177426
-4.35977334409545
-3.12176665762897
-1.77924558160156
-0.681400093592661
-0.0950083586228417
0.0876330254536018
0.304643082711397
0.722669404164846
0.973314491030511
0.64531742176654
-0.269403047616921
-1.47268500914261
-2.65515335743439
-3.81030514357492
-5.42313004737143
-8.0029690750204
-11.2380495547787
-14.0500093669717
-15.6659454806407
-16.2258888688609
-16.2804832995617
-16.1387158069285
-15.751018265339
-14.8806180303241
-13.3784229677074
-11.4693364104904
-9.64504020259655
-8.15602271581497
-6.78058667740332
-5.10042717418123
-2.75150005268399
0.461804481100162
4.24035043903181
7.65436369235955
9.82120627681553
10.7106693495995
10.9927457353151
11.2838944856632
11.7751798835091
12.2750937905157
12.3546373280664
11.6842748160411
10.3505223441324
8.71002128691932
7.05445458576425
5.56031970123911
4.30410168055008
3.18831194405172
2.14154618191124
1.38962162588958
1.15548569162344
1.2123873252655
1.18515187334136
1.11684591707263
1.29992364812405
1.76178950667538
2.25675124727132
2.53007713842564
2.44180052096357
2.12796200536001
2.0000204872614
2.20971161011339
2.2664893043695
1.60095912693116
0.344528572631185
-0.797709266088821
-1.27438592306714
-1.05967708955216
-0.544905299358969
-0.25539827882104
-0.459865739782823
-0.965268155239153
-1.45461318598359
-1.88397863258563
-2.28162885462945
-2.40850502805392
-1.96611166289516
-0.943029413716416
0.429555507754745
1.81186535854447
2.84226143972913
3.43712078524146
3.89077434446517
4.32736757090799
4.33029384005573
3.53012546655726
2.25161645113578
1.17122408132892
0.581955051022651
0.254531276467006
-0.234378726164072
-1.2004603124803
-2.68715504283122
-4.54236987435182
-6.64360806504273
-8.80850030643036
-10.5506848265677
-11.4191231898939
-11.590901209558
-11.5814272944524
-11.3177320008137
-10.0087854440288
-7.07473525773504
-2.97609147165117
0.867639978181264
2.94741693800688
2.75769064225927
1.21654864171752
-0.198638801405345
-0.782853961959497
-0.858314309751853
-0.885925583342173
-0.849055560523813
-0.525764723936046
0.0640400675732277
0.530733674260451
0.276057720305613
-0.982042015972144
-2.69497905278684
-3.84281705193031
-3.9545451589191
-3.45708246592068
-2.97573806816998
-2.59333731292736
-1.79495265412485
0.0366475636097998
2.98156512465953
6.39846978723506
9.54266751564698
12.2052796761259
14.4170497973805
15.8253463305379
15.9323267551322
14.7997559986563
13.0468518836002
11.2673897423534
9.71325315704516
8.30464577903836
6.72861734173917
4.7239772414844
2.33652074663889
-0.246124239489186
-2.94661530526757
-5.65719540995149
-8.06665963433245
-9.89490554961327
-11.148560202128
-11.9868541301497
-12.5001712145343
-12.676885618119
-12.3719706791929
-11.3092237373059
-9.32871463969665
-6.54387953441693
-3.11110190832385
0.836789648470994
4.80696590918207
7.91884347565909
9.56962829954635
9.85762655039736
9.28004978798958
8.35579878036221
7.48663830357245
6.79188015679501
6.11468770207743
5.38401236520657
4.73273374893871
4.10730809919297
3.10683816602695
1.37526600025333
-1.09022776283998
-3.96701077928652
-6.62858974658602
-8.30471139662442
-8.63116192442687
-8.01300345624171
-7.28203359031659
-7.09785899405742
-7.62398162659346
-8.50273702972359
-9.17450081998217
-9.38134794069455
-9.18174650617743
-8.4394740529041
-6.7741124958815
-4.21786972503731
-1.46563184514291
0.763333796924378
2.25125221286799
3.07603782362281
3.34377329598972
3.26365071306491
3.07593249360145
2.78822282924187
2.2743764611923
1.61904660653097
1.1381143709008
1.14751479848943
1.78709805729741
2.8591721990607
3.87429577781914
4.53932540225578
5.07516792299157
5.78437280280556
6.56967595462854
7.16945874032591
7.55115050715267
7.80195646227233
7.92163719725706
7.89328866425679
7.71982509888276
7.37385675597634
6.90330296714234
6.45800383615729
6.11398078802467
5.97079366079249
6.4009231671733
7.64164751047857
9.07030562636999
9.46682257161028
8.13175973345987
5.35674336002448
1.84132824106846
-1.92323736385425
-5.69440625062481
-9.25269548503825
-12.2650967191906
-14.3780068508558
-15.5291235133423
-16.075205531807
-16.3892251367093
-16.4495150448531
-16.0999313955327
-15.5143693881974
-15.0460340777912
-14.8069260844577
-14.6867165293235
-14.5376190989617
-14.1282464958994
-13.1991351805556
-11.6767141547632
-9.59247202479031
-6.90587364759724
-3.73500974135779
-0.579570848785122
1.99748644942053
3.73916018532524
4.66503626381905
5.06231318249707
5.57027821194575
6.80006382808202
8.73286435733299
10.7533957585699
12.1915190373812
12.6337461680722
11.9957285549806
10.5852029661572
8.95588442604896
7.66343831962055
7.26262931795739
8.17317820181659
10.1427709102484
12.1732897045911
13.4019798758298
13.7929835286243
13.7201631862872
13.3010250198947
12.4565713212122
11.2461452824893
9.83072897724157
8.33178323732466
6.82305274197405
5.23085374395876
3.34371451573889
1.22561086434897
-0.586482289702863
-1.61989542125434
-1.95979996006624
-1.99932753777785
-2.04447820894602
-2.30721708570336
-2.89437352847695
-3.67340874561203
-4.41692049612025
-5.07471187023563
-5.75182579304206
-6.5829981154442
-7.71500273925333
-9.16345533035132
-10.6755873550553
-11.9841272007868
-13.0513743620319
-13.7904635090717
-13.8715011073152
-13.2059750631608
-12.3229083859421
-11.8655991877013
-11.9014977630642
-11.9592560888518
-11.6090905319538
-10.9222009393433
-10.3931611078866
-10.308257726176
-10.2481734399131
-9.52564709809401
-8.04663460564336
-6.2679391037695
-4.3254111081418
-1.79865458768916
1.52991230074757
5.21745346055585
8.63823831801557
11.4913980914486
13.690262505711
15.0658230089022
15.3186256395705
14.2473947721665
12.1574573767178
9.95468405979259
8.48717991431949
7.8280568830976
7.45995384883699
6.93128924618694
6.0498232239732
4.82079450121018
3.58641371728623
2.91090157079904
3.01566301293294
3.55599689186515
4.05683997591342
4.32151540467499
4.45602729844
4.73194576397605
5.2903128484135
5.85436531531442
6.02079507230351
5.85848968949631
5.7897062134126
5.90984108948493
5.90928160564344
5.58506802564688
4.9497178183409
3.95786327566525
2.59593913525453
1.18024725951366
0.197631028261648
-0.201180630287349
-0.476159397273699
-1.5393828672131
-4.20583465345675
-8.44872981638114
-13.1431648272128
-16.7921080341974
-18.5319480430802
-18.4060644855212
-17.0298845403934
-15.2409298569105
-13.7016360238271
-12.5076371418708
-11.3370623539637
-10.0135704306319
-8.68465005136918
-7.53765373534445
-6.60907013707754
-5.77763352127976
-4.82714721246611
-3.70850784619595
-2.71393625132952
-2.07439389095501
-1.47232976493096
-0.299250497273991
1.75225860807197
4.61560112697621
8.02853904105976
11.4806182208439
14.3732892752452
16.5362347154921
18.2773213653867
19.7863909122521
20.7919813095046
20.8247863383398
19.5927911562634
17.2422962531777
14.4588120222355
12.0735480829953
10.3554152603797
8.89536151121498
7.2922354950009
5.69774504959277
4.59354150177672
4.18782184489682
3.9543919492456
2.67251182399333
-0.670377404575808
-5.67748217994545
-10.6114744721655
-13.971140261768
-15.651816568642
-16.4440310069887
-16.9572011529318
-17.2403485305303
-16.9992593435798
-16.0082837488492
-14.5184742825607
-13.1803524297225
-12.4220631915445
-12.1238332939205
-11.9418993647521
-11.5909642751551
-10.8369496963649
-9.70528008533036
-8.74409651904004
-8.65796783337334
-9.56303399479803
-10.7257589088242
-10.9776590970529
-9.47601678285156
-6.37917798684012
-2.71237097110177
0.736856396980713
4.17086190717016
8.03125864555528
11.7673179842845
13.9279543745695
13.5420063481618
11.1735643879555
8.59764471482888
7.42936880443676
7.86930295042861
8.74813297337967
8.940388065398
8.59304140786318
8.72209642630951
9.86560602255205
11.5522667441516
12.926675604616
13.5184664792636
13.471919437146
13.2382928085411
13.0715851295592
12.9182660429381
12.7930911390993
12.8607123824186
12.9674529386039
12.5337880941954
11.1456540623176
8.91760385317604
6.23569858586086
3.5454385370151
1.31630966446996
-0.245580839045761
-1.37719657018439
-2.34998349356286
-3.12674247271852
-3.66234626585147
-4.17880298891802
-4.91871349612858
-5.93930801272967
-7.20758373513369
-8.59258760215506
-9.82333763562785
-10.6848337773022
-11.0986565019314
-10.9725882842288
-10.4043322561573
-10.0989500792483
-10.9863401457149
-13.1812327666238
-15.7503345382577
-17.6319301845637
-18.4088523852449
-18.2455374381097
-17.5748109941531
-16.8260011005792
-16.0660131415459
-14.989494736295
-13.4641261606756
-11.7909434351667
-10.2419690347719
-8.67927205623674
-6.78615274617669
-4.44984774717109
-1.90977340256282
0.363830819035597
2.11447089982483
3.66323595650087
5.55773308639066
7.93190666756554
10.5346461617125
13.1376336642619
15.479983011671
17.1469053840216
17.9978785892904
18.4114241218614
18.7455283485492
18.8871290327779
18.4945463195207
17.2599084911126
14.9397445482281
11.6913977440097
8.40181986614781
6.17937984400545
5.44746103626567
5.77069368891514
6.4266936982155
6.91533058179766
7.1010595492916
7.12113811347248
7.09700076077389
6.86940260893088
6.12993069269412
4.78122907922561
3.02852667074251
1.22706297746134
-0.263198399304725
-1.3356996822304
-2.38406976170522
-4.00102365021806
-6.34365946842591
-9.0350913038307
-11.5866956615608
-13.6223947580865
-14.9065111348314
-15.4857054966138
-15.6014657291582
-15.291313084172
-14.4078014904875
-13.1330722434497
-12.058003348783
-11.6232906619389
-11.7563363686786
-12.0223262321166
-11.9194071641576
-11.2039647628054
-10.1100877943573
-9.04893839918165
-8.04831443746461
-6.72588021079492
-4.73709130589362
-2.06314378089677
0.868079600029475
3.16910138923621
4.06427951637022
3.76984585874739
3.40745416253849
3.82555560436716
4.91980220625987
6.28475768930284
8.04220410435689
10.6969650825546
14.4251737597269
18.7210802752314
22.685792521493
25.6987923597447
27.8388353704761
29.5031445100305
30.745938257184
31.3015263878868
30.9018688323609
28.9471959166176
24.2771091779909
16.2462506242271
6.01209569587689
-3.94214356479424
-11.6353147562834
-16.705097340498
-20.0402736406592
-22.7068357826018
-25.1079690461369
-26.9784269308671
-28.0781080565678
-28.5792539199776
-28.6885751595611
-28.3670921313895
-27.6231853033277
-26.6079930802204
-25.2764811759581
-23.4281860955355
-21.1338506173172
-18.6589692316907
-15.9694216235742
-12.6871819256636
-8.48958148762765
-3.34692271969928
2.47554668702538
8.52986869153264
14.4821441992003
20.2609370240042
25.6342350518037
29.8222182032101
32.035562716814
32.3177652715758
31.3535184755324
29.5115318626539
26.537926541352
22.1492816396081
16.5916651781435
10.6418334170282
5.18314638885405
0.708284513565349
-2.75000272853587
-5.24045765822849
-6.80642913318675
-7.84833339769047
-9.0315859108308
-10.5712941552205
-12.016670834956
-12.9137752433145
-13.328391672635
-13.662518639769
-14.2506662333653
-15.0641610650468
-15.5958477354763
-15.2523627488722
-14.041713388118
-12.6204050587866
-11.5835013078656
-10.9304907157529
-10.0916452335891
-8.20804771884411
-4.68044008008003
0.192902043630984
5.3472889268595
9.91665268107543
13.7748169007925
17.0480143155084
19.5385974009101
20.8211659428481
20.6161891599925
18.9693200250059
16.2214652063508
12.6968453369662
8.30894136803872
2.83047067245257
-3.24225672157746
-8.55326294961302
-11.8988329696236
-13.0292031865112
-12.3826875149157
-10.5251106974456
-7.9614341025775
-5.08090001920485
-2.13310246363424
0.664975453651893
3.14068556244559
5.29472683698427
7.13834776266825
8.46951042154033
9.16330088634082
9.51997521116834
9.91082986934911
10.272471065953
10.3029324269869
9.87881982748655
8.99981164544884
7.68917566248775
6.19509464091115
4.93383372801572
4.03897878090434
3.18646683336336
1.8826245654507
-0.204292463773337
-3.01779237872146
-6.0523354208023
-8.70006089252386
-10.7323317798456
-12.2531606876508
-13.2868173854301
-13.7800819673009
-13.9169392645414
-13.9823675983523
-13.9351097600627
-13.454874139986
-12.3141339643635
-10.4892049335358
-8.19587133649093
-6.01922416893457
-4.61082330973783
-4.03497188636389
-3.73198878607093
-3.18872386522515
-2.34523668534415
-1.43638765799011
-0.764579726890354
-0.507629520671809
-0.49028253450034
-0.24941406570728
0.599104666716157
2.19788388615018
4.49919272202882
7.16505519065684
9.57402320028993
11.25000316705
12.1839405114227
12.6522285085785
13.0104393922061
13.6267791104017
14.4813546559051
14.7354505242878
13.209670799555
9.53389194428818
4.63911873856953
0.0465297554711152
-3.28653212941036
-5.55027395995719
-7.64662634739851
-10.1543090848102
-12.7936357104591
-14.9673765271838
-16.4929307877461
-17.4385622535133
-17.5685209917804
-16.5577223240765
-14.6447410612924
-12.5382889017906
-10.657089960692
-8.72218676282395
-6.03359792556799
-2.09456334084668
2.83150715151797
7.76742947346365
11.7632026759365
14.4945097455786
16.1475300767825
17.1126484353428
17.8785083185763
18.7891916655825
19.7778713603649
20.620933900864
21.336010012708
21.9782747928223
22.2535409419403
21.6899241051713
19.9687604071234
16.8761519694902
12.3053363210614
6.56546391629194
0.452375111312829
-5.06503111619704
-9.13616456005034
-11.3405831021808
-12.0995620367981
-12.5651352423269
-13.7222403356458
-15.6102087766078
-17.4621492882851
-18.4119736974835
-18.0865876348821
-16.8230845658083
-15.3772945068351
-14.23263633454
-13.2452741427485
-12.0774625743109
-10.6996418283173
-9.26496304813869
-7.83716389947454
-6.4770577843618
-5.30459327099222
-4.36499043442036
-3.67729027129931
-3.29441391969992
-3.00130963777831
-2.20713486897645
-0.55128995521731
1.53315484425688
3.10325495378876
3.41786233898903
2.38636361719697
0.618079778392764
-0.992936496055001
-1.97658581105617
-2.50669119060173
-2.85983043781484
-2.95542549628261
-2.46630466111266
-1.04853013297341
1.41732222922483
4.4222271704313
6.95709488156193
8.52423201835674
9.68691403094868
11.1869579348124
12.9598724243654
14.4497074382807
15.3585825038746
15.5071336131443
14.378659239759
11.5337189026908
7.47430554916888
3.6411659750904
1.37456483957627
0.936356316245588
1.55812503901499
2.39459709550099
3.29147005344841
4.49138357594391
5.82269226914606
6.5854611453241
6.18967873670287
4.61792731613401
2.37146080545349
0.152162798610159
-1.62334910739337
-3.12667453728862
-4.71037899697687
-6.28763312486525
-7.50027183852302
-8.31753279134598
-8.9753618474324
-9.51356164081042
-9.81970328308691
-9.85712848270566
-9.45800423716364
-8.26956745747061
-6.29968460534429
-4.15128124859636
-2.37968183922295
-0.913312300657183
0.62977871580558
2.20579600463747
3.09250905680653
2.48200122082187
0.458098078859051
-1.76258768017577
-2.8560257208649
-2.52744870674683
-1.34173477703651
0.255120484615751
2.16308423199075
4.04696768816246
5.22957294608259
5.32373949321252
4.60326370309107
3.67179995878581
2.9273536380854
2.25820995959986
1.17509132270517
-0.607429338050754
-2.73621375983728
-4.51213024088587
-5.46884125492194
-5.56514738943278
-5.15106805519772
-4.88791476968948
-5.28795042621222
-6.18331635671999
-7.02550014498805
-7.72784928803857
-8.76568892585683
-10.4072499031079
-12.1981518592031
-13.2314970529452
-12.8053495331085
-10.9654536629007
-8.41941806235769
-5.72441740869378
-2.78336704149333
0.517409088729065
3.58052523999325
5.59237583664663
6.49514316614673
7.00664791433955
7.92308716077932
9.7207466600626
12.4843036642156
15.7832944982453
18.6996518843374
20.2041057910991
19.6386173390524
17.1374372455587
13.7940038173394
11.0696086313513
9.64494493819868
9.02045898178122
8.36572264485117
7.37388389899715
6.20653196928714
5.1363747178558
4.41598364694344
4.11101693933417
3.99501434566836
3.83901834521283
3.68122739186563
3.62801698671095
3.57494634906136
3.22010152059162
2.21056195832927
0.410562349010002
-1.76947986078887
-3.58319139837399
-4.71103728873268
-5.47415903517148
-6.1842249653779
-6.81818840353912
-7.46257850637927
-8.45536443598408
-9.85864437569835
-11.2193188994638
-11.9811670110278
-11.9493314545748
-11.5103119065225
-11.5416065988575
-12.7713278100165
-15.031260412347
-17.3980254667178
-19.0721566676326
-19.7627144223112
-19.3234005838408
-17.5982419733174
-14.7455133207235
-11.3121592824427
-7.89344707103867
-4.90638732859782
-2.53877686040797
-0.674970732605085
0.976187916455676
2.56586852334701
4.09755730376574
5.65184795661082
7.30780066695559
8.92839292481325
10.2623591817209
11.1224163124604
11.4098797009167
11.2958143669676
11.3855763526126
12.2411988217654
13.6515965609286
14.7155058855164
14.6771076738425
13.5185159759334
11.8819772910882
10.5068920153901
9.52564391734382
8.36028149594824
6.56865539111953
4.50258880382344
2.72055012864808
1.17177786916363
-0.461661767511832
-1.98189637453485
-2.84821297545384
-2.94494429781248
-2.75650326335576
-2.89760938771348
-3.66143691932179
-4.83616371711507
-5.84611318252606
-6.28225905796304
-6.37030519835047
-6.74930087288424
-7.79143551754061
-9.24393294355762
-10.4067106317622
-10.5680317558896
-9.47053583753265
-7.45077256754306
-5.0402186273506
-2.58159800349919
-0.336794747826104
1.4481883731835
2.87457237515238
4.39263340928528
6.21566813203206
8.09702016151096
9.82021874147483
11.5362854212016
13.5898277322567
16.3039079346567
19.7051425259689
23.0669588900906
25.0549759755079
24.8390275207996
22.9124650846877
20.5244989984161
18.430115879172
16.2290620568885
12.7307749923322
7.09225032541807
-0.121947602378877
-7.10805026553851
-12.2384139903671
-15.2611476519805
-17.1845992966672
-19.2647054925701
-22.0637677513863
-25.1361359970873
-27.4848323121222
-28.4151884643141
-27.9473641726278
-26.4834316961064
-24.4256690611105
-22.2153841485569
-20.3052807753711
-18.8385944985878
-17.6116601166722
-16.3918278355345
-14.9874256766048
-13.1723496165657
-10.9623324397416
-8.77937778930749
-6.96270421295941
-5.34930299479696
-3.59747563967314
-1.56677167392711
0.85910335016391
3.95163259135811
7.90259510099834
12.5759421538679
17.4504442669342
21.6662867843048
24.4057010692618
25.4651596825198
25.2109923084713
23.9385958975413
21.7011848567367
18.7576174425774
15.6418895297734
12.6776877991737
9.76733801625756
6.68859422625753
3.43352482826836
0.349686238502117
-2.01006824038669
-3.37687978676143
-4.09491695705259
-4.75104325860011
-5.57664754109629
-6.433228184959
-7.15680829514396
-7.61018112126845
-7.66633942532319
-7.47838999379936
-7.48948030171275
-7.87801683901382
-8.24582966029816
-8.01807389514652
-6.91254051658124
-5.05537798931063
-2.95231975254581
-1.23602508331687
-0.138866861788545
0.685359959607876
1.71875416883419
3.18591377534842
5.05408523067517
7.05786720169868
8.79063720074024
10.1123904139718
11.3074942432185
12.5301273568837
13.3391441500596
13.087835939997
11.6079281521476
9.42325687246065
7.50278408032409
6.71071560664312
7.20963684241914
8.50332716708559
10.1450309320789
12.0070819034411
13.7232448631463
14.4214193278132
13.3738997718523
10.6697991465856
7.11826891483912
3.71134202267727
1.15597599502364
-0.368512321209594
-1.04792328936906
-0.996346847711198
-0.239507396135147
0.842344408876133
1.61906749188341
1.9394191353545
2.06813512519022
1.60672735897782
-0.726957951649959
-5.64257733423163
-12.0436070098709
-17.799452364843
-21.6528320562809
-24.0724022563314
-26.243407771818
-28.5567483433399
-30.4484495172684
-31.5737396169215
-32.4688072817554
-33.8042104403082
-35.5099227153299
-36.8835684503578
-37.0786408696423
-35.3803772870385
-31.6504337579038
-26.7378411782228
-21.974510897703
-18.1055733218683
-14.9398920175324
-11.8495817965915
-8.29539718655095
-4.109548533618
0.475782638772285
5.27502480816037
10.5745903906298
16.6579440260812
22.9944071959394
28.5296382451341
32.765138928916
35.8773814578013
37.8005167132221
38.0585573679328
36.7539798363364
34.9718621079989
33.7183058850501
32.8189000004819
31.3170849823322
28.9277912337949
26.7034837069079
25.8951617407234
26.300713036599
26.326434813082
24.8085222667857
22.2198270106899
19.8882318168583
18.5375523615317
17.7808722632221
16.5869180920761
14.0430409715861
9.93769295838404
4.74121580988255
-0.929194082224357
-6.61028605507564
-11.8606189613712
-16.2864090013378
-19.7206843992221
-22.0400925640257
-22.9844495031723
-22.5537022686314
-21.3381774901703
-20.1151940039418
-19.4253330822416
-19.7085664477338
-21.2446608337212
-23.5539697457671
-25.3366727304629
-25.4978051288598
-24.1027040970245
-22.1537949644371
-20.5910645339553
-19.5294519432531
-18.2293233028473
-15.7927807894372
-12.0683454872151
-7.84862761272794
-4.16077664426733
-1.58298258517653
-0.241215971425889
-0.0665026450027876
-0.838430808050784
-2.08501997482472
-3.02483784675476
-2.8102401005073
-1.21290050609862
0.94581174733314
2.46664785776165
2.91811208959171
2.8378984200114
2.95843457979435
3.58351451023854
4.5432756442894
5.43682725713965
6.05219794782238
6.64341528213143
7.54533682569339
8.59100415918123
9.30475779844208
9.54007472188784
9.49732215725165
9.28219512785416
8.85908666826846
8.30582180469245
7.83288714493105
7.6409115500025
7.79921282446463
8.08274649099844
8.02674346626221
7.43239680396201
6.69450300704608
6.31657951141918
6.272856843454
6.18961440247019
5.96433388897788
5.84425801339961
5.99951424210027
6.22749448818597
6.02773683017923
5.06749972723976
3.76293496752528
3.13029662528179
3.73516742850972
5.02479480415326
5.88802825279276
5.52615128683692
3.70898070467061
0.730469226231482
-2.6674792577842
-5.69183689876328
-7.96002946640448
-9.48354529368646
-10.4376808619036
-11.0967060082797
-11.6102309283588
-11.6520451959167
-10.6742210380854
-8.67346718039865
-6.45870089347923
-5.17386795420247
-5.62464839132867
-7.63713456663243
-9.7951708402249
-10.2750206959865
-8.32217858855238
-4.68687966288661
-0.590125184852443
3.2949497083537
6.8316446895916
10.0000180629572
12.7996284269338
15.3031120431614
17.5184457234871
19.0720045768538
18.9989241991227
16.255838732638
11.0849473830848
5.69444656306741
2.66882733544947
2.48345974144231
3.17297502518245
2.4647099466876
-0.300774945497252
-4.17282711094555
-7.764967379827
-10.3158225780868
-12.018074535601
-13.5863676027906
-15.6642212968522
-18.6346235136869
-22.5095742070632
-26.5921935933087
-29.5877757170765
-30.4889539772685
-29.2406900961543
-26.5245470274241
-23.2634130905435
-20.1945922990814
-17.2625894131321
-13.4046472921748
-7.53562160135861
0.0956983991424574
7.78556621150336
13.6177272804266
16.8150358004666
18.1061320176664
18.8604047784051
19.7715720429513
20.4922601934543
20.576951819677
20.2840858837662
20.0680986696098
19.7410709596047
18.7299870039654
16.9220439816771
14.7515057479058
12.6121635584796
10.5475053505514
8.41456972157143
6.19947094120418
4.25265687584105
3.10339588078435
2.87790470690512
3.12652278296916
3.38589134566941
3.62321334820553
4.05124586457026
4.86490323466845
6.15224425731677
7.66350259262451
8.73395033853492
8.81754556408375
7.98543844056766
6.61036419602795
4.78486183936487
2.35338882533211
-0.636094914177305
-3.73303027272281
-6.389478371885
-8.59434671679248
-11.1401768406723
-14.826284018214
-19.3230735592824
-23.3023836886973
-25.7610023200025
-26.7422350815699
-26.7875724251041
-26.2849860071607
-25.448412910887
-24.4018181181704
-23.0686914927314
-21.2324800420745
-18.7579988716128
-15.6292125396221
-11.9450439306585
-8.05257965729147
-4.44211925039875
-1.33157495232507
1.46083925684426
4.23262347752906
7.21298255931393
10.515060442008
13.9828843040669
17.2366564648279
20.0378859168849
22.3725621348021
24.1223670343641
25.008308299518
24.9303900903552
24.1224509504801
23.0421986461678
22.2486141045997
22.0944649250824
22.3411234482813
22.3648909341951
21.8293551375441
20.8747824378201
19.787097308767
18.87614222647
18.4307083289111
18.3377033543956
18.0110987447754
17.0877680257
15.8970187044702
14.9277550514867
14.1226888987304
12.9490882442477
10.9461291426117
8.02232053252071
4.28721857726396
-0.386980762848559
-6.55168321942057
-14.574924716093
-23.7152893622516
-32.2211913136442
-38.6355168845752
-42.7553415282438
-45.2817802673324
-46.982907308922
-48.2553030889636
-49.0351144878428
-49.0174751841139
-48.1618854983616
-46.8437699101143
-45.3666129450149
-43.6190702148744
-41.3220677446096
-38.2618682989847
-34.2254611651319
-29.0682643074658
-22.9045725408886
-16.0656893961884
-8.99993730009261
-2.25057121330552
3.83462983856299
9.41533235623578
14.7395461090228
19.4470798860442
22.848906619989
24.9529087183929
26.7705213333693
29.5122562302686
33.5856402167855
38.1654519010376
41.5984154176188
42.5178810514132
40.8305017964752
37.6209776161118
34.1722179531066
31.1802220491592
28.6845852226059
26.398895610074
24.082929645036
21.7396292600607
19.4513256191101
17.1263197978965
14.6590256605855
12.2242548781296
10.0613111523734
8.11435818375191
6.24922932167593
4.59763323745492
3.31436274065963
2.23200220453674
1.04259667174345
-0.400441127189557
-2.05057212445143
-3.64117335705741
-4.72922884367885
-5.10618241606082
-5.07504084803917
-5.06696457860917
-5.19991340493371
-5.40346597031064
-5.66044502980345
-5.98785115826712
-6.50222324267224
-7.49251799517365
-9.05061925088124
-10.7119607655632
-11.821414013893
-12.1718138854072
-12.0982314702555
-12.1170967146224
-12.515032234427
-13.050523567732
-13.1246064782627
-12.4902363765075
-11.586180377865
-10.8946792663511
-10.3074943468987
-9.49058855388258
-8.48582405314876
-7.51584882540603
-6.57188538959381
-5.64021369650565
-5.00482628649523
-4.93823790328469
-5.3284022198628
-5.83129393907761
-6.22628612060409
-6.58475163243534
-7.17314063396056
-8.03888653862364
-8.69050273178338
-8.53349262477343
-7.63896889935563
-6.69654890315749
-6.21983944597503
-6.1332351666503
-6.03043877187443
-5.52900251611663
-4.51880189926204
-3.28017043940962
-2.19447711027891
-1.29549510184158
-0.339223850668747
0.786937554300499
2.02665495449749
3.35410035846637
4.72930473959779
6.06111672345113
7.40692378719079
8.97444595624768
10.8213044589788
12.7417032511779
14.3965088490392
15.3857303346512
15.4361324592682
14.8131681424296
14.3140486474135
14.5353302191703
15.3242109799836
16.1456199258159
16.7093345407202
17.0564635432806
17.3294415917884
17.5818419032072
17.5694404223766
16.789052078597
14.9992786010549
12.5322898585091
9.85939974792026
7.15016237672784
4.46822036487315
2.02429368278534
0.0112261627842738
-1.54922970996255
-2.75160235924687
-3.83008281628468
-5.1050909485278
-6.65040425755445
-8.19713847053164
-9.54357368723975
-10.7978965030979
-12.1011690956944
-13.3864032160733
-14.4629615415376
-15.1763102454688
-15.6254126000264
-16.3106639093668
-17.712240350792
-19.6107951294675
-21.2353256305096
-22.1386345221254
-22.4787411251858
-22.4278228021166
-21.7937005249979
-20.3106900358142
-17.9591525143322
-14.9637048503826
-11.709155432453
-8.59699476964303
-5.79044078561698
-3.16421371411508
-0.523248002160882
2.32057539787237
5.56748246564905
9.14558596144732
12.5052049509145
15.0880039410295
16.9137424667699
18.4228654987099
19.9006070875678
21.2593120628345
22.2151102126244
22.5747758678438
22.4515640762154
22.1054851699324
21.4920099062421
20.2498439883678
18.2367711280031
15.7155616655018
12.9561933173088
10.0844791883346
7.32445870000273
4.93255772347795
2.91745526121081
1.17739067824734
-0.245831257627199
-1.33281489382424
-2.24159614163152
-3.07279776662633
-3.74347925184236
-4.16574046480751
-4.25744646095355
-3.85989040174718
-3.07297012879675
-2.66204380784343
-3.72742752450215
-6.80377687633675
-11.3135509768761
-15.8075081036732
-18.7898558436551
-19.6706805143887
-19.0644108338862
-17.9812836250898
-16.8096561576562
-15.3059108654637
-13.2499632225112
-10.6619655172352
-7.64404154652213
-4.45093489890963
-1.53458234132967
0.742362460347973
2.26444102532875
3.0250405256669
3.14443587302113
2.97562320144927
2.84452321071941
2.71161412174736
2.29681412607966
1.44732588715633
0.328913297036172
-0.572353668720481
-0.737624191017278
-0.176926432401613
0.470455054396318
0.663937813985141
0.53429257065242
0.533107352493594
0.877869071754253
1.50088723705077
2.13496576847225
2.33007173122824
1.76998778054401
0.643753787788979
-0.568866324598539
-1.5802174066165
-2.27720814494039
-2.44246474238564
-1.89015425757906
-0.742566716450279
0.72540035519856
2.33379106467382
3.88169838136387
5.06796202904452
5.76090150882171
6.15497485352293
6.54616278831527
7.06463681997703
7.59917642935123
7.93860405481113
8.09289527663608
8.36229976183622
8.85865702522623
9.19700983101331
9.01722052040735
8.54629886892881
8.28009532554077
8.38784767293701
8.70374801839821
8.95317521541999
8.77552713708897
7.89235611065813
6.39414015173597
4.59155073346327
2.66136805642497
0.699551729880863
-1.1308176533482
-2.79689991484286
-4.45966588698027
-6.13600127355012
-7.59814576786335
-8.71394860321216
-9.59070273080981
-10.3552814974035
-11.0392242819594
-11.6156975604279
-11.9376597745978
-11.7885703597851
-11.2034843485567
-10.5512275483455
-10.1138577652321
-9.79108689599751
-9.32072342562202
-8.52768020970639
-7.32702829353853
-5.78062042348259
-4.14388056880224
-2.64563982070184
-1.34712876706623
-0.32583905004334
0.304341743714374
0.676490830986745
1.15087277253342
1.91840656745541
2.83629115181225
3.57657827729991
3.77151918479424
3.27501783510457
2.47834226733255
2.0574806520423
2.26138806023228
2.76117466853428
3.20778532518131
3.56618735813004
3.95527995489019
4.49696793619123
5.21342522198483
5.86401814486644
6.10400693971514
5.91244458000193
5.58558868457551
5.31788581463165
5.10452649219535
4.93609583389527
4.71566035518259
4.12543525757462
2.95263492708893
1.4342874929823
0.0019591175498095
-1.14338713393656
-1.99914892964201
-2.56823158591284
-2.89931671895773
-3.09290825482132
-3.19236417697898
-3.28367441644316
-3.61226710050226
-4.34398981458717
-5.3588412387386
-6.45375978666732
-7.49727566332312
-8.29370410199154
-8.64588872254443
-8.63153355760407
-8.51670642690447
-8.41243255207895
-8.24549034862047
-7.91992416775076
-7.31401130714357
-6.32265153001583
-5.00791214629488
-3.49546603577293
-1.80521196787446
-0.0781392046759167
1.24820964062644
1.87998944515693
2.0926961941502
2.44542352224833
3.30452568214434
4.76020697973196
6.64717075995351
8.52732141570315
9.95620183964109
10.8499314689299
11.4777293644527
12.2417192696964
13.5440008860858
15.5129626154011
17.6677791369658
19.2096741249682
19.7911781314376
19.5921333332272
18.598449417368
16.4077729706327
12.923145102906
8.75512729568185
4.80965891155354
1.78221218818104
-0.0546349794298836
-0.949994153856183
-1.5495405331039
-2.49457830707705
-4.12720845223349
-6.40741457070679
-8.86463352419335
-10.8075782449705
-11.8762992649036
-12.2794114633487
-12.4198080926109
-12.5808549642324
-12.9744844043243
-13.6471352105278
-14.2685855490948
-14.3476806004161
-13.6359364798383
-12.1696735887948
-10.2226868733289
-8.39780642198265
-7.33157367404045
-7.06427762291943
-7.01461299968992
-6.62811422174376
-5.72745049961455
-4.3583271215758
-2.76712167077278
-1.44552943881262
-0.713048536893844
-0.267410267259235
0.460832923809801
1.50783436505488
2.21673299098578
1.89285625923373
0.509576308124068
-1.20242499369363
-2.40506395453781
-2.93473486525157
-3.23442263836001
-3.51501152356194
-3.46542556768994
-2.90855468671576
-2.16299456244438
-1.51421799940567
-0.785490782311684
0.376308549891353
2.08822150218987
4.12257819442545
5.99770407368557
7.30074427500596
8.05576410342103
8.57117039445855
8.94087795879275
9.03271677260353
8.87205553414382
8.6271208442094
8.3410062925751
8.02688516853835
7.80724312965555
7.65943279258449
7.27791166867635
6.39927563000668
5.04866450980436
3.44781879561963
1.95176729723855
1.01151958038174
0.901150681548793
1.49528904676942
2.42179523297405
3.27231848470759
3.64541096032482
3.35151319768276
2.6961938275945
2.20624432964956
2.00439923511057
1.8143585489779
1.53745340326715
1.37170122515914
1.38329203185245
1.34920324500784
1.01723347588357
0.331386774149398
-0.502906878634116
-1.14368556534886
-1.46790837935742
-1.7058501849931
-2.05646570028476
-2.43573091323984
-2.80394604285741
-3.36712002799229
-4.22187361213427
-5.15438935256492
-5.92574137797001
-6.42000209611328
-6.53649834780857
-6.30170342643554
-5.97301106053248
-5.73691953867989
-5.53174770469052
-5.34127000602051
-5.27767042475646
-5.24883834966675
-4.98745451065533
-4.49228196816845
-4.0362290144243
-3.7385582763046
-3.4825360263648
-3.17423497581859
-2.7687700298006
-2.1744438721798
-1.40173808764731
-0.643436087668724
-0.0100555869487617
0.604598398835351
1.27697104676411
1.92347205836938
2.46111834093202
2.85800618546043
3.07040248700275
3.12965884110805
3.17165675961937
3.27249599400138
3.43781760262923
3.72410571275451
4.0914625145876
4.24037879910901
3.90496615156243
3.1751984577344
2.30827936346282
1.45660609696712
0.732882524192608
0.218612533649222
-0.202344688442892
-0.693544159561636
-1.14458886904089
-1.32089646646233
-1.24866462992365
-1.1730567693761
-1.2787955265235
-1.60872391996482
-2.02190421483543
-2.17444286123044
-1.83153348563291
-1.18663462788929
-0.616616627058335
-0.25417243289398
-0.057694667932113
-0.077548399035257
-0.336768077958028
-0.625729136320417
-0.675584460409607
-0.390380082310943
0.204948401555858
1.00454444094779
1.75146875838557
2.20956240605745
2.41936453757282
2.56505161800787
2.71171890129925
2.85523171026248
2.98671695722974
2.95642810956504
2.56268272607636
1.84887930000254
1.02943321998986
0.18456805727579
-0.662507226467513
-1.30531775059744
-1.4908153442927
-1.16553609179023
-0.438838043143632
0.494666512302066
1.35850808061699
1.94676244762266
2.19868919288839
1.97746000250598
1.13089227398993
0.0311822434300016
-0.409828977493467
0.35409549103965
1.883113353647
3.20627055452108
3.56777897193951
2.71353522618866
0.910395207864257
-1.16064879439524
-2.7916580765599
-3.6419359801937
-3.74130117509939
-3.286634166329
-2.53163579713417
-1.66627769833188
-0.728724243208868
0.178365550037245
0.689210373129565
0.517831199382365
-0.132515988368683
-0.823252200493786
-1.34010307507035
-1.64086371747031
-1.66288461333234
-1.43545155695973
-1.10037797234549
-0.710156235734615
-0.277969013451537
0.0232025606941329
0.0088872192197683
-0.274639872267398
-0.654676973798156
-0.985353672749841
-1.11290544116929
-0.978001779736277
-0.774863032619731
-0.732389364553789
-0.844695996328335
-1.06464877807057
-1.49681561358363
-2.1435572304009
-2.78402245328355
-3.27625489292595
-3.60929020541809
-3.60196598777123
-2.98398220755456
-1.81815265713688
-0.512211521223513
0.535090538331397
1.08747784969685
1.10053867011885
0.842828171750851
0.738827857404351
0.883449942103381
0.977563762515353
0.879719616566888
0.89551038014987
1.39791795696264
2.43969513441101
3.75003460054628
4.85481036011753
5.29318652567439
4.95346131141605
4.10174806060372
3.03619882268041
1.93918848669964
1.01249529352333
0.435014918648289
0.216292745485265
0.257128363120319
0.368564802696106
0.188385609203873
-0.50896232767809
-1.3535522740682
-1.69436250301032
-1.38655724774692
-0.814023137133548
-0.256216028479872
0.261349623578737
0.661963562256813
0.846031160684746
0.870948323344564
0.797245738744892
0.550572472111942
0.0651775142104094
-0.656915717761432
-1.56505662789186
-2.35824218179741
-2.47074777071416
-1.64867084699819
-0.382066312371136
0.558723718987103
0.839112347096348
0.59588611505599
0.0717058317941371
-0.498195715641952
-0.89218982625107
-1.04264710155959
-1.03837919132858
-0.958595163099983
-0.842884696762439
-0.704158435873397
-0.444853950486654
0.0214392186521834
0.502585086461026
0.67194340954206
0.470109256257203
0.0752337795834404
-0.382096272318734
-0.769364842869426
-0.873644119320828
-0.702107863471644
-0.596392789234618
-0.793222492473078
-1.12946433189635
-1.29067151749424
-1.0698837662828
-0.413078936435832
0.486617874653036
1.24431074623389
1.64949634604786
1.77240296584557
1.62856721659019
1.11302400803653
0.339091819406326
-0.344697170909606
-0.715547208315657
-0.762220189564242
-0.504562531162052
-0.0144043249688253
0.512251123226845
0.937521933848988
1.28873582082543
1.5512674196895
1.58712242005736
1.36385086926469
1.02233980623348
0.701380096938972
0.539200959518047
0.719293284766178
1.20290992056735
1.58636079721938
1.503600334807
0.986758443306287
0.288443975568311
-0.381666708712627
-0.879627284583669
-1.17825981474675
-1.41084501962281
-1.67797647178697
-1.93969919304073
-2.21639062643768
-2.62845461775714
-3.12455816291987
-3.43439155627528
-3.29330380471799
-2.48671468798927
-0.907987428732161
1.06812919114824
2.55199848698308
2.86980242645873
2.12648301253598
0.881004877327797
-0.386462148854083
-1.3766852654759
-1.95306740573528
-2.18543596064524
-2.20474303230324
-2.0199206276825
-1.60646702417734
-1.02648032300184
-0.34977873031386
0.325528587258122
0.719566675783799
0.569728760805333
0.0651246979156915
-0.257181959930738
-0.108333956985377
0.343199339532285
0.794834379162507
1.0732727761033
1.2151034176334
1.47350500074201
2.03309628831981
2.65793480365898
2.91952468275418
2.72386568075662
2.27207319596281
1.67126244536494
1.00543559706999
0.638670233263781
1.06854403652197
2.51928017537475
4.70960678430117
6.7384474029647
7.28333960978894
5.47638113654137
1.77801768864336
-2.26390194556795
-5.13028934987063
-6.1633162848702
-5.67862427025677
-4.56643326213338
-3.59120437710536
-2.90840482226066
-2.30373967788879
-1.71488782915278
-1.28399256115371
-1.10577574799814
-1.1887679782417
-1.48330102294171
-1.75581866143031
-1.65830032006564
-1.09419615750673
-0.325947194926239
0.33464995787088
0.728165206951921
0.825523247682532
0.798487089061452
0.963443135650317
1.36107107896724
1.59859597636305
1.33742781030315
0.668632407068151
-0.117038682281931
-0.786025747916242
-1.1309273338793
-1.037838811201
-0.623509197808775
-0.103243914417356
0.362158775202232
0.593312505813832
0.472804791377841
0.215432853746881
0.227022877873833
0.605208707353678
1.04517585444343
1.21797309449997
1.03578782262317
0.65952761864955
0.353490906797833
0.150974476956179
-0.266930016506803
-1.0475119428002
-1.71031131464153
-1.65194343398245
-0.923501335203288
-0.0859766780736638
0.496188415527923
0.823137147549524
0.941360638658171
0.835349903294577
0.507262808188033
-0.0468170975223964
-0.779113574044748
-1.44978506094582
-1.80616151174749
-1.89413020591905
-1.90670436032939
-1.82963510165829
-1.53535697947015
-1.06126415164838
-0.540680618263882
-0.0479448329424743
0.355725572668922
0.64257629060123
0.885263115725643
1.08889508115313
1.11657397258599
1.00999443259242
1.09497575898818
1.49772226553732
1.84758948254445
1.68661603184602
0.944032726941831
-0.0550438028430493
-0.816860522954064
-0.990579444239033
-0.681497643384329
-0.319282932339229
-0.12485344586731
0.027090564995536
0.238104379136501
0.46449793572822
0.723973534342147
1.07593231231271
1.49149571830664
1.97013275351862
2.54707924413592
2.98889052930772
2.80829604415594
1.82569427727702
0.480407092165409
-0.550601128387466
-0.84231894108736
-0.388838571060456
0.36916177634735
0.741139279716023
0.378281833845039
-0.370153651572958
-0.913370993869941
-1.04504162396033
-0.945485854623043
-0.849378629683776
-0.877244372614402
-0.964499127794239
-0.912137911773124
-0.675752734743331
-0.484563173843999
-0.539729959714531
-0.832144375540797
-1.32228842938476
-1.94434074191605
-2.41093829837362
-2.41742600244615
-2.01582586400561
-1.45169871245581
-0.832160164151199
-0.300023587880007
-0.19624127761083
-0.631148253214613
-1.15176377146687
-1.1226288183234
-0.271342003583708
1.14269186606474
2.43718210090432
2.89543264490122
2.35291601845178
1.31158669959063
0.335436596892879
-0.423001890026298
-0.997089650181359
-1.30835035461614
-1.32756512186105
-1.23464834605503
-1.2199528414133
-1.30617701687367
-1.38947052459949
-1.29852058810133
-0.951161051133579
-0.591299418459232
-0.579512206458831
-0.813637678639207
-0.737282799775373
-0.0488378555937242
0.967428765458989
1.85825291671546
2.39400394071694
2.57116688244359
2.53894199993057
2.49482785087736
2.48585843689599
2.39379073581971
2.12985156514374
1.70005314582015
1.195081649452
0.885330766084418
1.07106832167022
1.63997511920663
2.09144010378274
2.13880800425452
1.9120260208488
1.53081045864483
0.946296117071839
0.241223516670643
-0.328835101690673
-0.622214432489794
-0.704994056410127
-0.760367608316699
-1.02888494470955
-1.61060870478266
-2.23677531366815
-2.51946236568934
-2.46397389191174
-2.40401350225297
-2.46021312244684
-2.4658818664134
-2.37722709571229
-2.33665736526519
-2.38342643901219
-2.43741056757498
-2.46337566997958
-2.42990006172059
-2.27291456074055
-1.99955626301406
-1.6227921854959
-1.01755943867111
-0.0723288370114282
1.10256220496217
2.27082981756308
3.19768866880083
3.63466757791907
3.46991093548248
2.90394063299353
2.20048986520347
1.39273592316321
0.521277143695939
-0.103055426013079
-0.19212438686701
0.239858134851622
1.06755529056597
2.13817112885289
3.05830557425542
3.33289301486057
2.80750432970087
1.68276488529911
0.212703005688909
-1.30282968114449
-2.43994216111494
-2.9082447528841
-2.75965953390557
-2.19191341428422
-1.37967617994687
-0.568094280152143
0.0162823504925636
0.42523724906237
0.819923292341111
1.05630483512505
0.819304495341518
0.13540613953951
-0.576357558726579
-0.915834060374546
-0.796116144990615
-0.4701373089355
-0.321057873324125
-0.449549399644311
-0.535485895581221
-0.28848624664444
0.151049352124803
0.435408772233093
0.384816459775822
0.0248947814471839
-0.447705732897667
-0.681170246399496
-0.463961970932538
-0.0140956581022993
0.25323911668784
0.146207330133709
-0.224052937544061
-0.523038413755659
-0.328658660424211
0.410464827343822
1.05691297394693
0.862849029754872
-0.150642283510573
-1.22584955558647
-1.64113007996121
-1.17892086483357
-0.0900483626356382
1.06052132563656
1.67455007929003
1.50892896713731
0.744235458721233
-0.303617720483634
-1.32353039315402
-1.96724757762924
-2.03627445048645
-1.69270674465462
-1.22723631866812
-0.746689335536705
-0.287740664362378
0.023394466353975
0.140453271084524
0.195055612771278
0.326595539965141
0.609252753045477
1.07297286457192
1.58979011935
1.91909816664805
2.03406835065999
2.13877579590164
2.25484215238522
2.12091027683252
1.57259317561697
0.730426025703638
-0.1471969885407
-0.751047312078789
-0.844946524032177
-0.550117926732506
-0.302723232721206
-0.397440320060748
-0.777005601330994
-1.18170992662644
-1.21285557620452
-0.506326430704188
0.739286243589848
1.66223267325446
1.56425489002579
0.64155195301337
-0.321426447858156
-0.692324287342807
-0.310702967301934
0.49961305205348
1.04760276780389
0.763782625792676
-0.265508164081526
-1.43938791964521
-2.21703339059551
-2.34930993878595
-1.86317869532221
-1.15443519849414
-0.78020050483317
-0.852330974740095
-0.913701118808999
-0.583720970596537
-0.0313977322875715
0.282258139882132
0.103956499935632
-0.360388410964118
-0.568509548168573
-0.142236618676697
0.704174203811067
1.40055550725908
1.59451328974631
1.27817470581858
0.604792900616408
-0.0864629925823302
-0.352573585947628
-0.111573833765755
0.213171742072159
0.224509830102575
-0.0369121087637692
-0.271412149458365
-0.216772702049882
0.17811089631156
0.611887984449796
0.633117195335989
0.196741165466025
-0.252428772429778
-0.410836012826488
-0.452752934446769
-0.563705365278406
-0.557713903334503
-0.186206953920596
0.491662974993423
1.17989394348086
1.52977971151884
1.28834442882224
0.55182402757347
-0.219125126987328
-0.638119650099294
-0.670686759178698
-0.427089492954212
-0.0356188535649174
0.243209045489912
0.168832024780437
-0.183975755538299
-0.550926973021091
-0.793708312924742
-0.901521751585366
-0.902577631685185
-0.911981568609965
-1.01085543464153
-1.04058298907543
-0.779897002289054
-0.246104953623095
0.413520755834668
1.10611532129717
1.65465818139619
1.80509446077989
1.56687717409243
1.21572071803796
0.88249210877845
0.489361650766332
0.0647028362897855
-0.231028407064792
-0.32766024680697
-0.244939241525057
-0.0236688444171512
0.169513172780109
0.0952578171547387
-0.263467442020432
-0.68585967084272
-1.00982553924904
-1.13440846013608
-0.798927604901957
0.176667775311648
1.41778361557751
2.17594254688389
2.02775889015335
1.17158038607664
0.13634432172276
-0.633099383383695
-1.04301423722758
-1.29435081782429
-1.49213537414767
-1.46369970208561
-1.10764070301871
-0.655620629077858
-0.393158014484673
-0.375461119945078
-0.52016485167156
-0.689646031309565
-0.66510699543599
-0.341621881640322
0.0959864607038985
0.413223280064186
0.575875654370088
0.625311408817837
0.600174103747025
0.665338216318535
0.976391382632873
1.40786959490484
1.72007792231226
1.84923519264482
1.73487271916793
1.14605600041311
0.0431521876642915
-1.13983178570544
-1.87915736774192
-2.01715396715719
-1.6793862387253
-1.04436930469893
-0.361485880966287
0.0780203535665022
0.124522216936899
-0.214307954017674
-0.840978941840316
-1.47206235152229
-1.71378358937968
-1.46204754385475
-1.00154093903867
-0.614813190578331
-0.383659336510097
-0.353003839365486
-0.545719837768876
-0.875568239074963
-1.28705124581629
-1.78334123822762
-2.14491238205021
-1.93379401895277
-0.914779141661456
0.81442394611416
3.04599553947554
5.40532995386648
7.19459155948006
7.75322705873259
6.95055129730478
5.15274164784904
2.95320224591373
1.00666479472859
-0.302735525673992
-1.15734030131498
-1.94639767949763
-2.6375993286059
-2.81234264742767
-2.22040282668978
-1.05948877696139
0.129506939769317
0.702100528834466
0.329992019779597
-0.639595988583963
-1.48527370660206
-1.86885650516334
