-0.827585065772169
-0.856453288883637
-0.772309020766566
-0.722470549310171
-0.64489480065666
-0.417355072815081
-0.155039332643707
-0.0510823847584906
-0.105567344322957
-0.221715141933735
-0.334152247385295
-0.337702935560936
-0.148216090200764
0.156864224965524
0.463206160049758
0.754812679080843
0.975207746397494
1.00422462255
0.882293595915934
0.773359025755002
0.69722173902939
0.597215633499798
0.55161076264529
0.59780763764963
0.559519129423733
0.346250612988752
0.148565786631869
0.113621843986334
0.152725285766489
0.18943079216261
0.243736303100857
0.252727952531683
0.141238389057342
-0.013233298521094
-0.154773078572028
-0.392929834317971
-0.752870993245543
-1.04303431963851
-1.15177443408881
-1.20216517382123
-1.28767780096753
-1.3228632241281
-1.22534850515533
-1.02071602061777
-0.792800515451573
-0.690797194769517
-0.808110556078781
-0.927732120521505
-0.699149649511519
-0.16469309711324
0.269692174029285
0.41138037305623
0.419167278972524
0.429069861962482
0.449944148939675
0.520679751654439
0.64601832585653
0.728909836424931
0.746794908618226
0.77604649941801
0.799331563368256
0.761308227539593
0.74759355823069
0.825611673216845
0.86438960023242
0.757749694601091
0.600485208376694
0.479032993666668
0.36594830349991
0.280784650828689
0.249480452616002
0.151912974407357
-0.092942749384424
-0.331377496978502
-0.416050568061761
-0.425939433160512
-0.454601845629862
-0.448323489253009
-0.394158786955122
-0.382213676531099
-0.397627018610456
-0.337361619676859
-0.247889420922254
-0.251943611517496
-0.286025113124311
-0.198921745158261
-0.0185474248993455
0.112374256922104
0.127504405070387
0.0336011351923432
-0.0968463992217358
-0.120185690012505
-0.0164114248950251
0.0332360355626528
-0.0359257026861309
-0.029850931310192
0.139232412384159
0.279151256466636
0.263053958302405
0.193701558821702
0.144835584572436
0.0830904898642403
0.0368069404186164
0.0429941195821455
0.0306147252326962
-0.025422502428241
-0.042778178995135
-0.0519413409676539
-0.18288802244298
-0.386790928167847
-0.494073364619623
-0.49988781563173
-0.487791058664515
-0.418912948030657
-0.264289339399217
-0.13515419230281
-0.0813520500820195
-0.004541464786037
0.118422239941752
0.202523046368791
0.274115821130053
0.420358738908639
0.553277137956206
0.531997942948294
0.422462388617119
0.35250732258424
0.286305375750881
0.183186567692533
0.131398465753558
0.149116637224363
0.136798457471952
0.099185940118632
0.12135955215795
0.161964874462424
0.137000071864413
0.0774616018414316
0.0103147466050891
-0.101343959762062
-0.199301827417537
-0.185363935315015
-0.140954057449095
-0.210853402955947
-0.368238052831594
-0.541657685212346
-0.755074720835919
-0.942490330371188
-0.942666674967195
-0.811674745847355
-0.769251476259209
-0.806346417861049
-0.744670465743308
-0.60396020533617
-0.51366353249295
-0.421063010257216
-0.228483030306311
-0.0020176783212727
0.207557379019527
0.485018823463553
0.823206767229665
1.0608433776972
1.14010003352809
1.15326081135463
1.13699699739144
1.08329445069956
1.05081048861969
1.02344987494971
0.863528107718844
0.606201232373953
0.505109550078793
0.639411704547942
0.807058706471221
0.855861572608232
0.78618489486315
0.593875199454421
0.32644180027769
0.142557369613899
0.0769287521872258
-0.0320807517409199
-0.254957203290463
-0.493667172747449
-0.708050318084293
-0.915380924033731
-1.05220522272726
-1.12050480872002
-1.27530691628711
-1.52257908151518
-1.61660922401552
-1.45178049217837
-1.22614206468318
-1.09678012298673
-1.00404417699136
-0.871623274357469
-0.689721354176727
-0.440177866796248
-0.145127180785546
0.119043233605997
0.358327895136408
0.6365464584929
0.89727946413333
1.03396499867062
1.09449993793844
1.1672356779062
1.16450076916882
0.992128972312576
0.791642921219205
0.744493459427055
0.805737599423577
0.835618488335025
0.775457040764517
0.58530811070772
0.281741048442532
0.0525541051974774
0.0459676082768769
0.126078574732865
0.0907565948811224
-0.0500840888832776
-0.209989496916911
-0.373968409345067
-0.484499631850651
-0.487061922786196
-0.525514684050748
-0.766317291727066
-1.07849421232345
-1.20527650595661
-1.13970625908396
-1.06427587369628
-1.07290128541112
-1.1234984267136
-1.09679770189339
-0.871296478563229
-0.513480313552887
-0.272488723778999
-0.216353120976563
-0.121825454939832
0.123849837311649
0.348937800337118
0.454117925887796
0.573321206094988
0.772561046555317
0.936849150082601
1.01168340945828
1.04360349071331
1.00535280775493
0.877691450578038
0.804341110445649
0.890229209910321
1.00531255488465
0.996880559056886
0.873536141848073
0.67020458605709
0.417556737005415
0.261144786195203
0.30513190512423
0.405173921243779
0.373586071261727
0.224119982707186
0.0294040832307217
-0.209034601188644
-0.4324247554965
-0.550699553339333
-0.621437122684126
-0.743330710710234
-0.871280023523249
-0.956829215774185
-1.04843639640878
-1.08991531211971
-0.950156911484371
-0.746569499387188
-0.736840356874071
-0.867038650910415
-0.843400076265012
-0.600932709967071
-0.323084254231266
-0.113830018328712
0.0466170389821427
0.175372785459577
0.311967195535539
0.492277344695464
0.625869982685253
0.613079791930326
0.560350667749909
0.627903242702925
0.748053180290011
0.756895427803172
0.666220997772231
0.5651629730843
0.45437356981776
0.367464773102952
0.401679576863819
0.51661774053616
0.573494701410449
0.562438717240011
0.521073228399167
0.373510571595403
0.113638971326159
-0.0830333926251037
-0.138883183399758
-0.185239787788685
-0.289978540340622
-0.395637330331106
-0.530424254055417
-0.745022800754086
-0.922782868047944
-0.954909062950523
-0.942040047019945
-0.989699047097345
-1.0343694866799
-1.01514441240234
-0.950913075514132
-0.815606630783097
-0.609849238912484
-0.473687413885199
-0.473629076020229
-0.444713746537395
-0.243364063342467
0.0655817309154691
0.392699374281992
0.726684447539115
0.994564899480934
1.09597648531911
1.08716350524988
1.08643657520714
1.06830468108511
0.972407156203291
0.853309103684106
0.726370208454618
0.517149181980578
0.311891142238786
0.321139750369688
0.500625732914806
0.581106881094946
0.484357190875154
0.341813074830708
0.192150714665398
0.0037071924412922
-0.158407223038486
-0.250325216914143
-0.337987059514764
-0.436429594207606
-0.500426917227124
-0.584326451032385
-0.75675108971623
-0.945357624930959
-1.07326531243839
-1.15642127603604
-1.14368696433361
-0.961444904105322
-0.754807684730318
-0.722313347157018
-0.770109536966653
-0.694919589803007
-0.527920511531767
-0.350599792565628
-0.0607633941798555
0.355212781434197
0.655846358366022
0.715981192575231
0.724255063763812
0.836450183408167
0.975359645895099
1.06621296041309
1.13478276698387
1.15446384165783
1.0967368615692
1.05339431471565
1.04952502452093
0.923544016311151
0.61832889574937
0.336747369544909
0.240887642903276
0.260108570491743
0.259893586265575
0.161549811142998
-0.0483950973028804
-0.243331196089222
-0.260742019603464
-0.181409462079614
-0.237911753671966
-0.434683529290294
-0.590318591949955
-0.682169462137522
-0.792627531055612
-0.861035017175384
-0.828796047083166
-0.834262799406565
-0.990112944341745
-1.19094681854756
-1.29811640167941
-1.26835138290442
-1.07210265230765
-0.738648934424882
-0.408621250826606
-0.146329651621019
0.116396235305603
0.336878343573183
0.363856149544927
0.259240005507723
0.269381666664197
0.432762724693925
0.559330213176
0.585700923440052
0.611102267407671
0.641058704130566
0.612038916027527
0.565025833647967
0.543356596091961
0.494804812610585
0.436545140578407
0.45927604786054
0.501570784082772
0.431367138427448
0.317214508819339
0.298811697064451
0.319033465298702
0.268125143093526
0.185178946886145
0.110115211728644
-0.0010943588236854
-0.110397073332561
-0.134905642569318
-0.13954171097148
-0.217886463163094
-0.311371541829022
-0.379319267959842
-0.498844842354309
-0.61527532994739
-0.532147753604843
-0.270050529867321
-0.0726407740428063
-0.0359189321002279
-0.0859566487019169
-0.229017855598541
-0.479301941898338
-0.688647468973489
-0.721606108963281
-0.620957432115617
-0.447076515866049
-0.190720022949574
0.076601425739757
0.229537205400223
0.29577902893652
0.397407027960463
0.533179459526593
0.630642988627584
0.682809083563781
0.66344400818563
0.527198298776599
0.398592049913587
0.457053761988827
0.606042420152354
0.604189511878707
0.459622967306664
0.343436195827643
0.268997233006414
0.171317350658507
0.0844917806217052
0.0129449454190174
-0.11508626900216
-0.263549162830258
-0.341093028263165
-0.406730169311524
-0.532027618199292
-0.602167959249587
-0.525549052756325
-0.416695631122913
-0.369066583417387
-0.338593965316445
-0.352952719897482
-0.487437601941464
-0.625698044626566
-0.593393953898446
-0.440358485454904
-0.292831373550324
-0.120519266351153
0.101937966189426
0.252688816796943
0.266403499090904
0.230008929369648
0.192871191075273
0.140498937005971
0.149390738315606
0.291404090604852
0.448425038337127
0.488977367857669
0.507935063790077
0.650812450213893
0.86434008531395
0.99907765885819
0.972055013925543
0.759937643875016
0.436454937910863
0.170958979984866
0.009012559212552
-0.179177159073402
-0.412792422303774
-0.556131145819749
-0.624251732525791
-0.764518444255968
-0.934356507611259
-0.982280437442309
-0.959472584027333
-0.986138758137585
-0.994073819090482
-0.916154281259586
-0.85968594382724
-0.856441054151523
-0.776410799931812
-0.621632854389598
-0.53545448811564
-0.501034403227577
-0.396741898281721
-0.263719019508415
-0.195817070577758
-0.136810243162583
-0.0373558155644768
0.018759681416376
0.0175446803728249
0.0882205423653208
0.277440683485837
0.498243438460369
0.717806639534988
0.953537615396133
1.13796806422767
1.21275586172904
1.24029187453294
1.25008906183541
1.17443220911802
1.04817575775154
1.00219351258058
1.01750543374788
0.983857196447399
0.945456180280813
0.983919391223008
0.99708252489647
0.868919678674273
0.6718240136325
0.509350824409275
0.375878196935298
0.254508557515658
0.134946730279806
-0.0246652695390446
-0.164486144866208
-0.133727832340278
0.0098091122970213
0.0149766493338043
-0.132982714764158
-0.185375077871898
-0.0962513272429242
-0.0948161343633775
-0.283623525932068
-0.548317603511101
-0.800076019889933
-0.999395783656039
-1.07812730114006
-1.05007564843739
-1.01685662632526
-0.975288623583808
-0.849041549880314
-0.701687276121032
-0.650180730240178
-0.634348865278208
-0.539114384258789
-0.416973605224126
-0.33889722523374
-0.22268292923848
-0.0394593208151871
0.058369913117382
-0.0077078688705027
-0.136219532334554
-0.272938337368571
-0.446255806601042
-0.598481494045479
-0.667147246736767
-0.725388499623206
-0.823382618316922
-0.886901025898648
-0.903032105208883
-0.941540624614972
-0.954078312521584
-0.849410128021833
-0.719151615224062
-0.702223295280779
-0.747613454856594
-0.739590148401552
-0.669636068023984
-0.546301918147937
-0.367689743944686
-0.200988758060973
-0.0330159173535546
0.335004432097453
0.962495878328476
1.55824689278175
1.85826047628854
1.94782918070125
2.01359340814675
2.08429575919107
2.1512898563325
2.2336705832854
2.24465459683444
2.07435772569734
1.81436400201795
1.6477459480056
1.57979628961402
1.50905468631641
1.43646248245629
1.39897501934613
1.3595060217801
1.28842340470413
1.16220532254757
0.883920844195113
0.440213944305862
0.0246157775599458
-0.231628891095145
-0.445077698168683
-0.714624314091627
-0.971200391744223
-1.21056513320173
-1.5208692638709
-1.83340852088512
-2.00196240653849
-2.08150357372604
-2.20490762563033
-2.32751409458752
-2.35773488496668
-2.31454711739889
-2.18147970537652
-1.90179168615466
-1.59810974825296
-1.46695636398239
-1.4687827523806
-1.4258350879306
-1.30482248877217
-1.14545938331398
-0.916930232814271
-0.64764014401844
-0.461770465725304
-0.371519258035566
-0.266713327801834
-0.116727254413787
0.0589288686978454
0.332599810619003
0.725765830571172
1.07615773874116
1.28192839025511
1.44949568223344
1.60182641315714
1.56842491732547
1.34934823006117
1.21772874866744
1.30923169314663
1.44412864213643
1.41477459506214
1.18291279709566
0.850484488029809
0.616067488740134
0.600844588585532
0.645769543316539
0.51959463296758
0.281234065036958
0.141763095456395
0.112999892745985
0.100315623265781
0.125746143589265
0.193054516221086
0.205473168311068
0.199651723530305
0.349038688454449
0.659450860670243
0.981149028626424
1.27984184782348
1.59538898857989
1.87467892134143
2.08730471063419
2.291995721699
2.44270156684294
2.40891554897495
2.25235956875501
2.16781675386362
2.13902064323361
1.95772015774049
1.53854591705862
0.94320246519215
0.213639695977397
-0.56357714899552
-1.20463828484155
-1.65887801354955
-2.08510749292864
-2.57980731894192
-3.08009441950501
-3.53514861054186
-3.88263822573915
-3.96281352911273
-3.75406250186989
-3.51503445193531
-3.45644277844131
-3.51407680051291
-3.58326572681577
-3.67316595754049
-3.77408452280919
-3.87832170018109
-4.08735193595285
-4.42134115045616
-4.66253532227928
-4.60792323010381
-4.27122543208067
-3.72910983713743
-3.05895366763697
-2.43770089083717
-1.97020030717919
-1.49487751362272
-0.850531170038723
-0.134250242895203
0.558626605112884
1.34973220372979
2.30146056923409
3.23423635403675
3.98124066667285
4.54088462070852
4.92201550185632
5.13443596701478
5.31878637436816
5.58594662963389
5.78384244162033
5.69128205941212
5.33990885999598
4.94308944929884
4.66816803178315
4.58780984393294
4.63420074481502
4.58358841584325
4.3172150799931
3.99748131527944
3.77915516861843
3.5782319690809
3.31513959579081
3.07665905269865
2.88919165430727
2.65578048660277
2.38530888181738
2.18854600299342
2.08358303531843
2.03128719021768
1.9864508163988
1.74355224987811
1.03210269774685
-0.0933015310974418
-1.2735384730231
-2.27518153892657
-3.06790202607341
-3.59579723080168
-3.85651191040675
-4.05893006014888
-4.38704657477649
-4.77896332961151
-5.11055557427962
-5.34599630496915
-5.41710845558607
-5.24411039780242
-4.92596072074834
-4.65397289935342
-4.45813127861732
-4.26040046486322
-4.06931348996354
-3.91276924379633
-3.75363624197422
-3.63654683388256
-3.66618540450034
-3.72994789282109
-3.55277039453491
-3.07802704528959
-2.48674113850499
-1.89454853453985
-1.33055711299702
-0.878582263213583
-0.568138836342912
-0.28451840700769
0.0452088468572474
0.346248821056307
0.502325784329164
0.386739730829906
-0.0978297264012138
-0.803392217902306
-1.34223697448386
-1.47367051190783
-1.26401612638733
-0.813918542523484
-0.143873856193741
0.64243975143854
1.38753129925196
2.00995153380983
2.39146206349487
2.35703833565357
1.96895794157675
1.55870303338211
1.31663077154123
1.13981857829897
0.934759747588981
0.74676614587634
0.59228136934932
0.474939068430107
0.514260015544419
0.783790039519594
1.14901954042989
1.5082563395552
1.98408194305133
2.65525365610398
3.362584275175
3.96010146127977
4.48935467938159
5.01411784631241
5.52733957022508
6.0033819792811
6.36031940627216
6.50634226248685
6.51490047875442
6.50834913767294
6.38259661008305
6.00063025975083
5.58560238547428
5.52633623458861
5.88289448762812
6.39272956709659
6.78480355168432
6.87075178489996
6.61589262444483
6.28838894585818
6.22141465283962
6.33598878449553
6.17041941010875
5.34046061879067
3.76395025882734
1.63457880705345
-0.638515277121625
-2.73359533834254
-4.76876315350164
-7.0512272912999
-9.48406762832191
-11.5945460461973
-13.108971524391
-14.1299846144998
-14.8321303146359
-15.3448377081686
-15.828458467863
-16.3416794468727
-16.7369718003263
-16.8735012347877
-16.7507251326594
-16.3686012991401
-15.7304076444072
-14.9641235418397
-14.1427036559107
-13.0930645988624
-11.6550535181438
-9.93439686953788
-8.08055316129564
-6.0597598779592
-3.78236256063681
-1.20688319726192
1.67637270116949
4.70180846606267
7.4990517262311
9.87321779571128
11.9976628701187
13.9866272583528
15.5380736918407
16.1971684484773
15.7697993059656
14.4820729196362
12.9890729472522
12.0864236638654
12.1000024223609
12.6815652323121
13.3427289860716
13.9028531583051
14.3085587170446
14.3844980939202
13.9209503332587
12.7834522548304
10.9384357944032
8.57723176507694
6.10278723870262
3.78859006395822
1.6205305194292
-0.391536056008859
-2.0639634619956
-3.35681113093443
-4.47582066794672
-5.5257770711398
-6.41621382499006
-7.14287641991799
-7.80838591632479
-8.41323944227054
-8.92163326493459
-9.39196455238104
-9.82502603734532
-10.0915019913699
-10.1317717339048
-9.99707920194448
-9.68957366338539
-9.19208947771665
-8.56002300875703
-7.80613730471825
-6.88917084309659
-5.90512740804477
-4.99172572956322
-4.0332050650592
-2.8120710126573
-1.37822345004345
0.0756887804895755
1.50890547398377
2.86766461635932
3.89621889889993
4.40935940246693
4.49580555374069
4.30429286291462
3.93668273604906
3.60066231664253
3.51439099530969
3.61930996874812
3.66834511371189
3.563825943052
3.37323967660541
3.12195883952841
2.78731853307337
2.36991147883301
1.85332126667023
1.27400592823856
0.824437909822687
0.626674546986333
0.492218372257235
0.177062848780905
-0.301843468699725
-0.825876969552093
-1.36125090884345
-1.80213220028912
-1.9605320998269
-1.82991041561423
-1.55798543564769
-1.19369796264539
-0.758282923977565
-0.387624433235249
-0.0963636581377166
0.352871477679274
1.09588791818902
1.97053790222026
2.80910169876043
3.59609828256618
4.30885022599622
4.94236707163104
5.62805409347985
6.42702818129874
7.1379769493787
7.5199862037135
7.53053436565789
7.27109109759095
6.9403966161343
6.81902867243407
7.00240584288095
7.18030328382091
6.91906004539831
6.06387233875802
4.69030813070561
2.89700651061864
0.869242255319546
-1.11725667548496
-2.9692695300321
-4.81754609179267
-6.71562400054009
-8.59406025234079
-10.4900351506515
-12.5021127748
-14.5921438627868
-16.6520843942657
-18.560344596282
-20.0291974201147
-20.7180193880949
-20.6094194898865
-19.9708274784053
-18.970912918078
-17.6516082672594
-16.1402921859123
-14.5577687106093
-12.8680434407698
-11.0229298223756
-9.02534375341703
-6.77550397075041
-4.17292041644193
-1.36537612808263
1.41826532746984
4.16722664636119
6.94476580910272
9.66624136211505
12.2420559842061
14.6604513511907
16.7874825768006
18.3948268509505
19.4538051390827
20.1215105789231
20.4787797241154
20.5528654569908
20.4596662077041
20.2353469717378
19.6950191286471
18.6927780887762
17.3070385851852
15.6340357877626
13.7108396643473
11.7163809890359
9.8941603213561
8.26626294487085
6.71880678776396
5.21410439384971
3.62556234569117
1.62287355789087
-0.980375158614858
-3.96729940119568
-6.91898773937122
-9.45088815698965
-11.3127238438427
-12.539633834415
-13.3915027883391
-13.9541945635283
-14.0552997453859
-13.698235719826
-13.1889036149883
-12.7004191644989
-12.091464531861
-11.2126321898957
-10.0628012069427
-8.70033325539258
-7.27441934216643
-5.99134139479937
-4.84691211062297
-3.59595546898754
-2.09254725235363
-0.442431201721301
1.16964976869529
2.56050013011522
3.54608255166224
4.12182892271004
4.5518259752019
5.08409890351258
5.7200802655628
6.37028882584937
6.97489009817315
7.3767655605339
7.37451112125291
6.9421598762181
6.14047563415559
4.95919534140063
3.56445031672823
2.46577829758322
2.11467940007481
2.54252532460621
3.47581910362118
4.40770612342322
4.55791411279826
3.32930988708126
0.922120571368345
-1.88253700392128
-4.52247259180848
-6.96739948002135
-9.42830925240426
-12.0207046760835
-14.5450021062332
-16.5131978381635
-17.6052437318705
-18.0097935989623
-18.0600340266265
-17.7794868587277
-17.0856326588884
-16.1076717988495
-14.9678417154038
-13.52734687599
-11.5859319989957
-9.10900228785628
-6.17756085911488
-2.95370547055114
0.295033080191778
3.35082615618305
6.20171809700226
8.94492968707548
11.6861875747008
14.5632709580065
17.5461287112498
20.1501935733161
21.7329771154604
22.1566136516272
21.8385272772973
21.194170121904
20.3338938234691
19.1557578563669
17.4707988987267
15.2579351035546
12.9607400430235
11.2324572207641
10.3023098807298
9.88660976904968
9.63832142585861
9.31120071848456
8.6237457201948
7.35789962365644
5.5254240561298
3.28630350574186
0.929718085572154
-1.04048079471366
-2.22518145247173
-2.87334085430107
-3.82749315073617
-5.84767569122779
-9.03875974633374
-12.7611961683421
-16.0559866714119
-18.4121226673966
-20.1186802062765
-21.6550915687019
-22.9512583066448
-23.5835430002948
-23.4232022230115
-22.6627660531641
-21.4305956236163
-19.7849414335042
-17.8904871735477
-15.8675259119558
-13.6471205616759
-11.1676714755078
-8.48270706587473
-5.60689282234098
-2.54716657580828
0.522784781578421
3.38823051788303
5.99340506255952
8.32926689945803
10.3468959809639
12.1311503669703
13.9131692357295
15.8512279657385
17.9855832276889
20.2477398928484
22.2848536258252
23.6031019556603
24.2073645355032
24.749930541863
25.6824561261354
26.468380241783
25.8286386881525
22.6842550063775
17.0450591587162
10.2670040368955
4.22949607637838
-0.0398313372764127
-2.81372589067771
-4.82368613500877
-6.46336395767831
-7.84569385037217
-9.05922083652894
-10.1522497472461
-11.1672264086032
-12.2256226572858
-13.3516767750716
-14.3176044022703
-14.8762335907032
-14.9746328012104
-14.5813245910092
-13.5739709952259
-11.9746287040048
-10.0948300824929
-8.43952270189355
-7.65383912558766
-8.30012804732882
-10.2955672395732
-12.7979456760189
-14.981897464993
-16.6902473911325
-18.173260608557
-19.6138932741482
-21.0649497570744
-22.3779490788639
-22.9791188343927
-22.048064427207
-19.1179581754739
-14.4880333550377
-9.17730571610189
-4.44381387118867
-0.974420624258709
1.58534280195887
4.11157144952959
7.12216348254843
10.6049704419436
14.361012867156
18.1288362922807
21.6417829023784
24.8836120534544
28.0839358099997
31.3307949825151
34.423440295705
37.1112514519847
39.2231960470128
40.6304693628628
41.3084175272654
41.3059221517122
40.502377106108
38.6468457273335
35.7724702548362
32.2392905980476
28.2500801791477
23.6768301038758
18.4044433312308
12.487918186086
6.04118654446636
-0.666014922876666
-7.14142395782274
-13.0067451714838
-18.2194838450159
-22.7957445697355
-26.6019298677234
-29.5480067424535
-31.7348329644107
-33.378177313665
-34.7374455834616
-35.9752768848135
-36.9734187305275
-37.5200480310278
-37.6921338407647
-37.7434672601541
-37.7294319651647
-37.6146225309701
-37.4959824889787
-37.2575793345953
-36.2964898110824
-34.0614319053531
-30.630958538962
-26.4742205891884
-21.9645755041195
-17.3636562750643
-12.9825950112092
-9.1427618820707
-6.05730824750657
-3.67454092903388
-1.51691577866163
1.12017780833392
4.65328162609023
9.10832645675811
14.5307948963345
21.0184029670746
28.2006563062783
35.157021089924
41.0596030903769
45.6238581642291
48.9557850372627
51.2833418690972
52.7843138415038
53.4425533267998
53.1220273076293
51.7748291300958
49.4050355879012
45.9975656141105
41.7386846074165
37.014831816489
31.9162935989467
26.1538330813343
19.7475848432513
13.2951335774432
7.2523568177206
1.41929963449475
-4.60896332716178
-10.8366278764858
-16.7973783478323
-21.8323351742409
-25.5304880430725
-28.0649143371965
-29.9105530748752
-31.2978042882481
-32.3940627500532
-33.8777232454516
-36.5907509664583
-40.4987337766892
-44.5449937938388
-47.6235810446388
-49.2936347079641
-49.6268257043772
-48.8733228332516
-47.3018321939762
-44.9638126198689
-41.548731989042
-36.6613116879905
-30.2240455707203
-22.5792936275559
-14.3087356070149
-5.90401665191723
2.48112616173119
10.8338423878191
18.8876193241046
26.2210037646903
32.6028523751251
37.7833895565067
41.181709445325
42.4688490723113
42.3844796942897
42.3211590026541
42.9859168476336
43.7692038977735
43.3926194211032
41.0775755785081
37.3188072293475
33.5785562402984
30.8934365877474
28.6479154776279
24.8781478672503
17.8257847189436
7.30721372747311
-5.02022332077938
-16.5354978166349
-25.1272036767612
-30.2179697779081
-32.6321877390927
-33.7781024648033
-34.9576892560629
-36.8519150507583
-39.092881943766
-40.4585135628567
-39.8620316142777
-37.170425098638
-33.063300572642
-28.4149015597708
-23.8505405885273
-19.4006154750059
-14.3605274505158
-7.85038044706751
0.287374597179563
9.27653481790236
17.9774458665372
25.4496162246179
31.1594131476266
35.0526016062331
37.61465434727
39.8188060310655
42.7045161498363
46.5226255680709
50.2423850145422
52.3396909031157
52.1502653271008
50.1033316563436
46.8293884216373
42.657988884894
37.815238954567
32.3542852462014
25.9076980972132
18.1393974170459
9.42804489677737
0.563537599771364
-8.31626608686047
-18.1453242080312
-30.0409425127154
-43.8372132816429
-57.4779453322886
-68.1561475526552
-74.3466076269743
-76.7342805089138
-77.2413968523213
-77.4105301912891
-77.5763774324114
-76.9521516407776
-74.2202731308187
-68.4071481533759
-59.4966473773503
-48.2196737308312
-35.5238041822159
-22.534221370841
-10.5876924440487
-0.616552280471342
7.47590109250472
14.4823754356115
21.019510734357
27.1069858961437
32.3441119089682
36.3056254052512
38.836677590996
39.9655933022244
39.6229934798821
37.8403004921528
35.3242521545173
33.3735075792992
32.9394359674126
33.871424920593
34.971331437785
34.650585241794
31.9960142698665
27.6189606952497
23.1149272870212
19.4369426257077
16.2914785718205
13.2872866237992
10.9426305859703
10.1529308454269
11.1403463675964
13.2452352934317
15.5100495390898
17.44813654266
19.5080962843689
22.5709071198909
26.4332284702493
28.8507712551269
26.8429154647249
19.5225914059288
9.58177954738268
1.56195088539288
-1.7354245922413
-1.21571615211823
0.145952191911945
0.516395415908619
0.256263830497864
0.20884409847699
0.1506412557708
-0.74798017686301
-2.83891801366829
-5.9470281800261
-9.98106253671207
-15.1367632849928
-21.4777579663622
-28.4227666532685
-34.8811472368667
-40.1504340784479
-44.4528818712128
-48.1863696037343
-50.9019689712494
-51.5329523086295
-49.4894448884502
-45.1875952603403
-39.7071310791705
-34.0970278889894
-28.6963394965449
-23.0596726883594
-16.836055534975
-10.5043658000888
-4.72900169218518
0.782916807662973
7.12462925223665
14.8823616186477
23.416480884313
31.5059069580287
38.5359910799452
44.9512002286947
51.1296473034699
55.3563982035825
53.5498037084314
42.4551263953427
23.5640029520495
3.01795466463063
-12.9455510880293
-22.3410549282123
-27.5493251637861
-31.8652046486822
-36.2658959638478
-39.3528025665969
-39.8806115526741
-38.5443445193108
-37.0693604480282
-36.3619732018441
-36.1717215234957
-35.9687629806186
-35.4141165794616
-34.2322979889518
-32.1305118321819
-28.772297919879
-23.7399108679044
-16.7379740211096
-7.82007698245637
2.73710740519615
14.5548621270646
26.940185760908
38.8291159262378
49.1708499718818
57.2628138214723
62.803365240468
65.923195921625
67.1152651784715
66.8975715268785
65.6346361942073
63.7733528909313
61.9032415795769
60.3221404624059
58.8042738742343
56.9695124581557
54.5584485078748
51.1734825652913
46.0546406441753
38.3293550281236
27.552368772193
14.3216415045317
0.494487370251738
-11.713702795708
-21.2356581435983
-28.5673055770508
-34.7068272967117
-40.1165227470098
-44.6625529519133
-48.0111109477646
-49.9845649838466
-50.8162513103804
-50.9916155946788
-50.6837689275737
-49.5532818627165
-47.1953369506316
-43.5694607135199
-39.088255139301
-34.5691634398209
-30.828332034483
-27.9061608202773
-24.9438129660491
-21.1565212357342
-16.6284212329814
-11.9392383357447
-7.44486067523062
-3.18829257317496
0.871154138627294
4.88053841967532
9.20936953815211
14.2523532372332
19.7887938309755
24.2480572147699
24.8991325364668
19.6980103737686
9.52486340491887
-1.74202994128662
-9.85523768013527
-13.0379066585469
-12.566827081768
-11.1740921645522
-10.9757865783693
-12.4191421864692
-14.668229520613
-16.6265485060649
-17.5262783447632
-17.0689250144453
-15.5743884306838
-13.7499719775246
-11.8029744182368
-9.01594600415764
-4.63583990832468
1.06711061675675
6.95847962492004
12.0093398978804
15.9559075956606
19.3157899262908
22.863959174756
26.9169651365856
31.2228765576989
35.5787679411491
40.095842405771
44.6983629375502
48.8830117637832
52.1290365900788
54.0373172500438
54.0222893077986
51.4840901229768
46.4545977259282
39.644013948434
31.7530060149431
23.0725384761445
13.803270298301
4.44018186746191
-4.37886088887114
-12.3983618233322
-19.9388154636497
-27.231174613478
-33.5230526572908
-37.3915277914471
-38.2457180402168
-37.0029811871585
-34.9356675880425
-32.373060032033
-28.8730406306472
-24.1590862554661
-18.5482850778157
-12.8071180820326
-7.80184470276454
-4.14326424521008
-2.1817884673735
-2.24282529364511
-4.3352096191086
-7.5427919594475
-10.4529021540704
-12.5464802529944
-14.5695106205375
-17.21557432455
-20.0324793939677
-22.0626740825719
-23.2319844946126
-24.694819819217
-27.7395733182572
-32.4079159853136
-37.2930646770482
-40.743197254871
-42.0848416422275
-41.614574225898
-39.7944173501406
-36.7645348335833
-32.3847791146613
-26.4754756850273
-19.1685449688867
-11.0773819762769
-2.83749663647939
5.47106187737195
14.0225282590873
22.5075938683051
30.3247959190304
37.4583152332724
44.4891633940773
51.6080590903384
58.0391717047623
62.5370630442128
64.3580575747028
63.9538707319772
62.8244224881336
62.4045400959052
62.9125214898295
63.3666648332818
62.675006634633
60.5983520212586
57.7335625173312
54.5896620451074
50.6449450334618
44.5970575707099
35.8383034967984
25.4084110318225
15.2067123432507
6.62992204348746
0.17055006002579
-4.32564997830499
-7.50632763976886
-10.1875043357695
-12.7795695715486
-15.1656629957482
-17.0471658836636
-18.1171300209327
-18.2914246156253
-18.4434129335618
-20.6575313214172
-26.8860739671161
-37.0977686049451
-49.046370313809
-59.861620871807
-67.7679882065636
-72.6694564088612
-75.6156056806652
-77.7827917088291
-79.7547427108892
-81.4709864224125
-82.446077655514
-81.95101136374
-79.4073341500079
-74.8102186779312
-68.5404291847712
-60.8637151615393
-51.9704001284773
-42.2316487127888
-31.8575792605374
-20.5204086503126
-7.91923705485118
5.34117063318412
17.8559554265799
28.4208192572209
36.819276655813
43.7529391200858
50.0362022930403
55.7624782843652
60.3594386817771
63.4656084621554
65.3582444649226
66.3644915228804
66.322588864502
64.980328196019
62.6810769907204
60.2675259251631
58.1186838478284
55.3234927049119
50.2354700628872
42.341383525092
33.3808890006945
25.9801908615544
21.2299528816123
18.2150677137178
15.7689099153877
13.8285450172022
12.9756846680699
13.3770732499856
14.3395596405232
14.5088025022849
12.6929796961549
8.95844590653813
4.66769376197749
1.03451954262208
-2.0775865976744
-5.65612844868155
-10.2321175676951
-15.369510019233
-20.154479361149
-23.8540575436914
-26.1008700258245
-26.6401162585729
-25.2454615822457
-22.1277576225099
-18.2091677968766
-14.7438682388564
-12.9044810059854
-13.7442079997938
-17.7175109826076
-23.6689362235711
-28.9330162203898
-31.1712562487835
-30.0538868046823
-27.1734026772811
-24.7835908078054
-24.4242308034764
-25.8933264193097
-27.3782865243036
-27.156683603111
-25.2199030943975
-22.8321651485543
-20.7573001860485
-18.5647700478961
-15.579096500904
-11.8999677758272
-8.35257289369702
-5.68884940653296
-3.92221094952255
-2.43276500649081
-0.685677034280011
1.34344444071475
3.45473468183614
5.60563498902653
7.95098922000279
10.7773762297947
14.3085930972176
18.2675698771101
21.7829946690894
23.9301506339756
24.0765784280863
21.7300413987363
16.8329395299082
10.4967555331938
4.71106362500463
0.909925749813931
-0.766123571429007
-0.758983992576737
0.736737196071569
3.72876692382912
7.96012428585108
12.7184021633361
17.1893216677586
21.1100230472474
24.8784620040017
28.7670376150444
32.2977486621117
34.6477297248494
35.272825167423
33.8830970674122
30.38459341213
25.2721764256937
19.6040594721118
14.2023804369471
9.26984047557354
4.9548410953999
1.67247480609608
-0.431323454640316
-1.80604035686315
-2.98203146063004
-4.03719653515682
-4.73985670339649
-5.17145261359731
-6.35782662916375
-10.1919499237668
-18.0986181712985
-29.4192248084631
-41.4137976589068
-51.0693281912641
-56.8522598211111
-58.9837418003318
-58.5253780898764
-56.3079747007815
-52.5581857263082
-47.3843402446038
-41.2613250338468
-34.6934272126479
-27.6404547115358
-19.7197025913314
-10.8797939904295
-1.644611341278
7.11039326647356
14.5597836093506
20.5139091210034
25.6973907044338
30.9688327302096
36.0428276028976
39.2937786198959
39.078816371963
35.2808126451579
29.6327746923808
24.5905571160848
21.715701180734
20.9257501735915
21.1641627884045
21.5526780309356
21.7241696240121
21.3826648391141
20.0779243792628
17.4258859144393
13.3204405534372
8.09724849377273
2.66980282664585
-1.78453727361808
-4.51281598715641
-5.49082037162127
-5.20861376831533
-4.42247081598348
-3.81519758310138
-3.48675209643308
-3.04414274909002
-2.47017251939301
-2.41516473022599
-3.23627674432769
-4.19857153294017
-3.99888348777121
-1.74375508155403
2.72487780253103
8.9243289061787
15.745608749516
21.5629035401536
24.7301206742036
24.3837990432019
21.033541712976
16.2327122469692
11.4776570714117
7.60920093401831
5.25903471183629
5.08892033743033
6.85716542945199
8.49100126599075
6.84244100058674
-0.164930673553557
-11.8977118045175
-25.2971694617652
-36.903033338918
-44.9900505861185
-49.9338023445699
-52.7288233206118
-53.745487987542
-53.0900343084261
-51.3252953019035
-49.1507436721964
-46.7868097512117
-44.1497584841338
-41.3262820782699
-38.5898776041239
-36.1164769650472
-33.6322306918158
-30.1632561498742
-24.5332633000817
-16.6091633831224
-7.84617973838433
-0.219675984402768
5.28671780252331
9.12105626087484
12.5011688635627
16.4399486952692
21.1258066819733
26.1400518296816
31.2475877335713
36.6524029638789
42.3360521959905
47.5087897719879
50.9869806036531
52.0670211434817
51.0940520119015
49.247933826172
47.5724632195932
46.1922647805793
44.7870245515827
43.6409006779479
43.4257392702491
43.7874573636131
42.986343175506
39.4386255220491
33.166534526452
25.4240600129678
17.3007777852708
9.00647282272186
0.361730766557378
-8.25768742083405
-15.7406767997394
-21.2347097804578
-25.0674506557252
-28.2585468381646
-31.3111922059447
-33.859108048268
-35.194352763638
-34.7263346946416
-32.2202278897704
-27.9494222787383
-22.4225063292104
-15.8763363731424
-8.33021569986976
-0.122006714613567
7.77488620969864
13.6165874927756
14.979028877231
9.99998586928587
-0.573360134683845
-12.9859053127128
-22.7636160581898
-27.3840614972724
-27.025777707016
-23.7294617721588
-20.1190544895671
-18.0245495619641
-17.5507542543211
-17.4486514955039
-16.4558397358617
-14.2533388112138
-11.422829677092
-8.84895722819759
-7.12400871262462
-6.36081662592049
-6.51902609158497
-7.58686291846337
-9.08805595991172
-9.79948880836218
-8.66698814300208
-5.96471056197754
-3.06274635254959
-1.00810803380792
0.48274170776699
2.68665822643492
6.55072682847342
11.6017314878186
16.23822308657
19.085172723091
19.8526212881535
19.1160169816812
17.8752385540006
17.2362922416245
17.8115802160783
19.3124008885969
21.1059314462957
23.0263546134424
25.3078982393517
27.9596808274059
30.3406436501451
30.9296290774875
27.6423433079137
19.3236184208705
7.25856884382437
-5.40114417723226
-15.9520479488592
-23.6094275616584
-28.9833210244024
-32.842777962847
-35.475231763842
-36.7001643765954
-36.1833430676643
-33.796286986064
-29.7817798083875
-24.7224138291618
-19.4288715107414
-14.6165869370187
-10.5104782542927
-7.02704816638969
-4.38112219623011
-2.93213658941413
-2.24858894254198
-0.997335067069518
1.9035190225046
6.4633654886638
11.9671537782789
17.471060613557
21.82988470833
23.9662363704395
23.6930523544901
22.2540893054469
21.7321899880387
23.4303481399616
26.5084950719074
28.5186993019625
27.7015663562758
24.5577089628353
20.9936741297671
18.4905743005826
17.3875471241738
17.1149485097996
16.4142224411971
13.8368885717251
8.79016428707408
2.11760635546987
-4.56283152917106
-10.0705098964834
-14.258472136309
-17.5434951265241
-19.8821756873557
-20.4155265267816
-18.4860152528356
-14.8502828756765
-11.2832589738945
-8.97346218642499
-7.86952842623893
-7.4857165213124
-7.55500284163415
-7.79057974457756
-7.67203930505492
-6.72850265179682
-4.85866512722703
-2.49183391592501
-0.585552609160758
-0.22361631327797
-2.01585775439551
-5.85863679263461
-10.9756346008957
-15.9403557554605
-19.0845004495394
-19.4601094810485
-17.3981336277621
-13.9895712165494
-10.23701508446
-6.75088045472465
-3.81292287751638
-1.37121360038516
0.916314704685015
3.32257810011448
5.5269681160269
6.58316254639404
5.85978292791693
4.06235159644624
2.68233371610619
2.18778201736772
1.46808623470326
-0.552814794641237
-3.46617076044047
-6.01051939190758
-7.49817203726992
-8.02744475674622
-7.73246901160907
-6.44537316877813
-4.01239098630993
-0.656204532960368
2.96111436923557
6.08914942093512
8.48093545691999
10.5416816967043
12.7765948269739
15.2868641993804
17.8015109726645
19.8374784502938
20.8833155891983
20.9162466785148
20.7273751066879
21.2934654638493
22.7995748277601
24.4271859624443
24.8104687917028
22.5581299417938
16.8984018714718
8.30609600575247
-1.67390386430991
-11.4206112480018
-20.0057714732674
-27.1980158250748
-33.0404594253497
-37.3154079984796
-39.2500184472312
-37.9895715502975
-33.5670606079468
-27.306025264841
-21.2507519552067
-17.1500051891087
-15.532781395661
-15.387079354502
-14.9547033816623
-13.1422091394043
-10.1256798682173
-6.73080825316082
-3.66527482405005
-1.26312776064813
0.697859682627427
3.07786442150326
6.72875015165909
11.6421437038358
17.1268792737249
22.6527014539736
27.9153316038698
32.2201798773654
34.5592891555584
34.5283412849515
32.8210595569597
30.6048565197387
28.4678013816251
26.1174271819616
23.1902968645223
20.1045215210735
17.6921884217432
16.1108238191006
14.6991779630386
12.9625663022156
11.1870283009182
10.0022692903446
9.7418808972808
10.2508620888174
10.9992872044024
11.3290261801843
10.5820316560573
7.86056704802244
2.07013599451879
-6.99919512135839
-17.6294290478926
-26.9391617740103
-32.895372832917
-35.3180788022467
-35.258960773037
-34.0278264105056
-32.624935028324
-31.4386890880938
-30.3532553316312
-29.2770330331622
-28.3266146277871
-27.3998187812816
-26.0432838523248
-24.0223515718744
-21.6905720839872
-19.5622276334367
-17.7065627148711
-15.6675705712601
-12.8603212573382
-8.98726724700461
-4.09909632132483
1.63087651891458
7.95521821084929
14.3441106453728
20.0268137057659
24.3997626767959
27.2819664241182
28.8359309048488
29.4148389277024
29.317182363432
28.503456324646
26.7574362071562
24.0265993975736
19.8909749009801
12.7046913470795
0.572745992748651
-15.9681254571032
-32.9328489953308
-45.315103561065
-50.3931121116214
-48.7461737833234
-42.908473840799
-35.4734351345734
-27.9537716106019
-20.7742774084563
-13.964127352523
-7.57053741278016
-1.47017436673666
4.66831161519304
10.885812482298
16.6083247394948
20.9922670416333
23.5233018737671
24.4414991418148
24.7994521545997
25.8433322196408
28.0372015905637
30.8416490607567
33.4302691315977
35.2260604207531
35.8695387060312
35.3627105644796
34.3819270581528
33.9343604673621
34.4847171067707
35.5323691146551
35.9965374484682
35.0348146019177
32.6610067336736
29.3682226445645
24.8892349737613
17.8623659747477
7.44594511858158
-4.9676752611326
-16.214279027365
-23.4520076210656
-25.826684678666
-24.7816497416676
-23.0183979544857
-22.5793437403639
-23.6253489768528
-25.1472378626766
-26.3794401278947
-26.9978966435028
-26.5874652513373
-24.9895200886022
-23.14947727257
-22.8627131905792
-25.3921367562463
-30.362748596009
-35.7836362763583
-39.1151711376412
-38.8201805085898
-35.2718987874457
-30.1386140174051
-24.9338341404606
-20.1874966843774
-15.597907558618
-10.5733411872564
-4.75532463948258
1.72385073744896
8.38451961369809
14.5505785117632
19.2657056553646
21.5401071019153
21.0447195498615
18.249542353306
13.7384908189256
7.8948577870711
1.36686865494976
-4.81990192891508
-9.85930409722878
-13.4263298414699
-15.3170743951547
-15.2893565609572
-13.2662497887782
-9.40962467086745
-4.07581321078778
2.23247872273965
9.0970211028507
16.2603746995588
23.1124223912423
28.3509839820592
30.7681663888621
30.4037464751178
28.5722415464771
26.7910808718002
25.8682307492701
25.7999622087426
26.1787540188467
26.6312357750401
26.9252418260384
26.7238402615173
25.4907238326604
22.8327692036395
18.7960764560952
13.7818301262101
8.38521237035622
3.16040216794122
-1.87982199372449
-7.33421458430077
-13.482160751351
-19.4981902490423
-24.0438790089698
-26.3613499498324
-26.4762715186791
-24.8647547332461
-22.4178512269997
-20.3140735007601
-19.3656123285803
-19.4263654175827
-19.3539160213598
-17.435551393689
-12.3811996861765
-4.62928042337357
3.43444543045583
9.14749565220874
11.5601744865439
11.5899851696309
10.4482123944308
8.38042471934049
5.0457590402881
0.718170063441689
-3.45525405387254
-6.53994794594082
-8.69546034401318
-10.5191874096439
-11.7258263961427
-11.017182119919
-7.34234925565224
-1.02689726891688
6.25981567588098
12.3819179532626
15.8115054994675
16.3323965361404
14.7904577086661
12.1602168036668
9.09934380218764
6.21143983665479
3.97115076607604
2.21064680177278
0.255095997467834
-2.40218844557661
-6.12759562069367
-11.6213860545079
-19.3415004933627
-28.1041016055749
-34.8761414387765
-36.5394176866796
-32.0728690542193
-23.2382414913391
-13.3673678335822
-5.4090387171251
-0.681213307180714
1.26013026594664
2.08339642921419
3.64210959093994
6.63138817779844
10.1425188532178
12.94402699666
15.0335391718879
17.40177648392
20.4100794989808
23.0207071516519
23.8582303181273
22.861983460791
21.6798701613869
22.1425952061819
24.1467389274641
25.2929437946942
22.9589178590166
16.5917911369164
7.82501985221693
-1.114082507685
-8.64404243176244
-14.0489872509371
-17.2754566286091
-18.5683752541225
-18.1498585687042
-16.402379266626
-14.2140082165511
-12.6197903083847
-11.9746716050768
-11.6444175019406
-10.439888883202
-7.52310008490354
-3.51876405173647
-0.76245140388114
-1.58807578206202
-5.94923053449389
-11.1822707615894
-14.2834402060859
-14.097366815573
-11.5121951340783
-8.26092330368379
-5.67500662906965
-4.08812362326715
-3.07504017155499
-2.18196173111469
-1.42012173107201
-1.19538396834106
-1.88293274388787
-3.3047743618023
-4.50343210463944
-4.29239387544006
-2.26584650491173
0.86625668233084
4.05605268426868
6.89353135335146
9.81091119552072
13.5256100404411
18.279140382528
23.5138113624622
28.4279914470009
32.7777082812615
36.5891643292189
39.0848493244049
38.8626280244994
35.6008630422479
30.8211440005102
26.4588422050138
23.240442674469
20.7839323904648
18.6362179699474
16.6591211028832
14.6707277954346
12.2257930547977
8.93248293409991
4.79807928954942
-0.0892367234492316
-6.26021793626012
-14.7769543592627
-26.1035687003802
-39.2489412819552
-52.1214125370584
-62.4533722393179
-68.4978779926157
-69.522398777813
-66.0359526113729
-59.4038815848292
-51.1068380350402
-42.2377127591051
-33.3714929645215
-24.7876839805735
-16.9962561541808
-10.8857364920219
-6.90009933774194
-4.21457462773643
-1.3970629074216
2.03876688540967
5.36063062734818
8.07501375390435
11.1348714945238
16.375716710382
24.8506823201306
35.6312321259102
45.9789242243244
52.7367919176433
53.945153400111
49.6899610304522
41.9094140714238
33.216567650412
25.1046777629126
17.0301469498068
7.78850614973067
-2.21827212863751
-10.9259724655924
-16.9221054068674
-20.8508878342916
-24.146478265436
-27.0978721558262
-28.5452401085131
-27.0725439225838
-22.3825941022127
-15.8407889235903
-9.66567269999859
-5.34455967756751
-2.83683508896137
-1.19562282001347
0.444994125161982
2.54316733815729
5.37128064743666
9.25088355192604
14.4523539006508
20.7266926324576
27.0110194959608
31.9240485661255
34.661178976748
35.2747808667822
34.2318628963257
32.0220181853001
29.0410053899329
25.3809177724034
20.677610187443
14.4324900820889
6.54493717927366
-2.41212864107424
-11.1925760016575
-18.2676026932563
-22.7206278654653
-24.8337186911451
-25.4749182669458
-25.010290623652
-23.1653522540576
-19.8019056480673
-15.4403566063458
-10.9798675509823
-6.99115869850786
-3.29570902222398
0.556502920244712
4.26169130768518
6.56825939610845
6.38069412242892
3.75379322039395
-0.383905899722538
-5.1372268885399
-10.1550325392094
-15.4921577789408
-20.8712355658065
-24.9628836167307
-25.9613636517486
-23.3400948076828
-18.6396148712164
-14.219676478082
-11.6405136901041
-11.2523070894066
-12.4778920861394
-14.0614684741682
-14.6498777055998
-13.6560236838082
-11.4658825102317
-8.87035227190731
-6.59888940702774
-5.14964306955566
-4.43352755786655
-3.45828920382602
-0.697791857874225
4.94548283557482
13.2069993579013
22.1456285752589
28.9295602464895
31.4231961367227
29.2367558227211
23.4873076715946
16.0607038904559
9.08008141132403
4.26430474197246
2.26918505083234
2.78208080333396
5.15623233719869
8.61804161939908
12.1877334268364
15.0713421469277
17.1632391764044
18.9148026135149
20.8619877563959
23.2756414990976
25.7788622685771
27.2146987096908
26.4174313422919
23.2862082515107
18.8376218663709
14.3918467357797
11.1008743552121
9.78070906742938
10.1035064027512
9.73393779227621
5.3145720314815
-4.63027977827982
-17.7418134198593
-29.3631775407478
-36.2959340187613
-38.8662702674582
-39.3927043964099
-39.374058329742
-38.7306958604316
-37.172726627804
-35.1512769377433
-33.252071235016
-31.2998595422727
-28.323852946379
-23.246322132745
-15.8011363723819
-7.02550355974547
1.43505723308594
8.75987255758794
15.4383914041937
22.1857505887355
28.642739521658
33.2635643892751
34.3752573291378
31.4248085989046
25.273206116228
17.18497025275
7.7597196303397
-2.71322223613825
-13.1184291035964
-21.500568202226
-26.3146496237843
-27.3604491257062
-25.6787411239114
-22.9174434171518
-20.5064456758436
-18.8901728915072
-17.4324930886081
-15.036393874605
-10.7196032268585
-3.90943400275188
5.17546585259866
15.427230955315
25.6718687777448
35.5643245121186
45.1211805270806
53.4347587477741
58.5394301718849
58.8580645501646
54.6293939592463
47.8903501510612
41.0865373836931
35.508477506733
30.8480065931068
26.026754795177
20.1748708211287
12.9389578144806
4.37946064511563
-5.31771185994152
-16.3764044990862
-29.5193775663108
-44.9376250236723
-61.1864815793383
-75.4998924808091
-85.0731031853167
-87.98061656485
-83.7017829303357
-73.5303682762265
-60.1045996712626
-45.9729444502676
-32.7418525558291
-21.5192828087988
-13.3061359730767
-8.35815238305539
-5.49522299391539
-2.59571821017589
1.98162776123
8.40544598760567
15.8066677654921
23.601490566192
31.9286498883447
40.4477567879707
47.2606924767812
49.9688053803176
47.9009681465228
42.7177038816014
36.782522175229
31.4089416585479
26.6006726664805
21.8681801050151
17.0266939066739
12.3855330730465
8.39282264166056
5.27063806048172
2.94671840989267
1.0325837602784
-1.12226141333297
-3.89463231291559
-6.80644031002268
-8.85311051865995
-9.39418253612775
-8.40269745232932
-6.15616127229532
-3.26992825728617
-0.753018376341735
0.706258350734022
1.52344733395203
2.84026249473178
5.27242976046145
8.0899912134211
9.6026376506883
8.55801703523997
5.3561108056795
1.6179716887489
-1.55847168806422
-4.41481752809217
-7.48528152620961
-10.5026893368711
-12.7871779841559
-14.1140299858603
-14.6730910228896
-14.5701837159491
-13.8488882413537
-12.8040100203914
-11.8866945694616
-11.1982586030597
-10.1003060514834
-7.49495535042768
-2.78545632035658
3.47538705195182
10.0254012964016
15.4972919396384
18.2581514616393
16.7434015412824
11.308541582392
5.32979221296532
3.05703208403541
6.04970771507719
12.1636197720057
17.8571868868644
21.1491105153976
22.7335602660028
24.7467766114093
28.3643001286581
32.2520324283474
33.1279018540493
27.8106703859082
15.202592775796
-2.95767961974339
-23.015598785083
-41.2620377257069
-55.0506193763949
-62.6719803611613
-63.3897145775635
-58.2177768036462
-49.9427989788713
-41.6619739023818
-35.3510535717415
-31.6453029452258
-30.2110363120304
-30.1046633488595
-30.3115731338888
-30.1486798283692
-29.0443099491646
-26.3913153325839
-22.0131113086112
-16.0597370876642
-7.83028206118135
4.29347558570253
20.5062633788914
37.6881372206287
51.1179114926843
58.2002490731563
59.9632206043694
59.0663655509485
57.0650659815321
53.8740708208254
49.2882365174625
43.9492392890307
38.2938260259802
31.3094528315718
21.5038175156651
9.18805086693564
-2.97319199395326
-11.8907318535306
-16.1969542584897
-16.672067480321
-15.1215454710662
-12.9521173485906
-10.6197360200451
-8.22512737402344
-6.20083884780968
-5.08446159181854
-4.98627476096417
-5.75320950194284
-7.3784926492348
-9.78339380448154
-12.3895585219114
-14.3114695962436
-14.9374684281688
-14.2280495084012
-12.6456948266122
-10.8468466425379
-9.21533476499876
-7.7187640917367
-6.41821797951584
-5.8727778604106
-6.61375621010894
-8.27646125085086
-9.50152986939672
-8.71888716286401
-5.22988864875445
0.0985060015466017
5.33988458319387
9.17403112307415
12.023981727576
15.2535467101524
19.4368185580822
23.7839765785473
27.168831310113
29.3771330447225
31.1268115598408
32.7852643483058
33.3655720921105
31.3978886620006
26.8113869366162
21.2280932635041
16.2347999894813
12.1257936175348
8.53381938252509
5.42382588906183
3.02454369813708
1.32104746413042
-0.0782113964136318
-1.85545393171571
-4.71230717297559
-8.75012253146473
-13.1088092403831
-16.5326455578421
-18.2941268533506
-18.4539496104651
-17.4584013156926
-15.7410084597846
-13.6143398193972
-11.4145051464382
-9.8074468946753
-9.99255616827166
-13.6185876377311
-22.3575306678576
-36.8007057868645
-54.8505798487401
-71.3453571122622
-80.4051213403774
-79.0684757038735
-69.1117482126071
-55.742514546562
-44.3585681623346
-37.4685917639634
-33.7284999476488
-29.8129545463699
-23.4542448689063
-14.9339271642108
-6.17513049783015
1.1911072328066
7.19429331099598
13.4810002123276
21.7976892433593
32.2780318797958
43.3468756754234
53.1465543123575
60.5535161392923
65.059516864657
66.6950620428243
66.411140502814
65.8005196333759
65.8501664803403
66.0751694133342
65.0372240561333
61.6327767505077
55.9315080449687
48.9940943500397
41.984066508567
35.4204463641722
29.1883665973424
23.0519492623136
17.0213780396852
11.3847959937961
6.46551935175825
2.11119237992292
-2.59831012790407
-8.78353535611818
-16.8126669962861
-26.0454079774405
-35.2565117366244
-43.0368641040681
-48.2446145699625
-50.6894697370833
-51.3132314841128
-51.4239449507704
-51.782930143123
-52.2575395830102
-51.9232938553602
-49.6341815103072
-45.0624411560247
-39.2110472057539
-33.562064306014
-28.7969562427171
-24.4731958544646
-19.5266432824176
-12.7868579921569
-3.4830478317116
8.07283147806417
20.104115211277
29.9423231155008
35.5811054774467
37.197636965104
37.0040096691979
37.1078006330096
37.6108599090381
37.2048946139472
35.2341859796075
32.359605335974
29.3580346106946
26.1809810441657
22.3851410435355
17.9035059036377
13.1433043319331
8.48466769073088
3.69830615394658
-2.03257696761599
-9.20058399246338
-17.1606267409135
-24.5157864953722
-30.0805393392601
-33.1876853966292
-33.5335381692546
-31.2617231786909
-26.9718447970281
-21.3576844060679
-15.0269513918368
-8.64444318774875
-2.91675226277545
1.42357048148675
3.39297089333859
2.13855302019148
-1.76299834081861
-5.83880573196908
-7.4385310738284
-6.07739075995523
-3.87026474879539
-3.62879505347792
-6.35122938549807
-10.3372352288416
-12.9381352193452
-13.2746689842172
-12.8052003723939
-13.1383539828989
-14.0009975635435
-13.6949214485255
-10.9413505127092
-5.91601539827387
0.0514538468701114
5.55425949472173
10.2662405508738
15.0196653073913
20.3174618802943
25.0944419950847
27.736001490811
28.1919469904114
28.285458275225
29.7627351458736
32.4363043918699
34.3609056498949
33.6058640876245
29.6822827337474
23.4142796114556
16.0949041609868
9.27341672031405
4.6959877869472
3.25743477141187
3.95207962669607
4.69303972474935
4.28194310475596
3.10073597156493
2.10632049462271
1.73898493228062
1.68732403470256
1.45554872405039
1.4982672172221
3.71391814036319
9.69679297232455
17.8487687840664
23.0957500910563
20.6315477660462
10.1137153037911
-4.16440393641736
-17.1543119838562
-26.8227319502385
-34.3706110240304
-41.6034720803591
-48.7762664276645
-54.8357184050397
-58.9063023109311
-60.9661552485018
-61.3707656292146
-60.2652328230684
-57.4890722642872
-52.8168176400345
-46.1987892262352
-37.5829336967209
-26.4287572502211
-12.0744385342119
4.69159256799192
20.9568010875326
33.6440627396475
42.047919102958
47.6158466721335
51.3664938660712
52.4512298662022
49.5046181003722
42.7726892144723
34.365078496148
26.5135185796664
20.0750336960139
14.9130224541559
11.1262606583507
9.18498274432673
9.03573754404327
9.63891833166439
9.32987574272446
6.58971492285463
1.28632080331142
-4.31140670414869
-6.61336134174404
-3.74465196810239
2.73419701271302
9.49683776687953
14.366671324563
17.3408617284495
19.4667581367749
21.3190598897531
22.272123392207
20.8202487796533
15.6853159857369
6.88441225087039
-3.9765478236728
-14.1474833097565
-20.8344223209677
-22.950600304599
-22.2356357744366
-21.9626613217094
-24.0393162577055
-27.621055028963
-30.5149280446929
-31.386396504714
-30.5448771628245
-29.0960487746989
-27.6096108138879
-25.6075241586918
-22.3365179468079
-17.7709255383572
-12.4753749481961
-6.65406354918317
0.107707925136395
7.99254837793947
16.0006996936601
21.9323258867024
23.6278454459875
20.8038467830648
15.7743758358829
11.9335245103463
11.2646174165231
13.2128085074765
15.5872955550765
16.3503974439767
14.9892234512545
12.6502744434641
10.9260476936529
10.4149438099959
10.5582809527036
10.7287125943515
11.0515193494353
12.031165950164
13.5533403963192
14.3195190807473
12.4147851175201
6.90716152073931
-0.974806386537485
-8.74015353543516
-14.9052944566374
-19.9692514027439
-25.1192204915446
-30.5457750499238
-35.2020066255716
-37.823573233638
-38.0032497631712
-36.330724942636
-33.431902964289
-29.0231219295732
-22.2962794021583
-13.1410712828469
-2.48980429241351
8.49525840468889
19.0774631527932
28.8404455420467
37.4040194738327
44.2735483491761
48.7022307370136
49.7495984184012
46.6797767255928
39.4700660310313
29.2635484302837
18.4119059081739
9.38367645448457
2.94448642490931
-2.31870878234302
-8.15067965176681
-14.5186247050034
-19.7018570159836
-22.1867373177247
-22.0889951268535
-20.8541579326721
-19.7263816118284
-18.3664334777606
-15.0829667601221
-8.79006425310322
-0.609517682637625
6.95132439482686
12.4493822347627
16.7830324953627
21.8131479258048
27.6838753333642
31.7284707319006
30.5173021625488
23.1178518855793
11.8785629992792
-0.082521207030501
-11.5358440505927
-23.1429209263773
-35.5414642865463
-47.9216946588188
-58.2934356807418
-64.9545435004321
-67.659502776109
-67.2023215064637
-64.018360497881
-57.7352623096733
-48.0154537109121
-35.1156464275932
-19.6758021862622
-2.87699155167527
13.0680825999073
25.5749184169148
33.5270403838236
38.3342860494376
42.8693513978277
49.0450938294764
56.0160810295659
60.6799053397703
60.3479271176376
55.2010819493206
48.0703619632746
41.913078943208
37.7019288229959
34.4250937256525
30.4548095239819
24.8071585717549
17.5585074261758
9.42368977858763
1.08834898317053
-6.98471524893109
-14.3120432042739
-20.2942258934112
-24.4217656966913
-26.5545015762618
-27.0945902323617
-26.695054676254
-25.4302323814102
-22.4713047131641
-17.1284014195381
-10.0758929408955
-3.02827079927885
2.64973096642785
6.60759377157827
9.12183633546625
10.579545764913
11.1689700084505
10.6966810987532
8.78136145125231
5.36255394629468
0.981978967481454
-3.3187326014391
-6.35369358622652
-7.47661284270392
-7.22518572243953
-7.05795376529579
-8.23667709961855
-10.9975498986462
-14.5947279083518
-17.82005777335
-19.7357672998499
-20.4451923907257
-21.0945843148474
-22.723231174046
-25.1861056717484
-27.411319003045
-28.3996788743284
-27.7157944661781
-25.3883525468145
-21.6504802331572
-16.5647486485551
-9.84752668182267
-1.36476994410779
8.17187943800866
17.1850650012335
23.8878608499873
27.1766193182804
27.4744349059686
26.7585172362409
27.1162068242308
28.9891654542667
31.0347115332287
31.5025037878922
29.4271581777044
24.9896114933168
19.4555161705013
14.5795972543625
11.4211025122122
9.58575473975002
7.76144484901393
5.01763356016496
1.66093758320358
-1.1263982786899
-2.61850443668985
-3.4038293975295
-4.51173263901534
-5.80517945634792
-5.981528977453
-4.43630426050647
-2.55274522475063
-2.69667658657454
-6.06787520737443
-11.5726727772699
-16.5393643349602
-18.6166734323676
-17.3838224279521
-14.2458938153984
-10.83942705435
-7.93757305943682
-5.91654154208846
-5.46891605534524
-7.17607595648975
-10.4742943907432
-13.3322710181209
-13.1999437630655
-8.80047670375998
-1.3938112860028
5.8753059048267
10.1037703372347
10.2620982776447
7.38396445646281
3.93343797524313
2.73179566393333
5.41620800386822
11.272321457215
17.5439726276881
21.093632173228
20.3368685501358
16.2513117989086
11.4627387856498
7.8285472029273
4.9393405784593
1.26108464219943
-3.63533945823048
-8.48251003193124
-11.661382556416
-12.6420230880921
-12.2217546131101
-11.6820870761754
-11.6408794035934
-11.5320445349326
-10.2518291158025
-7.35246221210112
-3.50560562366551
0.14141878959812
2.87917963218586
4.72963546369089
5.94555230811213
6.29547649361569
5.11631137964478
2.28539011039151
-1.23680251707511
-4.26181193515777
-6.4603677169068
-8.17610410935692
-9.48749010930998
-9.9406035939276
-9.1120040386228
-7.20119807844591
-5.05590337385072
-3.44901260169722
-2.16068790895772
-0.0708312516495717
3.58596170020008
8.379844312997
13.2210342797561
17.1626844725904
19.4509507306634
19.4980618243081
17.3929714909468
14.1884565509724
11.2837446844329
9.4293087560822
8.24488191410902
6.6166166284094
3.66554333872446
-0.558818224272924
-5.24848937477173
-9.406402342854
-12.0746062920492
-12.4636648274298
-10.5470282363364
-7.56280785984447
-5.43595937556467
-5.453221607426
-7.44324227138392
-9.97285687915564
-11.2568092527205
-10.3294919014453
-7.68344983470923
-4.69186661294507
-2.46038298985134
-1.38594897409517
-1.47698259018149
-2.59537499747892
-4.404950873217
-6.24686823089538
-6.97608837241028
-5.14946328045368
-0.0426705555735262
7.25333549140413
14.0364928909036
17.5097321653353
16.338883120345
11.3314905872831
4.99242877464482
0.10005240412231
-1.81261028265391
-0.981429077638486
1.09380849412438
2.55309129600051
2.2347953128276
0.454474919903275
-1.38712902475844
-2.14926961046076
-1.73208887382573
-0.692282236610787
0.366763927984137
1.02394443244601
1.17922040210692
1.054303077403
0.812657902640831
0.410252942972547
0.154223961974178
0.942325511959104
3.25447792628918
6.08086855026564
7.44106867276985
6.05872765448324
2.48863367167347
-1.16610351927556
-2.75162191945187
-1.83212798597466
-0.132370612865709
0.0611180269929731
-2.01334094969413
-5.11501097225756
-7.22280895517451
-6.99425966411001
-4.44742756241031
-0.751380277068097
2.58621775308417
4.55707405418994
4.98520538164037
4.32724220686808
3.18643819266922
1.85382392021588
0.348120447659658
-1.07280926261549
-1.84060458839875
-1.77916203384839
-1.47449208853123
-1.66012859108045
-2.62901481401151
-4.41496203844355
-6.98360810963744
-9.91183733275056
-12.2987920596668
-13.3787396489428
-13.128975922195
-12.1553660312559
-11.0295821545687
-9.73688795283633
-7.78893026613342
-4.96176306388819
-1.77129791162266
1.01166106473531
3.04552039256779
4.21974045592347
4.15632791897895
2.57076191301976
-0.0477289924490724
-2.58984136707099
-3.8515573176331
-2.5643537287348
2.36572768316832
10.6860446058506
19.9504998967351
26.5818975288391
28.2682395970379
25.5696301771532
21.3374041889012
18.4296513677571
17.7173595723558
18.1318470378531
18.2851110153893
17.5832554891178
15.9893458366569
13.5326213225421
10.3536183889869
6.8045496994394
3.26995780474186
0.0542672070601735
-2.55347796162152
-4.33144817239159
-5.40290578556572
-6.49550381452305
-8.71357392120925
-12.6218449060913
-17.4781622704207
-21.8661068128995
-25.3249519027004
-28.861907324538
-33.5290927865665
-38.9683977422912
-43.676511323269
-46.165007790724
-45.5231386569307
-41.4841480881637
-34.5313988734388
-25.6909262119888
-15.8702253471228
-5.43151132007824
5.59230383617625
16.8570834646194
27.0427728942214
33.9286223420753
35.7480645033733
32.7407485022693
27.1318067058683
21.5997451644548
17.8407750561296
16.0563471421929
15.2192909982009
14.0358865018524
12.0668649800998
9.89154711034677
8.2755524520393
7.5372150151815
7.57239779709852
8.00607785177543
8.40631041251883
8.70201764687756
9.20724671773794
9.98510601587051
10.4760779928959
9.98100914927411
8.26430388816065
5.60441863761711
2.56306006901286
-0.260985829332593
-2.57076755006464
-4.50285424871024
-6.25745179335485
-7.78451274597178
-9.0259847024349
-10.1192337920447
-11.0531170083543
-11.4163743521273
-10.7468434327553
-8.93589304577602
-6.25232362003745
-3.27207621171996
-0.834556386908097
0.209314458209326
-0.569097619970905
-2.82168753991692
-5.45115674749757
-7.32138271079776
-8.25577624940346
-9.12165862057082
-10.7038071210872
-12.7789122856291
-14.4552107228831
-15.0398496548608
-14.4255912258055
-12.9771034622142
-11.0731757076102
-8.48480092891073
-4.43006550850529
1.37476215625917
7.99284736574775
13.9051684384409
18.0184131704657
19.8654337422657
19.4228164831811
17.1993098261246
14.2205668398224
11.603723663906
10.148190032838
10.1445025995347
11.2047587423067
12.3509864769786
12.6451727953843
11.7664055374776
9.88114136033072
7.24107059266887
4.13508840006756
0.937109192894228
-2.06153096046661
-4.72568083687945
-6.93448926666652
-8.50630660317172
-9.1945009107044
-8.69299132014626
-6.87685681214264
-4.10513455981854
-1.05214767787802
1.69158735365826
3.5772606163018
3.91855590624144
2.25216657078146
-1.20678841195578
-5.76459218350377
-10.7113101937243
-15.4125844646099
-19.3425205778559
-22.3664233356348
-24.7929878603599
-26.9306321520149
-28.6241083601608
-29.2018991018518
-27.853753598277
-24.1726469969061
-18.30720467698
-10.5488318345056
-1.16303320049537
8.99349478138929
18.0933322942358
24.2749117244931
26.987360426206
27.0752891245551
25.7062613084955
23.5768714641547
20.9399336140506
17.9330446712422
14.8537251891728
12.2446916220323
10.6304649114266
10.1905402684535
10.7459555979737
11.7883755101628
12.434915962236
11.9171961767187
10.4460462930245
9.13738721888401
8.82516358663769
9.34722970490333
10.0564518374506
10.4647926890148
10.2086174654829
8.82977241613309
5.87865005477778
1.23764662563146
-4.58809626244432
-10.5956001443453
-15.9856321757564
-20.6604380570373
-24.7733665314768
-28.0919384693808
-30.2149327265686
-31.0849708341893
-30.8486704528089
-29.5108323009365
-27.0281631844293
-23.3284984848075
-17.9585996054775
-10.278008654151
-0.584460533913814
9.18137823085864
16.4526871037341
20.0198121024694
20.9007287828151
21.0883222320679
21.5161821683584
21.6096441726934
20.8470848158915
19.9291274606703
19.6754557305737
19.3384470223651
17.0739828868933
12.0643979361433
5.4809006525979
-0.693052672066524
-5.39812090504012
-9.09970424433308
-12.8886879323933
-17.0549681305041
-20.7223467417
-22.9297042515548
-23.5776455268611
-23.0278025127507
-21.3692570247232
-18.6006835421702
-15.1134815338903
-11.5082838781235
-8.15209101107956
-5.1175014165348
-2.31543593290964
0.354460949027762
2.76865448258905
4.6018867033175
5.75191082234175
6.49832109657352
7.10750053308579
7.6192301936231
8.14428794405314
8.99549686479919
10.3718199099153
12.1665082815806
14.0862975513127
15.70659615717
16.5488995879083
16.4341633441835
15.6005910501428
14.1846647218789
11.8601048133554
8.37658516769424
4.321374708835
1.07414627105979
-0.0521890600247769
1.21655667594228
3.78243236427144
5.89173592674074
6.34738162521415
5.06155704745012
2.69709405058438
0.133892746738541
-1.92496273121026
-3.32466271239791
-4.41143080622667
-5.39103260823536
-5.99618762986883
-5.96669198341491
-5.38510526991177
-4.28240725695214
-2.46993509921069
-0.16014268921152
1.65845891146974
1.90619505606023
0.393614946915431
-2.06898667399349
-4.57848057160462
-7.09765793744201
-10.3221117678212
-14.5217998851503
-18.862685189164
-22.1763382184885
-24.099522801919
-25.0658329733971
-25.4163237225116
-24.9648797662036
-23.3240496663895
-20.2645954453283
-15.7563083030566
-9.91845029579183
-3.07728501136337
4.00813360203609
10.0032220486738
13.5453908433739
14.3268291959425
13.3959932084347
12.1740342726347
11.5103536570184
11.7047285308484
12.692200208271
13.8803916103133
14.4502832854601
14.2263010753765
13.8641561760744
13.9691322372649
14.3698539468008
14.4105375219575
13.7223529852949
12.5598398187507
11.3708512617369
10.0959721272384
8.19882051405719
5.59456757735433
3.14982273047174
1.83399339142848
1.63287227060335
1.63292130694479
0.907558886742567
-0.92655647641075
-3.7072703465218
-6.94990326026846
-10.1144680601525
-12.7146588123213
-14.2415566883875
-14.3051643032459
-13.0167570601253
-10.9256594685351
-8.42496327486046
-5.54738214253028
-2.37931951170054
0.814588948071061
3.91228189875685
6.84409457871028
9.18406107225352
10.3461086863293
10.1403156779365
8.7552006012201
6.45253698206861
3.74016236429475
1.5888895616031
0.946396977808383
1.94370044187181
3.66283221248626
4.69945327589789
4.11947889777652
2.00949284585541
-0.981288031718086
-4.48804377638353
-8.45260607550653
-12.4917825359933
-15.8457880109574
-17.9382953631287
-18.5550005229264
-17.6716120432566
-15.5717333787552
-12.8372304052638
-9.69529653497626
-5.61615579445627
-0.0692480154415575
6.34390382874502
11.7389073809246
14.0135869975871
12.3453929200659
8.02304311185162
3.72185530390608
1.55935159142332
1.72138980053185
2.93338804881929
3.90664292295623
4.13219553877341
3.70092851366321
2.85462555602024
1.77559860197122
0.671813824264681
-0.166042506940853
-0.679751182058904
-1.28193001726894
-2.35528998293838
-3.69294996784037
-4.94834194303746
-6.29524069522333
-7.91502903223901
-9.1651706574089
-9.05644803171762
-7.29598999518174
-4.22946684871569
-0.198826248952171
4.33028375202703
8.40225131593843
11.0648766593856
12.1227968416538
12.0485625987199
11.2855577512691
9.82137577013325
7.38119204806197
4.01768181728425
0.436420585537539
-2.49213432836923
-4.51116549318335
-6.00917122563344
-7.37104403872941
-8.59625628118473
-9.43991371447781
-9.6406906578607
-9.1325726141267
-8.20577711964712
-7.17332157373953
-5.71073455903744
-3.01856373196085
0.982857631855006
5.03202247977543
7.53792719015227
8.04277336404128
7.49603234820993
7.25931427480318
7.93316425370212
9.07422417913502
9.99869598447269
10.6019278561831
11.0897862002486
11.238384756036
10.5411102151214
8.98082879450935
7.13906214465807
5.61539812277792
4.67142785821858
4.24716831350288
4.02885723605548
3.66517402269158
3.07534579409798
2.43516409178509
1.93792415109938
1.71860872483257
1.77897291646981
1.8143956195938
1.4194638033781
0.57540543647106
-0.444394843109696
-1.70334736340081
-3.70961536821908
-6.85702024664089
-11.1210827623418
-16.2389281427168
-21.7611381688804
-26.9390479505316
-30.9628712960975
-33.4580658865369
-34.6618852824804
-35.0782676690558
-34.771761186895
-32.7810709170465
-27.5820855756684
-18.6707562862291
-7.44468753705652
3.9535868679941
14.2073148745669
22.6563994364044
28.2711249198911
30.013699162544
28.3103793283927
25.3647264315822
23.5522559684408
23.5476144093636
24.0903105590227
23.53333574812
21.4846156960814
18.8716784103432
16.7423900501278
15.4680198511374
14.9141691592185
14.6913254657548
14.0962516270675
12.2942637381312
8.80228616246796
3.70248874462576
-2.53559393722715
-9.31853984482884
-16.1160848135351
-22.4335349233264
-27.5595365524515
-30.5601038308901
-30.8004910475854
-28.3942889114841
-24.0068100496111
-18.4180851313392
-12.3722470250342
-6.45555445258901
-0.814873420662226
4.75540886891885
10.2362808169347
15.1015766638466
18.6568989230577
20.4070452732863
20.1711739424761
18.1781519314781
15.0346394513204
11.4331998246692
7.93124004417845
4.84838258376394
2.01438529271962
-1.20037980275563
-5.10156016979706
-9.06482962042919
-12.1976528325297
-14.4419377108965
-16.5508947136532
-19.0669485728139
-21.6514667422856
-23.3607011547623
-23.4085118798683
-21.6645063858462
-18.3935130773901
-13.6499313181653
-7.40330833009139
-0.37348808937603
5.89870631121293
10.2826017339004
13.0600796065802
15.3952852877472
18.0203237280603
20.6164609248875
22.2862856098213
22.4569195633723
21.3468993402563
19.582700534372
17.4828024847354
14.980897162149
12.1898251243281
9.55890284359238
7.33683893707968
5.30516484192626
3.19202341993264
1.02304581495842
-0.964721574283314
-2.491053437371
-3.43407766161462
-4.09734355881085
-5.06977865506235
-6.6465252592768
-8.60120076508436
-10.5186393593417
-12.0133820322083
-12.6812717572855
-12.2287480158315
-10.6859351761864
-8.37598791718149
-5.84474531586289
-3.79409788307429
-2.64624944292393
-2.1052200528507
-1.55860369797768
-0.907714279211442
-0.602491322900581
-0.914429954828062
-1.50691897803458
-1.64084025256332
-0.665068455143219
1.41911547505851
3.7066868691409
4.96162082297848
4.62280957984804
3.16744231831686
1.54191369271552
0.378467312941261
-0.364278699885682
-1.20918704245712
-2.58064221395344
-4.37335088207513
-6.20995240245397
-8.00510965597243
-9.97291801749518
-12.2066108026493
-14.5774954687268
-16.8111078274633
-18.2965258191025
-18.1452394226173
-15.8480282806513
-11.6203440311481
-5.92630488316538
0.862144596719045
8.08910147408474
14.5540803687598
19.0064871697802
20.9232656111887
20.9003935072757
20.285633060073
20.074767429208
20.038424558153
19.2308434618042
17.3152180277176
14.9582540824535
12.9689323140853
11.4655874573215
9.8597910768015
7.45126435214557
4.22971209197732
1.18140329997158
-0.512465147371342
-0.605166502577843
0.208112028582764
1.25729347161128
2.38644382014083
3.58494036549391
4.66386658542941
5.35259160011188
5.39378854115751
4.55930233356677
2.78204657079679
0.193056652019113
-3.03829782585137
-6.69090437112304
-10.3341559710806
-13.5124748404784
-16.1208008547447
-18.3737827853013
-20.4307908847887
-22.1290136659605
-22.972455054926
-22.4956108115653
-20.8984960854674
-19.1168818599949
-17.966445436173
-17.5138687410593
-17.4811993034059
-17.657147825635
-17.5414315454274
-16.2181111812643
-13.0592758832031
-8.22858163234206
-2.45812167616855
3.20100004337518
7.66212664860572
10.6609711192913
13.3030573296809
17.0601403588599
22.0891292116139
26.847168987599
29.3737128943917
28.8926722201933
26.3235447987734
23.3082435939509
20.740001894832
18.3731739153052
15.7644381826304
13.0683344495305
10.7061698004568
8.77570367263284
7.17502457450349
5.96431063471363
5.27199957971671
5.04752473326464
5.03011740535283
4.78390828539174
3.87405338371247
2.26246126499368
0.323425644276789
-1.76791117455715
-4.362865137328
-7.82011973932607
-11.9193532403034
-15.9204415964199
-19.0058608042684
-20.7361219047637
-21.3528323971945
-21.5792818036255
-21.9501006364435
-22.4201574696687
-22.6033821540779
-22.1485007176246
-20.9591676877901
-19.2976604010333
-17.4371424923427
-14.9229303029145
-10.5966772148725
-3.86040756795702
4.26707432657304
11.6205376528953
16.2664248135966
17.5516840535014
16.4077985328691
14.8116750366624
14.4461011192533
15.476136917231
16.6149894377857
16.3601759554766
14.1822888004081
10.8630687089874
7.94285414495351
6.55732529300051
6.50757850594637
6.62125240991801
6.11440390965244
5.33391114181374
5.1368139663604
5.8741133963153
7.08647951567237
8.02464910370697
8.37857128001372
8.42600787729674
8.43917654503181
8.22991979766101
7.50903460152101
6.38398433749515
5.19140325428861
4.07780202761881
2.92192268019344
1.36964496456622
-1.10291990774953
-4.73696857419923
-9.06497656891039
-13.3396097305812
-17.3554037577911
-21.5129513837441
-26.2100199357773
-31.4093690813992
-36.5172998677626
-40.4469384158091
-42.0830801323981
-40.8550944048844
-36.7223881509156
-29.8457597337283
-20.7358408171387
-10.4949958787095
-0.257773310445762
9.58988495497732
19.0805379360823
27.538527080077
33.3331703030502
35.0565209432687
32.8907724777754
28.7623409471777
25.0397726206742
22.8768153802931
21.7495090219877
20.4740827780918
18.3743157924668
15.5629084511445
12.6511968550777
10.2873558153473
8.51999886849902
6.58285478159837
3.70904101343048
0.0887659301010993
-3.31798799011247
-5.73048939754278
-7.02406943581461
-7.57683690967573
-7.98629882098407
-8.71482666131363
-9.7388259248948
-10.5798353197884
-10.6902705242813
-9.85039250875833
-8.43823826451
-7.25479798868963
-6.63384929559512
-5.75395725298521
-3.38973011431082
0.592582089595676
4.9313937457822
8.13082871065312
9.51651267003789
9.24296758142122
7.77365418935098
5.51620985218659
2.77467540030573
-0.065695149165696
-2.45898150651263
-4.04215953172598
-4.97540515615528
-5.65843224642585
-6.25606855200303
-6.77925360409424
-7.31025624443191
-7.76243904785305
-7.7457160944528
-7.03523815537059
-5.90860334521248
-4.8246050987642
-4.01905970248776
-3.42452804137028
-2.73597310981119
-1.68827452302409
-0.46769581710936
0.427005488656421
0.87491096755978
1.30049541440829
2.05048788655218
3.00144575466458
3.79090729468475
4.0579420224492
3.5938336481407
2.65831306362007
1.9627762185352
2.01440531282508
2.69709593498378
3.66593485926849
4.78632685420184
5.98415218158742
6.97262333716777
7.32454311115195
6.73652766296582
5.30592272397664
3.65531266315646
2.53050014326257
2.05248421862923
1.61000431272883
0.673658205978027
-0.593224569108869
-1.69878260701465
-2.46731860114195
-3.18302620777902
-4.32231207435614
-6.11381860736043
-8.17290978699288
-9.73405217062793
-10.3713480157081
-10.2357747070395
-9.57828016038638
-8.43554118678126
-6.79272078150119
-4.67225238767673
-2.07201823678218
0.893331276115546
3.82722908348181
6.17727357189346
7.50753306657022
7.80961110487579
7.75857131232277
8.3439167246116
9.83050905590936
11.3171058437159
11.6186581010486
10.294074001057
7.71750942829463
4.67797613200728
2.02393680149746
0.125341901924939
-1.44561648924313
-3.29501790468756
-5.36370681365969
-7.11358511522916
-8.3298002864439
-9.25034563924532
-10.0418425685882
-10.4998516773869
-10.1318648046642
-8.42581707170581
-5.39373364611934
-1.94433812173925
0.723934738498488
2.21074786798171
3.08168703138916
4.05692846282323
5.38980440457035
6.87425501487743
8.10289410814598
8.78992830521426
8.97842292461513
8.86824756288024
8.5542180691451
8.05148517848564
7.29969409112599
6.01550304920433
3.96114865787425
1.49635044910519
-0.627668683791218
-2.16389372162618
-3.62090078734859
-5.5847483536078
-8.13997661972537
-10.7797381967931
-12.5251057971242
-12.4870469712504
-10.7915536113529
-8.71325182736028
-7.55116225571071
-7.51605052325149
-7.8067262876251
-7.5516990989643
-6.63413345711449
-5.71756085196933
-5.38074555346042
-5.21248877126898
-4.06175611330484
-1.27574115512984
2.6436143654716
6.67021327004765
10.1328989202468
12.9174692381418
15.2198291999343
17.1703769271179
18.4469824243011
18.3794849663129
16.6240096999355
13.4646213719978
9.37761038748868
4.77373334669498
0.230882115709043
-3.61835895803424
-6.60363426201661
-9.00541391603216
-10.9751636534748
-12.2573305476959
-12.4230913047129
-11.2299978766069
-8.95427277864455
-6.42716010101426
-4.46375199161462
-3.26764919164276
-2.62150724745352
-2.41900198973633
-2.65259394400213
-3.08057178098063
-3.17406647445247
-2.27726697624361
0.0693826955235727
3.55289421464008
6.93074549623805
8.92016128636766
9.24593701562849
8.60009088841495
7.8240619919189
7.33734869338758
6.93052664551841
5.79246858293073
3.16912082361833
-0.662203527826904
-4.42042855631295
-7.0137923494535
-8.34251534704934
-8.86756330536283
-8.84509567638927
-8.12005579611619
-6.4452347581311
-4.0048977238671
-1.64661159513075
-0.342600656300594
-0.335073778288009
-0.952332715497774
-1.16634205263678
-0.265773377488442
1.64195457319687
3.62358551641809
4.8103689146586
5.36035949705735
6.06626521688081
7.1122113429423
7.882226674458
7.92176967670124
7.40698598545795
6.69488851505219
5.94693308924238
5.14993286340221
4.18865980965527
2.99461540966499
1.68330285803651
0.342549886370747
-1.16136679880385
-2.83685756710901
-4.28646504403751
-5.19627517320747
-5.8583786107739
-6.80461819467844
-8.14959350955218
-9.58694392591676
-10.7270659267926
-11.1979160122731
-10.7867130560713
-9.72332822874606
-8.51747179449092
-7.39765276399479
-6.16648244830614
-4.58256566695588
-2.65419170786841
-0.629432497184331
1.20963428551463
2.85081770134194
4.50979153652793
6.06558644153765
6.89740960404222
6.72205464149276
6.25633082110385
6.55105437577167
7.86962660324988
9.50879275242711
10.4631616405087
10.122531230333
8.65482507036227
6.85625863051456
5.48687531810201
4.8162278161396
4.77184575219667
5.06516217998957
5.08722244614361
4.25640206952019
2.66473216857536
0.979566834712629
-0.291011133189723
-1.04462905907609
-1.26722591217639
-0.965746843925819
-0.348277599740599
0.280650075260161
0.727586484115758
0.848310158831367
0.489388484320412
-0.405036404960105
-1.8554823873442
-3.92636257018289
-6.3982597781166
-8.62288061000146
-10.2513501828015
-11.8694002184045
-14.3154074232678
-17.5027951846396
-20.3456338980682
-21.7115032162682
-21.2008734897082
-19.1914458431634
-16.367275611615
-13.250969257457
-10.2070417142239
-7.65480537900109
-5.78727077550671
-4.05114442135968
-1.31585162056427
3.39232101363415
10.3782486575051
18.9142971443503
26.9845952922785
32.1132066451337
33.1685285792063
31.0264076851282
27.2442783906095
22.7438429099828
17.9680988994612
13.4289359057686
9.5480282195612
6.35136891303589
3.60943146407094
1.10742392943143
-1.20784694013313
-3.16027647435029
-4.508079514082
-5.27802478255105
-5.76884724664821
-6.20954494264379
-6.65907046385866
-7.15377369345163
-7.62767221046073
-7.84867763560598
-7.77283313705535
-7.72635705494093
-7.94223266162523
-8.19389981675613
-8.04356288354731
-7.12457133097113
-5.23308616015694
-2.63314663517226
-0.20059128405057
1.20057974880885
1.39405218885343
0.683151381618638
-0.705720290125217
-2.67770723054106
-5.08512441682241
-7.70105209468641
-10.1516880572554
-11.8859748845557
-12.4428806323964
-11.6361504194191
-9.42857087901173
-6.03926417959097
-2.24595956817851
0.954712522975191
3.11391303619774
4.41761634070733
5.2246454484269
5.99352962780529
7.31578018333045
9.37416835973295
11.5866509879223
13.3053562924549
14.5829540798943
15.7282916207276
16.3823040343505
15.6203664589294
12.9896893000253
9.20714844284139
5.78709857426423
3.88219029023543
3.38255754932847
3.30452684373467
3.01980411509356
2.66192089877442
2.33420871396346
1.56276657885191
-0.25035791255435
-3.24055822583759
-7.02436378293647
-10.9281428184566
-14.3097423009656
-16.847181343519
-18.4497528047743
-19.0003524925374
-18.5390953391844
-17.5343732542226
-16.4393810491162
-15.0735282701449
-12.9133113069298
-9.8454942890174
-6.2195859644593
-2.33882701370654
1.7679998343478
6.19847801147715
10.9104369153382
15.4270942518591
18.8460245231724
20.357353543356
19.7045282735737
17.1097429395565
13.079070611001
8.42067664965143
4.07143105065188
0.670195996917674
-1.50215357476245
-2.26036196797476
-1.67866019091225
-0.461342355660907
0.447106503692603
0.738500059313705
0.88411542066011
1.43769828690336
2.43015065680341
3.33602379806228
3.52701221839129
2.88717452193076
1.89322895649168
0.953454500022215
0.0052802720547807
-1.00159376923987
-1.70167374496412
-1.74547084577868
-1.24449864438592
-0.551149778767592
0.0140049916992213
0.0986839784441317
-0.596720867057857
-2.04223386946883
-3.89325726502602
-5.73371502925497
-7.27270467863024
-8.5946566688968
-10.2093626208047
-12.4628047525002
-14.9707283817776
-17.0366581931291
-18.4275745362375
-19.2787699796625
-19.4766665402082
-18.6347739281579
-16.538056531447
-13.2630247936253
-9.01152276716793
-4.03380814996126
1.49271038573494
7.59241628011481
14.1844138708816
20.5733343711049
25.5299860658971
27.9373024766296
27.3566292994964
24.3381900878597
20.3453645811401
16.8976068897511
14.4749693405616
12.4816651098704
10.2489667904366
7.73039731484899
5.34788335635434
3.53873890392282
2.35108732793196
1.29134988783812
-0.21888638689685
-2.18609607076483
-4.11777806325846
-5.60990340784923
-6.48818960565758
-6.64534930823476
-6.20636925565574
-5.56771934888471
-4.90098638125375
-3.99775397278434
-2.87539881599118
-2.04456055191404
-1.90323196793436
-2.26269510312783
-2.60524028317003
-2.48592835841455
-1.72320573707484
-0.54641430921471
0.502312314791156
1.06406639060188
1.24208516088383
1.2670371178392
1.15550713718199
0.795105068106583
0.03297337037016
-1.34773703388691
-3.34833991358071
-5.46616442424867
-7.05258245232041
-7.92898811675245
-8.46404821999487
-9.19462995410315
-10.3478307101173
-11.3612548929356
-10.9637844469512
-8.2587786244241
-3.7380421804515
1.12282834503307
5.11595054726654
7.87061060966059
9.52811823535053
10.3040099515167
10.2936836092123
9.52661917777931
8.19973777873137
6.68196355204876
5.1547840951007
3.50975445081778
1.71083142236645
-0.0797432802360966
-1.77117857497007
-3.36948967869332
-4.80688096763721
-6.09490101940132
-7.41898372381754
-8.72091718829151
-9.50814098318022
-9.42491175277056
-8.67145577707187
-7.61892326855339
-6.43351905611212
-5.23109478057233
-4.07310703934621
-2.68863035065683
-0.753682307215062
1.50074472621728
3.46977954257195
4.87090732893837
5.7955249660385
6.33233845721955
6.6353719782373
7.09883547766907
8.02824414491821
9.26600661496687
10.2989172785973
10.6263253023015
10.1078592145846
9.078700171976
7.94594827721004
6.70101548912766
5.20858575544968
3.83380734830997
3.16208283613258
3.15477223292253
3.18043831250665
2.8020187902954
2.03843645194029
1.04874659352286
0.0139842955404091
-0.8682261466569
-1.56378042667376
-2.17884052373456
-2.71147950758256
-3.09805108827073
-3.38563688775333
-3.53810926522785
-3.29038629058802
-2.52996252985779
-1.57078320492325
-0.76909125468423
-0.185436277686063
0.117640185653761
-0.178961813765047
-1.29753321562106
-3.01296804943494
-4.84820882869621
-6.45677851902121
-7.81311561199615
-9.16308821827081
-10.6623563463066
-12.0234298994584
-12.7845532848246
-12.8682148837357
-12.496728342053
-11.6995155657422
-10.3508423298478
-8.5136047387436
-6.31044926495673
-3.64242194051884
-0.38765123146001
3.26387703798397
6.80591915723628
9.56688148071867
10.9673132977465
10.9505289330612
10.0513369538067
8.84939637128992
7.63912760026835
6.70430509250575
6.32631870319848
6.29714359266526
5.97823453163725
5.07836503527267
3.99142737803056
3.32400962652079
3.44539975649498
4.41496985469033
5.94167913943003
7.40641823124532
8.15833430657317
7.79954406598713
6.24310353798848
3.79386238858971
1.1651726808462
-0.96860881780511
-2.48794499384133
-3.65758808107437
-4.58279875263043
-5.07466740858152
-4.83772961687617
-3.67319830282073
-1.8435600783605
-0.255483793932129
0.164250767005072
-0.724176634724425
-2.40804714403743
-4.41118386743426
-6.44565667536515
-8.17005027175742
-9.21923945371951
-9.34761975191953
-8.46530851097206
-6.80626791692829
-4.98480114752223
-3.52536038204111
-2.46493439925708
-1.66903546547632
-1.19883594847196
-1.09539261462491
-1.17741435786353
-1.23127029981553
-1.05761060636095
-0.395633427042527
0.721875489476429
1.64455885395611
1.63161575755075
0.680752708071101
-0.435486920530092
-0.830797421164021
-0.0906648416702284
1.49996567524546
3.17688188457208
4.40525646268384
5.36221647755041
6.44475370049634
7.54172813696381
8.24022869252128
8.4498846455196
8.29905901214168
7.70088181168358
6.48952947777512
4.74028537439886
2.68225700398014
0.581226857364733
-1.16479958049807
-2.10227404470181
-1.9574316508771
-0.733409832335579
1.17398926333939
2.9033583814549
3.616380740412
3.2158571631706
2.29037919641693
1.47039124402881
1.20543170766486
1.83457718022551
3.27532384093694
4.81380335937787
5.63766740791562
5.48017724502555
4.67336167830284
3.87429353488884
3.67447672469138
4.04125729367534
4.17569187487933
3.2198469193531
0.941396407361683
-2.45997295956738
-6.79571059770907
-11.7736322039322
-16.7975054331365
-21.2787054919472
-24.971153716629
-27.8170274246175
-29.6622922349842
-30.1849269704147
-28.9643849712764
-25.7993344736373
-21.1536436653244
-15.9819391063613
-10.856193990828
-5.51217070646941
0.593238826162057
7.43444297337287
14.0576812728376
18.9894211670455
21.3539344519359
21.7231797965574
21.4566503674327
21.2058067498452
20.600963564244
19.2521795490715
17.2941773014287
15.0034326483136
12.5903825886342
10.3472132059747
8.49600475422228
6.99733954330931
5.76866285286607
4.79452320633559
3.89262482524858
2.79002911972919
1.50778860387112
0.304692204100889
-0.691066089345111
-1.46919656188018
-1.95851016334918
-2.17649040045793
-2.32372053972528
-2.49908873348139
-2.61110644505847
-2.71465589046693
-3.06437397625241
-3.72792027269823
-4.50884017179727
-5.23179600121507
-5.72441888085991
-5.67380960377375
-4.93788828936723
-3.8633922629248
-3.00640332903392
-2.70453430792113
-2.95958413701651
-3.38161714816522
-3.27954040214494
-2.25326627903876
-0.72173712340618
0.415593465128394
0.595460986862188
0.0096691204190634
-0.546801590597158
-0.253586197872639
0.989454202963048
2.44437911921109
3.37918549954448
3.75822254331602
3.8972730264563
3.9269821280816
3.87531301447597
3.75561168164038
3.31574108020566
2.18258817827799
0.426259671994817
-1.40480702682427
-2.83965355404721
-3.78688307640646
-4.41343121258042
-4.98315439358191
-5.62368515605338
-6.06811257920704
-5.89289174357878
-5.13061650178207
-4.29819851062156
-3.73824836720881
-3.34107990123683
-2.96681951750997
-2.70645889638305
-2.66179773638269
-2.78964917683932
-2.97302571438914
-3.08701793616573
-3.08459908347511
-3.05031691312995
-3.06039546033453
-3.12616170841425
-3.34943607698789
-3.73713055764299
-3.72068186109503
-2.43610304988825
0.232276808604727
3.38942499897307
6.1135019107471
8.20402077553392
9.81152825860506
10.816484795831
10.7958098498597
9.44891474863253
7.08388111028325
4.66067503106959
3.06386814412422
2.36083985380459
2.06685597812393
1.88772454475022
1.75609587365756
1.47657173520505
0.941510954990553
0.503005472686925
0.623212620626669
1.28575121773438
2.09417609846128
2.77129262699914
3.28162373242188
3.6287342930471
3.74592078098278
3.53478952729576
3.03505390823753
2.60374194120043
2.68007164226103
3.2811254813705
4.07809059802199
4.97349110781659
6.07552080776159
7.09124655269706
7.33849238609995
6.43956756682337
4.60450313792296
2.3072646322858
-0.0092906602989607
-2.10874196770136
-4.11242999868161
-6.33181963836851
-8.9175601591008
-11.840654636334
-14.9684951562353
-17.842570611542
-19.7748639955572
-20.5960586616494
-20.9065839492909
-21.181925890777
-21.0310766998542
-19.6871553890692
-16.9063085574349
-13.1423154395392
-9.011889133323
-4.65964976387652
0.333080622932649
6.16245514747441
11.9243289938052
15.9936537156302
17.4763451286042
16.9420616967559
15.6625335860555
14.5558167682535
13.8749248419985
13.3599375390301
12.5238637599004
11.1038396546218
9.25922544077946
7.24109412108326
5.15283177420333
3.10554596773176
1.18670567464364
-0.751871565470517
-2.82522720578419
-4.70273489189982
-5.89799380274971
-6.32871752203962
-6.24690456076187
-5.85510419391712
-5.25713444918723
-4.50920022619077
-3.55181469528301
-2.32894470502283
-0.960982683426908
0.423916506732848
1.86231670865519
3.37535449336086
4.88591713657295
6.3703144919203
7.67142878175595
8.18439628405096
7.26952406742676
5.00558383007623
2.12683305860285
-0.681684808265314
-3.07430116399657
-4.8504287417778
-5.86627845255245
-6.05734348354778
-5.39614618713211
-4.00041585041194
-2.2863375431952
-0.688680586268626
0.782073787075638
2.39468901068281
4.19472791585965
5.94547628465242
7.38328674727013
8.24862321063206
8.29335250200453
7.46483133614622
5.88973212162937
3.71633162782003
1.27651086850686
-0.777663690159053
-1.91810819440744
-2.22744231632228
-2.24713027897319
-2.56515067282277
-3.57956886338284
-5.2512338570316
-7.04384373906585
-8.46110037472863
-9.54453148370793
-10.5510413245314
-11.4538839247984
-12.1029883623009
-12.52149506629
-12.7549273093437
-12.7222709722782
-12.2750434654079
-11.0999663051556
-8.7673171380241
-5.32905800527485
-1.67123985089538
1.11887218794328
2.57573965479208
2.92713235056673
2.74602080880586
2.69518112654548
3.22842538904286
4.39847555374539
6.14960324741452
8.5197988727962
11.0974190574596
12.6765957790037
12.1929449827129
9.89620711548514
7.15924039484286
5.3174421859101
4.86817748739909
5.35687163698147
5.81039211420206
5.61470747747661
5.04691608955657
4.75403668973199
4.94285691270502
5.35382373695731
5.70910411947506
5.89027485851587
5.92875253216043
5.97954505772439
6.11554630376002
6.21388844011049
6.24340632392364
6.41748469581479
6.82573808281383
7.20188601990714
7.20362360679573
6.60985881569216
5.27340855797076
3.30667732214985
1.2439034844827
-0.404142494577643
-1.71463296858164
-3.2525814802688
-5.57877945387888
-8.9466474922297
-13.1438405643939
-17.4896819095121
-21.2919571456645
-24.4037981859716
-27.1132393939146
-29.555568357558
-31.4423200318912
-32.1340360158732
-30.8080131607533
-27.0458632170453
-21.5478734051728
-15.7068575360595
-10.1305462281777
-4.09164192587149
3.26328002107815
11.5443460348551
19.1079986114617
24.1733888831842
26.0321704644328
25.4221930441439
23.6977769460911
21.6692403802104
19.4065995508236
16.8503658541991
14.0961503886207
11.2677215613531
8.583502133528
6.38130000305591
4.79148117475733
3.66728984964098
2.94676702810225
2.63397823998756
2.40453238949711
1.79775516123904
0.848779238099718
0.0641455151527463
-0.206216706469915
-0.0290916738630215
0.335521025913396
0.620046028249259
0.677572203272839
0.628512724130634
0.688789303757213
0.770834239695016
0.52925451570145
-0.177907341705772
-1.1835607484931
-2.31289757947525
-3.47317619378458
-4.54055318774238
-5.40216260999935
-5.99239156589866
-6.24400651170925
-6.23663684915403
-6.27294158668519
-6.4575063937859
-6.40540715693733
-5.75604923729623
-4.73275496693715
-3.85175878280624
-3.33426995609356
-3.02740248525302
-2.61118960737442
-1.77328165006998
-0.496698604048265
0.775553605243578
1.50478392492563
1.55319768516272
1.21276277569913
0.902202556639339
0.85161986256894
0.893352187205588
0.695243600287831
0.371308538720563
0.4810831716158
1.16638809821241
1.82816079934054
2.05192042676157
2.31918883838565
3.32148950703646
4.9577179250054
6.42751476835487
7.06614461991389
6.85803532772405
6.37845932953001
6.33394177520012
6.91800163607726
7.61052132478663
7.73771659356828
7.02071610811123
5.50400737492267
3.36953039647875
0.932709712659569
-1.61141293283387
-4.45212175355682
-7.75893752599244
-11.1436682785131
-13.9299311903595
-15.7516277406241
-16.582369862221
-16.4918097640866
-15.6207567935484
-14.0933688550552
-11.8691084769789
-8.96236017370552
-5.66123365207411
-2.21402315285262
1.35128065788468
4.71284472451688
7.04464875502267
7.87034222656102
7.85646024332631
8.31212732954704
9.88427663931899
11.7911937559287
12.3825133941079
10.6863277320994
7.42945468088519
4.28577092868926
2.29388342318485
1.43310310641029
1.35848491746184
1.65637947129112
1.48906608060339
-0.0118212307117579
-2.76454101204749
-5.7556516323584
-8.04042983502696
-9.2076808083724
-9.09863301886959
-7.76678756087776
-5.66599903185737
-3.39235394914739
-1.20082691427022
1.07404448591002
3.64262948351558
6.24749877643627
8.03645329535169
8.26626996732855
7.17463747426491
5.71932459358151
4.42770005171177
3.01355741716242
1.13986394732173
-0.969508365048312
-2.72734585290955
-3.65006816081902
-3.69641804823612
-3.30481265950562
-2.88050282775491
-2.27583491091918
-1.19911552134837
-0.008176738506419
0.51854029641264
0.183028930518858
-0.36962767240387
-0.368275702957467
0.433119136024756
1.68364384568526
2.74945731861135
3.24808309367156
3.41728225961432
3.78391673576153
4.47077044628297
5.09777976925101
5.29226915299552
4.97568889922444
4.26837281138499
3.40979532911238
2.60737971351631
1.78804847404511
0.753570998629935
-0.412971351756163
-1.50146928004979
-2.64723650996022
-4.13983838755828
-5.83658917848174
-7.22377470712386
-7.9926520555052
-8.25324428907189
-8.28443305490818
-8.22245603870539
-7.89802504064373
-7.03867437494122
-5.7374026757477
-4.45513187548741
-3.42957757457641
-2.49932649961608
-1.6280307595903
-1.05324302228521
-0.791329961589698
-0.559660331607124
-0.280426958030457
-0.18223916257699
-0.420106162550938
-0.967636790428536
-1.72861999507738
-2.43425385538768
-2.62765881243374
-1.98832148859531
-0.527592109508656
1.51626439266941
3.67975865846549
5.3225942834916
6.17210193920701
6.7236170895511
7.5906998856582
8.56767355788436
8.81493909209616
7.85690530608776
6.04619709616315
4.20933171187979
3.04884698220065
2.7071369555315
2.81917689549618
3.03577375792546
3.27448619315586
3.41931363949755
3.27819886695602
3.01800104348272
3.13644750053909
3.84353551532308
4.90982932516832
6.1155800353292
7.33323611962231
8.17187856282936
7.99628000594359
6.3793708120155
3.45004695863793
-0.0413429803166038
-3.08231129215024
-5.21289833575797
-6.92206957128716
-8.90494619797588
-11.1576331305783
-13.1546593122571
-14.562990664802
-15.3604107282269
-15.5774511269261
-15.3318141792932
-14.8696669571075
-14.2319374628537
-13.0340087798283
-10.8157268508678
-7.59201483141171
-4.0480553761194
-1.16638895301369
0.580216375213969
1.6939229558766
2.95107521979982
4.27168756394481
4.80438832015499
4.05831500577904
2.34737898202247
0.277814243938315
-1.48971574915882
-2.10665665589801
-0.899254674845315
2.04938845078728
5.95691676164833
9.81287471127637
12.689972571165
14.0333673166623
13.9488331857765
13.0594376091914
12.0287991744784
11.2219979080336
10.5093772535187
9.30091993006977
7.2251654222187
4.8984973935483
3.51680589909291
3.54147505775074
4.21528313843277
4.44566230539791
3.80229487905116
2.60748421116512
1.32375817243045
-0.0338842986472268
-1.8543885867092
-4.23706681375042
-6.50262680887351
-7.67902765250444
-7.38135744101052
-5.94839512227854
-3.94538895178247
-1.93552222654027
-0.47562740081509
0.175140289183219
0.202732866749217
-0.221152516240028
-1.29836756722108
-3.25835380389507
-5.89920462256749
-8.62832497804752
-10.8213282322918
-12.1766473237046
-12.8098967301321
-12.9100432431222
-12.4438146835519
-11.4780280859821
-10.4786220900068
-9.78854705053518
-9.13860297909044
-8.2182135578532
-7.29966758673934
-6.63793691818721
-5.63429552039599
-3.31582207949369
0.45532250318644
4.67504882770249
8.10412648598506
10.3840126532074
12.2077582595696
14.2168257501489
15.8760254353988
15.998457249639
14.3710508857988
12.1154250415763
10.2749605585987
8.7849022802738
7.10456641180551
5.18157619804291
3.41431464800709
2.12972035759796
1.40248173526941
1.11887204716117
1.08706657476213
1.19766461010222
1.4038099234299
1.57258704355245
1.64780295194412
1.85844750066862
2.34845734566237
2.74746140146721
2.52636183834306
1.55151372716583
-0.0574520872808592
-2.24125016282657
-4.79238288101651
-7.17597822460406
-8.87265973048628
-9.69246244124504
-9.68763950759424
-8.99681352974268
-7.74044852216161
-5.91182938049424
-3.51162529346184
-0.807374035260083
1.79823509123178
4.01547823106485
5.45099756336867
5.55043304058131
4.36261749781241
2.99119795951502
2.61731558700803
3.323262543046
4.3507756467503
5.12958220290893
5.53326170219909
5.4399520913842
4.57052711626882
2.73092568201529
0.0527597747025369
-2.93356462420818
-5.54365621674338
-7.43842504229658
-8.74206134679136
-9.59311386353298
-9.94792208937493
-9.92120822482705
-9.84033933096966
-9.83909086934929
-9.80042971490769
-9.66713501740615
-9.38227205935932
-8.58926927417877
-6.74296097660489
-3.53309613623023
0.765278347397491
5.12897021351395
8.1836319123453
9.25368988419144
8.92475518512812
8.23772829195848
7.60273144750525
6.78559039230366
5.50034917160824
3.66171373529674
1.45836136789001
-0.586604453519153
-1.96174115472507
-2.58655369521323
-2.57583496782854
-1.83782732493332
-0.37630612640511
1.24573330169013
2.26317385621169
2.49654558068292
2.53221233301307
3.17746642156453
4.78161464555548
6.89126719960954
8.54929132848348
9.1551683144519
9.00162558617848
8.77751619995937
8.72222464529541
8.50785555138694
7.7298458765083
6.30920940362837
4.63279628165647
3.3608934892055
2.85749735798774
2.8891992284361
3.0627352749114
3.2019451847198
3.00162484842568
1.78850100431584
-0.880496212143894
-4.56423007888044
-8.11879090589157
-10.4817152846415
-11.4334155823378
-11.7947705834041
-12.6369048273537
-14.1250551565856
-15.4655449240334
-15.9915278023193
-15.7189437328513
-14.8219924630217
-13.2964671989792
-11.3011308633111
-9.22113656805828
-7.16420043657064
-4.70114469360757
-1.2500366361103
3.22447373096548
7.71320630242661
10.5457999776641
10.7808249517987
9.21824136622795
7.60497769024547
6.92556900050948
6.8891740885484
6.79906670098753
6.26599519093588
5.23714269478256
3.95704582838995
2.87332756084313
2.24144378953433
1.9272818761486
1.68867623640115
1.40889403747298
1.09202955740103
0.900461857324851
1.04977616227986
1.44581631122314
1.67401591135649
1.47147811189859
0.877694844696784
-0.0648680344143398
-1.2889710421312
-2.4129421890787
-2.94954107691867
-2.79742441896242
-2.2367382884855
-1.60403831817792
-1.18654570679281
-1.17109247540372
-1.49463089308864
-1.90485601931711
-2.16213027936865
-2.05243427935605
-1.42904851682192
-0.457330644621654
0.420505616053075
0.929387875141967
1.14718648817928
1.23092254751364
1.28791693137706
1.52180197398988
2.1257729742506
2.97481345715857
3.70295344453296
4.04967240884526
3.929756392122
3.40103446327653
2.84080675952239
2.84790412055452
3.64935917494219
4.81546195641334
5.67873046388247
5.76722280046368
4.87551069801029
3.10940461078733
0.888416640581032
-1.31132740559936
-3.13938713953384
-4.27918623071474
-4.51426851069374
-4.01276192356256
-3.30763193617968
-2.95271619784734
-3.25662807911893
-4.08408441021052
-4.80041532178517
-4.81666056180626
-4.33622842720773
-4.16408561791351
-4.73890966792999
-5.73765928922174
-6.49856950964815
-6.4123866374027
-5.15248249361327
-3.01006342835318
-0.827885127016727
0.741280902152336
1.7415079100633
2.52109574357214
3.11067888094644
3.16867605502373
2.378368939913
0.877904175376888
-0.550082593357228
-0.865955972291649
0.360089485841426
2.49466457050197
4.31944841749129
4.84002181919193
3.82357307588867
2.00819008344403
0.687262030650858
0.603421868204623
1.29383972694262
1.77920136598036
1.59858486746514
0.911537922406244
0.0323110462438357
-0.760368033075581
-1.245172738727
-1.36066759421903
-1.19635376338127
-0.930305302136234
-0.852619031306626
-1.14607375209905
-1.46902878012127
-1.10628585198875
0.30966786827944
2.53098100055136
5.08486130366206
7.48035693325806
9.10360829329392
9.3965499901643
8.20254650277326
5.76658644170793
2.53718450454918
-0.937274047093239
-4.14631501417528
-6.72980694007297
-8.34939078437524
-8.70477115447991
-8.03350243827674
-7.30572452857415
-7.38034415771926
-8.09557594317922
-8.60158227453702
-8.37570076063024
-7.55266221848775
-6.56086295049941
-5.80276575432564
-5.44758502192379
-5.25517571960614
-4.71006821744676
-3.41512518475055
-1.39437757881455
0.804982080250833
2.41566191844563
3.25184970946434
4.07025233737008
5.6431623775105
7.7153532318889
9.46134894214697
10.6267165179122
11.5044993113233
12.092693080643
12.0050805847618
11.0590095244737
9.46205344123477
7.57785091013198
5.772241913519
4.29137853356365
3.15206630429617
2.23666140593677
1.40847001993392
0.534565451978692
-0.270410940339325
-0.407635961929726
0.710997844950945
2.80961618036353
4.81025312861725
5.83201984571578
5.77215497247121
4.92373937361097
3.44613957049831
1.29923299407989
-1.47429147617235
-4.34900051080654
-6.29781334186521
-6.6533083505996
-6.02405495977414
-5.80508107977501
-6.71906154877532
-8.29968726584284
-9.67309082870481
-10.2989168424749
-10.1038068974925
-9.43075972641446
-8.81047655004622
-8.50596508438761
-8.38366270912621
-8.25579164011316
-8.09381034121577
-7.9550658305542
-7.94704604249932
-8.09270537382917
-7.99170947512607
-6.86188763021473
-4.16600032186989
-0.11119376645603
4.36852945983692
7.91022329657593
9.35363311365758
8.58668863871242
6.63766784139585
4.68021877677842
3.21527119456341
2.34068283733664
2.26302513825928
3.11702092141832
4.54163853358084
5.77413051113404
6.17148342549834
5.66758445203021
4.80915288231252
4.19917668064326
3.80478193251711
3.06431680174628
1.75539569400505
0.397842015644258
-0.293010822423458
-0.0235898318791628
0.977062804734791
2.13926922178761
2.92873544106008
3.27141511105311
3.42973187039797
3.44664728318703
3.13836320052819
2.60481677683519
2.17479531491383
1.83921052097186
1.26731744032479
0.359814353702767
-0.61905543651522
-1.35650886918743
-1.71666824653022
-1.90131772011003
-2.44704651124663
-3.64776299141109
-4.98084413604806
-5.55850607810495
-5.0703043186004
-3.88056611843989
-2.43970295414904
-1.08188205002869
-0.202716814068735
-0.155803288097938
-0.939916527081464
-2.10205215681986
-2.8619057797986
-2.40966488513636
-0.412819263778904
2.66590153927181
5.86820670988679
8.27436144094198
9.21982714795499
8.43513199761444
6.3474209948668
4.01095536159604
2.43869756603102
1.99749466968625
2.29493438590833
2.42781417526214
1.6059249993791
-0.124821866149034
-1.93904382843293
-3.1045609340042
-3.499075360278
-3.36309796861751
-3.09824106651134
-3.27036082138802
-4.23364971059429
-5.69875830667606
-7.00044077148145
-7.70281278311657
-7.8246258492853
-7.78572372643665
-8.14753760046547
-8.9226949085601
-9.17107220022522
-7.84209010509485
-5.02508111198528
-1.95652829933142
0.0981768126180042
0.705268372793426
0.356483126203952
0.0851964985487676
0.740577251662252
2.32192704659563
4.08481733097846
5.24957125201123
5.37475811620582
4.31097483596437
2.42913161727025
0.885744156449414
1.00393354516637
3.07727679802096
5.95399433842328
7.88742256570563
7.86717115246543
6.3502236645365
4.7320443410846
3.99707390522198
4.00846917801895
4.09481458625127
3.84694718499735
3.16223411778232
2.0181699684216
0.51406952856213
-1.09697797277084
-2.46639968523307
-3.11159906962426
-2.63333111771428
-1.27237802690334
0.105705296702213
0.859772803220716
1.01608641397432
0.700810952483803
-0.335170628912254
-2.34775154288995
-5.06730847146538
-7.63931497532376
-8.95752549413906
-8.27820875945181
-5.81383368922758
-2.63721830435071
0.101037408137631
1.76310718409872
2.23821054692136
1.83877322445369
1.23246276963656
1.11523266141826
1.80062883172434
3.14444220654995
4.65681560579209
5.62817156526507
5.58434878175174
4.82956968988262
4.15899094983414
3.94901327855344
3.95243428019821
3.91530879032291
3.85282422961571
3.78672350825617
3.67382189424872
3.46403363001995
2.91559287556244
1.62964814486246
-0.454894696744619
-2.85534683953989
-4.93424806722251
-6.20784539346286
-6.34922675809688
-5.34526758679337
-3.72916128401925
-2.39845707325713
-2.09301109284741
-2.93825677629579
-4.32789609565695
-5.41531507563607
-5.96067411782736
-6.49339366786647
-7.47437168783863
-8.63102215578139
-9.26934800902979
-8.88826564230951
-7.44399246494981
-5.42515197786507
-3.66537022174842
-2.67197841102955
-2.16952872641202
-1.58769908296909
-0.762611638852061
0.15207144004041
1.08092675983537
1.95093977486129
2.62367632576426
3.21795659007171
4.0421882199388
4.98268293151441
5.4742259624379
5.24196928624267
4.60623527034971
4.02476979109532
3.78236633151958
4.08992688627394
5.08212374368042
6.68033075801417
8.5709548286773
10.2311715147873
11.0522558842326
10.6860352960589
9.23444661292617
7.03160220983747
4.52465988446328
2.41465978720721
1.38009272722932
1.40382950294741
1.73542620928701
1.65128677161029
0.998042117850552
0.0881270479130846
-0.624049534749176
-0.886374782779233
-0.899215928549498
-1.08710599058884
-1.57847216466269
-2.15484071955275
-2.65662106278421
-3.09238223746067
-3.41818402755975
-3.59330903353069
-3.80540545575391
-4.30983923930679
-5.11048440001933
-5.99263877432932
-6.66940439764207
-6.79409204039662
-6.19550733312643
-5.20119585075762
-4.35365096596445
-3.82111479415409
-3.45862447908193
-3.26597053519886
-3.33488844726183
-3.52730034170556
-3.58420854765441
-3.39439136639121
-2.97968073549426
-2.43392763575999
-1.87662088560002
-1.17331100628818
0.175489076647797
2.4955139143525
5.3752557841224
7.89038235929969
9.29265914622063
9.43774386506859
8.75538563142407
7.7716115020914
6.49140815780926
4.45552712668432
1.53225952613813
-1.75340916129229
-4.84396828419213
-7.62376565134179
-10.0911529914013
-12.0305519528349
-13.2146069948299
-13.6185571456543
-13.3906430181608
-12.8545569998308
-12.3571802167799
-11.7773132529407
-10.4739779291069
-8.12235786005048
-5.23695443007661
-2.38833998544467
0.760537810068176
5.10654155715399
10.8820811226178
17.0411941740798
21.8914776325613
24.4113056064394
25.0174590333991
24.9137353259436
24.7621101664388
24.2977441205719
23.0761428314418
21.0523564993678
18.4197064615719
15.3035756556849
11.6562658755774
7.32948773999305
2.47491112665369
-2.09948273346043
-5.45767035799012
-7.56894705164802
-9.38912191115305
-11.8130645693573
-14.84864737258
-17.7346417037499
-19.5606243003609
-19.913371672314
-19.1746332135571
-18.0943471117975
-17.0555539887295
-15.9760701052085
-14.7895929481368
-13.5376982314551
-11.9389067745746
-9.33218956628321
-5.32362097445344
-0.401570784092071
4.18473798497597
7.26684554029561
8.64488730815766
9.05360181164871
9.10620146056266
8.61105550352129
7.22879756190803
5.28366143517192
3.38584079967799
1.65590170078554
-0.20457270062801
-2.42499091232592
-5.01675615364101
-7.66406899278951
-9.57588128007198
-9.8994882489332
-8.44513400159726
-5.76605665490806
-2.65987167681343
0.154841360792134
2.1744120240566
3.27985387207183
3.65387141395606
3.54955765774156
3.42755575228031
4.04587149893682
5.77649095229141
7.9125976262522
9.20729782899768
9.10959202598198
8.15924254569198
7.26115687242778
6.80867710622397
6.4532957336223
5.61644205742676
4.18982535182805
2.56916503343961
0.976437999254265
-0.818722199221755
-2.83942573121763
-4.42343368495957
-4.83026494716724
-4.0276294589499
-2.60234086773454
-1.23134359568067
-0.404243200609885
-0.258826213882056
-0.505635884413511
-0.746548608716813
-0.85419356406171
-0.882289864160374
-0.807633068148047
-0.554866190936562
-0.112612129498495
0.411596500817915
0.689218515462288
0.311653112471332
-0.680646470286178
-1.64967727318742
-2.02453746104237
-1.83745021968677
-1.38975308940982
-0.734273527158111
0.312027952106778
1.88898970255659
3.85338443786269
5.65449255042566
6.68422407876201
6.96161345913693
7.11644097780965
7.50399365455752
7.79889159016312
7.65696122008258
7.2155516243916
6.60174538018847
5.38183879037291
2.88751012075573
-1.07741656918456
-5.99886330981662
-10.9551325071914
-15.1319281300055
-18.2107955406786
-20.3007575712075
-21.5451964592122
-21.9413174312081
-21.4157969356401
-19.8286010199044
-17.0771898372368
-13.4417188569845
-9.57578094633398
-5.95932578332577
-2.67635345048902
0.196563224110729
2.48176224082744
4.34830941214182
6.47214052513205
9.57874111451672
13.8773308181818
18.6721077758865
22.410329222474
23.6665086397168
22.4682614339672
20.2994577505377
18.6022979124698
17.6432131023957
16.8337459722423
15.5721959837804
13.5850376793526
10.8392970206767
7.40623372205003
3.47454225386853
-0.506348686540714
-3.96172969322281
-6.74981905861823
-9.33502454531601
-12.044310625679
-14.4420890902387
-15.8865474633858
-16.4115647652606
-16.5685773367317
-16.6507232944111
-16.514175017309
-15.9411206617761
-14.8758436016992
-13.5258080896552
-12.3065411015699
-11.3375303977734
-10.0183911980694
-7.54240935867012
-3.86055239234782
0.155035465097953
3.49388524869377
5.84030875935824
7.72308775073328
9.81568645775152
11.954425283054
13.0232881928929
12.0520304868941
9.30904166448647
6.20359523582998
4.28519192042713
4.2441416933214
5.46608592383607
6.5391935219623
6.5098471520328
5.60629830036196
4.68748428620096
4.42992222097988
5.13415688379297
6.52931715731863
7.39338045076853
6.1728741638326
2.64729079575602
-1.40804964532951
-3.69836726582199
-3.40664677351286
-1.63219347769675
-0.195130125515416
-0.185770252757444
-1.44277929584722
-3.17803560715956
-4.88779260716468
-6.47463613751209
-7.76673682338076
-8.50557093085138
-8.79926049601731
-9.0747377308248
-9.49714330407326
-9.66187322404398
-8.75658326079037
-6.0238392526019
-1.53359904045859
3.36258271606622
6.82438937418709
7.97249148330675
7.34143472433028
6.05597612402759
4.92206004829948
4.13864779492857
3.48539595454097
2.77377609155989
2.14514674781008
1.7743453115783
1.4696186752495
0.955486927896793
0.377860163491206
0.105243142414937
0.173457497501738
0.259977089998733
0.0875198105216638
-0.290068491678774
-0.455552839714825
0.0265960455076011
0.939533688375709
1.29452857656476
0.339205374570756
-1.4512118950556
-2.8146904729578
-2.98647836649386
-2.20510331004896
-1.22217243158473
-0.701101008499169
-0.834269276504082
-1.21062190235761
-1.24111895900785
-0.817498775734694
-0.322343442629065
-0.0954950421495524
-0.223178743288207
-0.672669174885708
-1.26308315137583
-1.61176991959426
-1.31566772401306
-0.135958003915739
1.84217485383149
3.97647619575984
5.30510146078419
5.47078781353741
5.15212324544965
5.15835145550999
5.36625870727974
4.90462935672367
3.13551874288203
0.239514553553497
-2.90717224308873
-5.34489349771499
-6.7515173820799
-7.54773949848898
-8.1979179437918
-8.64683302741755
-8.57853143929205
-7.95035395536968
-7.11834669412254
-6.56928438695499
-6.47717137592506
-6.39859323497382
-5.64003245726211
-4.10855271503862
-2.43763421474467
-1.02341182747608
0.583901371009919
2.93409722700637
5.72932048309955
8.0247317694582
9.14435129225619
9.22727938884549
9.07170569649734
9.39623813146756
10.024295864547
9.95190131759737
8.40073495752542
5.57198458899426
2.31826004411995
-0.526853078865234
-2.44513453989124
-3.32284843679406
-3.43164323019355
-3.18575248836732
-2.95451587015048
-3.05241773200511
-3.52372151317397
-3.90173947847966
-3.63492499159287
-2.78961905962009
-1.93185007502341
-1.40796645988047
-1.1393292464161
-0.939445079625494
-0.638976200658754
-0.0615584121967167
0.869832492730608
2.16430707886847
3.93448198181002
6.23727398906035
8.75727185129423
10.9888079585431
12.7164274974146
14.0570276517806
15.1588260043473
16.0719907925796
16.6300470842066
16.2406757448053
14.213986097752
10.5781572858571
6.19483182050207
1.91360900476967
-1.99663077697174
-5.58970814141546
-8.93651556713413
-12.1375366455714
-15.262791284812
-18.2346378625454
-20.9193164203544
-23.2242380328935
-25.0377826632592
-26.232494594487
-26.7301772053073
-26.4596936890679
-25.3750463425624
-23.5713936437477
-21.1616562298093
-18.0657199587025
-14.2252632126476
-9.91049761322077
-5.4858855146416
-1.11408692532172
2.97497097157805
6.29073958479336
8.53415289187219
9.9451427016463
11.0408913573861
12.3902076713846
14.5925801050923
17.8159325461113
21.2310134989746
23.4768534682718
23.8504896110626
22.6743240830758
20.5792058344475
17.955045103957
15.1204350199056
12.5315459001726
10.5835712021611
9.26596791739577
8.04957486232647
6.25865951968653
3.71691932448189
0.881749977219889
-1.73730456320624
-3.97634711241578
-5.80278106361562
-7.20695011012599
-8.40386072315105
-9.63442771932611
-10.6744696137451
-10.9436597842191
-10.0585884027569
-7.96941732103844
-4.82594724639801
-1.11751018230916
2.30894581764445
4.7165981754255
5.81013506990275
5.57933143838088
4.1865739098832
2.06000963968405
-0.185319365860882
-1.90904200286
-2.51873740026411
-1.82362308551038
-0.543646473686305
-0.0307893111331618
-1.12770845189163
-3.4360769387703
-5.76126515557567
-7.08687009000668
-7.19352443427635
-6.61185117008516
-5.98172617199811
-5.38939787218704
-4.5059814948559
-3.30583179649337
-2.14333495570359
-1.05666918096163
0.387459367555627
2.30356478378682
3.96020398716214
4.27735060068616
2.75924807354402
0.0348136790031891
-2.44597272968135
-3.48921652056232
-3.04801450088297
-1.96612259688684
-1.05677956258537
-0.642264302220548
-0.610560814719946
-0.539781193861816
-0.0544487536776257
0.695764871011733
1.23047420555341
1.4513646482313
1.66791357165464
1.92540959025208
1.90270328526723
1.51312687526852
1.09289772890214
0.95730935119229
1.09870091059684
1.26602390952915
1.15610217033591
0.652889268436931
-0.0579808097470028
-0.757888446557319
-1.46582320413771
-2.18154006730775
-2.54377200140458
-2.12778180182185
-0.983380325709586
0.417938318916197
1.61555215380496
2.31597158611911
2.37457617805788
1.86801454335695
1.02832123746932
0.0604274519300301
-0.815087611556663
-1.3187453714725
-1.40514814874996
-1.42614007383767
-1.75780080560714
-2.40432757364927
-3.02286423342368
-3.1346396550573
-2.4231962974153
-1.12993826922722
0.0138993415315658
0.569659692877973
0.928996755296491
1.84645341950476
3.66379026024221
6.12529204742893
8.70271451311703
11.0479557417669
13.2810479218576
15.6605053593472
17.8429494312853
18.8953265157641
18.305964986595
16.557677213383
14.4201774622642
12.0310674597433
8.89740661102131
4.55644354752349
-0.848259976354619
-6.44539268644861
-11.1518478128353
-14.5601193880021
-17.2381994113503
-19.9662168138843
-22.8345389789896
-25.2371206055369
-26.5145463522676
-26.4642411571568
-25.4208335884136
-23.885964875422
-21.9750260663397
-19.3770352182551
-15.90546890039
-11.7342156714783
-7.07747689955034
-2.1769410531774
2.36117125168282
5.88417523612043
8.5200811542392
11.1403489889493
14.279013082318
17.3798870933072
19.2180997294421
19.0065012038388
17.2097251770067
15.2680835983891
14.3116167149297
14.196562633427
13.9203713806871
12.658169931066
10.1933462800599
6.83720569005355
3.32353605481556
0.428693536071951
-1.62037074043158
-3.15200621974252
-4.42477687913315
-5.3264205218344
-5.70698938453175
-5.62945921676188
-5.14612840896987
-4.00816816319447
-1.74190871820541
1.82137868355188
5.88053461484759
8.74911066354989
9.1603900173292
7.50817905295586
5.36935737846675
3.95120290731041
3.46525836524156
3.63917602142142
4.06261550804134
4.14188134444926
3.3610731155097
1.70371391685362
-0.374658025589246
-2.37125245518258
-4.19867631407669
-6.3605333829862
-9.42711489468393
-13.1366318595035
-16.394178896991
-18.405416161718
-19.3695678472403
-19.8478329167896
-19.9853946584438
-19.5945885122852
-18.5193952082185
-16.7066851847908
-14.2631796544933
-11.5469760790609
-8.99183865573267
-6.81079139429288
-4.87536052198524
-2.75797271610231
0.007637944318234
3.48197762813491
7.25791443666609
10.9843123302199
14.5944538660264
17.7595315864357
19.6258144761075
19.6074420104435
18.1371496424089
16.2486094303352
14.6996149751752
13.7255300328442
13.253462810545
13.0580947807252
12.8653846017317
12.4004305737149
11.3834471856294
9.75956328598076
7.9496699657742
6.45192853058559
5.14532241820413
3.41879799594424
1.00439884528654
-1.6863812143427
-3.96371029742458
-5.29604404264772
-5.5726945869863
-5.24039277030721
-4.99530892919126
-5.18540571184275
-5.66986375479434
-6.15214996729125
-6.36803620966756
-6.15059825892123
-5.61800337113022
-5.07454051492581
-4.54261260975624
-3.72141725527034
-2.53924302376129
-1.3806056577913
-0.658003479461002
-0.454158127798002
-0.587691621376238
-0.733250045214589
-0.510213984711354
0.258020247769247
1.34286581038056
2.25665699660344
2.52938038685871
1.94536772650184
0.795575584252716
-0.273051935605358
-1.0878517396952
-2.39355061562935
-4.9096865568747
-8.14907372973362
-10.7162189168467
-11.6240527450821
-10.9420278680916
-9.39889636426316
-7.70578637026381
-6.12409009422402
-4.5257724532662
-2.94575152912414
-1.94034858108313
-2.14832017357144
-3.58955620824053
-5.56796467124193
-7.15860013373283
-7.78521580519637
-7.56850545292544
-7.12928180728895
-6.87996763522581
-6.59802745546054
-5.77757108915116
-4.15635449833088
-1.8445058480952
0.746434393330924
3.08328226994802
4.92963627451094
6.52694818697561
8.10336506345056
9.40577382667186
10.0074600627414
9.82279219279281
9.07555270862508
8.1736848289578
7.95218582596911
9.55265524302033
13.4958924851668
18.9538590439126
24.0827759391897
26.9864322035897
26.6982113254323
23.8290191722116
20.1792749076093
17.24462520245
15.1511679315223
13.243297581682
11.3550309033405
10.1336627572551
10.2561300918277
11.5166754986068
12.7103401379392
12.5717961493556
10.8743171186803
8.30873710071241
5.27743367577206
1.30554796409786
-4.23483724641545
-11.2456791512683
-18.8000147334384
-25.5667723444646
-30.4393323558394
-33.1542567989302
-34.3429669805304
-34.9232260484383
-35.5653247493784
-36.564547751541
-37.7668008746806
-38.6129298777782
-38.5911135469118
-37.5954880646927
-35.6546615848272
-32.6135054140702
-28.412894309718
-23.3932821730624
-18.0027078794698
-12.4921224924959
-7.11469619562078
-2.21620449754578
2.14598680249053
6.36241484770004
10.8494890185319
15.5739320777772
19.905188961045
22.8738429064446
23.8998921416462
23.37483053219
22.1883887514886
20.7653107674719
19.1029786922335
17.6084798592137
17.0996630854553
17.8048222441571
18.9077589747894
19.3178025223793
18.6912059722041
17.6472395619228
17.0576014344386
17.1481206981111
17.4266820324602
17.4795915481711
17.4222351660242
17.4278622541322
17.3658991499
17.2086588625496
17.3164500584943
17.999957830245
19.1169550656734
20.2444338011399
20.9300981344182
20.700941776246
19.1375772623268
16.0668593953042
11.6107219001868
6.16490837950817
0.403842265043653
-4.98031546039409
-9.74381930132808
-14.1219962111246
-18.3432105650743
-22.293803795677
-25.5715033905878
-27.6529997613529
-28.1751162275793
-27.2603992592559
-25.4438792389102
-23.2807127726753
-21.2193308179619
-19.6542384097257
-18.7487117073152
-18.3826708867917
-18.4702921552981
-18.9363002365039
-19.2523049075433
-18.6594396636153
-17.106128018602
-15.2996284236926
-13.6126880478507
-11.6471488621267
-9.11814602078455
-6.5407393992628
-4.77637140116572
-4.26090071039384
-4.77510885600005
-5.76847682974551
-6.88150522401896
-8.08421096005561
-9.13336333381631
-9.17209050725214
-7.42081326213905
-4.24087887013919
-1.00954730498384
1.16248073577544
2.28789378233809
3.10410914753434
4.15826809428637
5.40393497562755
6.60290289910393
7.98196674763196
10.1943554982527
13.4609043652349
17.0829346963188
20.0635678648787
21.8839402840097
22.5501765530264
22.4302600808961
22.240076543941
22.6121235376448
23.4196243082716
23.8895773675901
23.4167383532842
21.9553857504605
19.7721091418328
17.1875969821236
14.4517399053528
11.6717291337388
8.97699296712535
6.65001908033039
4.7609949081649
2.88114294825397
0.623282465500356
-1.74648618727991
-3.66760628727415
-4.97339753482189
-5.81250978454628
-6.18235072934184
-5.95100123750598
-5.19383521724777
-4.26712971297101
-3.60100840106985
-3.41999544347972
-3.55004693157201
-3.57831541411463
-3.30910559217301
-2.92389639534793
-2.67871933480673
-2.74681241469759
-3.35607772411862
-4.63277070781327
-6.24124136265487
-7.5821484414276
-8.35903528319046
-8.63164525691646
-8.47283243054193
-7.96228477177801
-7.41559003885191
-7.35409910838395
-8.29964114642975
-10.5902435444577
-14.1503922456783
-18.3661075343904
-22.260559428372
-24.7751473241992
-25.0863180010625
-23.1238149282509
-19.8207954761803
-16.4369892281215
-13.5900887236776
-11.174187489894
-8.90749896564567
-6.52724883916361
-3.7905222006299
-0.758691515727174
2.18051622163918
4.84968713717166
7.48973911729986
10.2623788216517
12.958050383255
15.3580112148127
17.5347796662065
19.645748678401
21.5958404782879
22.8927758059135
22.7951973571458
20.8867661847469
17.6696908756056
14.3003328751717
11.5886494072643
9.50586037639316
7.64837572339086
5.8100005006388
4.09568325689871
2.75108453097733
1.85361871255382
1.13153811142656
0.320487250707878
-0.36797533025212
-0.4898126018759
0.0656635038977456
1.11911704738309
2.49497740858727
3.81941921656243
4.40366034080288
3.83713314565573
2.40017642828656
0.561089758482075
-1.51263779037759
-3.63282221693653
-5.23943926449503
-5.7731267265023
-5.23599821218108
-4.217185434333
-3.40841213059577
-3.07838822419135
-3.04437248405815
-3.2043561005624
-3.83091850626727
-5.08691945291861
-6.56253951197487
-7.64221513602689
-8.04382546266627
-7.70766189930255
-6.56423903506658
-4.80039188169548
-3.00967643432552
-1.73245581232058
-1.0991039016174
-1.01884315094231
-1.27893118678201
-1.37665991075683
-0.746043266780029
0.704464484647756
2.53801249779131
4.18361519623894
5.18396820870668
5.30696658728914
4.65458841257806
3.51436061354402
2.11871304979068
0.77185975926136
-0.0452790678335583
-0.18942536728526
-0.338436223177081
-1.47761422609806
-3.87228390022029
-6.7575321154204
-9.01492443769817
-10.145092335747
-10.6914106327939
-11.6027873996898
-13.0501976230829
-14.0800177857745
-13.5352318673913
-11.0467655448709
-7.13554614981356
-2.77492644910606
1.09695383033829
4.01870177272525
6.05605848260618
7.31012719286799
7.62709948432617
7.03324954943471
6.14702098457016
5.80112553080762
6.38560746187554
7.69280543392593
9.16417860059276
10.2362059715868
10.7670754355492
11.1479863483211
11.7228056746132
12.2336353718492
12.1412712620221
11.2896799863385
9.99828720536379
8.74607114765501
7.91519149126405
7.54307652288649
7.2431015605999
6.61276438198966
5.63833137845542
4.48215710583474
3.13006012408261
1.52533731593933
-0.200275135939871
-1.8151971254852
-3.06143456195801
-3.63329047068905
-3.41025221057788
-2.66733768763653
-1.83312152094387
-1.28082124605417
-1.51802406324131
-3.07233229611986
-5.83130819512819
-8.86130981326141
-11.1332677117773
-12.18778367893
-12.1244023874418
-11.3618588175544
-10.4375190200815
-9.69735952515437
-9.1536541248105
-8.79245700795224
