0.0371280013284023
-0.0007913049919723
-0.0213038534758937
-0.0405892996024426
-0.0575437796320724
-0.125917874850669
-0.259678931678325
-0.358394028720601
-0.369461250647106
-0.382522204309008
-0.451032448288665
-0.499014396606909
-0.47915734180793
-0.434495285628268
-0.382180502440385
-0.312812377892979
-0.26359221148428
-0.24843864290825
-0.2215074790193
-0.206670034488256
-0.293733206702092
-0.441377241833679
-0.483351072962386
-0.372216965990975
-0.226966792661493
-0.131423709184022
-0.0631065230212324
-0.0031120096459183
0.045553175912697
0.111406569494115
0.197325197137573
0.246731839397809
0.263657544105298
0.339948541106936
0.487888117153454
0.597808656272079
0.5999707670074
0.516469872336778
0.372732393013881
0.204612187366131
0.094096092159968
0.084388794970357
0.135935498216187
0.203946092982318
0.250936558061388
0.212886067089119
0.0879329020351574
-0.0078099983093715
0.0111656938306819
0.0983000298892009
0.187675705791563
0.253511045357379
0.233017147272965
0.0798243862739623
-0.110255540400524
-0.20134160855975
-0.187136520236173
-0.122391762484493
-0.0167718518178063
0.0867378919049478
0.0944705646434044
0.0117245198849593
-0.0464829425843791
-0.0228601979600184
0.0484806970517488
0.143392915952153
0.237825360612946
0.261024480580231
0.191651002731145
0.113905134335135
0.0736865273400433
0.0044290243465165
-0.124452827324016
-0.247291976534653
-0.336148344525151
-0.408314494882903
-0.403541196373492
-0.254745014294125
-0.0327268363344215
0.157615758816777
0.31875918484785
0.45645448772593
0.495966762285543
0.416978033444733
0.301007526747889
0.182721536039964
0.0193543593250911
-0.187512272884087
-0.38285674656878
-0.524777344636385
-0.569167680077284
-0.497281752716981
-0.402331102593287
-0.394840065554093
-0.429336198574188
-0.396873358850551
-0.319752111232989
-0.27793301213523
-0.262676551955684
-0.261913179735525
-0.336711348353999
-0.488286763703693
-0.610070615984701
-0.641563150123534
-0.612583585350912
-0.529829142015195
-0.383503137567978
-0.228238471294521
-0.0986246114427833
0.0748931071931547
0.315574361332627
0.493983346686061
0.5216394761903
0.498870172363017
0.543358485093546
0.633092276747802
0.698352760319038
0.710223975982445
0.652895527387487
0.538985132821162
0.420150061939421
0.304745985206243
0.15947721677892
0.0207297571119737
-0.0316447434220962
0.003725102175571
0.0898430480950263
0.235762601868684
0.411859106626386
0.510826134708269
0.503412784982102
0.474027407560969
0.443385198385344
0.349532269839687
0.216104327432485
0.133932797400733
0.103454764017987
0.0696737290437165
0.0373082961877879
0.027488880718545
0.033035928146777
0.0682913920949772
0.118663134196638
0.0654705725937652
-0.156709449158412
-0.396849037871754
-0.480832633071395
-0.472560622945609
-0.542169239944331
-0.694147293381164
-0.825860835246279
-0.915050802952781
-0.957292455043305
-0.875001737773285
-0.660028012748958
-0.45029966624446
-0.346153725062385
-0.297404216162663
-0.215583283275191
-0.0592969668966749
0.169801355946397
0.400341612126688
0.526721809285249
0.537907189713644
0.51246356214363
0.479696671291271
0.410615689472924
0.307817984575907
0.184958078286134
0.0365063794335113
-0.089023294290467
-0.111938239533189
-0.0557791049891903
-0.0043764754558059
0.0475985140873976
0.124331302854826
0.145201476125669
0.0613765148346997
-0.0218900728634649
-0.0222017205651974
-0.0050971690660101
-0.0168775365577936
0.0015788334909588
0.0538534860261839
0.0508149647077021
-0.0149399092110927
-0.0488481528551942
-0.0261493041865894
-0.0099960932377589
-0.0067819016351892
0.0416414815251398
0.147335295128274
0.267128057155034
0.339539984812512
0.280557885357613
0.0697012995931852
-0.145608918862979
-0.192121967618963
-0.0986934049627693
-0.0325793549100728
-0.0733565332863689
-0.172512795943715
-0.239477169231232
-0.193774406651792
-0.0448095917160532
0.0771355970117918
0.0906516356737321
0.0883578739618104
0.161018134750692
0.233375918033247
0.212271796282744
0.13836837870634
0.0834465817082078
0.0612079063665914
0.0831297551319062
0.138437784714909
0.150501640145663
0.101763646612383
0.087125941626906
0.114817396477641
0.0426402953078228
-0.166675714452357
-0.34130116184866
-0.353539344872697
-0.271729599122028
-0.193348571892934
-0.123726843230023
-0.0631091730329087
-0.0359256581748968
-0.0159815764695548
0.0273316174472376
0.0383697831821343
-0.0298795245407458
-0.0985630140702034
-0.0665375191240131
0.0443888402383548
0.119000538382187
0.0465984967095266
-0.198658742473013
-0.487153620467013
-0.617206943497975
-0.539472666451151
-0.374998986425764
-0.190669020956117
0.0511251971728455
0.316538262604287
0.486292728035427
0.51077920518458
0.418796156358733
0.244443905352817
0.0666773622901973
-0.0151798703654126
-0.0331331856695848
-0.108168103135091
-0.22970516194946
-0.277047856177484
-0.233498663714906
-0.174424847703483
-0.112230528514375
-0.0267501492180802
0.0586103402819194
0.148686451153322
0.280055240951242
0.394800871557861
0.385267540733773
0.282274214757791
0.215661752361591
0.203094785349936
0.160342812842793
0.0787778670543304
0.0183280051574109
-0.0098703166112229
-0.0067034057263307
0.0634206197824688
0.168286897413527
0.195407316503135
0.120338368102236
0.0325919999398231
-0.0251697658343861
-0.0841098727693531
-0.146051173405474
-0.19109636235353
-0.223266739214663
-0.227096589912365
-0.176517681913315
-0.102598585303727
-0.0367196861479322
0.0580842905668564
0.178906598891943
0.228305127267541
0.179321340173118
0.126113873461629
0.0963709791776316
0.0266633117653941
-0.0481385210147383
-0.0244636015923568
0.0647287018134439
0.103744686626487
0.0809192995895108
0.0270805627361779
-0.0936562563113278
-0.260716662106658
-0.330084384675523
-0.224828038555449
-0.0392475967016215
0.111063916686575
0.187038526791134
0.168659673089558
0.0659427764766184
-0.032464293735747
-0.0631240294009008
-0.0812064767116925
-0.15043407950621
-0.261212317768721
-0.418343557959062
-0.623410052113293
-0.744014297498765
-0.631665029540846
-0.367938827660314
-0.165681620900704
-0.0751486235542549
0.0007926980570542
0.0873417778913193
0.121163799562061
0.072241507786952
-0.0294222506907828
-0.112000684645431
-0.0884903344837764
0.0437448204571443
0.172402112092128
0.215071807016801
0.203289266708594
0.190741172171096
0.217993441516749
0.343173884369924
0.527856793717932
0.577337107467277
0.396754079126462
0.176240966634275
0.133646721687344
0.242928003780513
0.363990445133613
0.434067334786812
0.418607605787756
0.289560127942365
0.132681400910285
0.0841149574742417
0.134859061677796
0.171920554094567
0.171686722305286
0.165886113752367
0.102083306461273
-0.060462871438494
-0.217940976382781
-0.263271858548077
-0.24574149645085
-0.265853727189026
-0.338143105663236
-0.4194067437965
-0.454066828815209
-0.399763176775518
-0.297245862650054
-0.237400081747245
-0.214277545158754
-0.15285680472415
-0.0849268916112953
-0.108273623083966
-0.194220879011204
-0.226575308628244
-0.178643869144441
-0.0969179258207476
-0.0114380788381273
0.0248107317103036
-0.0463109306694551
-0.160911312922902
-0.182979276227031
-0.0897440008129784
0.0429849281497515
0.170785214924702
0.253850045996607
0.227393579701297
0.123373961706665
0.0738031978590693
0.113620456803342
0.143244596995406
0.119624293179681
0.104529451743835
0.114233080965094
0.10196428771304
0.082919996614266
0.112370804997649
0.167614159177866
0.180801287061448
0.126014708818355
0.0020957903038099
-0.151537038313986
-0.208446152847177
-0.0957967499208206
0.0534110396175586
0.074138394924086
0.0060540025070194
-0.0193524667345138
0.0088563684805677
0.0370383186208292
0.0616505995223672
0.0785236674237208
0.0654145191925117
0.0521904796640952
0.0688924039677633
0.0687324017995533
0.038385767113753
0.0674395178548986
0.173782486472093
0.216614396397622
0.0952465179039078
-0.125856844465817
-0.335016574023886
-0.448892649985107
-0.394558556382472
-0.185064523593627
0.0427654474126912
0.181129507725498
0.242752364794551
0.249617542427578
0.186533203427198
0.0938822080940165
0.0390746157545422
-0.008195706680498
-0.116114035703838
-0.247391104153131
-0.331424506114121
-0.392774137400978
-0.44844592776808
-0.406124077127508
-0.225928477089585
-0.0403061507240064
0.0143893634465808
-0.0520426570697388
-0.147952138369051
-0.169700878974317
-0.0404594798775401
0.174550834482423
0.276630606191879
0.17695218854408
0.01219674092091
-0.0533481612993251
0.0029676127792152
0.11308570909545
0.192810737213708
0.183862527612239
0.126553000976663
0.11714839526277
0.154211655344142
0.176998269578768
0.234019683908484
0.388411747537521
0.513301701168073
0.43995709604903
0.232331455228444
0.0828784471860566
0.0467743427434732
0.0601015201144768
0.0767651906017079
0.0577935839035739
-0.0204982812243347
-0.0797239976527837
-0.0208407210082984
0.0992353407556607
0.143053332529876
0.106451187357167
0.0753123927740405
0.0474694084979941
-0.0086113450574209
-0.0225527258299614
0.0619889594928811
0.152804739392206
0.133636388658696
0.0039748550618736
-0.179637020273594
-0.374395679707667
-0.543259644370217
-0.674869760070825
-0.776749551996415
-0.812423830151886
-0.753775364142591
-0.684400598301765
-0.691132187664041
-0.703919414875496
-0.615617479376346
-0.455901027788291
-0.276789441600842
-0.0262171462745925
0.299214811148463
0.560703217659698
0.667799378590859
0.679693899752055
0.661458270280068
0.626382050840781
0.602626458871656
0.580243626185703
0.470959200854128
0.265753416662583
0.103165469385054
0.0687585072267997
0.0791316523275281
0.0403882984628352
-0.0362061622588633
-0.11465531490465
-0.174290339870116
-0.167256105899115
-0.0850413822927216
-0.0311543204810599
-0.0901729957902659
-0.200146657780187
-0.261852815934191
-0.250408113362476
-0.153284217888107
0.0325261847525347
0.21492264737409
0.296274518043219
0.319753124609389
0.363683479738026
0.381546449738265
0.296254335730204
0.137529068882443
-0.01854122695584
-0.125933114342672
-0.15406117115683
-0.124242101319956
-0.125549247601026
-0.180116725110948
-0.193730129514316
-0.131334196473553
-0.0841158940184016
-0.0978035074871331
-0.11574707348376
-0.107886216322657
-0.0741863071925095
0.0282006929509311
0.187904471981386
0.279903539982364
0.250419221489367
0.209450879427609
0.231848875924077
0.249408161389676
0.215515701275578
0.18283501343844
0.168762003735883
0.129514054897704
0.0853581802314923
0.101847536386464
0.16668393460004
0.225376837844194
0.259760218780958
0.221039760830698
0.0355896367527527
-0.22634011459815
-0.369455697006039
-0.322128930606711
-0.194466526045581
-0.100369428561332
-0.0830542177469663
-0.141821955090982
-0.198418485000729
-0.154304527020531
-0.0598641322141105
-0.0705246929491284
-0.212460343126163
-0.369910357477979
-0.478303391269213
-0.553843339451506
-0.595677058028445
-0.596984708684433
-0.553147422269109
-0.399662546352173
-0.109616394988191
0.149567303901332
0.180627598534954
0.0440404243532918
-0.0391254042332949
0.0063846097597152
0.0978464755605042
0.174576077327864
0.219810645738817
0.214278065463403
0.181042377737719
0.171458742392099
0.165777518343076
0.111117928599413
0.047443395584051
0.0485992035925467
0.0793362737401103
0.0617547666676434
0.0084282508676811
-0.0451463098834303
-0.122678455902259
-0.214985771675054
-0.252278038009844
-0.227947863830459
-0.196561674209251
-0.154990935623339
-0.0760716008256148
0.0027409662445079
0.0504582424350786
0.0967992288331452
0.135367439936359
0.108840413068599
0.0209447418605012
-0.0782721259582467
-0.185863595492292
-0.287938842936736
-0.305926809239325
-0.232324329328262
-0.184735272431715
-0.223129546965338
-0.266598244803893
-0.235148879679767
-0.113137058238528
0.101937898183582
0.358151915957639
0.544986999465206
0.653526084927083
0.79038777478563
0.945042555193435
0.953173448344122
0.777190909954428
0.603817810788026
0.581840059735689
0.662021549007404
0.751808245212126
0.838362755348324
0.915821436253506
0.944353871055289
0.895244923228018
0.754193307851164
0.548076962551462
0.403067966171632
0.428109857626944
0.528737915770025
0.508814321482798
0.325951099164928
0.0811553951756351
-0.158358084001469
-0.374759769220129
-0.546447121631712
-0.671548151128634
-0.723085260097626
-0.587429733638049
-0.222606877635157
0.178499092667193
0.374275379914488
0.335437133927413
0.165482696359405
-0.0897029165358127
-0.414445736969459
-0.768642617890586
-1.14716256371689
-1.54641306984611
-1.88426207479636
-2.11059678952773
-2.31304509231192
-2.55614756421174
-2.73249005744576
-2.69727139019502
-2.42345547678445
-1.96634808474528
-1.43464686282162
-1.01293797638465
-0.82612864870128
-0.779103924547691
-0.699450679709227
-0.575645759198728
-0.462575771814718
-0.269185488852583
0.123955676215602
0.636733732760836
1.07194196884363
1.32883152767436
1.43272206275813
1.47183459946887
1.53755241032682
1.62853087808505
1.67071549731156
1.69623067718236
1.83900926877962
2.08389499710193
2.22435957519982
2.12775554968012
1.85355106912816
1.51084055983863
1.18248723234456
0.941685097714691
0.790404231722937
0.666922682944444
0.591441299008025
0.643080450263845
0.762226281022942
0.786470372339051
0.68300713713015
0.540784082652773
0.384753864460677
0.18798836389478
-0.0199075953836875
-0.212155917618349
-0.424989626503901
-0.654364492202974
-0.819071697180511
-0.888609050244844
-0.912829724422851
-0.906664755562269
-0.84890754798283
-0.767071580802446
-0.674955774502903
-0.507473816433638
-0.264638162140514
-0.0875443327210305
-0.0614581046170243
-0.113073926418763
-0.187515312669455
-0.324836971298095
-0.517879212468323
-0.691970155451326
-0.823798060453544
-0.926902573183168
-0.981420054821387
-0.981811213265749
-0.945996959343068
-0.83367684961415
-0.598238317411388
-0.309881607135271
-0.0794172409894897
0.0742007267978468
0.151711622991912
0.102510291997079
-0.0527624598324262
-0.183296082337012
-0.213763474050421
-0.182873253861844
-0.13710693281288
-0.115368610182133
-0.168255166214282
-0.24987998907723
-0.209108092710522
-0.0054692659811816
0.216872802012372
0.352762216697033
0.455508347983562
0.571750121391157
0.647083067792796
0.647702463337093
0.601335793297001
0.496955308881796
0.299213165660455
0.0407911491977558
-0.215732734577043
-0.421193125522469
-0.478577889117911
-0.308388638746274
-0.0216585163979983
0.169077667835891
0.217910910205172
0.239416218325047
0.292885293258998
0.349261257390454
0.386286461325614
0.385373612280387
0.33195868358474
0.269971224629067
0.239728200222409
0.191778735689272
0.0937648852807367
0.0284906999012506
0.061094457533404
0.150231257196095
0.268840263340857
0.410867602115397
0.450046409332158
0.251619385827754
-0.0662729011882149
-0.23544382453818
-0.179590361725346
-0.0527619678725038
-0.0137747829988239
-0.117625278604597
-0.318816057635962
-0.471639634672
-0.44783354961255
-0.303496961640214
-0.193063766869154
-0.130189781082599
-0.0116071447514114
0.161936641790182
0.292920786922325
0.362549267938681
0.406539292875602
0.392405445903666
0.280304258720238
0.110729533401704
-0.0620268570207334
-0.206251446643947
-0.267158502010799
-0.227548740129442
-0.17968612017184
-0.206725917931574
-0.268640924227264
-0.296728337580595
-0.287599877764342
-0.257707838212892
-0.234711934225563
-0.28026521346479
-0.385446564707349
-0.419746602201328
-0.317981212077246
-0.193351886738059
-0.152807611617494
-0.155853325353129
-0.121650638584226
-0.0071564650190407
0.214504885172593
0.478793064510865
0.612699755274219
0.560509979189925
0.488798010534918
0.522863958862287
0.566727042724995
0.513260440006504
0.419401784053233
0.351864197982384
0.266780750916165
0.142215343484504
0.0394015723034676
-0.0267775434020203
-0.102974334036181
-0.178002019981914
-0.206752611074816
-0.208611579286011
-0.223915267821264
-0.266341406250965
-0.371708218093111
-0.543885838053848
-0.652764480507965
-0.564890045386155
-0.336579794253431
-0.123291792621302
0.0068075408931909
0.0506151604841933
0.0098407640816444
-0.0565518712319792
-0.0700997786091442
-0.0505834049710585
-0.058451044904206
-0.077542011976952
-0.0849257618800047
-0.109045195025315
-0.115441081441687
-0.0225434940976726
0.10790950693806
0.125759918839202
0.050586914028138
0.0353819095366109
0.11231797368146
0.200839318710938
0.282052026744613
0.363149050119011
0.378448863190745
0.288270778336542
0.161756528199427
0.0607497657939311
-0.0231579311643488
-0.0686313701713785
-0.0295678086303882
0.0450232169000318
0.0723941697822689
0.0830797819751358
0.128675107623017
0.137190440951511
0.0438204713819661
-0.0587772595064615
-0.0605251999420716
0.0012583928981187
0.0149526150134885
-0.0779433795825977
-0.246220168920417
-0.375112714476689
-0.368026753778486
-0.285882811390377
-0.257878317747737
-0.260947003914995
-0.179090817031469
-0.0400455089216697
0.0301508631987689
0.0226470564300636
0.0086635963370656
-0.0090301918517478
-0.0359858878413091
-0.0140107850061383
0.0728359800094397
0.169575072812154
0.264544339611376
0.37347643812722
0.451202881682003
0.475691141700711
0.519451662227434
0.603296797425555
0.623923048748175
0.535041694529968
0.432660807562896
0.378632654610315
0.314292255664746
0.201886508315906
0.0771355925470633
-0.0525708713759035
-0.187971774372543
-0.254502520247435
-0.21771472026469
-0.19680197621657
-0.294676350443462
-0.435307008876668
-0.504160286778179
-0.51019370699971
-0.526263545917163
-0.602208880431704
-0.747518457234541
-0.887003326913874
-0.896263630631363
-0.766455784931298
-0.617104381115642
-0.506311334403659
-0.39022826005632
-0.263856746083816
-0.154428757428719
-0.0187831598439016
0.178586335901096
0.37242841872199
0.509033500627994
0.607943372380833
0.640603429629389
0.546055312705644
0.396379322267623
0.335183713322854
0.371374686602992
0.419656913036901
0.455216582954845
0.458485797744536
0.347665637410751
0.131692917126905
-0.0162133456532835
0.022403349131559
0.158318923633065
0.253861426548714
0.278994910496823
0.246123018840799
0.157091743798376
0.0593372914132071
0.0194635379510347
0.0495221945393404
0.140064448867908
0.268065482184913
0.329214032466321
0.234026459610528
0.0843113355623089
0.0536743347012752
0.122622706495491
0.133068240271328
0.0334262811993974
-0.109026688829137
-0.240632859423793
-0.33752016957079
-0.398339933497684
-0.470456833811915
-0.57124660408121
-0.629046761316387
-0.619509917197072
-0.627732923612754
-0.663079401601872
-0.613890941734704
-0.476778205637342
-0.389930891927463
-0.391726530236549
-0.400668720523125
-0.422872941521322
-0.519972518432363
-0.614518480581546
-0.554081066192738
-0.311161328306945
0.0293573450162337
0.375847514881868
0.625645543739379
0.705698072136796
0.689294792754846
0.706869171918846
0.720693568562536
0.594502223038831
0.372470942053216
0.246796886999076
0.265272814908118
0.29018161795835
0.21728816149252
0.078654890127324
-0.0216742767205977
-0.0010421325724364
0.104146271807235
0.14962532514132
0.0703468788925205
-0.0349112409512966
-0.0749833812239205
-0.0679278497895742
-0.0200770447423213
0.104947996022219
0.270993027044924
0.409691783570017
0.539252536250851
0.668102130122272
0.692760026373159
0.566375183018864
0.419783710187701
0.37968564345505
0.434971236344427
0.538683455155623
0.640400884493335
0.625838136092025
0.438157571530202
0.209294478243404
0.0867703408867368
0.0289693605822351
-0.0734344904929773
-0.213092210531591
-0.347422428102342
-0.516083940745103
-0.744550002697231
-0.956580240614972
-1.07292228362155
-1.09554639337861
-1.08096578240546
-1.12447524497946
-1.29495086736357
-1.48463977772814
-1.46326232780017
-1.16466479249542
-0.742187267654353
-0.315539026278409
0.107779829747688
0.468646967391862
0.656368783318057
0.656353408793727
0.528719407977549
0.316071430810184
0.0784777218035086
-0.113319313825418
-0.276999844324456
-0.462945316868539
-0.61801020251323
-0.662003882077933
-0.611068885151466
-0.480681596888645
-0.223737194868531
0.112153053962795
0.366285642762868
0.487571794696163
0.570057005563867
0.654011063427305
0.705389123439664
0.758590522349351
0.880938391566429
1.0444166641293
1.16923882236324
1.21437241496523
1.1476098316008
0.951610316772936
0.712715085195732
0.557580691260309
0.477063513276546
0.371662633064864
0.253580174623517
0.222624456898201
0.280072270952236
0.328759501652416
0.295419056959891
0.149819726167671
-0.0919019145518228
-0.335097973834032
-0.498617893755363
-0.616433801653256
-0.728686137654711
-0.772082719294979
-0.706390807408001
-0.615260278316903
-0.573841005999546
-0.556612686128957
-0.527985739471306
-0.48056962786465
-0.396577105274118
-0.305223109998916
-0.29504438550147
-0.355665094975113
-0.356141006491275
-0.263450572941058
-0.186072004812846
-0.160074126288585
-0.113392264691287
-0.0371770161134021
0.0239175592122007
0.0983542871122838
0.214526035865294
0.301329763776103
0.321291626893172
0.366450970693597
0.486156835869669
0.577898430595785
0.563887041663822
0.504995313700492
0.45167507124944
0.363969986787631
0.236284864987376
0.123980473865976
0.0351376865803013
-0.0496447152207973
-0.100746263720443
-0.111555781946234
-0.152891408353793
-0.266945362262822
-0.4105371148222
-0.524223362634046
-0.556796657803229
-0.475294580738782
-0.344025195829014
-0.286514573789529
-0.307657816187407
-0.303389832376466
-0.261307903107014
-0.262171505313416
-0.298368158408795
-0.280902287965621
-0.178350002611759
-0.0068228258453257
0.20269551155213
0.332008374051406
0.252138077146825
0.0343773211771552
-0.110218350801016
-0.102305428470658
-0.0139674562493162
0.108760257554119
0.243508108107349
0.311842921755518
0.278166931569521
0.229193231426322
0.240720567363331
0.283822006048347
0.32297152634577
0.359031703494143
0.353255240937595
0.276942552203728
0.216208936272588
0.248805087423373
0.287664549055251
0.224315285357335
0.10898748509838
0.0320250802543623
-0.0183304248039225
-0.0648341121175373
-0.0803282879977103
-0.0798139528773117
-0.114633931639614
-0.178610616640542
-0.245500572965926
-0.325771596690808
-0.397719211222158
-0.408086507293763
-0.382792139474986
-0.384869332724974
-0.385189836276407
-0.338010129797553
-0.290150902561977
-0.253319266985536
-0.127032138252938
0.105528591667148
0.305298703768395
0.408793180837543
0.514522618978054
0.67842153862175
0.825403472034252
0.870155523781491
0.765994760148373
0.498288403330656
0.162790622904978
-0.061233646207257
-0.126280168454943
-0.165370791153104
-0.248161424398218
-0.273264720366832
-0.181315954344465
-0.0718755028410176
-0.0295449643656777
-0.0140108340953487
0.0352746295317403
0.128055368741605
0.240381518755029
0.308890717493
0.285458731701398
0.233390275294033
0.240012227769145
0.25172000121107
0.153089927632721
-0.0516263284896149
-0.287475331887736
-0.538314260420726
-0.802562137275393
-1.0393436703369
-1.22213952468879
-1.30817722701063
-1.18256123200562
-0.829238476745713
-0.489442285723328
-0.426102024095973
-0.596228188186224
-0.726197795432929
-0.614484213522628
-0.257932306218345
0.184875174464784
0.500908770086876
0.623487931027472
0.708294215598433
0.891114886949651
1.0682530285923
1.06054612349829
0.877682552547902
0.674848004024408
0.558252294851968
0.550180907515783
0.629670331845171
0.716966239545059
0.72085599979807
0.626938532832916
0.443776847967687
0.143782929770927
-0.206542654307481
-0.404343502293614
-0.36001682639441
-0.23764674103096
-0.233527062522833
-0.376748237309452
-0.593401233633923
-0.795396570020091
-0.906070044412339
-0.929615182171051
-0.933808838686534
-0.897251275243769
-0.726805470363914
-0.471350977432033
-0.314899666442757
-0.318390919816565
-0.355410359855267
-0.301408394522323
-0.133297093065457
0.101115908659909
0.301304332265972
0.40101583559779
0.47929541535971
0.641983699258938
0.819364208647535
0.862283918856781
0.776194922962309
0.682965035223693
0.640141728352421
0.647243515556809
0.720592228690891
0.839884796963189
0.93113815239825
0.978136812921304
1.02531762025718
1.03988834923721
0.933206838064907
0.733897051221664
0.568616656033524
0.472933026681408
0.361833578129048
0.142793615141619
-0.233391281406236
-0.730061957510176
-1.1812648477099
-1.41959065532908
-1.44221910854713
-1.33147084170507
-1.11630080674945
-0.859825893439154
-0.725979289324331
-0.793798724777014
-0.949620665492748
-1.0640835264959
-1.11398369582429
-1.09559099236273
-1.00703750235115
-0.917084617394435
-0.888330950709708
-0.882140196285066
-0.845001998691515
-0.760893973891218
-0.55713338986453
-0.153885855395169
0.348850593626529
0.735246923980119
0.936613779670721
1.05961296868903
1.19264703976869
1.33887028764999
1.48014251668545
1.5810812319872
1.59296689760512
1.52670105814254
1.43820562680341
1.32112899413798
1.13452616937889
0.916998834699542
0.723153734303187
0.503942547715271
0.208686108029961
-0.0895814143246235
-0.311128181721299
-0.483423603910454
-0.644482973290634
-0.786905379234505
-0.93312500445305
-1.10169177374111
-1.220027704442
-1.21808741270313
-1.13290325478758
-1.01396873927254
-0.859568286604959
-0.717345433258404
-0.678541558240728
-0.73465932423996
-0.79495045923727
-0.811644897629719
-0.748625239739524
-0.544893955491879
-0.250325393234957
-0.0403073822394601
0.01433671038413
0.0259169564373992
0.10442781122007
0.276110214405823
0.551849376095139
0.881463505273795
1.11159269164757
1.16540042113926
1.16296285086967
1.22191073604935
1.28414794479231
1.27383271353868
1.25567093662689
1.29843852870623
1.33693360566035
1.26848427475678
1.05438569871098
0.714335534280302
0.35653457789644
0.143413602605152
0.0904944231654443
0.0218694374325666
-0.172867752166702
-0.4054379685528
-0.569370309433945
-0.663969049268799
-0.71916527475219
-0.762394160260851
-0.830281668816265
-0.900471404663705
-0.901873625578538
-0.8464305989522
-0.809727108823544
-0.793871935269948
-0.790480369268777
-0.89567313132363
-1.14188405131076
-1.33382128709195
-1.26710857948822
-0.978369185098131
-0.627546550329779
-0.301376231742579
-0.0316317090138563
0.169237830531901
0.339369600358252
0.492902201015695
0.548368789717371
0.460516609176319
0.332926450131114
0.277677693129184
0.282036049344745
0.317214152324734
0.430769509316192
0.637139420768918
0.867235756035272
1.07296692314113
1.2124911450232
1.14549354898928
0.753362999361895
0.147594032581416
-0.404466257793035
-0.709988002910501
-0.729012717730684
-0.558357657090504
-0.388313849675548
-0.329811054614149
-0.287594764260209
-0.130100799092709
0.0961453120641659
0.237930474063846
0.199533437368512
-0.0354428536422926
-0.392378571863755
-0.698601011525184
-0.843816305945547
-0.886085168435476
-0.864241486540787
-0.688537420757432
-0.373076021298556
-0.125576399273476
-0.0482866489938012
-0.0093072633654744
0.0902294598631504
0.192676863046548
0.272450140153903
0.393905406364993
0.578321783965701
0.808544536965909
1.09939513260067
1.40223847689228
1.56049025442805
1.50798617005534
1.37194820918575
1.26741622727628
1.15856992888923
1.00165233487726
0.829722732169674
0.641143657737027
0.384858775968401
0.0636342704882098
-0.287510734495244
-0.65918838631272
-0.997062026418322
-1.19427452379746
-1.23432198939953
-1.21855447149327
-1.22977270520158
-1.27910217486362
-1.34358674359229
-1.36170564158686
-1.28159845727382
-1.16857128884465
-1.13906311021495
-1.18571875374655
-1.21302214620782
-1.18598851613055
-1.09694803003027
-0.909775252868676
-0.660659713673629
-0.428402757036146
-0.13770987598471
0.342298398736703
0.875577519047249
1.15927271976503
1.17007780207336
1.19748775961842
1.42389802604248
1.74427593701485
1.99003923379359
2.10623893381066
2.13186205701629
2.16448740541359
2.28887326195147
2.44647084860825
2.48370780805807
2.3737042083386
2.22869488071203
2.08140154383992
1.84305866636567
1.46791791326895
0.992140767193334
0.451344422615324
-0.12613426404744
-0.716608928638646
-1.33110272952893
-1.94848468295651
-2.45931877667434
-2.8007305681141
-3.05425177030289
-3.2943501920151
-3.47712756758553
-3.56604493421368
-3.59766097581277
-3.57654122497648
-3.49240609117566
-3.43489651763514
-3.48960299167413
-3.55314354208362
-3.41601770962787
-2.96330857938778
-2.21177714867668
-1.29058576004768
-0.425755935522689
0.228369480593331
0.740142476464644
1.23396873602314
1.67275333383243
1.98972456336811
2.29005235435052
2.68902492044655
3.06883717162341
3.2253575310266
3.1795369499992
3.17173524260894
3.40966404837748
3.89411353865531
4.37754299821466
4.47790829461247
3.99116945727657
3.09406868258059
2.13133164601278
1.28829920928839
0.568767559230155
-0.0454487786357507
-0.519227498422026
-0.761909130335902
-0.698180017551943
-0.415915466645628
-0.143817387693168
0.0054179409440535
0.124121488989806
0.288116795140616
0.435618153415538
0.477674800151447
0.314338470215201
-0.205604746138558
-1.09178583346695
-2.06222122243975
-2.81284711636903
-3.31757484237229
-3.70176197741156
-4.01566171551757
-4.27099048297627
-4.4923610236592
-4.63362606613447
-4.6073983299318
-4.39645298210063
-3.98231375336914
-3.24438651209662
-2.09601267127888
-0.629648640220771
0.975838680957197
2.5293975006203
3.73649751293294
4.29002986604125
4.18688687889957
3.75034513525099
3.26932655240203
2.80088085552258
2.29816109008486
1.71576653316863
1.041217193986
0.393578833105621
0.0038868473774923
-0.011373992735481
0.245005212445594
0.597736466139388
0.932402217845881
1.21876838077951
1.50531613729692
1.81035352256977
1.98434387835681
1.85740960168134
1.53619161853541
1.3173990148385
1.29164127839917
1.24111427778791
0.880148114326694
0.0240192291547966
-1.32298487638386
-2.83967389590877
-3.99693630225115
-4.44600199378008
-4.18636536841078
-3.36781898399842
-2.15365040611556
-0.764263106983245
0.564319023526331
1.65921031710162
2.33626175377777
2.38313860644441
1.77465332968468
0.772586925480477
-0.312423425883239
-1.2953296677338
-1.9681162015165
-2.00909204209937
-1.19411389800884
0.394432507160191
2.35902510229537
4.09764676995981
5.08682350362659
5.24896045286679
4.93675687110318
4.47578657195352
3.89391794224369
3.11662157688511
2.17261793423072
1.13824962415833
0.0571776457511119
-1.04049457125967
-2.11148250003855
-3.06773083317955
-3.79464674110401
-4.29991074492925
-4.74747304343207
-5.19192383075382
-5.43426278270674
-5.31107702325591
-4.92233736291467
-4.41723969261172
-3.79807125532076
-3.0596020820374
-2.27051690926232
-1.4578424241567
-0.672056171369752
-0.16416445213511
-0.213992954778859
-0.776365247936204
-1.51425793898778
-2.12852566306157
-2.46113145037359
-2.39665080557452
-1.92294690217717
-1.24852980034781
-0.693200945643556
-0.498655982431669
-0.768251432103126
-1.4203031636128
-2.13822508902653
-2.51259246260379
-2.30540946005793
-1.57330067362631
-0.602636392333753
0.291468255354966
1.03065274888149
1.80440360702897
2.73138523087872
3.62917953623442
4.25911713460655
4.60088541711683
4.72481488491
4.61947908874753
4.32312677605187
4.0363428111554
3.96926813051262
4.20052874656484
4.6910441260945
5.2868156946561
5.7508032150665
5.92662480124717
5.83057989697742
5.57066698448053
5.30879950726653
5.26482107438279
5.55213186754944
6.0169517804873
6.38495101336415
6.50121229029253
6.31674837743444
5.79721930332632
5.01437004581934
4.18504964136357
3.45277917137732
2.74697550539641
1.95105389416758
1.03726212414372
-0.0454952992000677
-1.43806625365135
-3.2536101897707
-5.48013364474679
-7.93401320984912
-10.2311390659042
-11.9735375170341
-13.0807130588879
-13.7846975627965
-14.2535013580458
-14.3986084551265
-14.0528782767937
-13.1509521811444
-11.7495378087335
-10.0066605007971
-8.09921528727578
-6.11307349275622
-4.11535050660758
-2.29692798126943
-0.855068912401914
0.216371613975859
1.03792266050903
1.64088429539026
2.00679402521213
2.16416911476767
2.11768540260891
1.83499300556318
1.36297751382424
0.78853814330931
0.0942049348837429
-0.752778885501405
-1.60403703634368
-2.20772443642037
-2.42193712341351
-2.19217299259713
-1.42719701158773
-0.0768258957267588
1.75308372586656
3.86524876211272
6.02003617730074
7.89538773623686
9.21706357776474
9.96594078350174
10.2792386597578
10.2045882260582
9.75251699713046
9.10203314206831
8.54645916447585
8.26616920102835
8.23519752482157
8.29047748399832
8.2823229503892
8.21126478297962
8.15901059675494
8.06098889052392
7.68882248532975
6.88175312068428
5.64639182578176
4.08768848310407
2.44940560883499
1.11069540511014
0.276751156412163
-0.254279373673761
-0.859928046937221
-1.79591727493899
-3.2322644073221
-5.30650616510964
-7.95299271826496
-10.8473371280155
-13.6204584417286
-16.0138036711977
-17.8459303034963
-19.0044365055391
-19.4992259431695
-19.4467140223649
-19.0299763257305
-18.4567665333751
-17.7695794156793
-16.6631401491087
-14.7138606233854
-11.8187808943816
-8.16978959775311
-3.8363410900507
1.27141280431333
6.94074153962964
12.3925405731868
16.6051341589674
18.9194802959593
19.4077552113245
18.6707984434884
17.2554732790188
15.3710825383991
13.1625145700499
10.9497177742242
9.03845578853529
7.52751693781988
6.39515665160138
5.5251736384977
4.62561718034112
3.4283032056109
2.00076038950716
0.625505175918276
-0.555557463276447
-1.53609825960143
-2.21904944156596
-2.46945451710025
-2.33573339511384
-2.04385017435876
-1.78557198943869
-1.54330827735923
-1.08602959367811
-0.21136195366889
0.900849132503357
1.65479341656906
1.48283248349353
0.274934896491658
-1.67183598005104
-3.96387613280767
-6.25900383869952
-8.24690022760732
-9.61946693379551
-10.0850358331002
-9.52758710260143
-8.2128685630184
-6.60413373444282
-4.82406540756715
-2.52516705536068
0.582074274219563
4.27386536981601
7.87673284599199
10.5141617608315
11.3903374520034
10.2537358903986
7.64398947347441
4.44274738205068
1.22276170340438
-1.78531203691628
-4.27838737899563
-5.79603703875176
-6.11762796097446
-5.59784192113637
-4.97095624569
-4.72420979931195
-4.69643564518272
-4.41873666661006
-3.75950507212764
-3.0050523443779
-2.39342966580554
-1.85688870395078
-1.18670123302954
-0.214456289312082
1.12064350992193
2.68880792845335
4.21177124365407
5.52037681816287
6.65504561544892
7.58988865031683
8.02673263499197
7.62393795807369
6.30703947233404
4.2718932515444
1.82534920980793
-0.757891135807427
-3.35833389723989
-5.93394837903352
-8.24683064369709
-9.9127784972931
-10.8542846650111
-11.3645864727419
-11.5037006795564
-10.72755568824
-8.35207278346915
-4.24119472640235
1.00963741361118
6.37261226575566
10.8465084350711
13.8268822085493
15.192810014885
15.167816828606
14.168300581365
12.5976634287013
10.5838151118072
8.05932506961295
5.2200114482892
2.62506387982319
0.665825615544801
-0.789561662807208
-2.09241978834523
-3.46249904772967
-5.0400038167783
-6.92866901673629
-8.98400950429811
-10.7506602547456
-11.719856621859
-11.5453292403663
-10.0734247412369
-7.3911553923927
-3.85267544813822
0.082695413567571
4.00783173410329
7.51668569315026
10.1517186894011
11.5288939823676
11.4986498614857
10.2359217944488
8.2363276148138
6.12673719907738
4.41392421953876
3.4595368625656
3.54881802034991
4.70633545004359
6.45160198470101
7.90723566746862
8.13341737403282
6.41112420139356
2.56721256837547
-2.77866997642484
-8.54651449505992
-13.9419876542379
-18.7021688617471
-22.6383940996969
-25.3022540580582
-26.2175126894967
-25.2385348320744
-22.6543114409968
-19.0609280696136
-15.0570702367585
-10.9544414681754
-6.84019955561189
-2.8688170552559
0.738902189943131
3.98568493948912
7.08318996545692
9.98666243165567
12.0879781517666
12.5380245751586
10.960928063457
7.96416718567723
4.93993425314644
3.14034931203672
2.83821870355445
3.49441349443262
4.60678152229302
6.04608236745301
7.66006754504881
9.05770508021229
9.93191783256185
10.2852692175741
10.1707528192027
9.36291253902871
7.48700402518942
4.58029511954586
1.46313170171222
-0.647305821866967
-0.937151723421959
0.685921601048806
3.82819773411843
7.68346178283038
10.9688063799644
12.4636152410078
11.9085810281822
10.0903006265924
7.93619568705931
5.72013486836935
3.09929146437494
-0.302875760097371
-4.32688032695417
-8.17269096635564
-10.926859246785
-12.2151827139273
-12.2536148310285
-11.3771667852117
-9.74194792868724
-7.39448057210159
-4.36057854218339
-0.715124104121813
3.17340640299321
6.48484996482298
8.24890543006862
7.85707875196559
5.33071402878966
1.34082406126014
-2.94083519583126
-6.28494966296339
-7.99973290866558
-8.25803188348216
-7.97604663250168
-8.27850695327917
-9.72795805065122
-11.943321236428
-14.1291207652379
-15.9044675242638
-17.375327730739
-18.5594499455586
-19.0940087225719
-18.4227653842023
-16.0039941860608
-11.4599832919797
-4.8041201577481
3.40964410435814
12.0920122067589
19.7084549644027
24.6888483493719
26.221173592103
24.7206898683311
21.4317187034607
17.6793980010079
14.4308694532424
12.103350257762
10.4894518518955
8.9929125962716
7.04668843632638
4.2895972346573
0.554364619896259
-3.99745435844423
-8.77128819829288
-13.0180146720647
-16.1972729383147
-17.9498787634222
-17.921724437298
-15.9133405004807
-12.1916592714842
-7.53826591424381
-2.9809345708019
0.643175602225837
3.05155393993254
4.41982506675348
4.88731318753236
4.40429573769038
3.20505067101133
2.11596426095389
2.07212861719382
3.37189574518481
5.48967547378798
7.50639110738278
8.67322514343889
8.70472470655872
7.7321231184624
6.17888155167631
4.7457782410343
4.22563972010652
4.96468777612068
6.5403286993104
8.18443899978658
9.44392255629133
10.2858557545152
10.736069392026
10.6232420531702
9.61347322639238
7.43624155337805
4.18313790368647
0.397390245073698
-3.25331004553758
-6.40239668916445
-9.02184658080117
-11.1347619992585
-12.6440769212545
-13.4034840038511
-13.3598900143581
-12.7006041968239
-11.8990868182894
-11.4492773021821
-11.488119831654
-11.8067534944975
-12.1846025981175
-12.5023810884764
-12.5637642570452
-12.0255036434655
-10.5806986077763
-8.24097813927492
-5.51697219943794
-3.21751864442293
-1.83455275245872
-1.0833525917949
-0.13139560011496
1.72021982193408
4.47919892195318
7.34334233259777
9.18890322769457
9.50759479675328
8.9085814920185
8.48164404616641
8.73173644849361
9.34945886854855
9.84344789441412
10.0530775281232
10.0878245017417
10.0334417539439
9.80748961721964
9.2909245823874
8.5943712003421
8.083539573751
8.05812746813589
8.53150175660373
9.37105658989342
10.3662865663226
10.9825313970695
10.3850292360365
8.06186764267603
4.29525926852565
-0.143595295243991
-4.55107213892143
-8.46728049932999
-11.6432760745167
-14.0059922627332
-15.4629403158541
-15.744017126049
-14.7011584434435
-12.7945941204161
-11.0629829969312
-10.4513995447156
-11.0394636357381
-11.8326697994914
-11.4561942791527
-9.3003573614986
-6.01432170286771
-2.85069443505915
-0.68575184663734
0.268983680008417
0.0968224047706774
-1.13675670731743
-3.21566753519747
-5.36731012908947
-6.3481915783591
-5.35833519112512
-2.84048719393723
0.0406153157920642
2.67149537495126
5.25142454898078
7.81408431007463
9.61205861673274
9.70931554024099
7.86248883892615
4.75887625175491
1.70372413671871
0.0273534219335081
0.334336617398114
2.1460039633201
4.4260748423514
6.4517204715526
8.15049308486826
9.88037313371856
12.0620390766917
14.7494357647944
17.3352608842426
18.8123017472549
18.4334751643923
16.1412920396655
12.5686733193371
8.73760880848585
5.43531665017099
2.58005735488035
-0.68317471282122
-5.10022155788572
-10.5587204324409
-16.1237819261397
-20.5990988748535
-23.1132056421452
-23.4415426596672
-21.9495608760815
-19.3509455897598
-16.5567628913531
-14.4427190531359
-13.3369632544892
-12.7335552684329
-11.7473315968963
-9.84679861427934
-7.08862444033681
-3.84156699338639
-0.442801978449496
2.99177303310031
6.50462468585515
9.96107402122655
12.8024012786958
14.3169376030205
14.2348721510038
13.0124547620384
11.53745505501
10.5203381099575
9.99342414321154
9.3236094418451
7.83135249782702
5.42802402551043
2.60746214072915
-0.002406140859898
-1.92014237730923
-2.91080582515779
-3.09761544018252
-2.83460029204791
-2.28828727474287
-1.26563234641305
0.498022873318031
3.02861617685916
6.01145511648131
8.78162864701759
10.5554323276535
10.9796017989022
10.4381527730698
9.70108146199877
9.38903621534687
9.78661890153648
10.8498753898762
12.2076376006072
13.3130310580381
13.6873089090343
12.9557210990629
10.7483677735905
6.7905648939323
1.17538897294902
-5.47701800242036
-12.1876510496302
-18.0868772878913
-22.8239592978655
-26.4703415589994
-29.0555581025057
-30.4549376585444
-30.808741969313
-30.6568076494022
-30.2952704877645
-29.1862509946049
-26.3709946541115
-21.4876179918481
-15.2690091389992
-9.0882807386785
-4.02280514699112
-0.286851898348614
2.37429879471292
3.81393420650261
3.43873987677824
1.25514226743752
-1.44851058387099
-2.91984628356207
-2.40854683200829
-0.670419220754785
0.91204596386965
1.68104876104485
2.28031784678048
3.86954311545616
6.74042126484923
9.88096829630364
11.9829346829474
12.6937732894557
12.8107884864435
13.4017906132459
14.7651127621166
16.1652934630712
16.6059265050646
15.8069032714236
14.2734450060993
12.5950049278038
11.1003165575388
10.1179482244621
9.98390276323995
10.5700991596214
11.1817048438172
11.1671832859191
10.4662201237227
9.49379094300869
8.66431454459727
8.04902153968219
7.37147779138187
6.36912838606136
5.20725536228022
4.43282290194115
4.51272044064321
5.52485481927313
7.2142380533636
9.17821135790751
11.0494794370815
12.5947126415392
13.5776122841991
13.5938264623928
12.2952706975313
9.82063985028184
6.80277015191391
3.86837587449744
1.16025161077259
-1.70261985892032
-5.18392941209878
-9.24367039457582
-13.28766882651
-16.8433046435237
-20.0306687893483
-23.0844232288493
-25.7268561184494
-27.4416621695719
-28.1711147191797
-28.3800183167213
-28.5605495820349
-28.8847791171556
-29.1738411008726
-29.0732677712954
-28.4479041768098
-27.6717439122059
-27.2857373724108
-27.2758065015905
-26.8795722666558
-25.1541968677484
-21.6049483953179
-16.3826056547399
-10.1913617213156
-4.05273509653279
1.05232161100229
4.46675338419007
5.95738762509151
5.80626572306334
4.91271715386768
4.60979068678951
6.02784551021915
9.30457633080626
13.3696678779316
16.8608290038389
19.5066450516714
22.3257755138427
26.2024543912226
30.5863775343317
33.8844062162378
34.7992042045119
33.0323831922321
29.1378348790741
24.1501225891938
19.146557930414
14.8059620916247
11.3499933462967
8.85706682351155
7.44791098627879
7.18898605987297
7.94103544304273
9.20926562931578
10.0627935335973
9.43094153204775
6.77876573057491
2.61711448885933
-1.60849897651936
-4.19646980324566
-4.0863340136174
-1.47652362003818
2.32614122605615
5.74038021668952
7.69781050918802
7.93121847635808
6.97373847502128
5.92914340713291
5.75669822381653
6.43596352810791
6.92351704969667
6.06813260413751
3.61704061257501
0.403276375447967
-2.49313936967657
-4.91329092021069
-7.87440145386758
-12.4666706522353
-18.5907178653973
-24.936577462808
-29.9871492771431
-32.8417187309905
-33.3664550913977
-31.9417607748483
-29.084134050958
-25.2722696283788
-21.1981642558188
-17.9130183816058
-16.2620921588659
-16.2054624453103
-16.9886825485755
-17.7748170814377
-17.7322550148479
-15.8039609594808
-11.0800623944095
-3.6155533756991
5.32496252900394
13.9189161079742
20.671382549959
24.8325461216378
26.256680999423
25.1569820771561
22.1613394328068
18.3760051731024
14.8831170824601
12.0111197190778
9.33685145392198
6.33931872506807
2.72338703389648
-1.64779334408928
-6.51112428259621
-10.94127561294
-13.8621188910412
-14.8273102608138
-13.9891777984313
-11.5323254314593
-7.62334918704165
-2.89197544359121
1.39987020955252
3.90079409850259
4.06966126731078
2.65258499400539
1.09234033949894
0.341824741439992
0.492568844578569
1.55319968657983
3.96604652712866
7.97744032580692
12.8990298183767
17.3910707519261
20.3603784101917
21.4928583300063
21.1225869682282
19.7325517061171
17.5934900203965
14.8836603309882
11.9563225618337
9.17699815249815
6.59246642406002
4.12750279477246
1.99686343846963
0.44140759701678
-0.88026730590729
-2.6592632266425
-4.98371937203754
-7.06564048263046
-8.07771716196279
-7.9729527027183
-7.32390966264588
-6.50548177845932
-5.24430754853023
-3.11999205987994
-0.475180724191156
1.44408952458836
1.45759781083695
-0.481969433283028
-3.19796349849751
-5.17472791369071
-5.66489148547781
-5.19139497995841
-4.94857108551409
-5.49568294574157
-6.01903795860535
-5.02915565612593
-1.85989419200276
2.5058185667341
6.10356144544794
7.57290493352118
7.13728781531819
5.96282733533629
4.69922770261922
2.98866256860991
0.31919003915368
-3.20045135164297
-7.07390315867851
-10.9228030330242
-14.4685843665171
-17.3587756191784
-19.3252018925147
-20.3289660975881
-20.3346815691955
-19.0986824098743
-16.4048005394104
-12.5434733793046
-8.55020409438103
-5.87735083913208
-5.49577457116451
-7.05717222420155
-9.03450114083425
-9.81615669255274
-8.63750755657064
-5.61307728651497
-1.27083057798081
3.75383052121692
8.71630660654162
12.6787741174396
14.6884576254772
14.3659058473187
12.429162449646
10.4232226618654
9.68809762248026
10.4495340568991
11.7547755508619
12.2298227765945
11.1086547372256
8.76143033883693
6.2519569547832
4.39671614015689
3.27951840947396
2.46438229149918
1.45101693878582
0.121997166455934
-0.933997504449357
-0.641813449167693
1.72480674390499
5.89077088765797
10.8108425661905
15.402628579566
18.9041547548479
20.6635019908902
20.0083614195915
16.7560723429168
11.9364651728664
7.5924972520525
5.33333451949855
5.0218292523335
5.17093477778854
4.58669581166205
3.29554004629754
1.97397346314547
0.96764333796594
-0.032861987904304
-1.66487021813542
-4.30460535007528
-7.61342639291352
-10.6909629786057
-12.8006079727347
-13.895098450307
-14.41661535536
-14.7235440301006
-14.7475785788537
-14.1533722898287
-12.9100326330315
-11.7109462697789
-11.5712057283306
-12.8835092317113
-15.0467183802073
-16.9922072639116
-17.7756415214744
-16.7644171688258
-13.8408924148235
-9.77051100458145
-6.18616101801326
-4.78499794120875
-6.06420542089609
-8.59919714720067
-9.87603435644591
-8.30732600282733
-4.40091313866702
0.243678485535215
4.69123988904194
8.90290692069323
12.5831235207347
14.7136101058913
14.5100857939001
12.4129496747603
9.91192298137091
8.55887557648567
9.13133774572394
11.4287378032126
14.5724293518432
17.4175437077557
18.8981474895129
18.4004594431789
16.029518396993
12.4415535882044
8.42162379381311
4.70386466636385
1.92725676593183
0.301115411418134
-0.736048703341742
-2.2489002371232
-5.07460949807756
-9.2786951893898
-14.1058889174561
-18.4334463948489
-21.4954058113144
-23.1738225257523
-23.4867946544238
-22.1066654690137
-18.7179755822478
-13.5554709416376
-7.21439409521333
-0.214904440803183
6.89149108811603
13.3057337709844
18.3267090096697
21.8181354749436
24.0870424165178
25.3849736789458
25.6203999160262
24.4165737028735
21.4552716930925
17.0018086607033
12.0803232612306
7.85316749179335
4.77173226781322
2.43734092377211
0.143575556293005
-2.61234734889783
-5.92150323847787
-9.41362489882994
-12.3838062439328
-14.1822476010714
-14.7031839067228
-14.5672652754581
-14.6453947948387
-15.2181897538612
-15.7712270504633
-15.826214906744
-15.7005940262507
-16.0712392168263
-16.9521221720346
-17.4372756574723
-16.3439437370503
-12.9345540189178
-7.26606242360345
-0.119984765211659
7.48101798849625
14.8136039830992
21.5708838529326
27.6318347427942
32.7845159301448
36.3825247034772
37.1563811920573
33.8334605042486
26.4096475134998
16.7109639885666
7.40380302452138
0.350603187134607
-4.24915100788684
-7.50810019116042
-10.7685650162859
-14.4813972118991
-17.8157994997042
-19.4044743675542
-18.587891939904
-16.0087534838691
-13.1379296062942
-11.2619916255495
-10.7686078911032
-11.2885461387151
-12.4337487358264
-14.1481792030229
-16.2467124326388
-17.95387656911
-18.222466052331
-16.4768294262942
-13.038712606428
-8.97172116489839
-5.3996858026681
-2.72509200734063
-0.586955809459509
1.34092325659857
2.87601721967278
3.80923499301511
4.30488372363495
4.40518083705843
3.53095843301037
0.916051190467319
-3.57534023219263
-9.15427999165932
-14.3840792661707
-17.7112886595105
-18.0410616451377
-15.065414583134
-9.18818451552298
-1.267292316322
7.65618041858643
16.6775289387004
25.1926760989757
32.6527731266887
38.29369127012
41.4443492711834
42.1434640722179
41.2111166391242
39.6300389896116
37.9014396153801
35.8849198538823
33.1276363282506
29.4052319956487
25.0311816951078
20.7099583053458
17.2426814367574
15.3141238152246
15.0812962950575
15.6673887878327
15.4265153269909
13.157867222601
9.01884599881202
4.12517606663611
-0.573995522377457
-4.98310660958402
-9.72794762354224
-15.5347491823391
-22.6929195716035
-31.0731421580545
-40.4642897288259
-50.4360401480446
-59.7046689538465
-66.0714735227585
-67.5116974725926
-63.5133408130034
-55.409772590923
-45.5176647700622
-35.9391544898236
-27.933674515312
-22.0074271863573
-18.1552555193758
-15.7879349555933
-13.6077874669511
-10.00457155563
-3.98348393847167
3.99936696092302
11.9899969037369
17.6444293480462
20.0176853908858
20.4125023565905
21.0356466984229
22.7155010534869
24.3112498291076
24.2690457743813
22.1744559739296
18.7727944771977
15.0930238430869
11.7703773401787
8.85239010969783
6.03147574745495
3.15058275683493
0.531719859391156
-1.1938924892117
-1.53339839852241
-0.463168545131934
1.55606577881334
3.9064031328642
6.24356422307237
8.59958465612959
11.0798254073689
13.5319132582012
15.4313833171719
15.9847420210219
14.566207718671
11.415879701035
7.9083162005872
5.79449480206651
5.90759858506347
7.54259000873314
9.10840802857998
9.41123613046596
8.38337659158212
6.71366201035566
4.94357176120595
3.02154058415687
0.648548974358507
-2.17949404697834
-5.09212410690381
-7.67573520813439
-9.78424817148187
-11.6170516494395
-13.5071208808589
-15.4804975857891
-17.0225524121958
-17.4131050724994
-16.2196799746622
-13.3294246788454
-8.69903093227058
-2.39989992868423
5.07346374244223
12.7119759829205
19.2983379600173
23.9399209016331
26.5424943900282
27.8338328164371
28.7452158272778
29.6190689965939
30.0251108056787
29.3576205261777
27.534154210959
25.002433919076
22.0422130879739
18.250433625091
12.9643983905972
6.11621828092928
-1.65405596191473
-9.71382727845348
-17.8749228148942
-26.0380702075969
-33.7992764705185
-40.6402647348648
-46.2974095743316
-50.773787880665
-54.1150315431419
-56.2502891007134
-56.9774621365398
-56.19522949239
-54.3123676617049
-52.2555428064271
-50.747690771809
-49.5193124229539
-47.2546046156006
-42.2431332239361
-33.3198533780938
-20.7427426520001
-6.39910150202323
7.13020435637991
18.0333438777992
26.0330052514215
32.0232008047169
37.1116538821027
41.7600515410367
45.5350059851984
47.6529967230042
47.8113151187864
46.4622981439608
44.3280146800672
41.7327749592675
38.4050470888892
33.9993448366275
28.9278771336018
24.4815097396814
21.7583016380742
20.4894319080005
19.2179995916231
16.642427520253
12.6199932450129
8.00740309299231
3.84310833093006
0.708203705035119
-1.36252157475399
-2.56114942265126
-3.02485167201906
-2.87367643440901
-2.26430069222925
-1.09704603109789
1.14985425422735
4.73708507189554
8.68916810869057
11.000222171972
10.2097043823402
6.67656202535701
2.131044251512
-1.90400687689645
-5.07872619366268
-7.79181853938808
-10.3031182367042
-12.6103758768878
-14.9630847593482
-17.9117408862606
-21.6242265552656
-25.4358429442914
-28.3101599256291
-29.6999072897485
-29.9393357741907
-29.8290805581905
-29.7076694350153
-28.8721693666144
-26.1678592487405
-21.289352171908
-15.2368629357223
-9.34930347673818
-4.16788062623068
0.599846825945744
5.27543163028666
9.60875166684713
12.9328358460674
14.8825034412893
15.9533228713482
17.125247337577
18.7325625129033
19.954112456142
19.7904072474456
18.3467104096341
16.6107732914531
14.9739199938586
12.5768060661947
8.44592601771879
2.96865114429815
-2.16224460544595
-5.46074366523928
-6.8208886753462
-7.14817482284537
-7.22713017659174
-7.25254042182536
-7.14590274208285
-6.79048476181331
-5.91495871922201
-4.08641187190844
-1.06380375950681
2.700204204882
5.89233771013455
7.01465963472364
5.60537616462134
2.66589639597947
-0.360812367112337
-2.77919241127794
-4.58131584397577
-5.67219128153851
-5.73881463787797
-4.80084382912346
-3.46480732764527
-2.4593677619506
-1.94022670307822
-1.32571796106317
0.0589305190429907
2.21378397606234
4.54700984357577
6.67323153293977
8.78643402711381
11.1534660311394
13.5193289518001
15.1290974135293
15.1553335147837
13.1125366720233
9.15304811745306
4.0878721812547
-1.01073880320753
-5.2848442302826
-8.2432851602105
-9.75301837582484
-10.0802105300767
-9.74280993007016
-9.14685168769186
-8.49650814996768
-8.12671529583483
-8.72975258303865
-11.043392966278
-15.1475775390947
-19.9261937972135
-23.3662839721185
-23.792115671269
-20.974640952084
-15.9319781580777
-9.81115167847555
-3.33209711710321
2.83123644207746
7.83440847005417
11.2297916519047
13.4559341576773
15.3071586365317
16.8786600844585
17.4028925793069
16.4118239229476
14.8397779435192
14.5012639826256
16.382945306883
19.7252398366721
22.8133932049292
24.3767171824574
24.1710185247107
22.5560351865327
19.823544022132
16.0040628203218
11.3009132189246
6.54100705289937
2.81004847230269
0.460306319132279
-1.21572229213451
-3.1139588890387
-5.43108984468909
-7.8240998945334
-10.0335696771389
-12.0323282848234
-13.8493124430589
-15.5259907883672
-17.0700908914972
-18.3128397058476
-19.0141298339772
-19.2273980538996
-19.3336186421246
-19.4726416860068
-19.0360430717848
-17.058536709467
-13.2415864299943
-8.30148261056234
-3.12739129548065
1.91859716021757
6.38342441746016
9.00225450383208
8.65646003063435
5.98832452935796
3.05593468778192
1.11766715159998
-0.534993144806987
-3.2922200532816
-7.38590705054577
-11.6835510220182
-14.9222609296441
-16.760066317343
-17.7521829154408
-18.623380023231
-19.6447436442881
-20.5456631383167
-20.7652106235283
-19.6162658331986
-16.3628320430949
-10.5780664857983
-2.6821862061054
6.0675704824951
14.4297057385476
22.0428226040731
29.2463528473552
36.0152409673786
41.3972901739542
44.3344865006293
44.9005391367433
44.3419242577688
43.9174011969268
43.9723929274108
43.9343954959064
42.6750009361569
38.9357540155089
32.0034678137868
22.230984876314
10.7935326931008
-0.94836550685425
-11.7616132606273
-20.6634353522314
-27.1868977677899
-31.4471330482387
-33.8157261538367
-34.7087643749794
-34.6962936709713
-34.4866350771658
-34.6298558950079
-35.2602997401948
-36.0225328525243
-36.2151660673495
-35.2411891728015
-32.9478715133077
-29.2310469276326
-23.4503137894959
-14.9682980583233
-4.52409978848466
5.56533353966063
13.0538817692591
17.3900699780823
19.5509876438465
20.5718148660364
20.4159054580883
18.1848673857514
13.4006613086888
7.00876958262031
0.906132786425409
-3.49168529067028
-6.00360032140426
-7.20655500513832
-7.67695150607497
-7.73292386793432
-7.49638252877976
-6.84325026886663
-5.19367039756279
-1.55222779593061
4.76135224064454
13.1461943411242
21.7747210182905
28.8807879728963
33.7728160294213
36.5309517424791
37.2614838200085
35.9528242413149
32.6630063438471
27.577540027685
21.1300908112959
14.1472961797204
7.60937516304903
2.2174705784391
-1.68157438636663
-3.95988546062536
-4.85418696918244
-5.17510055676725
-6.0115134182262
-8.06085575472398
-11.2356259213171
-14.8327827842115
-18.073810513889
-20.6302828880413
-22.6498838164255
-24.193518245032
-24.8474689356513
-24.2273175412573
-22.8066958879475
-21.8138918796314
-21.9948656151605
-22.5480981617671
-21.6386397777114
-18.2477540748223
-13.3533336781969
-8.95465526315509
-6.11623267999365
-4.43983202048069
-3.26089463950495
-2.62621527335966
-2.95089656556153
-4.26584910511265
-6.08969012958713
-7.88555544972565
-9.60064174805324
-11.7232775342503
-14.5010028841359
-17.0201863380895
-17.468987744361
-14.5299584153567
-8.29179880267586
0.151741051238862
9.48733721950811
18.42932603509
25.7603558434662
30.7213088263485
33.4123799067417
34.5421110003188
34.6459248318497
33.6499063707756
31.3376773178029
28.1877807048197
25.4799201788558
24.3779589017161
24.9727286460234
26.2621672725412
26.8716266377521
25.7829676350291
22.7903798770227
18.5761102516808
14.2087331234764
10.3760377734491
7.07770708107686
3.89805429807862
0.360026000746089
-3.83307697765608
-8.57321717947711
-13.3437402239179
-17.5638271616499
-20.8765902624309
-23.1088740576241
-24.1997411799537
-24.239416238668
-23.322237784607
-21.2211184062076
-17.3324215975518
-11.0806997977609
-2.53276093806428
7.17180998914944
15.9834238262818
21.7599549598407
23.1248437038136
19.7625327607656
12.3225194817942
2.27698915059542
-8.50030892619371
-18.5450055464796
-27.2586257458672
-34.390779719718
-39.2285072076236
-40.7054327472459
-38.5262537530252
-34.0761093646695
-29.861644532606
-27.6150148537749
-26.8411840204467
-25.504894961326
-22.135459098249
-16.8454978731436
-10.4481001310567
-3.53711012908895
3.14918795159238
8.28211295379919
10.7285693247759
10.696649619168
9.6801422084049
9.25440042860724
10.0457986180488
11.7833469761918
14.2242614300743
17.9101681334213
23.7271852356131
31.5078306997153
39.341509726405
44.7472275142047
46.5591741933711
45.3074319760504
41.7489621722829
35.6045717925533
26.1805206951876
13.9385475933389
0.871269646269034
-10.7462827760888
-19.6277642004303
-25.4700941887116
-28.1313143537659
-27.2343671224239
-22.6818306281746
-15.4867412000509
-7.95220721503596
-2.74711641861566
-1.43944644210056
-3.67637234129652
-7.64398791731924
-11.225333154591
-12.8951354569555
-12.078550114519
-9.17782234866096
-5.30372394245659
-1.73216735365763
0.665642658932035
1.76536062696787
2.08670962830695
2.16912856879626
2.02382556125277
1.50592122555447
1.17385510935863
2.15015759854477
4.81999940251419
8.06095405202379
10.0340836049392
9.54586693670999
6.7227344889185
2.87680956682772
-0.195514353436471
-1.33794354467445
-0.855075643036035
-0.119365918835358
-0.254299843613352
-1.223853485123
-2.05914528406217
-1.69015514444154
0.480459724221627
4.44991873862799
9.51021212836935
14.0407737082612
15.8486125242975
13.4752916140424
7.44168323447802
-0.082036444785175
-6.91623585661072
-11.9635555631163
-14.9883487604569
-16.1649198172095
-16.0929002643997
-15.6309743503145
-15.2473640546983
-14.6786988500504
-13.3866585793732
-11.2727895556485
-8.90258829363692
-6.98680581459131
-5.54381864549137
-3.69009370532766
-0.529006679752815
3.75587884552582
7.87590966978409
10.4484518804555
10.8904703808622
9.44570223828303
6.62067369394213
2.82010142638875
-1.31014420139606
-4.33332735571118
-4.43084726346921
-0.893539993763235
4.83761715586486
9.87322212084768
11.7491765034352
9.91481140762375
5.8246397777131
1.65831716390498
-1.27163433902006
-2.98932164772467
-3.98345653422643
-4.37163775269023
-4.0507465916771
-2.98910279317305
-0.788667042375606
3.5137854631536
10.2467342380449
17.7186549376115
22.914615347588
24.0140417767691
21.8737299600221
18.8060327159253
16.2657009305025
14.0444521767576
11.3484898573096
7.93059467279755
3.96991678247662
-0.577206823452437
-5.92163886719528
-11.8412444008344
-17.569618842736
-22.3735656927492
-26.0096959952694
-28.4938273127501
-29.5887920199466
-28.8402882059455
-26.3134213452916
-23.1310446385462
-20.9855866816317
-21.1029539705735
-23.659831934082
-27.6132911521478
-30.540599919449
-29.2537411014035
-21.78358556062
-9.03650058677267
5.95215857410702
20.1963486664801
31.6769255123265
38.7528539812031
40.1997475733613
36.4807881431632
30.2738486885516
24.8602452465058
21.7598992968845
20.1205677475052
18.5192315274367
17.1275258766275
17.6453783213444
20.9780263008746
25.5002022817164
28.0727513059769
26.5153999192127
20.8022987393404
12.356997094309
2.85841075719521
-6.39773975202881
-14.5964745441682
-21.2463948263228
-26.0587600161812
-29.034102151391
-30.4733725666869
-30.6246800684076
-29.3712067702699
-26.5206692465696
-22.4178674361705
-18.0497821655751
-14.3796569496331
-11.6105661493596
-9.32568079163018
-7.50755081442432
-7.11902161575
-9.13779832650323
-12.998226498766
-16.5099820146124
-17.536162656667
-15.4975012249418
-11.213525147642
-5.64268193819594
1.02541785676802
9.13019479578809
18.4817962284338
27.6662139496273
34.6337808370492
37.9922074249236
37.5905856990786
34.1341291359245
28.7679963984832
22.8865609179371
17.6102541704105
13.260382341333
9.72832135147848
7.18321236252857
5.73529678849495
4.46592901576006
1.65628705289047
-3.59522602485438
-10.3211654198204
-16.4664937031559
-20.481299955416
-22.0652101178012
-21.7997551758159
-20.5460137594951
-19.0494386043859
-17.4517313399409
-14.9215305074923
-10.3435570240824
-3.87020807979246
2.65152292376824
7.37852670852971
10.2105311007994
12.1884653958851
13.5610064886002
13.3291559512517
10.6118304203792
5.68051774191104
-0.435495031494228
-6.7479321784341
-12.5294667284728
-17.2054180948965
-20.4011319206639
-22.0449963278055
-22.2359443770835
-20.9456385425666
-17.9471492363699
-13.1545915569191
-6.95657034195567
-0.0402454116565313
7.0084544857811
13.6543186622153
19.0795672403684
22.3361966078945
22.9765166356073
21.4353918221792
18.9117771889321
16.9810574744596
16.942883068729
18.9834342653242
21.775990059373
23.0712697080409
21.0483303181003
15.5586606812598
8.27429268626475
1.38295940690602
-4.13210984576532
-8.85705335146877
-13.5191834149632
-17.3892022918428
-18.3439569385585
-14.6300101618764
-6.64870229383893
3.01411092904445
11.4541807209435
17.3726109660811
21.2025504241764
23.761303644435
25.2130216610661
25.160482667555
23.2381640630962
19.4234540998487
13.7569436801846
5.78209404789586
-5.22006684076678
-18.6741318054086
-31.5863118942476
-40.2297617253855
-43.6642964927743
-44.9359722238871
-48.0355519485892
-53.9225912672971
-60.0046776627333
-63.0947553315175
-62.0393883255627
-57.4008812860965
-49.5475399116
-38.1463734786336
-23.5972908250035
-7.91847664712983
6.61338467260721
19.2577208750903
30.4824099110271
40.1799334224702
47.0841399735308
49.9150048785508
48.4243262220709
43.3364903046473
35.885814887002
27.5177399264944
19.5587835510016
12.8514186002221
7.68211035937084
4.05691148814704
2.01925833121385
1.62181785809271
2.51859451630427
3.84014367620303
4.85671597992091
5.59989906711704
6.38727745738924
7.04027442986524
7.36481447926115
8.30228700091019
11.5523501486424
17.5167322504815
24.1667831518957
28.5981424106346
29.6900573148333
28.8621530505456
28.0354216880142
27.0853590515181
23.7767358232639
16.2864331876614
5.22530399788442
-7.12090094228198
-18.8833425489935
-29.3520388458522
-38.209735550934
-44.9834168907893
-49.3348776727152
-51.3266674824097
-51.1170459126524
-48.5797562895347
-43.5301945870845
-36.4227006771285
-28.5019488956
-20.8030892567769
-13.0962158619258
-4.44179835078825
5.02956595824029
13.4810832068031
18.9330688495724
21.1451478236071
21.5803932884031
21.7671023492839
22.1859844137806
22.7107876279214
23.451122262104
24.5705267765818
25.5163673372776
25.2427132383509
23.4871273253691
21.2076918484281
19.2453270510972
17.044018831836
13.4521838566882
8.60649963851954
4.22510249762495
1.86638486291577
1.39117381728385
1.32686233057306
0.44958153525917
-1.14544648234134
-2.37713638977368
-2.38652721841083
-1.31963989963238
0.0400460672986369
1.1910660925217
2.29212240852006
3.68780889010318
5.21290965075712
6.06085490319144
5.36919667523659
2.87602870581807
-1.04680440394676
-5.83778962463845
-11.018475748599
-16.1886965541686
-21.0858366716825
-25.6098173288311
-29.5345089484468
-32.3143561398351
-33.5049113452265
-33.3025747441449
-32.3830589856932
-31.3007905694574
-30.2978506095703
-29.5135671267243
-28.9707144671437
-28.3894978286167
-27.4271688233173
-26.1996545851046
-25.1801333965096
-24.3490679573487
-22.7754569988461
-19.4474750894938
-14.4561949413211
-9.06798805956383
-4.57007839922935
-1.12488616730786
2.34367798478851
7.34630217139097
14.8514425881462
24.6947886298377
35.5872657487262
45.6575135653654
53.131208586957
56.7776698676902
56.2274888619643
52.2255166883313
46.3109740778051
39.7798370936456
32.9674526466506
25.7449172333185
18.5024172562984
12.3074575495826
8.15471876111351
6.22384491175736
5.75867112768742
5.57083430014339
4.80951031559322
3.40162972176914
1.88396161012517
1.04206951614554
1.67328648805737
4.18349992571666
8.06815657103098
12.0243488676257
14.8275828877255
16.040506658518
15.9494295274167
15.1235845405629
14.0392659003849
12.7781156851699
10.8966901351656
7.66206978635517
2.46900107140019
-4.89659690895095
-14.1307177680105
-24.3182855535545
-34.0793823315307
-42.0850422325854
-47.5880216564204
-50.4780794339595
-50.7713240236091
-48.0206434457551
-41.4417823205378
-30.9231693375616
-17.7936729240641
-4.1506880555551
8.66166762667855
20.6447096023149
32.2241109550994
42.9706481125344
51.2203042171296
54.8390391137283
52.4849534910305
44.3253870454511
31.7211625324277
16.5671987448077
0.990275072283322
-13.0944255795915
-24.9449013133491
-35.3078489504702
-45.1785615690801
-54.339769016755
-61.469129077603
-65.4425834970628
-66.1139383424992
-63.8870322367223
-58.8765964200928
-50.7796077599168
-39.7624634108041
-27.3993752252261
-16.3846608518321
-9.10505648837401
-6.38712884565147
-7.05771323619106
-7.96919492613246
-4.81803530970106
5.48309186245248
22.0998284871849
40.0563362950648
53.1632560154708
57.4701098635925
52.6720313572402
41.3917050017161
27.5813342908051
14.9483912577144
5.78888394132162
0.446781578013005
-2.2764488782796
-3.63419801090777
-3.42801068259364
-0.275386129074139
6.39438377186525
15.0903908604969
23.2931146451625
29.2568003963649
32.612746157425
33.9230399084161
34.1589493740397
34.2064847370823
34.3382993140062
34.0562739335477
32.456465515524
28.8439643390909
23.3218956321039
16.9140058536899
10.8144381583659
5.33475811560502
-0.212325721738259
-6.52232027142857
-13.4792674102455
-20.4232151927533
-26.8548879361831
-32.5285291563284
-37.0375493683866
-39.7852262214007
-40.5383772123288
-39.7024170285496
-37.6353459505491
-33.7279904984588
-26.7261331072558
-16.3323465132924
-4.12614775184294
7.55721182036495
17.3960278586497
25.260850497855
30.9141391560341
33.28983215194
31.3190248467107
25.1659847517254
16.4635482897566
7.43446916325478
-0.192388389121027
-5.63129682305244
-8.77916351441002
-9.76898581399953
-8.77200654334697
-6.12064240472304
-2.6537406600331
0.0979044680490337
0.490791608416416
-2.02135012822867
-6.27406786110509
-10.221074329823
-12.468406284511
-13.1371609662285
-13.4908517631632
-14.7673652026622
-17.1713041173134
-19.8527954738273
-21.7031396446736
-21.8504414257588
-19.3608294923341
-13.166166077276
-3.12576853385669
8.81350880080541
19.1418076460889
24.8495377579625
24.9784647388038
20.3971452600756
12.6934954795693
3.66811883095092
-4.5285820076229
-9.85809222012044
-11.8364169525334
-12.2899295732563
-13.7786168422623
-16.9310344904019
-19.7899951333818
-19.9951456671538
-17.1702903515994
-12.9369395339039
-9.02320140123414
-5.7805484564943
-2.44210176530151
1.47454345435418
5.18395120610294
7.11708698839897
6.43985384090237
4.11501588541951
2.42453735510929
3.20915438241785
6.23997964368998
9.35534061684524
10.5828016425466
10.1352543603908
9.88900199355822
10.9383168038738
12.3607117155575
12.673145948813
11.8582824504797
11.3267167570641
12.107554419857
13.6675590472561
14.6822976108258
14.7412073375435
14.9983225057828
16.9243223896643
20.5347412041154
24.3060309974224
26.8809680077729
28.1511346320845
28.2618538586084
26.3134469782284
21.0767694620526
13.0149942257753
4.78075584765516
-0.872868922017989
-3.57823573688455
-5.4886607903354
-9.09269714874098
-15.2694765501689
-23.3041759156897
-31.9453656416839
-39.9067986376675
-45.7264089477455
-47.8270790850323
-45.1537912937788
-38.1406579160233
-29.2446416962603
-22.0007666858786
-18.726770462873
-18.910966329167
-19.9660426887696
-19.3939083047672
-16.1480509934378
-10.4702931807806
-3.12907019778297
5.00535222703104
12.9294130878427
19.5162205957232
24.0477198663938
26.8973580339225
29.2856008614931
31.9240973806555
33.9972934481373
33.7959888229353
30.3753111959779
24.5165954680619
18.1782189019378
13.0661203629908
9.62087015804469
7.27455566408777
5.46471373179362
4.07543714899103
3.04519970266338
2.19539806134719
1.64211177867552
1.87657766346243
3.1653677308475
5.09738816468583
6.7288562455224
6.93272631549899
4.79359684073864
0.106090136640263
-6.51513284275325
-14.2491832879371
-22.6281469106642
-31.1881955494895
-38.7320306674254
-43.4404645523187
-44.0663387051661
-41.0686961224708
-36.4183006708733
-32.070827605732
-28.4344125353998
-24.1381938717152
-17.2509532392177
-7.08629358101814
4.7087230364744
14.9026122340467
20.9742851762486
22.8155800308131
22.0517859285551
19.9731005796597
16.6325235840873
11.8382311785483
6.35024937745668
1.7780286818495
-0.555952898661761
-0.676714107698317
-0.0133068778787733
-0.0739458861978302
-0.679158131834754
0.192296249558752
4.29998073893982
11.0489677459863
17.8751103973633
22.4616441875389
24.1486693938755
23.4568729624562
20.9588507299483
16.9006342304254
11.6425709918945
6.02751804635302
1.0116540228263
-3.0044129868081
-6.12533955164207
-8.16437430604037
-8.26257033460093
-5.53669495172648
0.0118925048663875
7.23278944465111
14.2945244465378
19.535830465391
22.1970957798134
22.4497252695423
20.7358624328047
17.2243498067137
11.8944080108983
4.8497211924142
-3.54442096287295
-12.5349528963924
-20.8554057097605
-27.0318295146201
-30.1117028590185
-30.1294651721539
-27.8821339549168
-24.2667221684885
-19.6522468558765
-13.7729715479309
-6.44509578751785
1.43910389438258
7.84943046831658
10.8685501691204
10.1314954401826
7.11773127343475
4.1249320082557
2.75276240009936
2.88890802877808
2.96369207248057
1.58746474816794
-0.682603474723395
-1.5363963454912
0.516056497586257
3.91289578269603
5.13182959441236
2.05616190799786
-4.50195062857294
-12.5765088198273
-21.0345685568691
-29.1544867330111
-35.3466817810391
-37.5461504680737
-34.8275075209265
-28.2417739227568
-20.2904081097198
-13.5581461009866
-9.02120190262014
-5.15726731674512
0.827138687945674
10.4225799439262
22.5964052555362
35.0281108773071
45.8344656154391
53.8163732053917
57.8724326636003
57.1666348543599
51.9353872829553
43.6166455201282
33.9927180318428
24.3755901855209
15.5259037259721
7.78406052508502
0.835436037461114
-6.43355614544964
-15.3391490132418
-26.3645381177297
-38.3895167179265
-48.5402480963122
-53.1340215824676
-49.9509644219216
-40.1948027005148
-27.63860068686
-15.4109667392342
-4.12062614986611
6.7111250105441
16.3566048719693
22.8345292490288
24.8393066409123
23.1408717972908
20.005920802314
17.2972529901408
14.9944218878271
11.4373475086485
4.99612998869013
-4.37516520142113
-14.8575999393762
-23.7084932613659
-28.7263593074996
-29.3990430091388
-26.961482135821
-23.3384730009077
-19.9690482741976
-17.3651215717254
-15.1956436012695
-12.5821470583771
-8.92695510791826
-4.91572211064451
-2.16796260357553
-1.28538361892686
-0.652798391731282
2.05682331185027
7.18590034232877
12.433407396433
15.064244376717
14.4570568533558
12.2423823631099
10.2765055126139
9.0523403711975
8.00586549986455
6.57464150406561
4.58793605275781
2.23128018179081
0.179215866780352
-0.53921213238593
0.810324823231681
4.34501166238712
9.92169272410835
17.2095359403837
25.0858609344171
31.5483051407899
34.9306060620258
35.2855098620953
34.3495059596221
34.0186372845414
34.6768625423491
34.7709559933424
32.0173127043097
25.3086081563134
15.7026470717998
5.60660713817063
-3.03318219704922
-9.78111553433383
-15.1874857592662
-19.6518920315862
-23.0997055598164
-25.5342215852473
-27.2983263713639
-28.5619681305567
-28.9659654886037
-28.0858482691928
-25.9534306217479
-22.9160148990018
-19.4088168782776
-16.1511866476879
-14.1051782528305
-13.803052904878
-14.9101950155652
-16.624702154017
-18.221314803199
-19.1025694768461
-18.7843715826466
-17.2714175781013
-15.3383355081503
-13.9952008025429
-13.3590346001672
-12.1378632043474
-8.5964598186735
-2.23143259980285
5.58703265254038
12.532617503747
16.5828853305564
16.6099951291037
12.5842878370782
5.70851817330729
-1.87551712648737
-7.7724658417103
-9.82653054935465
-6.59075871183615
1.59960673956183
11.7614248573594
19.4136415129884
21.5562755567956
18.7017279741376
13.9303960293465
10.1306468974291
8.10886835772442
6.85609329234694
5.08904950779691
2.33789813800903
-1.19591196709194
-5.22265585091196
-9.36846861630126
-12.7858764629766
-14.1819562128186
-12.4695315663348
-7.70850428699372
-1.73214072732176
2.54120869256635
3.30076148991698
1.559807571354
0.219344235709746
1.41045464954271
5.14255947704196
10.1973376661807
15.3714389231695
19.6137886797409
21.7155676462102
20.6264707318312
16.3305573394088
10.4130808273881
5.56340584091692
4.01892474928699
5.95038179132309
9.16158441237081
10.5979695496489
8.57397146541069
3.80167223978143
-1.65309006704748
-6.24019218982484
-9.63235843591298
-11.9411831547253
-12.9294046117836
-12.2502020909593
-10.0395578309366
-6.91939694337382
-3.62462845163792
-0.817768617099893
1.05132175109598
1.99792981617349
2.39770081474062
2.39489426002615
1.61082326395841
-0.309322854889625
-2.92260899381037
-4.95713652731898
-5.18337362342181
-3.34979136371647
-0.18341637532918
3.51223268838546
7.49210324200222
11.7185912350091
15.8205386447397
19.3100364843655
22.1148701551545
24.5377918038959
26.8410600071406
29.1209423976415
31.3533075679394
33.1739478874141
33.5789618943392
31.0348894779057
24.1198608118422
12.4147679797546
-2.88576191370408
-19.2145735629261
-33.8458185545441
-45.4306258946508
-54.7043439689876
-63.5219072550366
-72.7582816729967
-81.1038441291022
-86.2295466178126
-87.0411995751583
-84.2640850688032
-78.7684008781793
-69.919484296986
-55.9862129740545
-36.2757778064385
-13.1363722337261
8.26956451553696
23.2715193877125
31.5787185321836
37.2628848288752
44.232139270199
52.4551654449934
59.2930006183544
63.4176922099901
65.9865766553218
68.3182449326142
69.6471105297807
67.3671398921436
59.1142461890981
44.9489991888739
27.9821456608448
12.5082319758867
0.918661522594374
-7.65827087510485
-15.7459251359127
-24.9314669928811
-34.8421401321196
-43.8646842553846
-50.0447282969685
-51.3752558752054
-46.1998908581288
-34.3393831374812
-18.1064850661134
-1.8252074155727
10.3427215442788
16.8758276012725
19.7694827725887
22.8916101221332
28.912470110446
37.3639518066233
45.4744945013785
50.6458533825413
51.966472170726
49.8381288891779
45.1185248020621
38.925980047372
32.5382937660717
26.7660020539108
21.3878394362008
15.2799637134624
7.05554415510805
-4.08228034567179
-17.5624221397351
-31.4966114550536
-43.8713881595706
-53.7142173594314
-60.9077099079349
-65.1504589289763
-65.7699016386415
-62.8826146694529
-58.3452394336334
-54.718419592109
-52.6902230768031
-49.7328639868095
-42.049928387519
-28.2734282365105
-11.162340546873
4.33490916993223
14.5524882243671
19.0102743347698
19.6772192681217
18.826269204636
17.4913177508169
15.6678023866417
13.6388002931691
12.7516332912886
14.7157892951303
20.082037932537
27.3079206975857
33.3593510428929
35.6350492558519
33.7115972008738
29.2770870485955
24.4258845725946
20.2378984304603
16.8020712419209
13.8423224579956
10.8901799789587
7.28395602223046
2.67719663048899
-2.21371446403005
-5.61919950200883
-5.96433348110381
-3.43412200050673
-0.186325468201449
1.19165070428088
-0.600215018829215
-5.17866610971398
-11.0389584533302
-16.1244927154984
-18.5113296708949
-17.4549144981373
-14.000171042642
-10.3711093173238
-8.57270290924178
-9.20340474477161
-11.1580466590032
-12.4613341516495
-11.6741358960021
-8.57901345599667
-3.62445916111512
2.78731346275571
10.100586993954
17.0499702919599
21.9654974791768
23.9344569149268
23.5573477314851
22.3897635402036
21.5957120725749
21.159288467234
20.30793662872
18.3801001623272
14.9893171326108
9.61900928678012
1.86450665489376
-7.49910217619785
-16.1189626507735
-21.286726959559
-21.6863447461522
-18.1302154185853
-13.1073015632951
-9.73394828369284
-10.3626554335643
-15.1796268299619
-21.773118927184
-26.4242870905685
-26.4098350838611
-21.5577242827932
-14.0698107309605
-7.25136313509436
-4.17290276854928
-6.4433544083106
-13.2156011115334
-21.3904516107637
-27.4074133469711
-29.0745554429834
-25.8491596822336
-18.198220463817
-7.43020211898065
4.22895625693783
14.253374393876
20.9607908810978
24.4979427502505
27.2271186004685
32.6166031098337
42.1533137086625
52.6442449048691
57.6916309921051
53.0571936577244
40.3964338022226
25.2165438851773
11.6878371389439
0.0756361549972043
-11.4059364057338
-23.4990690423
-34.9641470355153
-43.9081185525447
-49.2160915226061
-50.6841578001892
-48.4696389374611
-42.9513524621509
-34.9118221411596
-25.4156426411734
-15.4793247724739
-5.87015807325734
3.15203030722282
12.1085874193664
21.8889425858127
32.6012152391507
42.9407329269971
51.0006699388761
55.6856575240054
57.147895457056
55.9206925318968
52.052453466113
45.4776263852093
37.0663618096535
28.6882591670337
21.9694643691663
17.2722407815373
13.9550237156809
11.1899394332124
8.35496701081061
5.02995158978624
0.912644616379561
-4.33059843079559
-11.1072250351583
-19.6126995051588
-29.5682330789136
-40.3906399832075
-51.359965392051
-61.2884254656595
-68.3722900680747
-71.0677381973084
-69.235977394966
-64.1607597943106
-57.5426542567999
-50.6231027809659
-43.8355083775011
-36.7777367235695
-28.6465757869925
-19.0644668363288
-8.49955477360387
2.16270516844695
12.2138273103771
21.0829260075525
27.8827199322685
31.4655759569217
31.4081010368391
29.0645020115519
27.2251193557529
28.1497438069533
31.7382277221351
35.736968864628
37.7395525249258
37.0046355731231
34.6688144482046
32.5803012083613
31.8981460791583
32.4894750764924
33.4091401376157
33.7895050460588
33.1393471765182
30.9026534011503
26.2608229321327
18.9599101526927
10.3413354337516
2.8770039473369
-1.96552193612789
-5.33195825613291
-9.93242008086755
-17.1970646232727
-25.8296049645141
-33.3870488408292
-38.8568043602534
-43.2030036621415
-47.6552683504707
-52.1931139463966
-55.9045150161856
-58.1566586842685
-58.63152029918
-56.3367101557256
-49.6544514949333
-38.2083386287466
-24.3639516006397
-12.012893898751
-3.54853109746192
1.81823131969893
6.88076014299517
13.8568160566273
22.754528733981
31.729890447684
38.7682894394554
43.0900673307196
45.1249763749163
45.4607436399219
44.1807930633621
41.2391366849123
37.1013242919757
32.6665879343537
28.5414248503708
24.6307527780879
20.6455998686028
16.8467340722756
13.8573373970298
11.682702727477
9.44228006355976
6.45552813039963
3.29730635070031
1.36955573369483
1.54024375146693
3.42210104678995
5.71627276185572
6.89837339084938
5.78225620860776
1.95675288611322
-4.06072396808266
-11.0942538064368
-17.8123283095787
-23.2646346678052
-27.3040396042409
-30.509913901984
-33.4598074801019
-36.0322139522677
-37.5374455172212
-37.4435515363145
-35.7640363706676
-32.7601536334321
-28.5289433017355
-23.0996881045307
-16.9227269583727
-11.0569521328864
-6.68408284530384
-4.42063256488528
-4.02939989763178
-4.42249516540173
-3.75703176240686
-0.14659523702907
6.85769837603779
15.4204065444652
22.5669714384243
26.360539167978
26.8566471057446
25.2255388255774
22.5049720445256
19.2661251879711
15.9418569411337
12.9743155847206
10.5974727928427
8.68941319042382
6.99043358794792
5.45023560130589
4.24214826183729
3.41740845348479
2.70488387281923
1.72009991599297
0.247365831984451
-1.64382093728069
-3.52915519665187
-4.7553168742313
-4.98777494038084
-4.64126756852218
-4.47741102007112
-4.77556468847285
-5.07446285363734
-4.56951922097991
-2.51962327834914
1.502592688725
7.27249374463655
13.6974050732922
19.22859281181
22.8207263126751
24.6012489156719
25.4714045203371
25.8887373392303
25.0621379532419
21.4368185946732
14.0186645121346
3.42507871484627
-8.13686107143785
-18.2036761454285
-25.9105481172591
-32.5298834344237
-39.8532722747221
-48.1508957361637
-55.8541906051542
-60.7007799880492
-60.7191512589868
-54.6625241790741
-42.5005080901635
-25.8962085091832
-8.00881435082633
7.6323943115621
18.8557717804804
26.1917908047642
32.3652509927633
39.7200741659631
47.869319128991
54.0695519983944
55.795150025177
52.7222459204679
46.5134845007423
39.1909871813839
31.7633032204386
24.1006796630134
15.7314503844773
6.35987978953845
-4.26720347131579
-16.0993962204092
-27.8395376748354
-36.9881633810041
-41.7003902878653
-42.3204400852391
-40.5019605117447
-37.1720963468198
-31.9565931493271
-24.3831608731795
-15.1211223154496
-5.96329162795251
1.2963993053281
5.94291943124291
8.2926617724825
8.84184089577548
8.05489403286493
7.02154503147127
7.37145696997624
9.76423923413362
12.8106520457856
14.1027312330057
12.1702528984022
7.17570834247036
0.282206199154298
-6.88669365804577
-12.3789562739583
-14.4446113286639
-12.5196300088763
-7.65570731213286
-1.77250967666614
3.6075171201006
7.94393749539795
11.2754149547067
13.6801658843162
15.2669666070437
16.2967468707803
16.9643860096375
17.2118172407304
16.9005817251772
15.907067627192
13.9401298141998
10.6646512527502
6.29234769720526
1.84386096712222
-1.41722649200241
-2.85758297224231
-2.87542656426247
-2.52738758238854
-2.77160445349773
-4.18416418068819
-7.3203431417288
-12.6545219616735
-19.6141120714195
-26.1571475256125
-30.0665866483115
-30.581726602994
-28.3836115726246
-24.3693171643607
-19.1438181783236
-13.6024947372414
-9.13842698717679
-6.60864336558004
-5.14593527612333
-2.53381366738955
2.72047537626501
9.64094353854766
15.4537562091333
18.1370645709143
18.1231247027937
17.6016305887763
18.6327779605023
21.9620553426997
26.9927648022755
32.3013984927992
36.1829564285271
37.1600634290011
34.5744815210701
29.0446102207495
22.1521301129179
15.2808956045947
8.65562812377992
1.47204109955127
-7.2728131788471
-17.9764522780652
-29.8018528438983
-40.5731937144162
-47.8381539982316
-50.5174141480113
-49.4188133921538
-46.0803443034495
-41.3661579974988
-35.2211685030726
-27.4250888351508
-18.2446815333003
-8.38226559410095
1.24055536157986
9.16634929221255
13.2535842364235
12.0596888853037
7.01026842539467
2.47026670460472
2.65827508722
8.28368115221386
16.3322792315951
22.9192842810332
26.292760025578
27.6168276149761
29.3071589100878
32.43906491602
35.5082562349656
35.7329061661041
31.493965055211
23.404074951798
13.4014241470678
3.40964988530981
-5.18202588405271
-11.4359403724934
-14.8526758597668
-15.5823299346718
-14.5120256195565
-12.8462916763459
-11.387547623275
-10.2959189453931
-9.5319188230387
-9.15035219449823
-9.03612470346912
-8.89668665008732
-8.86682378259148
-9.60455993974676
-11.2705765438725
-12.7792958477752
-12.6725006747315
-10.6657540617991
-7.89242535782197
-5.59908068113805
-3.94750651930436
-2.19499587563244
0.265108552027066
3.29337423228548
6.22695768110677
8.30364368617681
8.81935948725959
7.36077298204267
4.38005813627037
1.35667869969628
-0.291133559865985
-0.713004700258513
-1.57386108279865
-4.02603283592566
-6.91138972635695
-7.55714591244593
-4.62933544731449
0.125300044338295
3.41004314793077
3.58020130862336
1.99065316471227
1.32347758738744
3.1314187486863
6.99197946624541
11.2833407344405
14.3269906923984
15.2576407991462
14.4822250401558
13.4113935828934
13.402916140598
14.6550163501209
16.0855678767497
16.4225888918497
15.3211305939616
13.0028818599054
8.85179413555424
1.34478967814131
-9.82789426139957
-22.060944138409
-31.2094317919776
-34.8116797341947
-33.6292128438601
-30.2116409973114
-26.4814612699784
-22.7048282538302
-18.1763304975622
-12.3105739655797
-5.00370182865867
3.58010173915057
12.9398501448361
21.8768640233509
28.7965098806625
32.7336969405037
33.7222571017673
32.0050494071407
27.5878607038392
21.0639340608665
14.2172525443577
8.92325749414689
5.47552875465974
2.46730304019043
-1.67699727977643
-7.35181222129881
-13.8762902626505
-20.5043576082304
-26.993259734954
-33.2696396041818
-38.9762526253445
-43.612914509701
-46.8660435884191
-48.490632373315
-48.0814494753168
-45.3164519000595
-40.2891201386178
-33.258666606669
-24.1274963401634
-12.5098128139796
1.46518711334994
16.4373445890549
30.1264098538529
40.6669889322082
47.7374192837997
52.2562782241558
55.0294732373065
55.956862764512
54.4987856352195
50.4537213821612
44.1308824059912
36.1956585002581
27.6276247454534
19.5632317572489
12.9099051203949
8.06948122557702
4.84680176202353
2.45276493820379
-0.142051961718895
-3.54672600857147
-7.70134045485001
-12.2610663787389
-16.8862919891681
-21.1181852159713
-24.4122702240271
-26.5135654443725
-27.5509948651551
-27.6017110056159
-26.3047161616543
-23.0170067775039
-17.3543544876745
-9.6763640109264
-1.19605794879783
6.3959118645553
11.6803587107916
14.2503264192603
14.8046849834636
14.2533208647568
12.6626673045097
9.4554366710478
4.73606886821959
-0.168214994189854
-3.81180082058496
-5.75283596011797
-6.21129222053264
-5.28769505322274
-3.3648304912533
-2.02027724649312
-3.49669826217852
-8.77196198163523
-16.5147641977894
-24.2804974865458
-30.5375974261455
-35.2451703038529
-38.6153936828582
-39.865293733386
-37.6187255442174
-31.4107968277011
-22.3126224545468
-11.8807934053505
-0.738937507833381
11.5411765800779
25.0734192900044
38.2453715701323
48.0182698388198
52.057686599854
50.5376865030516
45.5936315573745
39.2726178053013
32.4464017677615
25.316392190105
18.1461958507648
11.4904931193772
6.26243457403822
3.47395584332437
3.30374495304322
4.38982664197365
4.55912939006407
2.53614398963268
-1.13828867280175
-4.94620145184309
-8.07794840275121
-11.1259919469646
-15.0843555959202
-20.0161222948637
-25.0055661028387
-28.9945078898043
-31.0145929563782
-29.9366549438039
-25.1420561641878
-17.8332180032534
-10.839677177892
-6.39152308587778
-4.31484912025075
-2.81801942445123
-0.803281455232648
1.11338229640527
1.92963260050581
2.03322564270424
2.94251639065058
5.26530357440391
7.7551251501106
8.88235315836978
8.67705996050472
8.34647278598787
8.58014170878362
9.05667636996368
9.46042115482245
10.2522538109823
12.1511183671118
14.9807207082915
17.2216858298729
17.0195701960592
13.813852526758
8.75495885649224
3.54585235910915
-0.556366800836609
-2.60824391702734
-1.92748301968829
1.12650584151207
4.78829692574188
6.83192921033048
5.83572048136505
1.69310905590797
-4.51806654380577
-11.0461807270151
-16.4005312677371
-20.2050996458333
-23.1237947161025
-25.8737498488734
-28.2249117534037
-28.8014933302445
-25.9633446517206
-19.276315511996
-10.263025760274
-1.54467333680315
4.80177105707993
8.13418834642538
9.00959036573797
8.51685146833235
7.74358269368939
7.52697987480994
8.37320205061242
10.257673113429
12.412079320271
13.6835631887165
13.3999634404851
11.7515060106757
9.31660999648594
6.57179143539171
3.95476388792384
2.01942930468298
1.22514550713321
1.51477379873205
2.06113060395371
1.61568243253622
-0.445119988689362
-3.32762404859029
-5.40908136450019
-5.66713460715393
-4.28762454902486
-2.03979599838927
0.497413450710856
3.12676916917534
5.81360822333902
8.30561754367834
9.88615508868978
9.76940117423566
7.94750281205186
5.37147006521124
3.0975240935087
1.55807543814823
0.758572208949728
0.607898780496186
0.6726607734484
0.0568542928467219
-1.88250144539364
-4.65184722188322
-6.74235180311351
-6.89877528895039
-5.33862720184998
-3.54468184826253
-2.76040372215531
-2.89714713648177
-2.98438682447375
-2.35048625704559
-1.18788602483537
-0.234384103351599
-0.0584459476376591
-0.536710697707653
-1.0977002725606
-1.58289440952055
-2.55940312097087
-4.55372360914685
-7.36924444256671
-10.4669632205812
-13.6165257120976
-16.818779753861
-19.8821730734957
-22.3291131288641
-23.5079146868055
-22.7401694213159
-19.6793592011653
-14.6651763073395
-8.55742967301468
-2.1244001571336
4.40060694156982
11.1846603143977
18.1489948332894
24.3844355011469
28.463698747191
29.5922009167057
28.1514203694898
24.8231629010653
19.768631997175
13.3030798234188
6.76825759103234
1.72870099509049
-1.5010414137807
-3.71499434776647
-5.3325240857033
-5.8311009546028
-4.76992088404759
-2.77062993095389
-1.03390921224503
-0.0084947272598653
1.00151499483016
2.67441327573726
4.51871043071002
5.44128305746068
5.28382934753599
5.07743245733277
5.65388575801927
6.62156205324025
7.01881250728483
6.56547283040453
5.81290363776521
5.07883312632882
3.65348539176146
0.523878352159908
-4.08954869410592
-8.36481735522937
-10.2729017456518
-9.10195396898875
-5.60760172202342
-1.18086683929348
2.89776106616241
5.86925043649697
7.69859349906495
8.87452788499025
9.77850158428301
10.1450901685752
9.10936126842069
5.84855963338186
0.432350854359563
-5.82687608457851
-11.0766188864114
-14.1284270175081
-14.9241881187733
-14.0954571951545
-12.5590532180501
-11.374721767373
-11.2541220436874
-11.9616250342927
-12.5624513336934
-12.399137092347
-11.6495188300311
-10.9785181669275
-10.8538925536068
-11.1993747906628
-11.5646730101609
-11.474504327383
-10.523038032294
-8.42354579669435
-5.50553040027824
-3.03949708643575
-2.21350432955996
-2.51669000395629
-1.92262562140463
0.778639273988728
4.25961013889058
5.70866014962567
3.4452068815039
-1.60782783793795
-6.70348696030568
-9.32056577850297
-8.75959361232769
-6.11679607367569
-2.86555625547682
0.486240437800595
4.51170998421177
10.0669511166487
17.4831277125352
26.1097480931433
34.363299000899
40.4550176410167
43.3111053995547
42.8572728644027
39.6672498684832
34.5737236837695
28.4301418863405
21.9528496936048
15.7341261774402
10.3053586129136
5.98563273455892
2.73484559589283
0.35880070137122
-1.22270403866482
-2.0706812102343
-2.44215567627059
-2.69707495349502
-3.03409566632357
-3.47973121477102
-4.25396405667972
-6.16505610819027
-10.39222104189
-17.4901280643875
-26.5725728352954
-35.6837910414089
-42.8692601446013
-46.7859482957893
-46.848952466063
-43.4932095047697
-38.1641540061047
-32.4743630788113
-27.2162935842834
-22.2042263696841
-16.7401350938988
-10.1209427122355
-2.28716515438785
5.56443270344992
11.4102086895213
13.9586059007443
13.7367562065345
12.6141992135043
12.56247894376
14.6960203705246
18.7026368810945
22.8146329154195
24.7803077415085
23.440953632074
19.6254691732788
15.5493741101189
13.1697743763905
12.8276603091277
13.3032522854253
13.0727093938665
11.4253308671268
8.62282572927414
5.49717835922201
2.94306693349574
1.27055221376993
-0.192061028931723
-2.51132557557795
-5.92908730432393
-9.39237594061963
-11.4368594652866
-11.5303958167022
-10.5446444003315
-9.78511753334162
-9.42736808688807
-8.18767519085159
-4.92221355471082
-0.302970241043818
3.63446498721189
5.47037488954836
5.3855855036601
4.35433901965355
3.14785289174806
2.32334581541087
2.53859675182666
4.30540090189019
7.40630580235838
10.7521949972578
13.0105913334529
13.4531592710248
12.0948934974586
9.12243791382892
4.64395280430263
-0.925491125689402
-6.77543149240965
-12.2440833013338
-17.0942039741009
-21.1370764548849
-23.9495912021116
-25.0812627321845
-24.3038858091191
-21.64947555213
-17.4326839342962
-12.2940694844762
-7.10801574557744
-2.66109992463762
0.887450054361174
4.34593249196659
8.93212680189167
15.013773673697
21.4896890750483
26.5423051115169
28.8706711394527
28.2319713813793
25.1143625805355
20.074050285688
13.3931373094241
5.38125548243898
-3.16742791804236
-11.0996671913169
-17.3969707930809
-21.2924038979332
-22.2280425151539
-20.3707650913291
-17.0966276247654
-14.1734997449275
-12.1960359740887
-10.295071916521
-7.46856260088106
-3.70939133419068
0.170015638212807
3.23551762122318
4.81198648627012
4.62025180283266
2.85823385385618
0.178549252420828
-2.49559530510322
-4.37787124187947
-5.22218927097279
-5.15399824892154
-4.04435814862897
-1.46741480946912
2.47826439047999
6.67402986370714
9.62761309266644
10.533198827702
9.76109254622508
8.60042821689737
8.46133965325788
9.98328769684116
12.7793062286964
15.9207279093313
18.4167846548999
19.4318930179846
18.7063744888478
16.9369793952783
15.27169408885
14.2333788400308
13.4040535139021
12.1487627108059
10.2354943635409
7.63646847319437
4.15155593220923
-0.384447627198523
-5.61781181030178
-10.7087011330376
-14.9075262901195
-17.887628491728
-19.4654966695011
-19.4708853622644
-18.4151988758804
-17.9254421095871
-19.5283204975633
-22.849300554483
-25.8900191682132
-27.3682100169563
-27.9289717757621
-28.6247852881902
-28.974731990982
-27.1657245571908
-21.8454746698271
-13.3483524969822
-3.39621797502769
6.11294836775014
14.0749301965769
20.1563986943911
24.1341498443734
25.6613863855326
24.768959016595
22.2757972162079
19.4453313028013
17.2009361860622
15.6116938794571
14.0362696719493
11.7663930862738
8.61583733985914
5.04783327140568
1.91335454856338
-0.0082404508511114
-0.525693569689015
-0.181361322703606
0.313804276779118
0.743651684111621
1.2362994227219
1.68980377205737
1.93265165275166
2.32768139781402
3.37035465457448
4.4785498592414
3.98256688785619
0.851770252339952
-3.94156547310179
-8.18049269525656
-10.3553549332166
-10.6000766523797
-9.79889469706771
-8.20227241943744
-5.38839877864345
-1.59732372487872
1.50397327500778
1.94006849678278
-0.743456546117783
-4.99387924587188
-8.5081141478496
-9.93301208144553
-9.60410152724718
-8.81291435680222
-8.28626607650643
-7.35992417397661
-4.66162781475353
0.496628812744442
7.34545920401508
13.9722797876115
18.412528655424
19.8323219122051
18.8367292766743
16.5602401357671
13.5938287559175
9.9203671659809
5.51722492787883
0.589258030866773
-4.57125862169999
-9.47847787834744
-13.2920010873588
-15.2085240651902
-15.1043996873048
-13.5795917256039
-11.3445241949804
-8.68701599413584
-5.51210411252919
-1.71372639380289
2.70150345053467
7.78796174522594
13.392954314159
18.2947338008821
20.1804516398167
17.4240682601067
10.8841417449742
3.32070866619354
-2.92527635367413
-7.21804944760899
-9.90439648601976
-11.1388089997454
-10.6926248556902
-8.53284017612127
-5.14597389866732
-1.11796465036682
3.34970362784231
7.98300425476584
11.5363942879746
12.2177234006156
9.55114961448798
5.32891283618993
2.21495473224961
1.63174927852192
3.11487989337149
5.1658536271057
6.3794590217779
6.18454581552722
5.05396486979858
4.02939198578464
3.73417620040016
3.58776518621514
1.93313652874597
-2.85978575151182
-11.13961417802
-21.7137500865499
-32.6811278711382
-42.113070598239
-48.0264109019897
-48.9246043587211
-45.3866768048884
-40.3141326298671
-36.0065961217855
-30.9487145407476
-20.9885941512958
-4.49166084931638
14.5926554701695
29.8996392260521
38.5539722697103
42.817946608628
45.9815975695182
48.2465873337584
47.5940741096644
43.391640366043
37.3663707553204
31.274926222875
25.178880403204
18.4029008203761
11.209521415562
4.95197371519565
0.882241475616706
-0.95533564190213
-1.79562907287436
-3.26036753041729
-6.374505264408
-11.2067799053002
-16.96860068547
-22.2510784454327
-25.6226728259766
-26.48857675576
-25.3013535872544
-22.8233582440046
-19.5164714729817
-15.7457164378608
-11.9072698583683
-7.87658802714341
-2.91105345559572
3.19228528369242
9.15374730086165
13.155844361014
14.7545683856501
15.3068045084911
16.2398974394597
17.2625159438831
16.8672981931903
14.5982371977088
12.0091715066507
10.7886369643525
10.4696042141721
8.80736767560909
4.27557980627575
-2.42510573911595
-9.25056431076485
-14.6819926589296
-18.6489735190875
-21.8696375787927
-24.517937760589
-25.8524098711301
-25.2517532244584
-23.060983774318
-19.9160535922763
-15.6695283442917
-9.68946057436156
-2.13705164067655
5.58656298790115
11.8527708863232
16.1671302210797
19.4087058185011
22.571587118501
25.3069775135766
26.0589432391188
23.8237062693513
19.5200534595371
15.4320586338478
13.4027367284895
13.4316654813202
13.5871169770916
11.294168069541
5.33158405495172
-2.98116729222624
-10.5988117243924
-14.9238810466086
-15.532388500723
-14.3264506297616
-14.16512056492
-16.8272145080814
-21.757774885592
-26.6484965956456
-29.1815881568221
-28.2596254104005
-24.0850655985537
-17.7177238313308
-10.5565929775857
-3.66507609728153
2.81791236450682
9.5297189832593
16.7947878929293
23.4617584906713
27.1610591664472
26.3321985102877
21.9716398396649
16.7799512606012
12.6069976045247
9.41595451020336
6.6752638355928
4.71014217346785
4.17183079600711
4.79267509563466
5.27901392492379
4.37156547731899
1.85853573830637
-1.36646593343828
-4.28048541006192
-6.89412423682857
-10.2535813312368
-15.008211247609
-20.1340896725888
-23.4201832049609
-23.2573246505859
-19.8827418966248
-14.9987011913508
-10.3550455790513
-6.7651017806077
-4.2892651240087
-2.76467714399825
-1.72961167573199
-0.335225228201782
1.89277474267284
4.36721382887497
6.13321712952482
7.12508243277315
8.29549016831719
10.7308469774778
14.9309663644383
20.4288080350824
25.562811624082
28.0258941299452
26.3796600295401
21.2241240812887
14.7514023193743
9.08648786777954
4.95962390031991
1.82730491718665
-0.928187613983788
-3.23271554765022
-4.74919383592455
-5.45918757166992
-5.38535509054466
-4.2727288607476
-2.2422146801194
-0.463595465093018
-0.444037862204455
-2.64679141306494
-6.19661486733379
-9.76623071872291
-12.408593819192
-13.8129402825755
-14.1984439515285
-13.9337414407367
-13.2168226107565
-12.2788849266488
-11.6069926147233
-11.3774818522241
-10.7836436431836
-8.62051423481845
-4.73696791884519
-0.525829080074443
2.16911590641988
2.38471798873877
0.253752256435364
-3.62798358440081
-8.46961924790901
-12.9091687493786
-15.1073892084337
-13.928214636735
-9.89948214210425
-4.54818130485727
1.00180481653624
6.3204962028809
10.9609287525301
14.2681441398983
15.9661657985803
16.468643609622
16.4703368143562
16.3254305582336
15.7465547249547
14.1108320449961
11.2860420360406
8.18351661308879
6.21162318896233
6.04173672967596
7.05200469097266
8.01001185817117
8.10737511718923
7.30398439630239
5.95092306045733
4.36387112780232
2.79852014589087
1.58456288937512
0.908599878008668
0.47676161211753
-0.0963839228832714
-0.39133643071186
0.706912096476355
3.55368057622834
6.82690871941493
8.54404576987182
7.81271978998425
5.35814919756788
2.59030356521689
0.367447947958896
-1.54879240221558
-4.11757440294834
-8.1767385875277
-13.8022637987457
-20.0709948167159
-25.1852940516298
-27.3021214481026
-25.9513877457073
-22.6022555625761
-19.4091724388193
-17.5025266805623
-16.6460884775772
-15.988439628201
-14.6834287198615
-12.2818188950554
-9.13130743607937
-6.21183467028616
-4.20231086414474
-2.77525921067345
-0.888926023785659
2.39647405884533
7.36410821917711
13.6194822211102
20.4913732340204
27.3466436689616
33.2897446684701
36.8077333195457
36.5047468598222
32.4660563579243
26.3767299786609
20.0154721181669
13.9383017002508
7.74874487646417
1.34164201083425
-4.37269618306936
-8.05153028189886
-9.18113735874296
-8.46994429645738
-6.85637476816425
-4.72593447896709
-2.73639922989799
-2.83652195383314
-7.17241476928801
-15.6441975535177
-25.3071215734038
-32.644342327864
-36.0990749990896
-36.2502414561271
-34.1927685798905
-30.485615504547
-25.4491369992488
-19.4333316116256
-12.2442175546168
-3.01153525050185
8.46241657016685
20.3391631491944
29.4048113998104
33.3175721966903
32.1942130275354
28.2892838356293
24.3116231643183
21.6653395435028
19.8813245605029
17.7144284935074
14.7277853240377
11.5749881999717
8.98763024857282
7.14504204905967
6.02815492666783
5.65036090000184
5.6403180908724
5.05192181187719
2.98920655311202
-0.500170688741762
-4.12494241055222
-6.10909218320405
-5.65072126675374
-3.76690880469353
-2.49707595295991
-3.17678982817599
-5.44730206909743
-7.7063974089529
-8.4666238435622
-7.61934706712859
-6.48260055978059
-6.30931110877308
-6.81610488857872
-6.62679568663628
-5.01797238117998
-2.59779259872924
-0.323094577490828
1.42570322382139
2.58921498379603
2.84130226417127
1.79544646709887
-0.246461801455824
-2.20152668301171
-3.22664203399087
-3.68931196864665
-4.66706870238089
-6.46036160999766
-8.13457485905407
-8.74937745630136
-8.55281578683993
-8.64696689315044
-9.85176021244596
-12.1034172809964
-14.5046590778358
-15.7145055157789
-14.6848656548326
-11.2776889236635
-6.13318467134307
-0.247811070170846
5.04770232450181
8.26538957830022
8.68628771629179
7.12521601904645
5.4697052099965
5.42036146772759
7.52376433021062
11.0550399155347
14.7744631046375
17.9501502882721
20.5709325791196
22.6074340606952
23.5218987004467
22.7257071925936
20.225376992228
16.6798080938013
12.9791188092885
9.64240763217432
6.35017134384433
2.19337550738258
-3.35165762138029
-9.74772047637449
-15.7413225562541
-20.1830859440854
-22.5467092216615
-23.120259017987
-22.9789444903623
-23.4208164634612
-24.8849128721345
-26.2826675393668
-25.6381833601045
-21.6624353141806
-14.7973847196068
-6.72019173488344
0.972882049997702
7.30404368530744
11.5247566674295
13.2336242100185
13.1998221573894
13.102299372049
13.7339027054145
14.0351259841379
12.5124759109666
9.16630355525241
5.4878396817351
2.89496677061502
1.67575375349798
1.334473432493
1.4965394112984
2.16531529177361
3.16624731774596
3.87310390756544
3.9513644200252
4.01312466235437
4.82753165822104
6.01306911275789
6.22120203459989
4.6729697335136
2.01956859820754
-0.354662477892571
-1.52081844877154
-1.47570297051986
-0.730734249481204
0.342548836774763
1.70025205425065
3.32520945718338
5.08472745148799
6.94350811112004
8.87088835702924
10.2953372159287
10.1726767486479
8.15179447848235
5.41211885466909
3.79494513403742
4.11881311973452
5.58950860989639
6.71603358394785
6.60272086014421
5.54863862162025
4.70535000398163
5.17064633480593
7.1114268763178
9.36013132882004
9.7755858535565
6.45477921109235
-0.924847419666469
-10.9735435092601
-21.8594910880797
-32.3715890249615
-41.6117499173907
-48.3284291973241
-51.3362227544899
-50.6489582701055
-47.7728704636533
-44.4495405533569
-40.8782106611097
-35.4663247574344
-26.8743995051257
-16.1084211409262
-5.8522941119876
2.14612604119469
8.22956743151245
13.5775047856991
18.826329876268
24.0208700590393
28.9952012077862
33.377312912217
36.6413345102973
38.4273522329063
38.6959424417842
37.635697310614
35.5773402177599
32.8188375720099
29.3597077032481
25.0245484519725
19.9776941091978
14.8336491811842
10.0811339661441
5.56187488292844
0.62895110186857
-5.17335030433948
-11.4609022560658
-16.990643023603
-20.4424074374193
-21.2425859873142
-19.5485414629507
-15.7306738009826
-10.3446464825789
-4.58006573509298
-0.272869536567797
0.929165416796092
-1.19081735959136
-4.67245581853766
-6.22309780111355
-3.70569806906909
1.87179895450716
7.20602710879986
9.65568347766231
9.21619455140392
7.89144545269968
7.60828945222323
8.60377154811838
9.38341368853571
8.17221223202016
4.53761782915994
-0.404763854879958
-5.21205482690439
-9.15498237450587
-12.0756454684591
-13.7791263190159
-13.9472756864681
-12.5179966019748
-9.93662259676491
-6.97190155563674
-4.24046064543043
-1.94845632156945
-0.164139815216001
0.85511405450405
0.847853396626019
-0.0850487642575896
-1.49994701258398
-2.87027047880279
-3.81464687326829
-4.36774349736192
-5.00166700392903
-5.95698907284947
-6.52423028123174
-5.40773704206134
-1.93459660861925
3.2145094705601
8.30107483357233
11.4009191966539
11.3831248660094
8.55738043199179
4.48442608469942
1.03091062869722
-0.663054995085192
-0.794281055236601
-0.742647942648222
-1.92349168717438
-4.36124601922764
-6.48898344077585
-6.58782503864077
-4.42904266771736
-1.49504915767171
0.382265556948536
0.736687353706722
0.967395831793988
3.00238157837533
7.31796380848584
12.3835874644
16.0881560291401
17.4540719585902
16.9176695455817
15.3964542666715
13.4212717907057
10.9564275209276
7.68212659314386
3.24293269269581
-2.80682116807416
-10.9432873041986
-20.9459161030715
-31.1388272532595
-38.9046448808917
-42.2881195847599
-41.0428825771251
-36.3464553675257
-29.8570298141027
-22.7084305206082
-14.7441691212283
-4.80428124405303
7.58179027275928
20.5749380754277
30.4710151150539
34.2259100728825
31.8825796432367
26.5992115353609
22.0684584392805
19.7063243885971
18.3018555757845
16.0651831993043
12.5304092734186
8.64319859677988
5.7335240171079
4.6335157526543
5.28561046470115
6.79570629749473
7.95614159669854
7.95450038281462
6.78528416175407
5.20969292134108
4.29442204331753
4.58969087783697
5.55466656020769
6.03276554294529
5.30962481050694
3.33027299257498
-0.0152898281946288
-5.09345645731503
-11.7523726237431
-18.8753796111998
-25.1116498425884
-29.8490673656959
-33.1619398686412
-34.8608290301801
-33.9478351780359
-29.3181738637968
-20.982155721787
-10.4096711890628
0.227124556893534
8.93518412392741
14.4361871395595
16.6474438891149
16.7821646343745
16.4495983830813
16.495201880083
16.9088345868222
17.5261299130661
18.2408143820812
18.6311572081086
17.8722584789132
15.1909560698884
10.4981401996032
4.81680869705594
-0.0276752801236958
-2.68884636733009
-3.52063178145309
-4.27331777386852
-6.47402162932943
-10.3279919717543
-15.1272393054967
-20.2063230596712
-25.2547994895613
-30.0314006957264
-34.1081054124321
-36.8723107897145
-37.6377351501127
-35.7018806363665
-30.4101049901218
-21.4152007837664
-8.9435175721721
6.34766825547697
23.570402747825
41.0870525176379
55.8251615986426
64.0106586542573
63.3266996374308
54.482921354889
40.8026975906733
26.43574846205
14.495410881632
6.07870952275646
0.67770472998562
-2.56965833050849
-4.25112903482432
-5.15297249273228
-6.60290776418993
-9.70656895567313
-14.2467105620671
-18.635964000222
-21.1748504235146
-21.4623046808934
-20.6078920338456
-20.1436301713904
-20.826207891397
-22.2688239795966
-23.1986807143495
-21.9760400184275
-17.57158567198
-10.6958150367701
-3.75936494320277
0.812988269709878
2.29647009609311
1.7333586664352
0.750123381080505
0.461432261574536
1.00589121100918
1.80262904608776
2.39262890092724
2.92652747907235
3.64077091072799
4.33377201414575
4.92177846460653
6.16547593459281
9.14327156723358
13.9333755636404
19.1172972567392
22.6836597758604
23.4671209996234
21.856720077302
19.2130859687077
16.6962829869781
14.6949491371131
13.0627307226867
11.458172409065
9.52338299720412
7.11792672873338
4.40927893552583
1.6068001948559
-1.22486453229171
-4.00236194146951
-6.52898287299856
-8.62727081269283
-10.1423924924832
-10.8760711046634
-10.8106931639391
-10.3596963905594
-10.17425621087
-10.7723062535924
-12.4298703148464
-15.0947713816941
-18.1465413925169
-20.5718588263762
-21.6998387197976
-21.5114244701959
-20.0352653914568
-16.8663113216794
-11.6784382487584
-5.03189728999045
1.65953781934676
7.06881222086995
10.8464523618951
13.4744901818944
15.1959611623576
15.4092410693637
13.4482117031466
9.66983014855538
5.27637321548728
1.18995473286588
-2.49337114193692
-6.03858581803061
-9.3736855618037
-11.7873191571011
-12.2181938991424
-10.0277895620451
-5.55708561904343
0.183246008538411
6.24172506165432
11.9863308855955
16.8524630454704
20.1054052099391
20.9527699002593
19.1150616952563
15.4520717090745
11.6696617868433
8.96846628812725
7.12308406184162
5.16964730661484
2.72178212882559
0.220574983784943
-1.87597622420547
-3.64401124664507
-5.37883446312746
-6.92504400724026
-7.38939067465034
-5.76176431968159
-2.22160674864511
1.29967252826325
2.42166491894887
0.338864411725075
-3.61236383819151
-7.20990790168164
-8.94218822165744
-8.71747402692445
-7.52677675893541
-6.52721457442673
-6.29741004704171
-6.70689260276565
-7.12769096558588
-6.73471453426014
-5.0692140407342
-2.57725833770341
-0.383372753969492
0.51586587308945
-0.267855791267224
-2.42314350470781
-4.90795430015134
-6.52220930898062
-7.12502192899482
-7.76782554356881
-8.88284148126398
-8.83401946275827
-5.28804297501886
1.91318945595349
9.88580834903868
14.9017948447165
15.220376068645
11.8547858660561
7.12985400265244
2.96808761031399
0.424354250481878
0.0043158120204561
1.50467342725394
3.63341578932619
4.80048623258663
4.74504480448587
4.8193879273258
6.38637028369943
9.43449030091559
12.8214644385606
15.1443572114209
15.1738202374192
12.2384625284616
6.84400431050077
0.769494038508533
-3.86984830032338
-5.91765189563703
-5.69407328709923
-4.30285591226247
-2.48695096910338
-0.267974151852837
2.42287460769353
5.17934511815998
7.29241490929903
8.13097472483593
7.26898024532625
4.64914804560186
0.861540939114714
-2.85400749431873
-5.00176986756061
-4.56907973711776
-2.04030965016446
0.229994104750091
-0.483213621349819
-4.74599384495616
-10.2689753582785
-14.1396467420353
-15.4337811002122
-15.3841645597105
-15.5284050643683
-16.2041871817919
-16.5992689049714
-15.8855190660115
-14.3039128691062
-13.1315196958822
-13.5340018960054
-15.5860105777468
-18.2572193338079
-19.827951245736
-18.459840549412
-13.3461027887566
-5.8013580867689
1.28147759240127
5.59147970104301
7.13760891135305
7.96371304758178
10.2740670711825
14.6537089382022
19.7632160007948
23.5097914138116
24.4725846025675
22.5580933602446
18.8816282185025
15.1456671881268
12.6910548245546
11.8646848768462
12.2409150500785
13.1091754265164
13.5895115544213
12.9164270996012
11.1760850207051
9.42308957352535
8.69436576135648
9.17693861994526
10.357472258832
11.3429400715718
10.8800898668128
7.82574602553023
2.08857886907102
-5.17139659217044
-12.3332680542499
-17.9574568846832
-20.9756226223608
-21.2059061184031
-19.8950489618241
-18.9784350801499
-19.2205314763036
-19.2822253467818
-17.111769673707
-12.3920576091467
-7.2060005686052
-3.94793110862566
-3.01988485659417
-3.07387195716079
-2.85025479058048
-1.870832038987
0.0455082234745719
2.67865998857836
5.06606779088076
6.37500423172198
7.03367641002414
8.22777817885669
10.4888085912582
13.3536988971504
15.9712087913008
17.3449728311194
16.361416673389
12.4934723207958
6.70162803291225
1.11796437209795
-2.72894311938717
-5.43752802911107
-9.04926376722319
-14.5795542209227
-20.5717907957387
-24.3683032884008
-24.3883808520879
-20.8505333394315
-14.9343421385523
-8.03047257787758
-1.47547811849552
3.88837026141855
8.03473688326382
11.2138978040996
13.1193035942008
12.9183647422824
10.1425599273608
5.55015161058763
1.25523275290737
-0.214047939343481
2.51613169617702
8.86672291881989
16.9683098772795
24.6184925733289
29.456929016769
29.2038641335557
22.9493820185939
12.3642121092962
0.972455578811268
-8.25598654753384
-14.663399541307
-19.3724775935005
-23.4207293953791
-26.8422808451708
-29.2781653662405
-30.3875246789276
-29.1473136073886
-23.8297811184842
-14.0317602497591
-2.56875484001676
5.83074486296213
8.28636915488746
6.01924046156501
2.81765009933803
1.59674540055158
2.57676795973806
4.33363781585737
5.82418595428652
7.00145711459434
7.87958086283796
7.76975508429125
5.75515681579337
1.72066673072593
-3.15067425326752
-6.73075345627785
-7.07951029198753
-3.93367319448338
0.805130193369289
4.583054816367
6.34964836526137
6.99520636684498
7.94070931932594
9.82573197002426
12.4117989302699
15.1710988373109
17.7834658027557
20.1577849327825
21.9506126442238
22.1951656307496
19.7681873614693
14.3584846884908
6.85572235678413
-1.21211777790696
-8.61516867731962
-15.0457725596896
-21.0573993974516
-27.4147306104239
-34.3838500805137
-41.2412227191497
-45.9786053747434
-45.8288533171101
-39.1680529178134
-27.2699726124767
-13.6104483398075
-1.32950812703932
8.22717488994461
15.0289799936777
19.6639319734949
23.1287993132811
26.2591579093501
29.1068424435259
31.3466638733858
32.9699709285656
33.8771361085194
33.2027224948473
29.9274732573034
24.0658470422608
16.8181523330475
9.79391023336152
4.19231173888034
0.112290069222701
-3.65185484627807
-8.6332956325441
-15.1088081321957
-21.5567777529515
-25.7486643070349
-26.4190599682183
-24.0823126201276
-20.3599334603443
-16.5573366840801
-13.011182151535
-9.59482170510699
-6.19547829353309
-2.61086702262749
1.24745145525415
4.72813416538543
6.59017305274404
6.00290294545392
3.01838647446661
-1.79147495743001
-7.53293339690527
-12.904371104599
-16.5699453211457
-17.8338111625007
-16.8459536692055
-14.3301438743708
-11.1969419862674
-8.04163200786643
-4.81340569233422
-1.24036185138906
2.42183289196724
5.44783913515192
7.39761723702922
8.46780804933811
9.32123614738395
10.9453636586726
14.2570697130999
19.227417552935
24.5375695772774
28.4541281301742
29.9418860928523
28.8913747277145
25.6613074086477
20.6803188607133
14.3876992448882
7.34681524245588
0.2197444680207
-6.43963258214538
-12.2145493884817
-16.6464849834755
-19.339867685687
-20.2340731288723
-19.3277390976828
-16.2019996280642
-10.4569723492229
-2.66317374377257
5.66427407297208
12.9779276868824
18.1830852393123
20.617560018493
20.1534857479692
17.0029916894947
11.0538806573679
2.02678527856805
-9.18991228673843
-20.0505477365615
-27.9731522999969
-32.2028673987792
-33.6925110576786
-33.5718851142876
-32.1958486631142
-29.3741578966672
-24.9901331828816
-19.2560816667623
-12.4768192543931
-4.83856869026416
3.18557226213663
10.2290466048541
14.2957789819509
13.9804518039205
9.64759482271517
3.73452307399634
-0.245791913951573
0.13841055881004
4.51927106009755
10.3626568090189
15.3216604206386
18.6719376097264
20.894889042029
22.7595880022083
24.70573079577
26.3210316246364
26.4151110037947
24.114009326134
19.7379881411648
14.2972592719087
8.50844496202508
2.62766929197233
-3.17472363932073
-8.64780762254026
-13.460449579685
-17.2074667322123
-19.543651771601
-20.3091424399048
-19.4733362819226
-17.2116878134343
-14.2503371229186
-11.777446835437
-10.4488775583266
-9.4847530176406
-7.26830380414141
-3.12714669058259
1.70986659109854
5.2703715876127
6.96528924239279
8.24051260048185
10.9665152322309
15.5809755603007
21.0935975537452
26.3030604003218
30.323504929032
32.3289967169924
31.6202077717355
28.0139505294969
21.9085760441448
14.0911358749661
5.42821106292578
-3.72054823968473
-13.7788493115601
-25.1263347510638
-36.9877582928786
-47.597366899407
-55.4163667735837
-59.8049460551951
-60.599806654563
-57.4758999241472
-50.032974568297
-38.707346708609
-25.4464080384441
-12.826703787069
-2.21901507064441
6.69878177912186
14.5804634644917
21.4082505657258
27.0542759442358
31.8562215734384
36.0052384661968
38.8752733905323
39.4287155257652
37.0639258386918
32.0829484540347
25.8643831171688
20.5432795433674
17.7251368692797
17.1364712571544
16.837966973372
14.8298204302402
10.2515564610776
3.32526553440995
-5.15204209631398
-13.9396497888066
-21.365051365946
-25.9205607397839
-27.2667443368656
-26.4273411886894
-24.6529187510733
-22.2439343083816
-18.6425020650552
-13.2367617469671
-5.83395157152329
2.9636123864263
11.2929551936538
16.5241759101016
16.9462360791111
12.8923081289645
6.22625722218557
-0.643816136151679
-5.28872909029048
-6.01967593100315
-2.96161710599985
2.02162809308378
6.94224023079541
10.9824522468568
13.9610350160242
15.0138769111451
12.5903933536159
6.06572566702284
-2.95044557871556
-11.3781655051587
-16.9368915655724
-19.554493510156
-20.4325728483698
-19.9297098059091
-16.7518064750219
-9.42590115635818
1.49774421748783
12.9560055425005
21.4251748092058
25.5562570920156
26.4938440111111
25.7200360847943
23.4485609892597
19.4485196299697
14.4343087124079
9.75490590099847
6.13211759620754
3.33241638820103
0.800592594840779
-1.84004126346868
-4.76382511664034
-8.11138607277862
-12.04935350365
-16.4746368559622
-20.6696836949502
-23.6362078765315
-24.8479639211182
-24.3465926477581
-22.3561020853112
-19.5455278716652
-17.484829538733
-17.7600714041078
-20.2147077230885
-22.5609305712249
-22.0611431482343
-17.5812620044393
-10.2076354515571
-2.14394089860111
5.03731946019893
11.2408022529348
17.1595741777735
23.1295753062731
28.8214196347645
33.4547966801679
35.7455967594847
34.2257352133118
28.5993199175716
20.730511810588
13.6003668072087
9.13553314061967
7.24761276162827
6.82115164810774
7.2501873508252
8.76764860498648
11.3145878327649
13.5912037033902
13.7792898205092
10.9767840845157
5.34141146980702
-2.82924429144279
-13.2255139031627
-24.7373289469881
-35.3145655825755
-42.8790122344033
-46.2973463732071
-45.8504938014153
-43.0567895325876
-39.5557867938933
-35.6278619389252
-29.8868803034508
-20.6320180870778
-7.55259058874369
7.66410974643252
22.1524642821653
33.4207673044013
40.4026224963377
43.2674558642578
42.6859295686551
39.6612778970049
35.6429598820729
31.9131834125242
28.6504926776295
25.0259737399429
20.2688118134844
14.3538408872229
7.87867826281215
1.72985912044157
-3.29341685714015
-6.97007444110588
-9.81435487282164
-12.6938336864821
-16.4003588602319
-21.414816918784
-27.6667566604246
-34.402952105223
-40.376189714785
-44.1821289366001
-44.6546400246371
-41.3129338634894
-34.3834060150571
-24.2853148713501
-11.6122597878747
2.04052385619714
14.0303634578218
22.360492989203
27.2092998935396
30.2411085995327
32.5653569723282
33.6328467781907
31.9636135123964
26.9173315022089
19.8935237624244
13.5763588873499
9.7435413519745
8.01419021892925
6.8402414072461
5.28817659924548
3.5760998123457
2.22663476782444
1.10398503688005
-0.687391179504291
-3.96321484964862
-8.44498115595867
-12.7307875816922
-15.441239263413
-16.2094158023638
-15.5027753208445
-13.9588111816387
-12.0993980610262
-10.2054710217837
-8.20431611475091
-5.95699774264467
-3.67669803110921
-1.84802631434387
-0.949066000983092
-1.42175660396779
-3.37139813700225
-5.84311402341397
-6.86694100371332
-4.8954579445472
-0.217571957715646
5.40063178221325
10.6585822433092
16.1545691656982
23.3652407730145
31.8109658392124
37.7579664370793
36.6914201252018
27.2472856783074
12.4286543606705
-2.63524360623105
-13.737131177048
-19.4052597375452
-21.0682218972062
-21.4422047024764
-22.0037378923552
-21.9636785305948
-19.8726400812622
-15.6558250251156
-10.5170539202617
-5.37728639366702
-0.302178050909009
4.55672963096156
8.20628952598342
9.49443347052889
8.47677207124218
6.64694126922783
5.41615429020052
4.61772695237603
3.0552289002634
0.27642413780967
-2.94414118198026
-5.75677877624237
-8.10003286014586
-10.4126017398646
-13.0657972073953
-16.0802119188455
-19.0361719406442
-21.2779892409635
-22.2060501158615
-21.0906138190379
-16.8812679235673
-9.11003084615654
0.748363457414285
9.55125557175516
14.8414598965353
17.1202187960262
19.6738706768012
25.7445447505118
35.3380585366765
44.6528606438979
48.7738699807655
45.0850251381945
34.622519536447
21.0396801214997
8.47293594409232
-0.43305122692311
-5.29667035294486
-7.19289369991861
-7.38836826728977
-6.98502988027548
-7.05342364530203
-8.09334041478771
-9.49661284603411
-10.5125678342074
-11.8336033500495
-15.3388972026936
-21.8982243652979
-29.8562611294637
-35.9740697752376
-37.9217413762904
-36.0968720269849
-33.125024504396
-31.3033389250718
-30.3095534264731
-27.458688278292
-20.2232722531579
-8.53624252400511
5.11597776639044
17.6233973123875
27.2976943668942
34.1592062341485
38.5490501758009
40.1168899651658
38.4772476526506
34.2379489575836
28.6979723246171
22.7571941937968
16.6096654193356
10.3454319679032
4.46931328324577
-0.187336058899984
-3.0210693850224
-4.22171080938421
-4.72202849931521
-5.40045818532235
-6.33353971158919
-6.88690159983289
-6.43085985377244
-4.93091256508112
-3.02912046566568
-1.62788943497347
-1.22307030370032
-1.54754853863211
-1.85545363863409
-1.43617209682292
-0.019308623877377
1.75510541313432
2.26439631187983
0.107474010122282
-4.28959659516316
-8.77072039240335
-11.2727979314602
-11.2083264713413
-9.35000221327573
-7.0386765772642
-5.38661640538492
-4.64189499054485
-4.2022290590998
-3.3738235831727
-2.04704251133423
-0.731052546355514
-0.150301655843131
-0.601823267733197
-1.46162454561607
-1.61227490393771
-0.507201710343244
1.58303406312243
4.27627865542679
7.23201481335417
9.58358684866968
10.1977630396526
8.88195705083973
6.76362716072832
5.21889504907706
4.72500777898095
4.72313606391315
4.24249026504952
2.69146601223273
0.337546112136088
-1.94384856476243
-3.44487126631286
-4.15232039644369
-4.79170265729024
-6.61974633103835
-10.6736277990879
-16.4948054643554
-21.8050218520656
-24.1597044415884
-22.9551173863811
-19.4275978118396
-14.784855134267
-8.76697222601211
-0.239140699609054
10.8870175245475
22.5795721851137
31.7058918111568
35.9520936410956
34.7231576907574
28.9762255231113
20.9706738745912
13.5876855179508
8.63774684106063
5.66329413504544
2.97426402435777
-0.29008506664239
-3.62604278893969
-6.35703866817207
-8.69197306598473
-11.5137686549845
-15.327921720106
-19.5666648165747
-23.1215873814425
-25.4057478450435
-26.2811255405086
-24.9901393671792
-20.2256156981186
-11.7517422676571
-1.08052017363187
10.0596733232036
21.0986926036974
31.7093419217173
40.2477128449528
44.2275933115321
42.4267467397812
36.0350275231192
27.5668759833442
18.7274761889472
9.45933757770482
-0.876018461449542
-11.8156636025994
-21.9029051318969
-30.2337560094678
-37.0344989241025
-42.5598205015166
-46.0170546866315
-45.7866911803014
-40.5357962492761
-30.3969004079316
-17.5178069706642
-5.31486727237159
3.3931703232178
8.00304189468241
10.1987514700378
12.3788477539623
15.566039421102
18.605291770813
19.6179245116555
18.2600746532318
16.2490064710683
15.7684389922538
17.7083847221737
21.1871227010063
24.1823630391232
24.6853994414063
21.8020681624393
16.0527358468497
8.74716460684668
1.23218872226414
-5.45896362128845
-10.7744019549165
-14.6219051019626
-16.9002601696172
-17.1654457109637
-15.2662287922208
-12.2987579966114
-10.3991923494062
-11.3246784518669
-15.1999854134801
-20.456496891319
-24.9476566568519
-27.3028239123214
-27.1375473268967
-24.0296993243738
-17.1490401912777
-6.58286065955132
5.5723549388049
16.3509633780694
24.046589805503
28.8151016288504
31.5525109582054
32.6859798419377
31.9124150020272
28.8561617765824
23.9827334530243
18.6692048174965
14.1491257497589
10.6518309291114
7.77093641369635
5.25141366695514
3.12988285256567
1.46003308007797
0.175584226588019
-0.924899170447434
-2.13234396880674
-3.74234700272188
-6.15489769149342
-9.99197992600277
-15.671522025745
