0.143346016016494
0.186053463531218
0.229318227205313
0.293485752405989
0.338233250588489
0.376649868653911
0.470591827240073
0.572749105084154
0.565958137604038
0.450725985642177
0.320729751103235
0.220989524834379
0.167643638133382
0.183882300548191
0.212828880182025
0.14529128564179
-0.0074141695274595
-0.131650073351582
-0.208910320753452
-0.306220783225283
-0.391984049535739
-0.374560120597571
-0.296753241446737
-0.288569456418526
-0.373617299210101
-0.487523976278536
-0.590115481915802
-0.628759271106948
-0.534886329038925
-0.356275089224649
-0.242996215317292
-0.256608951255063
-0.320921746166011
-0.335955129600749
-0.241115304343479
-0.0506635063883885
0.110957282135494
0.128003438836292
0.0555427761545639
0.0299051793514148
0.0779995093576085
0.15716595225609
0.265225674035989
0.377432234546777
0.430768456420162
0.455945248986541
0.528376682983002
0.570939316783505
0.447494758857661
0.223472254823175
0.0859637718672299
0.0747842431487796
0.109448254870249
0.166296455968291
0.239775637276156
0.26033423413387
0.20143540378196
0.14361236013113
0.140971096304663
0.153921441826834
0.151991330219115
0.13789932714871
0.0734583282796092
-0.0650231261026643
-0.201687741709665
-0.272051320766463
-0.327592688060416
-0.421356127861557
-0.525047364683748
-0.619297871392346
-0.700175122779859
-0.694986787028257
-0.548863321016694
-0.346218891608544
-0.193492454782433
-0.0813990293462361
0.0233141572388504
0.0909863737313235
0.107796622456632
0.0961523711511599
0.0496173796529275
-0.0117231405606271
0.0085367982498583
0.135160005140244
0.244661228078816
0.255359864150252
0.239014709680357
0.269394035755305
0.330901937215028
0.398962064125965
0.455489083483768
0.462240897202082
0.429384141917968
0.40701275510214
0.351391852096286
0.171200916151241
-0.0628975429914965
-0.165960390723449
-0.119220662421827
-0.088113393996692
-0.149156312876431
-0.210728212706205
-0.20926705776397
-0.193056192297363
-0.221225262553939
-0.314718962599127
-0.446362313496791
-0.506086780942255
-0.403562419170497
-0.226510136350344
-0.127550952440719
-0.0934945879985788
-0.021070334149018
0.0687308175181057
0.0887496771766137
0.0460972509619925
-0.0071910758077662
-0.0519436719578586
-0.0437089410436192
0.0693294032853319
0.23608620697151
0.351767874338399
0.38852662490191
0.370215066501828
0.321667113034325
0.315320114989978
0.404619659848058
0.486100696847774
0.428797626748552
0.305409065243278
0.270582279684247
0.293721414257297
0.237466198745943
0.0960876766396641
-0.0349215306831257
-0.117683453024803
-0.171607607995388
-0.228998869434396
-0.353523451025711
-0.570375640566638
-0.766177447165793
-0.814121354378185
-0.770910053604757
-0.771009459337571
-0.787469280728505
-0.691928948173911
-0.473730068626077
-0.229406179316488
-0.0270346720560851
0.10996218728691
0.191450555038469
0.265949615789027
0.332623405919068
0.307812585342573
0.183267760420213
0.0857377351848963
0.0874061286376213
0.12649999745461
0.162488392537854
0.209816052776632
0.21943395137172
0.138339726283592
0.0435191629843812
0.0317929727146712
0.0733979609859313
0.116251194570383
0.182443073930417
0.260940596868583
0.282678819713274
0.247853052308589
0.207544074789463
0.150981692153087
0.0725629278996719
0.0548494878782716
0.134367200371839
0.208371148453983
0.192659348238131
0.132589542787402
0.0786546457654841
0.0096341913623849
-0.0670349288509846
-0.10109311709802
-0.10583830565703
-0.117406178115209
-0.0807500913164747
0.0501379964975957
0.169189929204408
0.143203501433194
-0.0059867555552591
-0.157791392853998
-0.224198450984282
-0.179339436522114
-0.079622745778217
-0.0429259903890279
-0.106298863435914
-0.178600337735135
-0.198515683266024
-0.20087412950617
-0.193161930612512
-0.141632416885685
-0.0768866821100067
-0.0349374702264227
0.0448845259486162
0.188621040327466
0.272433050272713
0.201735383585206
0.0617064828460851
-0.0214142522968563
-0.002556129701329
0.132881397641137
0.342150821565761
0.461283214775825
0.365709167097886
0.149151734751552
-0.0104595531629636
-0.0672304769089238
-0.0680192627342266
-0.0327840125101103
0.0098630609862549
-0.0029539629264563
-0.0714989509181921
-0.127194178167845
-0.154800338344381
-0.199358607849172
-0.273290626488166
-0.374939857175745
-0.518914409996695
-0.646144296573895
-0.640896544342273
-0.513546082636765
-0.401752030655668
-0.364151377591404
-0.343952272520636
-0.300110676412487
-0.211019221065205
-0.0375692761810728
0.180835056039942
0.315941191443923
0.321639097088111
0.274923587104238
0.231853236538793
0.201646659878608
0.218601372525214
0.284511970976624
0.335776115424434
0.379179058928371
0.492440111194035
0.621259032448462
0.606618688525624
0.454672108153172
0.336403894387659
0.318529219384543
0.315294766755533
0.260752063682058
0.146665186232483
-0.0246202139950162
-0.188049828962934
-0.234407469381475
-0.179043370101052
-0.172545660392188
-0.276381642139656
-0.382224251205707
-0.391206688573184
-0.313208918089564
-0.190131148431939
-0.0757238086957618
-0.045231682800646
-0.097347027817045
-0.13916075861092
-0.138663228348165
-0.141758198781928
-0.122217590090922
-0.0110484128188983
0.136380231512242
0.188909332701372
0.115938263865653
-0.0137795907084458
-0.122224532189442
-0.141467431227963
-0.0694127401845548
-0.0176580854549689
-0.0628072426415826
-0.108261315768545
-0.0438205415551411
0.0726676627938682
0.134622855908487
0.137718345753643
0.110930604985658
0.0673007601223478
0.0617006913716061
0.121008723841728
0.151109051916448
0.0859979236585431
0.0289290740669804
0.0788117366169835
0.154757436336499
0.145184947645541
0.0820217174479902
0.0421132494063558
0.0248899246337794
0.013570133628166
0.0032992998858678
-0.0692912756472587
-0.249307595150668
-0.417078957678775
-0.403368023082838
-0.22057662521902
-0.0227796332523836
0.0852366663612348
0.0797906214568547
-0.0191454617532564
-0.13091763538439
-0.171021447621083
-0.140239454344719
-0.0702631900355116
0.042220186943397
0.163072390566689
0.209621386967897
0.174089548194117
0.121545866033469
0.0685898596782106
0.0136291891806259
0.0154380132533959
0.0860564489694981
0.128163064651011
0.10452199946969
0.0947452717030296
0.106512290073552
0.054144743976252
-0.0410214571950293
-0.0646960600830119
-0.0088090984079261
0.0519282734862432
0.103395279629423
0.136506863413974
0.0808735358550165
-0.0585432180812836
-0.152320950800813
-0.141153005877898
-0.113880791704427
-0.129165136348471
-0.141350606263665
-0.132261204727037
-0.133603924772328
-0.131241730394236
-0.111664945617931
-0.127047130586734
-0.170993840763611
-0.127187460177771
0.0400071319067046
0.207131749833368
0.268913423312609
0.231211564987986
0.136104662461948
0.0449954156706718
0.0207674397999266
0.0116786938561707
-0.107887000904944
-0.308907486554164
-0.408681348791897
-0.334199375345482
-0.183117640267363
-0.0392162634046699
0.0773423744005219
0.140707314401413
0.16313968355401
0.201855711086894
0.227450413527046
0.147944139868546
0.0026940012652223
-0.0606909854200047
0.0042963831968882
0.134622550166747
0.288458047911126
0.42077558616625
0.436149680340516
0.30945975973055
0.144693541846699
0.0247073374468361
-0.0675540148325988
-0.132129301241741
-0.117122893505496
-0.0311368355061754
0.0673042332610149
0.180831000936164
0.3180033886701
0.390609675169727
0.316893245996563
0.133789745424678
-0.091216585131864
-0.316421279668248
-0.450283642892974
-0.408392435090406
-0.268076606120447
-0.195324589771731
-0.233753673067685
-0.291286048841906
-0.272952431037388
-0.151215268045828
0.0019222384972103
0.0411855845209389
-0.0807549317748525
-0.228603377258599
-0.292233402068324
-0.343388682666835
-0.452585085930064
-0.531839099727681
-0.486590577619223
-0.342402046455021
-0.157443671232773
0.0059372344950635
0.0407840560826791
-0.0719662894184346
-0.152401861358427
-0.0264915598321148
0.246288058150327
0.487063815181408
0.614224153559509
0.640242463135204
0.602511222041017
0.586539703336698
0.666761653375489
0.770028339863617
0.751992555776302
0.611558378395018
0.460789878985898
0.32467507335706
0.145895755805203
-0.0755875387568418
-0.287965173666622
-0.455171375797484
-0.549922389907821
-0.570719048222741
-0.559489602024997
-0.51393072499934
-0.369700582456749
-0.153789927538183
-0.0070601567586536
0.0190746571915374
0.0162728053312312
0.0403533541853858
0.0663394720885168
0.0991391003987679
0.137599888288924
0.0978274759322726
-0.0568604079912451
-0.218871419398994
-0.287737454534428
-0.270048394651775
-0.179872652156868
-0.0273024582375267
0.0973016168124552
0.11683308955806
0.0939096034649301
0.108513598494244
0.119340118762938
0.0797563750126554
0.0487403501030392
0.0739352536054939
0.111738937981901
0.136623391805489
0.172441221087631
0.183366752366518
0.10252272593978
-0.0398698896460188
-0.1766985648978
-0.317833297219885
-0.453206188004056
-0.47972118317989
-0.365330906508207
-0.226832630759247
-0.156094654564332
-0.135830702193868
-0.141676492619919
-0.154984331049786
-0.116450917321497
-0.0137390277559025
0.0763559969585311
0.127643190968761
0.199955347005171
0.28423328780065
0.292416686570804
0.221472098721558
0.160819479022038
0.165272432797114
0.243517424095824
0.371789557490621
0.437286570149189
0.329123386282872
0.125441000873777
0.0040715248767375
-0.0138641200875663
-0.0381733541915242
-0.10193819100618
-0.16566570331379
-0.224215799420543
-0.254225410242159
-0.181696215138468
-0.0239543203208254
0.0757805949500075
0.0440350119064935
-0.0390811729511796
-0.0961813286260325
-0.128090782042453
-0.123726464882574
-0.0621175094828985
0.0215648603778497
0.10287948139274
0.206188800350152
0.283712553653331
0.224491986675505
0.056267631898481
-0.0551934260071467
-0.0473659891496938
-0.0200744346538101
-0.0621376099779532
-0.170111533324745
-0.292084024409422
-0.354669450778803
-0.323505892277026
-0.258556807491736
-0.206159203360208
-0.105234281258299
0.062246354388247
0.173010993018368
0.174898136734585
0.200966645951322
0.315377297363688
0.372898893994492
0.264645681188457
0.0810649521199622
-0.0481612105303936
-0.0778941359258674
-0.0040899782523163
0.130445230824596
0.228294088426819
0.254220529949712
0.263368757524525
0.247723672752662
0.121574203895386
-0.084379509498471
-0.218884246905122
-0.248645383169259
-0.283834375554182
-0.341690309246101
-0.313285050307728
-0.176194921139542
-0.0403743046299727
0.0069480118487791
-0.0258114244625994
-0.0616647853024342
-0.008924283655231
0.115722179600536
0.153652163712226
0.019709024959117
-0.150636556724744
-0.200742793496377
-0.148143802993448
-0.0692903810726845
0.0200277554207304
0.082400151790594
0.0561817315116868
-0.0187641950399144
-0.049740039298105
-0.0430515429483133
-0.0546285101827779
-0.0775056889206309
-0.0968403569632525
-0.122192641752352
-0.106424645841937
-0.0056303284294935
0.087541381816102
0.0661263385024058
-0.0025550438029012
-0.0086725376324104
-0.0018079241102049
-0.0619351911905233
-0.111574580635341
-0.0514598138562661
0.0554276178799981
0.103442571728283
0.114356018880987
0.159190660435582
0.23345929699295
0.280640756007612
0.236410102186506
0.0732381997538915
-0.0982183505967682
-0.0858235814088317
0.122293535518489
0.310811697299757
0.319025049934869
0.186908883804666
0.0127636356454453
-0.134606163830233
-0.192913897327527
-0.167385742704725
-0.14647149309652
-0.153383842617974
-0.109566145063004
0.0037733632037823
0.11150307133188
0.172552609202603
0.181000656820328
0.1103318451333
0.0073079414097252
0.0025772592846446
0.100295036236058
0.147251237988869
0.0958388715894897
0.0694920710487095
0.12266418725363
0.16674648799365
0.139488861870541
0.0537844914961071
-0.0773243140608152
-0.215924615363779
-0.287462144862419
-0.290812375984513
-0.29378929657476
-0.278556736442504
-0.175471000058721
-0.0574014731636807
-0.0633477555935968
-0.140707538682232
-0.125546172865443
-0.0380481848821852
-0.0315237029014645
-0.116666236292227
-0.17806714920697
-0.178568085150984
-0.165256851508789
-0.164514882717066
-0.170031115574112
-0.152544305252752
-0.081383156864409
-0.0046316830009465
-0.013875526428628
-0.075151137818063
-0.0577794382282282
0.0368960910144722
0.0797616816231112
0.0476996109930896
0.0378817117894235
0.0858537959192073
0.162925597882615
0.266523277451968
0.362247803541514
0.376115282962196
0.336549228775372
0.344488058218121
0.381773709943124
0.3555079643672
0.286113399555588
0.23421823029563
0.138722728169796
-0.0553901127603458
-0.229956836549932
-0.253616673828068
-0.180765695846516
-0.130857287764398
-0.113343896106189
-0.0954790419789276
-0.0881596355535627
-0.0855200211334039
-0.0703962083010914
-0.0867090699572034
-0.159215291736175
-0.207566342017779
-0.172964631567663
-0.111213894696737
-0.0679800190024027
-0.0159895276112902
0.0463777058712003
0.100277645595698
0.188679502453978
0.3364147966318
0.455921135424899
0.454762761754003
0.339349691626061
0.15938318684326
-0.015024032214788
-0.0802002008440842
-0.02978981932629
-0.0186442924629469
-0.129677691970473
-0.22589751179335
-0.18953397814789
-0.104027981800605
-0.0683381552550794
-0.0624179868265559
-0.0824581718192217
-0.17167554908854
-0.276696441723815
-0.286374313396389
-0.204784525816767
-0.115568822029771
-0.0407792630804283
0.0188628793814408
0.0084614159038185
-0.082803180344797
-0.16176805169493
-0.169163833134625
-0.157371207571284
-0.182830536820339
-0.248422668091042
-0.340437346858784
-0.400085963761538
-0.335770609560963
-0.165880963040722
-0.0181068646942447
0.0699073499202796
0.171044898068591
0.282077201010545
0.321384758685941
0.290573439291136
0.257606662654937
0.24243059785703
0.24922244880712
0.294415224252591
0.318702061631001
0.228274148808558
0.06522778213085
-0.0249940000055552
0.0203098761314662
0.167286629389334
0.359132694250217
0.480428668045445
0.408398391524759
0.195256598779617
0.0174704910673057
-0.0806368524644419
-0.18263035411443
-0.279479832364465
-0.288557541982324
-0.23830613239277
-0.224899593085322
-0.248754569847544
-0.249713801698172
-0.215628982662333
-0.145844483038875
-0.0247467847525872
0.0965755097098821
0.137832655455623
0.14070143971291
0.216915588308263
0.357947880070325
0.46357362423052
0.495023422492368
0.449531339422623
0.297187579150862
0.0674560811454429
-0.128411282281539
-0.224914883309869
-0.234573572315528
-0.180769760548551
-0.121210403286475
-0.146757281790815
-0.246105565504698
-0.297584180637053
-0.258425324418898
-0.200023032570889
-0.147313635176109
-0.0813616172623826
-0.073081017235444
-0.206444560504566
-0.412814709086163
-0.543773899363954
-0.532793984352273
-0.393320413652026
-0.179864858160398
0.0084905441193531
0.117674139614161
0.21155014017634
0.340306183531954
0.430951896176667
0.424701279159439
0.385257878330533
0.35536838486278
0.263071471807189
0.0822101903477722
-0.0738989564178147
-0.115102169286744
-0.0752838504672087
0.001340737259193
0.10239780248544
0.159859160194162
0.0979338895089793
-0.0374487290438775
-0.128116309698882
-0.112440111835376
-0.0012008695162362
0.1288478342221
0.150380340532816
0.0287573333903149
-0.0994266233772958
-0.118520194239078
-0.0855643297405072
-0.0744484652558775
-0.0447148797214137
0.0306568364789977
0.0977611102679884
0.138381810872524
0.164458693279494
0.116099157852771
-0.0386845774862743
-0.183154055039707
-0.20904588399608
-0.165445011115076
-0.124351774041266
-0.0808740379925362
-0.0649499420716898
-0.137139981273197
-0.234325100205709
-0.227941303373317
-0.13017053931962
-0.05566735467248
-0.0247808103187382
0.0283625296746917
0.119548446581431
0.218315236824443
0.29804128491677
0.299763158265049
0.178964875425012
0.0336869449353408
0.0216975160352458
0.140922127964838
0.251284801268178
0.261659612626928
0.157741198511795
-0.0313109255731525
-0.181624374308058
-0.159150046846158
-0.0223799881364599
0.0450443940342406
0.0034745175474021
-0.0372690035475472
-0.0261893419877035
0.0002319535724422
0.0122341847030946
-0.020866215657544
-0.114736054124904
-0.190407706025779
-0.163016768271128
-0.0974447089998907
-0.10829104670924
-0.179705352720984
-0.239066510295989
-0.276503848290516
-0.26724594696508
-0.14863397649071
0.0435091088084398
0.192182773119855
0.265423858125168
0.29642867716965
0.261887461431275
0.157098421569884
0.0917563815892398
0.141047850240418
0.213574165235199
0.205313847561318
0.148930112739901
0.0995641903834546
0.0343783703679946
-0.0442057578462901
-0.0722193676071213
-0.0429591281311534
-0.0120883887656306
0.0042858363892434
0.0114671668354241
-0.0062391898721911
-0.0176776021093402
0.0414480894739777
0.140684333868931
0.181799383598276
0.138604918580788
0.0361487725732185
-0.118088331647281
-0.25637152711659
-0.255256739300561
-0.126334561078192
-0.0259623350385733
-0.0208585849143909
-0.0426410077837311
-0.060616878494568
-0.0803280622166251
-0.041437940476136
0.0705414129769336
0.129672197956911
0.0594896688864221
-0.0451788674318493
-0.104425775209753
-0.165545639149864
-0.2547509799978
-0.311156173608612
-0.307763625983382
-0.281913534766823
-0.253354484381971
-0.229197975531604
-0.232501420848944
-0.231708080539121
-0.136963502675265
0.0557496037207217
0.229667413239999
0.294769260256675
0.245801045569981
0.105082213871656
-0.0401863334456581
-0.0356416765123938
0.14112760973923
0.306641776856885
0.321679399727158
0.246400611207697
0.176116968446321
0.129627188455498
0.132907134369482
0.209629158775517
0.29152873877848
0.293241009015021
0.216660455490779
0.0881600795759248
-0.076783904780048
-0.194245707170798
-0.168345335330345
-0.0410666938061117
0.0746360393708664
0.149355669534095
0.178252497635748
0.108680549961131
-0.0344916555958204
-0.127854616922583
-0.149110844055513
-0.19962967023307
-0.286961736290763
-0.299267363887173
-0.20895427569018
-0.104950274503177
-0.0347860857014364
0.0183386343205428
0.0389641532667033
0.0018978849802122
-0.060370920456927
-0.111262370866434
-0.151310389796994
-0.159459574592633
-0.114153521954846
-0.0730327298889337
-0.0883349584002345
-0.0968213605079713
-0.0377882365784761
0.0281380331915219
0.0434287442646105
0.0496536043438691
0.0734323941787818
0.080659706846925
0.0766745152681752
0.0913045490219125
0.0916616807164294
0.0542404339169974
0.0433763160546196
0.0999202807232021
0.166236797426536
0.195786722744964
0.203817915350192
0.195245898948775
0.184388196875576
0.2342313626088
0.334759108250322
0.349305222459488
0.20506799435197
0.0014496523836398
-0.142278531193209
-0.192947297185585
-0.150772808948496
-0.0578379764475121
-0.0225733045345355
-0.0874322820186862
-0.149424023428257
-0.129356320434209
-0.0957862427842501
-0.118409053950614
-0.156035484654168
-0.179874753618422
-0.224799530377408
-0.250247182990146
-0.158452930778276
0.0049569548745024
0.0783989729910102
0.0157187884854328
-0.0955285619682018
-0.192235589774697
-0.254794282329093
-0.260878851912892
-0.229364829770772
-0.208553105528291
-0.191967034423753
-0.154602556177126
-0.122039881613466
-0.0953804001123873
-0.0174079442124824
0.100261856042572
0.166096467494556
0.166539621002616
0.162350231973322
0.149149415923127
0.108468937337483
0.11131499127333
0.187131834029082
0.230343039902066
0.1895872314915
0.161042821465204
0.184811829388288
0.167877801255861
0.078527774098944
0.0037274329694635
-0.0117494576110553
0.000386471745981
0.0298507835470569
0.0631533462636948
0.0396470532775254
-0.0264747316372979
-0.0025749176393012
0.149819499989447
0.277236658922743
0.273112019248842
0.229143867099439
0.24324388027613
0.268940959654582
0.232190960544533
0.133773304963791
0.0077391128506717
-0.10724063430558
-0.178111175228569
-0.209341522079108
-0.203549440566786
-0.121748569932852
0.0139996636668287
0.0691520944822013
-0.0277036965955467
-0.176734218598475
-0.267525646370071
-0.289013606586576
-0.232480873491059
-0.0917197794753505
0.0201300040149994
-0.0293652460168615
-0.18380193546065
-0.268913134042123
-0.20701521888293
-0.0334095677930864
0.168989696558639
0.261311330638038
0.143741547829184
-0.0851217842885253
-0.222592837561322
-0.209092467297759
-0.127665879407935
-0.0233452017989755
0.100245893969831
0.176295038110229
0.140790074209655
0.047037724602126
-0.0090039201841683
-0.007049205895129
0.0131997054266211
-0.0186432821387048
-0.177829089540975
-0.404247782539636
-0.469370887591654
-0.25531681861254
0.057934094595011
0.233125455628562
0.23133034992699
0.125164571147515
-0.0244328178180003
-0.129105728779229
-0.116516851840663
-0.0410972985287284
-0.0014203820884647
-0.0067999973577579
-0.0362992762871438
-0.0939637169737572
-0.127122750860623
-0.0665268842298517
0.0256554545980962
0.0430309004686402
0.0274223998040054
0.0685828446874107
0.113863167990992
0.0795913006604504
0.0228380466241544
0.0418154005977579
0.141675007534286
0.284976405545848
0.42598653613762
0.472589320266557
0.368724448632319
0.200786992949462
0.0920078767912477
0.0467114082952981
0.006029842789439
-0.0424424873290367
-0.106977464164128
-0.211454837643621
-0.294862580942716
-0.242719123825264
-0.0635219131905934
0.115411877894599
0.212020283464165
0.216447868756133
0.146306604203366
0.0884177942359162
0.137819643481991
0.222560953288618
0.17365759854894
-0.010013264946818
-0.167460468587771
-0.21211324601488
-0.167611979175473
-0.0547014199386381
0.0758611370605117
0.11407031037633
0.0380057167212083
-0.0396898097008098
-0.0517536861329348
-0.0549104012973759
-0.101528217409148
-0.168268193745908
-0.193260114886597
-0.10541901631042
0.0931357725512755
0.250072426797133
0.22240176268108
0.0967824333434662
0.0660638001856082
0.140599521100449
0.180302674944901
0.13741023408578
0.0725136749291556
0.0118571427584067
-0.0389856159265411
-0.0309320323136482
0.0390938310376795
0.0820083824554486
0.0549376205108672
0.0105768678974945
-0.0346521189764175
-0.114725294090106
-0.197456355924346
-0.227866540321153
-0.248662377096543
-0.331543099114978
-0.459776236599242
-0.565189237378861
-0.584492480983787
-0.471454366759817
-0.276076047470022
-0.152673632974653
-0.163067504551514
-0.186889500945273
-0.133232857119585
-0.0721624135762318
-0.0710983520309104
-0.0942891477712447
-0.111650433338371
-0.11862460222013
-0.0691955266022301
0.0320279016850272
0.0655177793872086
-0.0109172047336514
-0.0508397736617263
0.0670120064869689
0.278227524801427
0.458465295650454
0.534024049376923
0.457186342790977
0.255525980184107
0.0785327555381015
0.0288813207792361
0.0149632588956232
-0.0833426473476989
-0.218262099111466
-0.284796111267033
-0.28156029617716
-0.233191479798224
-0.112138756177434
0.067677415982642
0.229233383880152
0.330892735985487
0.360339759894406
0.299342016504447
0.209875267932749
0.21687629624325
0.312985517707882
0.353204193291604
0.287838911354712
0.209573209745683
0.173047280361434
0.152597746187726
0.135094912486939
0.10984926195415
0.0516449191994756
-0.0054643163834077
-0.0046876398850575
0.0203358686920543
0.0309556451647981
0.0987207301046838
0.241585302774563
0.297923818174565
0.171369891080298
0.0132332426266325
-0.0170355720080184
0.0378609010898508
0.0909594331673924
0.156564422769807
0.244859257386916
0.304601792192591
0.319236648589143
0.314524199307221
0.288173806886495
0.249704842732874
0.248861340652891
0.259531752944617
0.171369824972382
-0.0123891492054424
-0.14987101882019
-0.198221571135792
-0.266037803805353
-0.401322889304309
-0.540228006406932
-0.645407829641777
-0.707722264508838
-0.686592531048395
-0.597083304004635
-0.544182495476634
-0.579717319969425
-0.651217042751725
-0.709142197498495
-0.733644319856123
-0.70503444057258
-0.662373035109471
-0.682167224729362
-0.722883125312162
-0.657948919380162
-0.49699583414535
-0.365631636026125
-0.272094799014703
-0.112914190997321
0.13314092136492
0.402432169353106
0.649101236964673
0.82313702037089
0.873097859350168
0.830521225992878
0.749455965569669
0.589689423886912
0.331347824494994
0.119490161898084
0.0965885407133475
0.191403869000651
0.260359848578458
0.313053337747923
0.418273071991663
0.524277217079945
0.529710732631497
0.402563555496289
0.156112071025813
-0.127191959468624
-0.257408775531186
-0.133395502023782
0.0751592437194267
0.136235542796834
0.0415645999554413
-0.0638802825031746
-0.0820689311422835
0.0094438359428974
0.157088366583073
0.223557727391078
0.142603453293204
0.0372429342859631
0.035698558318847
0.0846102249929423
0.0769755469618365
0.0128524811270557
-0.0602423513710739
-0.104493176885278
-0.0665372001554783
0.0419896420184875
0.0925263919433249
0.0150616358531919
-0.0989418896937733
-0.179059981346825
-0.269297514198925
-0.357147687561767
-0.335290798932313
-0.196827449378488
-0.0592447099174257
0.0271360216422515
0.105117723379779
0.168304941582119
0.172535105119489
0.142534123481965
0.114463013564478
0.0531110081358858
-0.0508060909308514
-0.11893445762203
-0.112685176278409
-0.0906987944798203
-0.10161212657485
-0.145088624217323
-0.205403400182687
-0.218526914417687
-0.112467824193984
0.0415952786314464
0.0759232117547162
-0.0342994403632525
-0.155518075172764
-0.210732315721764
-0.225945787986301
-0.213316116836848
-0.17474007800608
-0.142130401165138
-0.104738323552255
-0.0174880863346026
0.0799538501880488
0.119082541246835
0.149161885772882
0.23521971161855
0.300613955527595
0.264527763716718
0.191906742233645
0.140123952546159
0.04563223495593
-0.104019295691666
-0.192043750605216
-0.162705225581388
-0.100572534623347
-0.0750499071062515
-0.0744500808101246
-0.0906775654134361
-0.117119359898418
-0.10389714192935
-0.0402483919279618
0.0079460646419615
0.0387654352436752
0.145915335941965
0.332077766240753
0.467520158815912
0.482947995690196
0.429406083445855
0.351800274711422
0.262434329762266
0.189767035382095
0.132800607135943
0.0470244639773483
-0.0690242829527782
-0.176750011685646
-0.27179618863015
-0.341075186878383
-0.323754272668834
-0.221668519914495
-0.120016754643575
-0.0265299452907047
0.125973292514763
0.280629547809405
0.286168444471693
0.138737212773705
-0.0192294434326036
-0.101650151986506
-0.0992498902627089
-0.0069473751246223
0.114111387124602
0.143891166082636
0.07026101938102
-0.0111670524331979
-0.0805880054746274
-0.183631576888922
-0.271060769925719
-0.265351399726842
-0.23534083846246
-0.296148877606055
-0.407210867593055
-0.455359360312629
-0.434668872037941
-0.384369271822853
-0.285171863819202
-0.144536215441532
-0.0350526567144083
0.0220364101309482
0.0679774946228581
0.11362345218355
0.167453237134638
0.268199910110039
0.380152687884106
0.394757892845952
0.303438703141839
0.202810508153344
0.119600325645834
0.0090481991873252
-0.118819635387081
-0.236235558369798
-0.360524557040469
-0.451325064042617
-0.398337288250652
-0.199318721480802
0.0260859059255561
0.216514654947611
0.37067827941329
0.431785373139548
0.372619784555673
0.286820340168923
0.233151753314862
0.149032211225297
0.0293588832900056
-0.0131760552660435
0.0523460693039279
0.113294753939007
0.0920211047740024
0.0147240473144236
-0.0876514230614776
-0.19153436636436
-0.240187760506715
-0.22333189177392
-0.21704862770915
-0.252069379976375
-0.270782258110419
-0.262794560192523
-0.266131582468451
-0.232987218912115
-0.1013392852348
0.0470293329333018
0.10653295601524
0.13223586195842
0.226129901589201
0.366856022624979
0.479878205984106
0.530038031497563
0.484505927930444
0.345277238160981
0.221397752609969
0.216156229459527
0.287777442374168
0.333059331435886
0.300814920835417
0.152800542923957
-0.12272956034661
-0.417127497627988
-0.592675340884473
-0.651228689586084
-0.656807786213412
-0.586424132917875
-0.408128023688749
-0.17388274507475
0.0739910231764162
0.334562960802402
0.545718135066164
0.636842915583314
0.68595164658945
0.82813281707487
1.02967752096698
1.13493251459826
1.08138815919913
0.901375534212225
0.610543899279937
0.264193295761128
0.009707722321174
-0.0630746625863885
-0.0206258601056261
0.0253606937180075
0.0049808118434522
-0.117239914651865
-0.299873700613387
-0.43558371953253
-0.503045171194625
-0.593680419669241
-0.739301982547503
-0.874452077429387
-0.974932928427769
-1.06003801719855
-1.10482622958607
-1.11372003983772
-1.17555775717619
-1.30158938972092
-1.35710997567244
-1.25954569557778
-1.07433501251954
-0.876509610582438
-0.704752246561874
-0.617797936572732
-0.605641042997238
-0.539248671218466
-0.367934584150636
-0.21131441875016
-0.132335764606294
-0.0157111787003469
0.232186340848242
0.553604776118682
0.856914855457592
1.0854288686143
1.170941771289
1.09427923672937
0.96515317101069
0.888914044631749
0.817478010893994
0.662302078091952
0.449250311446541
0.250884667238309
0.0953354551672845
0.0180311138283241
0.0696840394403058
0.241823601669866
0.483593222944911
0.747717271585975
0.957889017775587
1.05145491440697
1.09134321414287
1.18078229616596
1.27643951449231
1.25802556812184
1.12515538214199
0.95468748502908
0.765121923279294
0.57731843674245
0.477961986405304
0.504569369544974
0.603945662911125
0.739495027698597
0.873777262059428
0.881023979759539
0.668775283047494
0.324594469893486
-0.0029593456250559
-0.259492458690682
-0.440304245115056
-0.559085429598247
-0.705857989283007
-0.95361076053411
-1.20601870883559
-1.32206038269947
-1.35148882751912
-1.45638001857907
-1.65974142960123
-1.8526923265039
-1.97218207606907
-2.01820754057299
-1.99927418691935
-1.96992278101399
-1.99009390232821
-2.00245263021595
-1.91165100771467
-1.7630223327768
-1.66221744352658
-1.59032830456104
-1.47024579029706
-1.31291452936998
-1.16196425759806
-1.0005748123061
-0.780408736051029
-0.445003223121772
0.0482072263971509
0.62715521073793
1.12525337214333
1.48380233748412
1.77188278473344
1.96651092078468
1.95076479609577
1.75415750906836
1.54296165825647
1.38828901407163
1.26986962764068
1.2180966884717
1.24263948517969
1.25642684150762
1.23663157302391
1.296622240239
1.48718486757511
1.70698006996824
1.87236627906931
1.99229132974052
2.05377448604638
2.01608931196474
1.91221098607609
1.79447544833479
1.62929333026199
1.37964683209061
1.08114990771242
0.725388658271944
0.236586890035489
-0.339244946625739
-0.80368829311896
-1.02257944300646
-1.0193363470175
-0.870840895277753
-0.650698280517158
-0.41553534298485
-0.153516436698102
0.166633862297399
0.47597663971741
0.658633328483103
0.693055209060296
0.614086317254919
0.416459778944622
0.100830205791455
-0.309122513991817
-0.841991766727372
-1.48608264134816
-2.03657592166596
-2.28097621530385
-2.29023518970498
-2.2797581543512
-2.28699278812826
-2.22670060817558
-2.12645708133392
-2.09707753792539
-2.19938663534221
-2.45684243439266
-2.84469210734541
-3.21302255701976
-3.37970931796635
-3.29940767654129
-3.00185081545854
-2.45617548379452
-1.68103680075642
-0.868325541492396
-0.195174140759946
0.369455325281056
0.923738334612825
1.46066819298086
1.93359480827385
2.29554272360589
2.42369804205772
2.21474951615254
1.77337152193374
1.34521389917799
1.10181296870746
1.08295394688714
1.22918777458317
1.39911308173483
1.4850538826692
1.53110818329729
1.62750718614636
1.75893580027742
1.87033043754217
1.95516197070391
1.98269189473065
1.89993417904347
1.75938241607085
1.6657728682165
1.60588918711384
1.51471603961941
1.42865811304846
1.38609384999162
1.30193667307663
1.10798199248262
0.870570262357925
0.641314192666434
0.348723256502333
-0.0670103061998283
-0.552709232721119
-1.02270756086952
-1.41074786633372
-1.64336813292975
-1.69567458815598
-1.64939494246169
-1.59437129348321
-1.54681988791968
-1.52265031167625
-1.53984690299218
-1.50626301540139
-1.29291985617389
-0.935530623418052
-0.590704575350333
-0.337504148337798
-0.171522762125363
-0.0881900916732183
-0.0444810213075531
0.0371112428652933
0.161138734815391
0.283385683945649
0.411401878567513
0.52921610693542
0.527207305504719
0.377801090531738
0.236307163281167
0.209926573370719
0.195430145352434
0.0695002112052272
-0.129389968623713
-0.279479978564205
-0.298204010816932
-0.200319885008788
-0.135125529875081
-0.263888745216835
-0.529811945481516
-0.714297183340999
-0.752606918400473
-0.775734419174425
-0.831120339698192
-0.817512232244008
-0.712061403454786
-0.611091156453721
-0.53375128995923
-0.41269260385307
-0.26627365055407
-0.178235289387667
-0.152629390137986
-0.14712527680905
-0.159933717932461
-0.179621440351349
-0.174380286334802
-0.170914063099555
-0.20595290440163
-0.23033022467945
-0.187369284322219
-0.0904819793540078
0.0683652051951489
0.332388731349353
0.64309848772779
0.864824303500812
0.961631975867074
0.99073708404608
0.972773270726328
0.914847290582926
0.864065201769831
0.836172021724566
0.822890397640359
0.883324863613468
1.03061446997431
1.0769448811999
0.834713308080495
0.398079004127175
0.0105775394598953
-0.221492606486828
-0.312442559360699
-0.273736244060066
-0.157545227466113
-0.0521579124160006
0.0570998312561018
0.25684721480626
0.508464913882665
0.656861917581559
0.626816610322954
0.447458429465416
0.14303574632967
-0.235705871802239
-0.568873182968171
-0.801021447925389
-0.992447260713617
-1.15086990603555
-1.18376096112758
-1.05937134215753
-0.830543267504313
-0.513538440196506
-0.123444333766756
0.227484168670127
0.416441939026029
0.421946662462403
0.28837502064951
0.1041156461914
0.0149783457535426
0.102125514277399
0.2803355233092
0.437472929417964
0.555927803804214
0.596223899690567
0.459651366061506
0.172505003262095
-0.0945014341543527
-0.244345306431288
-0.30664182370493
-0.313931609534068
-0.316119371059806
-0.416187501671404
-0.615314116705547
-0.754680057322198
-0.738753651052358
-0.656669743841513
-0.609109669036414
-0.604668140671199
-0.662110748114133
-0.800294608122994
-0.909986391148422
-0.84558779326278
-0.620446888486707
-0.309170502427805
0.151756058835836
0.827716739028822
1.54072326226622
1.97617126047368
1.98078953993017
1.6539595444713
1.22490333029917
0.866809811788816
0.561609276622752
0.191433941912805
-0.219088582269953
-0.507110127396988
-0.629579234954423
-0.705329557034182
-0.797012862168948
-0.867596815959496
-0.91684326251829
-0.950746718507815
-0.884495800613725
-0.645988965300153
-0.280480893641386
0.128460142271901
0.492947252795446
0.686133184764325
0.684385687519147
0.683227568569723
0.854069285741011
1.09317475795135
1.19848847190302
1.13390047174477
0.956230986613744
0.668876809042652
0.296429885229542
-0.0613890520214419
-0.354604675630501
-0.61801118960104
-0.838626652793197
-0.938473238973499
-0.899350431376882
-0.77599955661787
-0.627493205734795
-0.531590513152472
-0.554576140714422
-0.63306195155362
-0.635288305581684
-0.558861563813458
-0.490946593571357
-0.418487487073897
-0.27791969983395
-0.115478150554802
-0.0213900870988438
-9.57131360237578e-05
-0.0133820141709258
-0.0255415355884334
0.0325653891361855
0.194389194858953
0.37084504904608
0.470176889312847
0.52052490928675
0.564864631244051
0.586313085816662
0.61464110677895
0.710796287529705
0.813943734824202
0.812608958724069
0.733530588936009
0.656480995177103
0.546702427839515
0.36651548366486
0.204334615647227
0.121579358321714
0.0372310808953788
-0.102639621242843
-0.214652442956406
-0.236471140464413
-0.226768769804083
-0.245260787688338
-0.292001040545698
-0.382975610480426
-0.5367524733843
-0.713169580462062
-0.8786767396672
-1.03874534663801
-1.13186057547172
-1.05247831299881
-0.829119175366055
-0.60896494724406
-0.46979588077665
-0.398415031987473
-0.376781671632628
-0.352461894718233
-0.240875862774234
-0.0489173951360566
0.137503190039268
0.3029304210154
0.480255674775579
0.630979116573883
0.715786352402008
0.786693915468681
0.870348206685961
0.911434928007646
0.925858408507273
1.00464520524894
1.11231043249677
1.11147860749926
0.998246276935649
0.892960809693614
0.834207847781957
0.771123293573738
0.686582967600729
0.583937130594804
0.445311364128498
0.29362995699409
0.187904095432526
0.112079569505376
-0.0151521692708286
-0.214051918053778
-0.444637198663316
-0.690231618780859
-0.913554832437105
-1.01967497542137
-0.995582880809761
-0.967387430161176
-1.01714642775974
-1.09640393395666
-1.1753205856368
-1.29298647132555
-1.43472111001283
-1.51860384745871
-1.48560256987902
-1.31186550123857
-1.02717947529798
-0.765585907974872
-0.652887377157242
-0.643989129908247
-0.617584990134067
-0.544580580703642
-0.400001484338519
-0.0733685967710164
0.438893270999815
0.928490621892092
1.22609233378831
1.38164321991756
1.50772573750279
1.636800721225
1.76372883975188
1.84918259122146
1.80178028771811
1.5942718110788
1.32427411327944
1.07251532491802
0.82050859859446
0.557322376294367
0.315087110695291
0.0715411887445989
-0.217996084329947
-0.491771447262508
-0.659307939289213
-0.771329572722151
-0.920118668819528
-1.03875073990104
-1.00066597794205
-0.839055009839726
-0.704509962549914
-0.695866365884436
-0.81004830536908
-0.935089492685991
-0.89581797800127
-0.650166435207062
-0.372604177915124
-0.215899635730873
-0.127024763354135
-0.0068566889718012
0.132971655101478
0.26504445028154
0.413292869471762
0.57138857669144
0.703576524720168
0.812195044217451
0.895792846488137
0.930373868246968
0.958023705583297
1.04091057895456
1.11030102042819
1.05344215669006
0.912228684010873
0.791454702414634
0.663840134477857
0.466093235837352
0.260872408070947
0.127152840552897
0.0237888825432545
-0.109269443166008
-0.25029664990353
-0.374276833510024
-0.491202208189838
-0.573530696554683
-0.596055376434469
-0.643660979740586
-0.824961808887078
-1.11453804650074
-1.40500984342097
-1.61801317983071
-1.67084028103981
-1.49491517648503
-1.16485469915976
-0.846968300706942
-0.607407162592603
-0.420599116187225
-0.290013923702572
-0.204118208508268
-0.090573339952474
0.0653401607783996
0.200520310153265
0.324088910306996
0.50979355794022
0.740399743447679
0.943358505440186
1.12500963934386
1.30069961357613
1.40144430178696
1.39252538207888
1.34301643806397
1.28906708004599
1.19460782519285
1.07507668939611
0.982361243591584
0.887568828613039
0.736122093301373
0.553640272609107
0.373383965409421
0.160316683835527
-0.0985234474238107
-0.347769695645543
-0.574356490557056
-0.834496863194349
-1.12340391971549
-1.34713854193733
-1.44812309755964
-1.44987477955912
-1.4087893940837
-1.41449484512812
-1.53751816271232
-1.69680589047851
-1.72740601384919
-1.61649023564792
-1.48630577212317
-1.36492198775679
-1.18816772260924
-0.966558526705464
-0.74862663013018
-0.511534665789268
-0.235847274187048
0.0374718554963364
0.302076768524436
0.582441455619623
0.82703800784603
0.974722906768732
1.07591989467139
1.19097510043765
1.27835896778313
1.31485506411068
1.37247106139098
1.47871832590849
1.56290276941812
1.58016085010467
1.53712431396192
1.41970214209965
1.22656328854923
1.00799078005582
0.788034246273016
0.549898126174565
0.328510306496243
0.177424082753845
0.0454484306873031
-0.149470383115348
-0.351044624504081
-0.454590596132164
-0.511221531555761
-0.631904892391578
-0.762044655402376
-0.770652659319324
-0.678155251169077
-0.60840916075518
-0.616949172695113
-0.685749257867714
-0.757794048543388
-0.72981837134104
-0.552833475318956
-0.316703098355959
-0.10949415850918
0.106637890934328
0.371292045907466
0.629412822854001
0.83918824399895
1.01254556021734
1.12851288717708
1.17489333310641
1.22869123326836
1.3311194999758
1.3870808352223
1.32759550865077
1.22135167309951
1.12442645588717
0.992186049639468
0.793955516936112
0.558723879535837
0.318799814353368
0.12531514953416
0.030931021605173
-0.0291251808799486
-0.197312342370919
-0.47911069483509
-0.738449438411503
-0.933585326628803
-1.16299110194996
-1.45935834264576
-1.73237430278418
-1.91972916267114
-2.02397278351775
-2.03980982149713
-1.99250998502728
-1.95383091284949
-1.90460971875987
-1.72834444529452
-1.4134719674571
-1.08593820661076
-0.832606076591325
-0.680606779886478
-0.685158907665377
-0.833432899929961
-0.956814484752803
-0.907530027712494
-0.70967981477384
-0.44426138571916
-0.134956344414215
0.215777363718503
0.623085113786537
1.11690210940254
1.62173848109914
1.95606239357796
2.04805184033155
1.98505244412414
1.81745015474611
1.54333277519409
1.26875222342738
1.11347836735725
0.995416637104353
0.750890890234692
0.395522655146935
0.0662711529389456
-0.192881058709018
-0.431710038749131
-0.693411801727838
-1.01595783676242
-1.40909965870347
-1.77460728414439
-1.98290591478478
-2.03186272490959
-1.98991294312079
-1.85805191601036
-1.66182329615404
-1.54650044468366
-1.58367709112677
-1.63443748945975
-1.56800152285356
-1.4460081025371
-1.37229893189193
-1.31899750046344
-1.16426305511854
-0.802771854848478
-0.249933517926853
0.315248592315975
0.726541965120943
1.0503287762096
1.45757688805374
1.93338198307015
2.33695447330492
2.66423797020622
3.01577456574529
3.40000558566079
3.75625772055402
4.05055990055774
4.23583109213291
4.27650733757112
4.25437194527372
4.27599125394733
4.30671951986701
4.26417664068769
4.17453050917792
4.07836091278614
3.93116864065662
3.74754265982379
3.68052385503453
3.81969802549573
4.05501416403017
4.22648427803678
4.24929990399547
4.04484304269328
3.53495995306031
2.75210552202376
1.81735355331821
0.817139094402175
-0.220809323105966
-1.32120157826461
-2.56221118145042
-3.93456582090021
-5.23095735878338
-6.2647971099883
-7.11381899554205
-7.94894252139822
-8.75771284325572
-9.42941775605123
-9.95056243653258
-10.3432537610271
-10.5593608623638
-10.5494027685668
-10.3148836315382
-9.86678668182261
-9.23281950777175
-8.45002591826512
-7.48328615278673
-6.28487422630355
-4.96984388963849
-3.75244146200036
-2.71725200618554
-1.84196239643043
-1.15926247226448
-0.668889237881863
-0.192173450242214
0.466576255186603
1.30553684982026
2.22928796030937
3.24280536720526
4.3926182180616
5.61656911558983
6.75681321806481
7.62933621427891
8.04919925056101
7.9341915560748
7.41758958801771
6.74333030703018
6.07321626182033
5.47433894905691
4.97696379450193
4.55096551408917
4.14905806764675
3.81228178355775
3.60679267349577
3.49340021125882
3.394640471396
3.31010647440127
3.26001675401639
3.23038810743927
3.22383082839703
3.22232984122197
3.12429714901175
2.8874737455291
2.64437222955625
2.50562021122751
2.40417735678011
2.28270522897368
2.20844681319148
2.16815681657805
2.00317693874454
1.64649526208736
1.18901948272827
0.692524801655634
0.162901422691903
-0.332219501563208
-0.720632631517543
-1.02977428916856
-1.29719063136635
-1.50109720181319
-1.68632322871234
-2.00077877159728
-2.50403834546121
-3.0804774815127
-3.59314396133879
-3.98110592034481
-4.21875027857913
-4.34366185806501
-4.47781399488992
-4.6842240253594
-4.89735801029433
-5.07594104298796
-5.26250167058727
-5.4415841150766
-5.51627497851038
-5.43323655013496
-5.18637674634009
-4.76527301420371
-4.2230360380228
-3.67748453033408
-3.16105572945885
-2.61203652793134
-2.03148707894627
-1.47532212951402
-0.924662147574438
-0.339761389167979
0.238641770069569
0.785877670382782
1.35328141864794
1.93331258376093
2.44936116270547
2.92106575722676
3.41941870897078
3.85717660005933
4.03857080800942
3.88921898525941
3.48453031585657
2.94040892344615
2.38764475754548
1.92374285746347
1.50680330610888
1.03187427419526
0.531694031900524
0.128746539811623
-0.183345744517548
-0.48558952685897
-0.708117406088157
-0.706833447868882
-0.509981834946633
-0.270475947800925
-0.0634317907593211
0.0951604972343861
0.153258666738018
0.0783647578308941
-0.0956612160421904
-0.308868436862938
-0.465961134959962
-0.460639061354208
-0.321396939278959
-0.213374710970493
-0.214424008126564
-0.250898667416083
-0.290500616154783
-0.397169696157568
-0.582799663964588
-0.793190793564266
-1.00993012810237
-1.21350153828023
-1.32388495877285
-1.27312865527863
-1.01263843447254
-0.42972128171092
0.557143774195991
1.83231805709584
3.1886495897633
4.51258989869198
5.67012546938192
6.34243191088194
6.23372695942761
5.40949650096717
4.27508389007733
3.26249505848339
2.60451070040942
2.2925177042267
2.16219287334931
2.10642394375437
2.22621598645095
2.68354845436394
3.46021253197717
4.36682107745794
5.19168945338577
5.75186993054914
5.92328590670967
5.6860557882658
5.06064842229843
4.06471968375523
2.84371697020339
1.6987660042455
0.840773692073067
0.247703122419561
-0.193395721187953
-0.632698699753053
-1.375736331669
-2.78659267992977
-5.00616852911449
-7.89991432871988
-11.1812917673606
-14.4310789812904
-17.1894464922394
-19.2401537168803
-20.6754195981304
-21.5959853500955
-21.9114054752554
-21.4404318811002
-20.0378620374983
-17.6903545870905
-14.6503494116094
-11.361263849443
-8.11594506301969
-4.93198818568429
-1.83783268398948
0.95464379928938
3.29445565016198
5.30572723644857
7.22918702084389
9.17527907926028
11.0479853405179
12.5744287868765
13.4905684280516
13.8844100623439
14.2666568765908
15.1579401785186
16.7049122734725
18.7097841708418
20.7783536250627
22.3713346481007
22.9687566225487
22.3406563304064
20.6255795303214
18.1725976599012
15.3127221198214
12.1657981554688
8.66752102571517
4.89052928022747
1.22639727136772
-1.93372855521622
-4.56774913936911
-6.88759503787199
-8.99115598500082
-10.8068542233671
-12.2189285530389
-13.1342323536636
-13.5668795992938
-13.6917510916214
-13.7064041094753
-13.6864161830172
-13.6227136107211
-13.4388859812092
-12.9413237696816
-12.0023337365135
-10.8495021923976
-9.90800190251457
-9.29231005208422
-8.69540576077535
-7.78917163639392
-6.46972528782469
-4.74117951077971
-2.65954740663212
-0.38116922130658
1.94190078491061
4.20804457337695
6.15369967780234
7.3279514345318
7.49406843392949
6.89181516622887
5.99357238907854
5.17052719127279
4.60396150428333
4.28037294430322
4.00689974366132
3.5711406978147
2.93867050296492
2.29570325053822
1.93600545357966
2.0317078259035
2.41700733954238
2.70286058224898
2.68398300060802
2.46822860064101
2.18258646805489
1.82505195581203
1.42939748734212
1.05832938659202
0.612007483913409
-0.0557725089374986
-0.835178526077916
-1.42989099996484
-1.68947048485487
-1.67564491127847
-1.48993486178406
-1.21240062564747
-0.913508039736773
-0.597284803115419
-0.236185461310294
0.0920850124633861
0.267537644627835
0.331650154079613
0.424067448813236
0.54512983863559
0.599015183966235
0.621304288204832
0.758103440501827
1.04878197462125
1.33976940350851
1.38449325192818
1.04575081339004
0.470609183997938
-0.0191882130793388
-0.271227169617123
-0.392267981133954
-0.491211722392475
-0.590290965337248
-0.813993515009973
-1.37147591287977
-2.30501151786435
-3.48169439126334
-4.78211099439916
-6.0540221190489
-6.96962201429073
-7.18582046849285
-6.6305320000961
-5.54113435152546
-4.302705399692
-3.24141462852984
-2.41884047662281
-1.61833262018133
-0.606065935155827
0.677522866834363
2.21599982523806
4.00822233830835
5.97480110411769
7.96861940618579
9.95465566376537
11.9532551787928
13.7090118128728
14.6588438798903
14.3943500187844
13.0528465322308
11.2084648603811
9.44563726504444
7.96488042040036
6.52449910223542
4.85747960207759
3.11928436864275
1.73099566264948
0.83157997721305
0.109292357764
-0.894978469386077
-2.4908095569009
-4.66957235204737
-7.01538317788672
-8.9323701118714
-10.1302149081768
-10.7874141833603
-11.2169598101158
-11.5359990998311
-11.6430221692157
-11.3707217333878
-10.7245044037221
-10.0266447086559
-9.63027759273755
-9.45348773532805
-9.06275465606955
-8.22878746463351
-7.0991897708507
-5.84720956856687
-4.48882392588494
-3.05788140671019
-1.68966519930204
-0.524341108522101
0.307200595249271
0.688227758517974
0.667431651456967
0.508307554248735
0.481466374949208
0.719759446462626
1.28192849340525
2.1357673635881
3.041144287435
3.65116220027312
3.78537144599649
3.5561137815505
3.31524056356544
3.48582343182552
4.24996254363311
5.34162378218835
6.25874018386064
6.6319282705201
6.30852730852358
5.28476666306027
3.7609856150639
2.13337771862449
0.781357068806699
-0.0792286556843174
-0.38151727604633
-0.225475903271784
0.161145158308861
0.664666793397745
1.38913260750342
2.39562093373536
3.52022204300363
4.53883132835276
5.27583255308247
5.50395274001057
5.02289320340795
3.90656074789411
2.47329267937176
1.02947318878656
-0.199297070800682
-1.01237715774589
-1.34329991830017
-1.35831000699456
-1.28751539332212
-1.23508223114443
-1.2288681338573
-1.29333386367542
-1.38372506814435
-1.39405221753516
-1.2801860327295
-1.07923379744754
-0.854507657792369
-0.690333906268349
-0.604922571258321
-0.413879877888237
0.140822973239058
1.10134986468013
2.30868423012229
3.66077086110421
5.15650868852773
6.72382596751093
8.13866385673667
9.0706564602604
9.22993712522692
8.65123346920941
7.79666295734887
7.14910557892115
6.73148171049973
6.17843647280255
5.1454027305043
3.51121125969481
1.39706354756308
-0.856536983817693
-2.91242091753381
-4.70828901969895
-6.35643255193193
-7.84732427946636
-9.07863521489582
-10.0936887861413
-11.0500196783151
-11.9787372920314
-12.7239816000349
-13.1026770144557
-13.0960132515553
-12.9471110805381
-12.9750453468544
-13.1146731069285
-12.8109193383698
-11.6870159184883
-10.155297704969
-8.98221263915511
-8.38188212453745
-7.91036689296813
-7.14918476522035
-6.19293803517531
-5.52823961422168
-5.59038617241275
-6.3751968768425
-7.45218142499324
-8.38878807525585
-9.02985681986788
-9.30325073395597
-8.9971311534199
-7.86342177082982
-5.74338339450159
-2.53724604967271
1.71648161810189
6.68512054076765
11.828188096321
16.6019538297751
20.4998615793395
23.116198176205
24.3878296481521
24.6956012511298
24.6646387522465
24.8762283250219
25.5400247163394
26.2057973879499
25.9965858237568
24.4183061038495
21.8430448959188
19.0633954395944
16.5846480630656
14.4741395709998
12.5748743393514
10.5841343097643
8.10428544583342
4.88079050418326
1.01804911209516
-3.01493817505238
-6.56493705382302
-9.20088303633707
-11.1342689733854
-13.0636393759833
-15.4413627538
-18.0342679280679
-20.226962003478
-21.5165798141374
-21.7013150123239
-20.8602666734903
-19.2399067831477
-17.0661859159738
-14.4950642156509
-11.7587685069602
-9.19647824086345
-7.07174376621378
-5.44711175908624
-4.19681946096066
-3.07626994342014
-1.94988599654185
-1.04446085716697
-0.751700594799692
-1.11711038768596
-1.80098174196934
-2.54994874083387
-3.34856234363474
-4.08175210895974
-4.41866056360794
-4.12572549808708
-3.2768286818823
-2.15453656794485
-1.10639930845154
-0.390882456877784
0.0551265078307521
0.625579762730766
1.65940730786001
3.12033960972791
4.72293200846096
6.20280183972943
7.39248554166416
8.21578538783017
8.70456559718078
8.964062711443
9.13006395364208
9.33310064497886
9.56326352521247
9.5879005435821
9.1654863636278
8.32026662386925
7.32067486073047
6.50825160203833
6.19192776002001
6.46343339027654
6.99805658697465
7.21132571986449
6.63904243294713
5.05039443864497
2.41330847787553
-0.911741158122601
-4.09874764319792
-6.34709171076812
-7.43411488242002
-7.64981864709947
-7.34253514934499
-6.65771239852933
-5.59388719443554
-4.24551172049555
-3.01161222722844
-2.4091872485964
-2.56723021106207
-3.11666104936428
-3.71982929798636
-4.44539299735143
-5.43876234083803
-6.51316393386578
-7.33734462714785
-7.85051023489202
-8.27562600877589
-8.81161017404495
-9.38953785589149
-9.65283195349483
-9.21078397625491
-7.98382136992139
-6.19124790200517
-3.9831152699657
-1.3117663005355
1.78419631017838
4.99376332289542
7.88156456198089
10.0972014355777
11.4976242893051
12.1641466145547
12.2177968901429
11.6593459571607
10.6064703570283
9.54828297036614
8.91884253162251
8.40933400003654
7.1301731745818
4.56933494243071
1.17224782348467
-1.98358888436491
-3.88668823840836
-4.1075861941351
-2.93829196820419
-1.10574000930713
0.711227422613416
2.13600686841322
3.01933542853802
3.2966270473496
2.95984062349624
2.12615056776838
1.10445517651363
0.304451910177193
-0.0277172454231407
0.072012729451753
0.529130574094704
1.44505199415831
2.86100156229091
4.4330755252919
5.57185050094691
5.81709414721831
4.96035530908547
3.02400079708613
0.295292931623764
-2.79083375355603
-5.90092224425106
-8.82482758062133
-11.3683375758044
-13.4846622497595
-15.3864787583893
-17.2035617915967
-18.5875832863966
-18.9437151118824
-18.0825006279617
-16.4899431044311
-14.8765212061398
-13.4185142963291
-11.4840804253161
-8.29866627454305
-3.90878802034134
0.738757153516903
4.6298832132038
7.24885215902392
8.4202807913641
8.18290025738002
7.0228581072121
5.87514334323825
5.65480740227097
6.78104335337981
9.00891514449747
11.5812721059083
13.7199046417199
15.1619449393907
16.1437372964225
16.8704150784568
17.2436546971511
17.0785909157637
16.2257579599706
14.48245636457
11.8055193927847
8.66676109785588
5.81531405457702
3.5849252034582
1.66250205692016
-0.436080684091053
-2.82137736311374
-5.16246764781761
-7.06211166421962
-8.4210924893816
-9.36137042266673
-9.8958009769878
-9.94936842228959
-9.6878392214723
-9.45727032553025
-9.3112644554132
-8.907502843625
-7.94532970561222
-6.47080373818597
-4.75751202499212
-3.07819462800274
-1.5384385370434
-0.0463269609219659
1.41971543899203
2.54012409092141
2.91004033515773
2.51874594694856
1.68175194982968
0.581971970512552
-0.78790871273067
-2.29751236369928
-3.64217790284588
-4.65013351618662
-5.38654587098507
-5.93613851996051
-6.22704906769936
-6.05876243161804
-5.25652848923008
-3.8751054659753
-2.24928291477095
-0.742366572551404
0.519351955246794
1.62228015523676
2.72264505389267
3.93186334166044
5.10569940515154
5.79162520389961
5.72136026371219
5.29932619709522
5.21344622053483
5.60455672878701
5.99499838235215
5.99009909397518
5.70017715355335
5.47287728738678
5.4481816189425
5.40304953041742
4.96970158312213
4.00892468598918
2.66008201083223
0.956503488967846
-1.34538119449663
-4.32375504225325
-7.45525593795673
-9.81646305337633
-10.6554832333203
-9.80448450070648
-7.73632105138311
-5.18858357625756
-2.57117360401092
0.149280736416173
2.86677495824858
4.93605195609147
5.65139034467786
4.91553669180382
3.15891203068436
0.824328008098803
-1.75659271151733
-4.16615989885419
-5.94148298451109
-6.86039677351896
-7.10209189062712
-7.09278469194881
-7.09229925075297
-6.87812785618703
-5.96599568051226
-4.17840244082232
-1.84632381203544
0.529734174053844
2.62182267678337
4.29184325308863
5.43929768034366
5.8794967658255
5.42531351155637
4.22116684491181
2.90122852695836
2.16381881550934
2.22239917064994
2.83683069369694
3.70350640315733
4.58505047432856
5.26236800410619
5.63057678520199
5.74834498602888
5.70205152630821
5.58084322694737
5.58073295135872
5.87032110237305
6.28878552286329
6.37154854823711
5.76970783880736
4.60624968989033
3.42317900399096
2.74379993988408
2.56455735796147
2.29150611082282
1.33420150205607
-0.263141786316616
-1.93549774134363
-3.21228093105744
-3.97128286517367
-4.25730726779309
-4.23026041407503
-4.22519177813655
-4.51679352951078
-5.00359763608446
-5.32940916384695
-5.33279212978822
-5.28111202521694
-5.64473218219263
-6.63986695438506
-8.0166548716912
-9.35323109337159
-10.4526657755796
-11.2735276652785
-11.6317667933804
-11.3046269573191
-10.3231292335063
-8.80553458400755
-6.60209297150351
-3.45787110994819
0.547600714318741
4.96423821305866
9.2142247586512
12.682829887897
14.8072729645529
15.3202226025034
14.3181830355153
12.0622911935831
8.90705196529419
5.43923692471465
2.44539328941759
0.610399787775407
0.234409028443373
1.08830845448572
2.40997064426026
3.21041485337342
2.80767888413359
1.08975703742196
-1.62924617368833
-4.76770825961996
-7.59896791857833
-9.60802990829337
-10.8085261972991
-11.5342451909784
-11.9518158951763
-11.869422904307
-10.900421366416
-8.76534947569626
-5.58867753759433
-1.90672628757684
1.73691248786094
5.10154010700464
8.04766342927372
10.2965990666456
11.6866291422334
12.5096471717658
13.2706467676146
14.0735379858173
14.3913259344636
13.5705784035751
11.6047581553104
9.23834524618152
7.09673992247599
4.90432130051745
1.90920216933029
-2.08016422929679
-6.4423763094485
-10.3009591131317
-12.9092403680059
-13.7373017512646
-12.7872813892742
-10.8639664505226
-9.13027574478088
-8.26807324363316
-8.1559942667897
-8.19344416193975
-7.73570390732622
-6.3984254575487
-4.23922781124734
-1.70361915437728
0.619558708784222
2.21359307580514
2.82294025199495
2.62019723058711
2.09590683548301
1.71469547429948
1.79618905676996
2.6374781872379
4.42491415230968
6.98854437074482
9.86192050781314
12.5558907696618
14.6282462902592
15.641177857397
15.262857203524
13.3470461139095
9.89416988813208
5.15468411608207
-0.176612389488596
-5.10445329263012
-8.82246179390247
-11.083006914537
-12.1651898673387
-12.4927702750527
-12.1920688203895
-11.0752605386345
-9.12885451770385
-6.79125594948373
-4.52068297747653
-2.28734158469988
0.235463876712348
3.12026940858521
6.06215613163198
8.66914116666831
10.6639255693178
11.926510017752
12.5180528281309
12.5513980980766
11.936077321405
10.4065841949596
7.90261662231788
4.81480057604243
1.79354349572679
-0.680132510287099
-2.60973946110124
-4.40663782475261
-6.44311491531738
-8.7168097070584
-10.9918035212088
-13.0929047633512
-14.9263339406589
-16.3709497535283
-17.2737353903118
-17.4417104867058
-16.6588832682045
-14.8990813058166
-12.4370655258717
-9.55149933571309
-6.33268339282734
-3.04135655599598
-0.316147567654097
1.40590167172778
2.4512158202072
3.51695259374345
4.88451184969923
6.28655738090503
7.36251403407686
7.99939550967831
8.33782607467495
8.59361211186035
8.79029198625713
8.62115309891842
7.71263230808899
6.09121986217574
4.31321371785195
3.11037766842464
2.90196794644076
3.52196987140326
4.3240949993636
4.60600391511334
3.98095494288937
2.42759823283574
0.23116930510225
-2.0605300169823
-3.9559775007566
-5.46403738854801
-6.93860138931616
-8.354257242673
-9.03764017998635
-8.28523806076032
-6.0832965111638
-3.15425762071279
-0.382467322453791
1.84366699225771
3.77656626435276
5.77303517512274
7.76542496646962
9.46119423082902
10.8178834810683
11.9319043847503
12.644474967892
12.6952446125409
12.1576127866414
11.3372590144233
10.3080472762754
8.88325264291967
7.05223290091724
5.16852384292851
3.55007178561489
1.98457712040607
-0.17240791116203
-3.31305742380961
-7.09173806886334
-10.7221946008472
-13.6099147678866
-15.497308373604
-16.17585941695
-15.4449937587731
-13.3296936621485
-10.026237013536
-5.7105675861941
-0.723343513089905
4.16886053893072
8.06550089030254
10.4958073941677
11.5268646966218
11.3758457265252
10.0062939358026
7.09719051083826
2.55273708230407
-2.84229585368243
-7.56443234486244
-10.4562421222401
-11.5484890514984
-11.6726823285878
-11.6057469847559
-11.7733612590243
-12.3524215171884
-13.2616086358677
-14.1685050218354
-14.7005042862897
-14.6411548349457
-13.9424273031873
-12.5677775555181
-10.2386143125882
-6.44159857477211
-1.03200213521351
5.08284258096307
10.1554295185897
12.7187695740837
12.5359138891145
10.5878445922194
8.33044103664793
6.86720129301304
6.49548443987767
6.80080203360042
7.10720296211964
6.8874509513389
6.00912023164713
4.84605368279343
4.01464716452082
3.75246638025444
3.70322991058333
3.51578098403268
3.42134238007242
3.99283272193563
5.56620868832049
8.09251431808051
11.3227230964212
14.9289832185489
18.5358923221848
21.6794562218686
23.7051577296977
23.9084753030805
22.0221709904643
18.5147919605531
14.2860056804163
10.0736531104211
6.02710694153733
1.63499796008693
-3.82610714620942
-10.4931289602792
-17.5825499574955
-23.9837420400743
-29.0793452086078
-32.9086746519719
-35.7179838834047
-37.4893412094323
-37.8528502650786
-36.4572281957848
-33.4370599249205
-29.3461009021968
-24.5669191353756
-19.0840144979263
-13.0024243874447
-6.90352879209504
-1.35693652081971
3.6045626037244
8.15074032382268
12.0430107997466
14.7691013822949
16.2383112010296
17.0509455171081
17.939680086184
18.9841213548784
19.5337190182314
19.0000529460522
17.534051446127
15.7500500711219
14.0699291030858
12.6720597221379
11.8250221028131
11.8046082770044
12.5000777261748
13.3262508377179
13.4599264220324
12.1466402343391
9.12077586999172
4.97120276752734
0.93478681239028
-1.88180478971334
-3.15856685695364
-3.38013380910154
-3.32073731124349
-3.48375066984553
-4.00588300731942
-5.0047069312268
-6.67261530425935
-8.79508348027484
-10.4948648701599
-10.9031922259851
-10.0079382458045
-8.52912129467864
-7.10135122230166
-5.9364655456733
-5.1389169709509
-4.86255285473675
-5.05890604090191
-5.33980605777488
-5.19494904894499
-4.29870047256582
-2.68216564043518
-0.719506714398334
1.05312356450794
2.17702948880543
2.47377017219609
2.15665367202948
1.70473169797871
1.48213341440441
1.44635293409116
1.19932204559344
0.199642202720857
-2.00350100170372
-5.41936328937315
-9.36396479637563
-12.7058204029516
-14.3992049031291
-13.8021045825605
-10.8702907018408
-6.38135079533323
-1.6378342605754
2.51117071465328
6.20455978341099
9.90695464766028
13.5724944045378
16.7639558171541
19.1697545293456
20.5027078766565
20.1097001675232
17.231327670204
11.7949816731003
4.76899755270361
-2.34803315723447
-8.35809585766123
-12.7442151000704
-15.379267163431
-16.076170772213
-14.6382991303661
-11.3277298076988
-7.03930563026976
-2.90368564476608
0.263298412247335
2.25565138532509
3.31544102254625
3.50510541154357
2.28104088342647
-0.869863480305423
-5.26960784658337
-9.01428780413675
-10.3618961856089
-8.90629095614631
-5.34553730129777
-0.510076497633897
5.13536588129208
11.191475359078
16.7868530506256
20.6253221006748
21.8621093889032
20.9431057679931
19.353719667122
18.4474780357203
18.4483750406423
18.3233790228308
16.5285423043191
12.1925768682603
5.82428671817841
-1.13869177852391
-7.33291727134861
-11.8768199192131
-14.210234919936
-14.2207070575199
-12.5800661936668
-10.4422834662205
-8.63844640250311
-7.46585938966419
-7.27451486420876
-8.78106664656267
-12.433811020596
-17.4810568108519
-21.8710972421472
-23.4026684551615
-21.3093216041228
-16.7427669785554
-11.514883508056
-6.35285821606822
-0.52165409464629
6.82134820331754
14.9785492065661
21.5290445933896
23.9837277240259
21.7147809554484
16.1784658648536
9.43070253183658
2.89093481624501
-2.51414598027396
-5.84831208493921
-6.45171548028861
-4.57213181152959
-1.40800028763346
1.47623512951019
2.8534623554028
2.23637199551156
-0.227905813600709
-4.08616181071643
-8.5720615614547
-12.4269476215964
-14.2980802878004
-13.6092884600141
-10.8769456639137
-7.12739671534826
-3.20271428606859
0.398892458060879
3.31618799900622
5.17066926118411
5.70789699301174
5.19578080254262
4.52100219568241
4.42417686091168
4.53661837359346
3.6514314824433
1.20159056006796
-1.85520495234339
-3.7978429001359
-3.53598170369617
-1.23974229322464
1.98573316038611
4.78736998887685
6.12341326916877
5.5322608680711
3.18799533914968
-0.18494021243957
-3.60328534580073
-6.21604716835191
-7.48776467238295
-7.22456802273667
-5.74361046738156
-3.93852581631775
-2.7694725645795
-2.57306134070688
-2.99414094771463
-3.40261840690603
-3.10150440777436
-1.35990860071733
2.29650734229722
7.7287167954609
14.2068356482777
20.725267430069
26.2867076565172
30.0746981981541
31.5220955224372
30.3169820394928
26.5495482677798
20.9836368589165
14.9513967191
9.63938006647138
5.43062292983023
2.00506139837658
-1.08747797031728
-4.11093047503103
-7.22788598969192
-10.652076032162
-14.6101734235026
-19.063575546964
-23.4583289047181
-26.9298071751456
-28.8216274797312
-28.8472412032743
-26.8349708725468
-22.7495688203304
-17.1222918005778
-11.1564092934779
-6.17223138329064
-2.94713890823407
-1.51563415160164
-1.43663878349609
-2.16515315712356
-3.10134132605102
-3.35157031772844
-1.89157468436724
1.62511252144813
6.40979146503839
11.1980759710004
15.1503952846788
17.9053039741761
19.2122536994855
18.9975848586221
17.6064679085927
15.6729417047084
13.862072683573
12.7619198691152
12.6221447768412
12.9622024584933
12.717045713102
11.0280108215907
7.84206082599157
3.81145019448925
-0.129524424811429
-3.16895130820231
-5.02569596065504
-6.15036428765482
-7.40867206790198
-9.45042626137278
-12.2496533165577
-15.0823255508889
-17.0127542379786
-17.6933169005478
-17.8317373698095
-18.7494321071622
-21.2763488149233
-24.9090721102475
-27.9889461931136
-28.8198941641348
-26.798575828994
-22.5943904812544
-17.4141474589857
-12.2641621174404
-7.77091311382188
-4.3111796645345
-2.14675765730922
-1.48945682413639
-2.28932461299023
-3.79617994366454
-4.63295519018925
-3.74845626325046
-1.28908953007852
1.6988909195886
4.37782246096744
6.77611689241698
9.43413951546525
12.6070116330202
15.913393008467
18.7254147839408
20.7494174387381
22.0986143620034
22.936925707656
23.347603858479
23.542605235663
23.8598207941391
24.4156302796695
24.9575700575794
25.1298508386943
24.7432565645864
23.8022776280141
22.4139890421371
20.6973647851622
18.8282422168938
17.2569950123773
16.6724897268827
17.4286964904862
19.0805720752891
20.6681581610718
21.2485277358091
20.0781119664163
16.8572993250995
12.1880302587686
7.27442670888019
2.68653744956418
-2.18017655769842
-7.99714254087701
-14.271302042194
-19.7520246915319
-23.906035070346
-27.5360954907544
-31.8125277257556
-36.8726407123056
-41.5994713425601
-44.8194271188032
-46.4634344700545
-47.3280682590139
-47.8848669690874
-47.6140364694696
-45.3811336948782
-40.2006725667695
-31.8157093010581
-20.9711854612673
-9.23714286774815
1.57392893277862
9.93957135221787
14.9848851612002
16.9849484454792
17.6130610600122
18.9908150103713
21.9674068751292
25.4265891081462
27.291564038632
25.9680277857591
21.0678358715428
13.5115198623422
5.27380734183045
-1.43869311291595
-5.41243508749007
-7.13278879565006
-8.26169624590755
-10.2995972487123
-13.5853592254626
-17.307778359281
-20.1616727362614
-21.0150472511489
-19.4409394564221
-15.9711205322215
-11.5880940223104
-6.66314457820273
-0.620623250693832
7.0594739145412
15.6689484548622
23.2581734286291
27.6343342453473
27.5048727434888
23.2979755226934
17.2186835325307
12.0329599199049
9.20349685763219
8.18390029246575
7.6408774643583
7.05856379408625
6.88450932235844
7.49204926426468
8.59785056480931
9.69639056799709
10.5413397183741
10.9342289649516
10.4151033342703
8.65087033055656
6.02780027804828
3.41642808133024
1.41143748676698
0.228912535193422
0.15069490095818
1.33084198951764
3.06614884500973
3.92789356475865
2.97640110402935
0.62888684118301
-1.7522169422709
-2.95822057278689
-2.68952250629864
-1.46492867948957
0.110645993476443
1.90309729007826
4.01405053755126
6.22873508691534
7.98336691667356
8.74830399518943
8.25053711882708
6.58802658729984
4.43367585943088
2.91423592582415
2.87354522379692
4.09892380888428
5.2899681600397
4.8724175175205
2.05062569054032
-2.77629079079162
-8.63867549358107
-14.942375153083
-21.5646505316153
-28.1046743887301
-33.5271206571102
-36.7667922592058
-37.4371208697293
-35.8947913102751
-32.9283775030714
-29.3911683393734
-25.7141748900807
-21.5880291997988
-16.3259505921087
-9.71356668514628
-2.56189840000601
3.54297028738751
7.19261333872013
8.14759591934994
7.49907379664977
6.88140306737528
7.60787900863195
10.327947458846
14.870583913382
20.0920540860129
24.1841942173222
25.4829572689546
23.1923191956115
17.7787817287212
11.002445982359
5.14591973488947
1.55959913859414
-0.102686852214116
-1.0802016886821
-2.18131028868939
-3.36166770972494
-4.17946154022872
-4.30969094238041
-3.7697222913905
-2.85732724861708
-1.85768430457088
-0.915238783531395
-0.377473897124387
-1.01130600729764
-3.36157346330239
-6.86621909484302
-10.0049052968403
-11.435103537949
-10.8323008162685
-8.74618367754247
-5.94936985792615
-2.95903419146074
0.0536764320060599
3.13496189143857
6.4073045422965
9.91443051729268
13.4850809372962
16.9170377442601
20.4167252588177
24.4952426113151
29.0377353523314
32.6910346081656
33.6134116860585
30.8944339566235
25.2532323815939
18.6660012355332
13.3777232545332
10.7061731073851
10.2291681179869
10.0911713497842
8.33676069781033
4.19964113869158
-1.62073028002492
-7.79425878264384
-13.552059431272
-19.0844787957991
-24.6977314433045
-29.7973263067593
-33.1266578061736
-34.0206037776023
-32.9721297912893
-30.7652769378252
-27.4353603909125
-22.4845376296395
-16.0269164049871
-9.3547591106865
-4.15980000136566
-1.22857988878623
-0.038489921532813
0.422414972302211
0.781116842672411
1.28954103242426
2.09841296165187
2.96806665397847
3.01320019434822
1.35666708583412
-1.93256338647446
-5.84098403018564
-9.29344963345093
-11.8548689631179
-13.6597544954282
-14.8173878948304
-14.9104405005754
-13.139686173539
-9.05820180938819
-3.13747344982845
3.39054754397443
9.18456474313573
13.4720882845162
16.4204121027503
18.8317285066643
21.2428256489523
23.3697549457761
24.5886559076166
24.8078097858237
24.6311240189963
24.6828767680425
24.8940671054615
24.5005379073278
22.7440129300038
19.4835367240075
15.0067110099752
9.44283806293682
2.81758365047724
-4.26834668593917
-10.5718673072713
-15.193343714064
-18.3655349507446
-20.9902098104986
-23.5893410529443
-25.8859665966844
-27.2108259823685
-27.1191235076288
-25.6331936566243
-22.9758517871474
-19.2804821105885
-14.8017876624152
-10.1860268082996
-5.98796640577726
-1.91557148505467
2.9285249843131
8.96174972147454
15.601816789217
21.6558843678674
25.7533552680477
26.6869283024492
24.1670945432027
19.40084115784
14.3567977781515
10.1797027634982
6.559804747896
2.75143597246487
-1.0686864419266
-3.68599143414607
-3.97727251948005
-1.92092130206088
1.49130141851903
5.04975378868818
7.89573535392857
9.55030579945424
9.7132086696163
8.16504245219576
4.90193431397148
0.386096945505249
-4.47868331300684
-8.84572660305587
-12.372617852681
-14.9968293324052
-16.4492147760451
-16.4218596410896
-15.2259313146281
-13.8956626358756
-13.5263045609537
-14.6400699999968
-17.02174708063
-19.8337475991567
-21.9426275184
-22.4593609336109
-21.1618104139767
-18.5394028224038
-15.5749867057905
-13.3111955149199
-12.1753047969054
-11.4917239854066
-9.73777167334547
-5.42244092839978
1.98766663189877
11.5168406508503
20.9012746425573
27.8218535430501
31.3995266703874
32.5315267652421
32.6886790847417
32.4414014163947
31.1661980149855
28.0336334377577
23.1032796634629
17.3998719605221
12.0548454584334
7.58863908644633
4.01012156209684
1.24080073092288
-0.867928169472026
-2.7422869955875
-4.88609363161929
-7.35714170632086
-9.55253646647951
-10.5072973142171
-9.45607680736173
-6.42788317356158
-2.51404773597815
0.65425312981725
2.0281349455465
1.89170823737032
1.53531600321199
2.15565745482812
3.90298867840392
5.83023534499498
6.81041940574423
6.66064940202185
6.4029342250581
7.31429631900665
9.63481034918201
12.242246756593
13.6574210210819
13.2774641916983
11.446672248512
8.48903409275212
4.26962889438513
-1.04771727738311
-6.42423176092933
-10.7349855837379
-13.8674976211425
-16.5711506306181
-19.4909143354048
-22.829886633692
-26.7076786431804
-31.2044285705679
-35.9051966330296
-39.7075088266739
-41.2733502297941
-39.7310436890409
-35.0833691378531
-28.0298783777307
-19.3461574257382
-9.50423117544127
0.897667200623588
10.3819210072462
16.7004251576733
18.2287737440045
15.5442205195572
11.4241266633105
8.78007635685261
8.43540792773243
9.19434708653803
9.91569593389483
10.7814643978077
12.4371791254373
14.7739033624981
17.0200615319646
18.4260027287518
18.4490611403905
16.793376565303
13.7048836150818
9.91126923612894
5.99225009591114
2.04764388248838
-1.86194058539035
-5.20714736071271
-7.16840645320152
-7.30928452184564
-5.95824838109656
-3.84900181154908
-1.43567635101786
1.31499130252592
4.52556478379294
8.06816438647622
11.6809325380162
15.161845102933
18.2500270351488
20.4146548369372
20.9500448341487
19.361340273023
15.664585977713
10.2840472957023
3.69517723738156
-3.55856242122314
-10.2551267903772
-14.2894288942043
-13.9168683054522
-9.53020412270747
-3.79533982623912
0.348671021937586
1.84413435923349
1.79754480014204
1.9606817586266
3.11955586566423
4.79590220132204
6.03297481595717
6.03677166654958
4.25991536684262
0.61614607009677
-4.08945202375451
-8.45548407481272
-11.5680014266527
-13.5202800107839
-14.7996986368391
-15.6808146761533
-16.413323971743
-17.4959288610952
-19.405970413693
-22.2277787792406
-25.6294310524762
-29.0211778373814
-31.7488800893385
-33.3634947840904
-33.7836516656514
-33.1111937915993
-31.2320593792777
-27.5907485558169
-21.3898513898869
-12.1189368419854
-0.0063137270528226
13.9507747968338
28.24721997734
41.0962066827757
50.7362681560279
56.0638932295306
57.1252972360319
54.8307607376003
50.3346081255188
44.9629657078574
40.3590422062503
37.8508844948288
37.3040091645876
36.8184958789679
33.8463159538646
26.8923826294676
16.4937406065265
4.72599793750564
-6.32941758898942
-15.764495363508
-23.7762617460858
-30.9150627484963
-37.5750197562455
-43.7701820804257
-48.9946634936767
-52.4758661517563
-53.8082464358654
-53.1717321163818
-50.7959618927814
-46.4695415685738
-39.8204069234264
-30.9606659805215
-20.5817761489558
-9.33306323158305
2.6094895584105
14.9112682138376
26.0057868873508
33.3147921163585
35.2012515873396
32.6607582312955
28.6603696621122
25.7727145332791
24.6755331988094
24.686980005776
25.0192214934618
25.159596030582
24.456373786854
22.0306055701378
17.4614147454677
11.3990362438199
5.08711222723018
-0.809101010009688
-6.5433285022689
-12.3658390361723
-17.7721540981467
-22.026390713137
-25.0633874744431
-27.4096668748162
-29.3267311868669
-30.3664169436043
-29.7927785644929
-27.3294640315398
-23.5260831802733
-19.3931543113997
-15.5111068783551
-11.3648030108425
-5.62072588588782
2.67944910248096
12.857675599788
22.4362391270689
28.6258964039471
30.4494154372987
29.423668056173
27.9826273400088
27.3547099356731
27.1338585724462
26.5595001457152
25.60013260223
24.6698583467637
23.7475864439367
22.2038547370434
19.512659868648
15.8859051160195
11.9700351876134
7.94303042268471
3.23116206923164
-2.68081441960905
-9.38087383456477
-15.7290094492271
-20.8422875926314
-24.7422464891579
-28.1249296897542
-31.6398667590619
-35.3883145979859
-38.9595685822452
-41.6465809468577
-42.4515556870442
-40.2469961326688
-34.5638817352797
-26.383910805449
-17.8361125512373
-10.8885398379431
-6.22200298018698
-3.06752475489778
0.0835749446810433
4.39880653834127
10.0137950188273
16.2668000307136
22.3696821899096
27.6400653239862
31.4115451200278
33.2502096420121
33.2144986766035
31.545545925264
28.2056695840834
23.0856526937333
16.6088298566314
9.79268666914168
3.66513092835667
-1.22746899408035
-4.81972553728565
-7.28798204288361
-8.87478266183933
-9.83243048032993
-10.4211219829776
-10.8852077694689
-11.4118087334736
-12.0947940744734
-12.8022365181417
-13.0163716449973
-12.0789858352692
-9.86006418816864
-6.99653279967022
-4.20830403447324
-1.55041933523653
1.40883351029818
4.8067005537428
8.10490500962154
10.4877037678387
11.673491503769
12.4308618114458
14.1151283355844
17.4020117059948
21.5270291535116
24.9385686979178
26.509764591119
25.8948075459698
23.0428580239568
17.9935135166521
11.3371004252596
4.47480018478845
-1.10997334460907
-5.01904123670263
-8.11444824786331
-11.2679892661499
-14.1708330159271
-15.8209603750202
-16.0726375209437
-16.1101898074403
-17.2346520790049
-19.6455675128891
-22.5944765156687
-25.2838186148808
-27.3152350036544
-28.4667054206224
-28.231492425815
-25.6852343151938
-20.156193985249
-12.2844090577074
-4.19750908145692
1.64439693454574
3.88475564654884
2.91908561742283
0.635823562821087
-0.498086513976138
1.34257656288825
6.47786871427725
13.7338786237229
21.1967851490127
27.1774544007642
30.7614907720159
31.5414198761114
29.0237908595656
22.782581326084
13.3305535666878
2.369556186859
-8.07771155308381
-16.5114733828267
-22.0326145461805
-24.3400520530378
-24.0651711272469
-22.7103651723871
-21.7932844418977
-21.9541140697924
-22.7484869317975
-22.9552589242749
-20.9941085718494
-15.4734633663296
-5.98155583419741
6.23904770439752
18.4841811594302
27.992297732197
33.6912515306566
36.6551070385623
38.7204658802474
40.72113262062
42.0947434719346
41.8418688838625
39.5446576485367
35.6619671253248
31.1795927336737
26.9270885327397
22.9817265286992
18.5878162131441
12.5882008549275
4.05308110623124
-7.07666103287448
-19.6033666031133
-31.4511375485879
-40.7673109933685
-46.7918332674719
-49.6926736309124
-49.7037454737429
-46.6114269301678
-40.2236472033549
-31.3377976878693
-21.9719236118198
-14.3297463486985
-9.51590919183786
-7.25003400043702
-6.47285692775173
-5.97565085566893
-4.77215156863044
-2.36687537437915
1.12458568068427
5.03433437663338
8.30245063943185
9.87131660206181
9.32829542221749
7.24607988534333
4.78303069131961
2.9834343972472
2.4466632803266
3.34469661851568
5.46368864381189
8.27090328131602
10.9956914129606
12.6070862458688
12.0738295862437
9.26697016510512
5.59182846560509
3.13152613645379
2.98603433242093
4.71213568704818
7.25069318494188
10.0017934987982
13.0702206843942
16.7037995565253
20.3240906545849
22.0750181605488
19.9097729183049
13.5484462516527
5.0599330962847
-2.80621244325856
-8.67185413139608
-12.82787406514
-15.9116827441019
-17.7436786394098
-17.5022120695985
-14.7704089761621
-10.1770713599074
-5.03750908467231
-0.530874702863278
2.79242367670129
4.88114263218056
5.6186927066118
4.41086904353241
0.649967197461893
-5.10661325807421
-10.7059108718177
-13.7617376902703
-13.5844589314002
-11.4475890236164
-9.0186460521443
-7.03534796749647
-5.52094625779373
-4.55599092800059
-4.33094873800516
-4.71779308610193
-5.23499592003358
-5.41637865614423
-4.89753927186855
-3.0677197414088
0.926387312859938
7.26679514542284
14.5136519478862
20.0400851246398
21.7774637596893
19.629893597481
15.3525361763497
11.1742820116371
8.25516873071144
6.15737566866774
3.88425188150274
1.42756402618291
-0.0967223326520334
0.120842115046868
1.613205762922
3.34488171048867
4.88174978589444
6.51096576009698
8.46811863161284
10.26029904902
10.6489859868225
8.40326769407668
3.42473188809191
-2.8240819516124
-8.31804805854835
-12.0701158504652
-14.6736071366466
-17.2663735865396
-20.099615475027
-22.2118635786382
-22.5046962970716
-21.0046189230376
-18.7680302372011
-16.4678224922224
-13.5333520447559
-9.10225760097026
-3.56827039612799
1.2854066947526
3.73280795114783
3.55603094283849
2.12891020932238
1.11631827430987
1.01938865100368
0.99282738065944
0.0286297023550145
-1.91222771962149
-3.92473874627639
-4.90990178227515
-4.1694425797042
-1.68543652919075
1.84480085839705
5.36410197018423
7.98802478368896
9.19646999199152
8.72076920277518
6.58640509102049
3.33153030611924
0.049299224784396
-1.89198402421704
-1.39391486375
1.77964102731181
6.86729941345608
12.6609276663915
18.1034896177197
22.2640615968732
24.1364636789662
23.1092291310751
19.780453577539
15.8806848301038
12.9737030992355
11.1935613404189
9.45274535158359
6.91747908945285
3.94763490698188
1.36586916975917
-0.753603285034969
-2.96563515264192
-5.32567482431182
-7.08823856826516
-7.65670201230052
-7.34039952777725
-6.91578333302105
-6.65010498041779
-6.0165735405525
-4.49504458985126
-2.60390105841396
-1.83444214154467
-3.2959503971234
-6.55856240684993
-10.0287671097456
-12.2747816502797
-12.812234248965
-11.9134564523096
-10.0424796638813
-7.48805313895873
-4.46201146095826
-1.54246103457157
0.213640882071579
-0.0647095160699421
-2.2634479585061
-5.29519323848452
-7.89775710955938
-9.47477624907334
-10.4349469496333
-11.796524623987
-14.1547629249588
-16.8880559472482
-18.6562825969566
-18.7689505361278
-17.6917185530679
-16.1572166563562
-14.3764581017353
-12.3742815960082
-10.4310871837974
-8.6017726028704
-6.15458689568124
-2.15582086401189
3.33392690016912
9.05767873244639
13.7423005912621
17.3065964017541
20.7684805570157
25.0856776772959
30.1965127568262
35.0541995013183
38.4334068278511
39.7554611068822
39.2386644548412
37.3095986470354
34.056884770547
29.4185297562592
23.6354364317833
17.1416601929145
10.212952273832
3.19442024869595
-3.07574472199912
-7.62320591449544
-10.1996577684637
-11.5314523799186
-12.7371215632455
-14.5624462574815
-16.8210860657798
-18.1913177394677
-16.7595690028809
-11.4258579058783
-3.33434145382668
3.99439946216822
6.38193942245416
1.55155514841261
-9.4480046409562
-23.0843544129296
-35.490965239667
-44.0208439542279
-47.58247152491
-46.4878957642206
-42.0698340050096
-35.7131016941884
-27.9402785949039
-18.7875204612353
-9.03807380827982
-0.410820822524832
5.81585323914299
10.0325903006664
13.8862551189684
18.8260585246741
25.2310580891034
32.7254902250253
40.8203979958698
48.8688931317114
55.5331451399897
58.8196454633706
57.0001956761928
49.5965096120629
37.7454449637483
23.9398574975393
11.0642862657853
0.821296869149599
-7.21962239151421
-14.7423676037921
-22.8531417395535
-31.2916096715204
-39.0331363201995
-45.053444882332
-48.6786787402405
-49.7782870118692
-48.5705685870748
-44.8964139007185
-38.0436848059994
-27.8867348949365
-15.9422495632136
-4.66262228593474
4.18412903954414
9.98740189916812
12.5625054229525
11.8538030487197
8.57863834921463
4.6128139937539
2.21249711213234
2.67832685442051
5.69969929401937
9.83593131789302
13.5487160450602
16.0285214461592
17.4832409562302
18.7624042989352
20.4493689276526
22.2246307569462
23.2684307313594
23.1878712279791
22.2740806080239
20.97716944373
19.4916381660481
17.8175834391798
15.9078903342817
13.6614613909597
10.8618606882866
7.22804570437606
2.73192936436978
-2.03853473071975
-6.10150548434643
-8.8839206354304
-10.63460998473
-11.9976846800245
-13.5146851923549
-15.5418912433179
-18.0571389747054
-20.33073144767
-21.4272286216009
-21.5310320001455
-22.417653914396
-26.0680078375315
-32.6389520749095
-39.6280526709403
-42.9114913435977
-39.1674222751534
-28.2660816879252
-13.6846763947039
-0.297323912464295
8.62830582888552
12.7927701836907
14.0874523987996
14.9051366739033
16.7062719416785
19.346842464345
21.3890463582883
21.3110526935128
18.8971090499146
15.6265572089638
13.4694431724508
13.1611991399537
13.8524826404019
14.3695875996817
14.2310394699168
13.2655172858891
10.9486866021361
6.70911965415027
0.701340880519889
-5.9629502026916
-11.5705140219887
-14.379023413726
-13.2962694288846
-8.45963618633625
-1.26915163949664
6.36940406773668
13.2575911467385
19.5682568373291
26.0229984967142
32.2880957343475
36.8209081870201
38.8026325017987
39.4491070602413
40.3114961207658
40.6648683606714
37.9287293460332
30.8750344723074
21.3530669292724
12.3866597522337
5.29265798804433
-0.840856345420135
-7.47734608320943
-15.3554280409951
-24.8408827804068
-36.4544988030981
-49.9855562762695
-63.1569863644918
-72.2132309395722
-74.6470818780972
-71.3718086351369
-65.9785535720518
-61.828312378351
-59.8402652167857
-58.8414058698646
-57.534032862921
-55.5566865195953
-52.6273035697191
-47.4837090269347
-38.4502933313695
-24.873434886093
-7.50994435176733
12.1718193431573
32.3268180543125
50.4467808920708
63.6291106039847
69.7914346864918
68.7321941559933
62.1063470915825
52.5895791547476
42.8888884015742
34.9072894012
29.326135199355
25.8855484080111
24.1096460062856
23.6951382654465
24.1085704653423
23.988998308362
21.5609372576664
16.2178932907239
9.56156061905222
4.28577718214312
1.88298629956472
1.67020003288755
1.858591681967
1.07194324424856
-1.11912189824796
-4.50017854826364
-8.53471012365075
-12.3345113487303
-14.6331337292739
-14.3955332580128
-11.8527390334648
-8.57946573607502
-5.95398846099255
-3.66502525094594
-0.326329253304802
4.42260500965939
9.03621583709189
11.5939613895906
11.8270624495932
11.0661123445346
10.2324016478771
8.65522717947953
5.41931812585785
1.35078650319759
-1.24570120782724
-0.841245717499269
1.96082783145246
5.34748307626782
7.98339203453256
9.70612292045431
11.1404759122905
12.9276083232808
15.0706356746242
16.7817714515706
16.8570434144498
14.083306764113
7.48763747658527
-3.22421679823852
-17.1725236617455
-32.4213907545071
-46.7516400625205
-58.4635162146594
-66.8412475537842
-72.1296065330032
-74.8857909066336
-75.2721242562124
-73.2233300242527
-69.0835741700721
-63.2683429404465
-55.0999011413493
-42.8352475114398
-25.5409643047734
-4.65198750808716
16.807295407184
36.3958423254438
53.2456639388323
66.9505894966241
76.12455400203
78.8111176446939
74.4260883329447
64.6743965453288
52.1902709487947
38.796181853368
25.5635990171312
13.9682308041471
5.91436476116777
2.34062756520482
2.32610264548924
4.01707916241975
6.39345932516423
9.84738610411156
14.9001992533138
20.6310681084647
24.8406871573374
25.7931523915972
23.382711618983
18.5831764553498
12.3084211049348
4.96002118754875
-3.4238305409678
-12.8011836494658
-22.5324908285151
-30.9651519172638
-35.9063739849816
-35.7923249652934
-30.5247055484199
-21.4432846475267
-10.83422343186
-1.42257277350706
4.3157453150466
5.26280993351592
2.52494605489021
-1.21135289760297
-3.84131986107025
-5.43868525445345
-7.42599035067816
-10.4010273907344
-13.3987646857089
-15.1908343043095
-15.3635347802806
-13.6604291661642
-9.11129277487432
-0.98276081515744
9.28089621873633
17.8964995586947
21.1694084437832
18.118115090555
10.7354043783384
2.09011345957498
-5.59902337240424
-11.6271940237273
-16.5756692640512
-21.7278357225029
-28.0041214533101
-34.7603239692021
-39.7403725930867
-40.6043049394842
-36.5114980105771
-28.2812036431995
-17.519406042171
-5.81761838199497
5.65382144698772
16.1685763111805
25.0347395077509
31.2585025913853
33.9483214607991
33.1316372585933
30.0758180682528
26.8887770166237
25.7188138614452
27.7290825992869
32.2342393201612
36.7845083556986
38.4336641045142
35.3922079955644
27.9742389572337
18.2213842610653
8.42407380731658
-0.332977811829742
-8.42970167090668
-16.7675856547753
-25.6001039247891
-33.9544006410919
-39.9587631575268
-41.97234661459
-39.6555027096612
-33.8496712326346
-25.5044589345855
-15.2708818598352
-4.26320597134953
5.62603626569393
12.9032843493462
17.6722854307172
21.1604082609018
24.2545727352913
26.8294338004514
28.2556757295379
28.1244744322107
26.4018609997441
23.105252312973
18.1562353965902
11.7702792117118
4.85272731942915
-1.306426215412
-5.79143190589537
-8.46602945434748
-9.86365893281648
-10.9473336138355
-12.8072409693009
-16.1711811725126
-20.944845371293
-26.0848583716527
-29.8547667109484
-30.453998487685
-26.8752282259169
-19.4452798824326
-9.60738483175803
0.757210024133241
9.83023231520759
15.9741654066384
17.7887249637394
14.5579998896326
7.07521832418577
-2.04259174312369
-9.50530731704129
-13.4047293889606
-14.2425594956581
-13.9775300854376
-14.3621353833005
-16.1980192565926
-19.4161063121913
-23.0039327581545
-24.8947229741089
-22.7584797699977
-15.6054529182456
-4.72861760068993
7.12808219765816
17.6235973144047
25.8679357426223
31.9885186830774
36.2853884837984
38.8997069709645
39.6225446837492
37.6271652005729
31.9559500367531
22.8408294853785
12.2121131971329
2.38716838702782
-5.60603370966118
-12.1856236634143
-18.0922072632071
-23.5444925144551
-28.3121141988244
-32.1165586333583
-34.7307505164979
-35.8366063859597
-35.1606460287249
-32.9656344117058
-30.0341767291198
-26.5920030103686
-21.4257772634831
-12.8832978580512
-1.02567966837129
11.7580289218188
22.6657071999199
30.7816213905136
37.2826491114141
43.665433179618
50.1483982551384
55.7568063699039
59.5053411522216
61.1177885150672
60.7960617539527
58.8674015391448
55.7136069787655
51.3906854121242
45.0931784296181
35.7731331022379
23.8580827088257
11.7677383019862
1.979423289832
-5.21198029212888
-11.4921766336894
-18.3336935308014
-25.6533634516124
-32.6377767874354
-39.084938310043
-45.3156316350838
-51.1836671102029
-56.0740290519177
-59.9095246146765
-63.2365852176699
-65.9515661850554
-66.8289598530229
-65.0226221737801
-61.3504133816306
-57.0661961067232
-51.5472745417676
-42.2339392066555
-27.3480968714195
-8.34993744479244
10.5953094482434
25.3889042386996
34.0345716786151
36.4229702822167
33.1598282838042
25.1771793213657
14.0238242959045
1.86399887515745
-8.80773383958483
-15.4109182289083
-16.0821125947969
-11.1786897256398
-3.7368037280105
2.47841580788705
5.63731736118553
6.47544897009347
6.7745454705563
7.74245210489039
9.4860640832194
11.3723091226246
12.9494991921301
14.9351425112998
19.1711592530168
27.0061731012024
37.379514511469
46.7471824029327
51.4369981063579
50.3836122882838
45.5045189535362
39.5101570626848
33.8354205494182
28.790692427162
24.8418907989528
22.7582511933551
22.4968998633238
22.5619148197921
20.798087046067
15.8063796905368
7.62389653471969
-2.74492615914359
-14.0631285685648
-24.8963242468481
-33.3771837931995
-37.856387313341
-38.1460982053384
-35.6687625514031
-32.1196267609642
-28.3912563883541
-24.9341563992209
-22.3970370480519
-21.2563482757431
-21.2039992195663
-21.5168311761326
-21.8313647172904
-22.0687597660544
-21.7968483357753
-20.3000043622645
-17.4632153589052
-14.1156189568317
-10.9404859782385
-7.11575793373306
-0.765950639742609
8.83910250700042
20.1057351879912
30.593914192248
38.9635302891313
44.7629100726967
47.2136380467205
45.6770406847097
41.1624730542256
35.9370008492346
31.045740884672
24.9267191008715
15.1543946873385
1.4262133063946
-13.562034556171
-26.0944238256291
-33.7957701430576
-36.0877041126723
-33.2894104555813
-26.1490284711134
-16.0393122557889
-4.88786287089238
5.24246361689821
12.3053690371109
14.2828424329788
9.73525168499101
-1.22898923191905
-16.5818797648529
-33.247400500414
-48.6153620713986
-61.3608731077462
-70.8906091172681
-76.2914717468744
-76.3037313405022
-70.4808739471803
-59.9995659159764
-46.9765824570365
-33.0163781157911
-18.4404975687804
-2.7645272578052
14.0418528342102
30.6140560350607
44.7370041641464
55.1707810534362
62.7206938599238
69.0874978012052
74.8096772323419
78.6613836508046
78.8417152794928
74.4214290786903
65.9499120586653
55.2295483428692
44.4959304014685
35.2641838446927
27.4890387775927
19.7944042743057
10.7921494095423
0.354825630544808
-10.523223264209
-21.0559728891005
-31.2128240319259
-40.4236339998432
-46.2982661463236
-45.8331749485027
-38.3872766435786
-26.9744980950165
-16.1189504322374
-8.46890652541472
-3.53959031753363
0.658980368584186
5.27946998885919
9.91494534252595
13.6341333985468
16.1368005075439
17.8759907161762
19.5142938921914
21.4512741510245
23.5048385432333
24.6579153660855
23.1759289021276
17.4230797632371
7.1143793997363
-5.97254274362539
-18.7414899086371
-28.5434812698685
-34.2985155699659
-36.1675085293615
-34.8187868750284
-31.2584043975625
-26.6764200450101
-21.8640354652493
-17.0966655254797
-12.8280018429323
-9.83236648908947
-8.20573018769416
-6.96397208741264
-5.38521438873909
-4.22298829314846
-4.67998601864158
-6.39819939457022
-7.49006944704494
-6.96270318740004
-6.4775795675518
-8.8843855935724
-14.8213435079672
-21.1863827418029
-23.380825388258
-19.099120840282
-9.94425669242526
0.215842233512234
8.05805228974928
12.4406798779193
14.2819451473786
15.2997823980943
16.5790268413112
17.9901844929915
18.8170673795375
18.7932146275534
18.4805240041499
18.732002748192
19.7364843861143
20.4295921346224
18.9585001255563
14.0679412582896
6.20157942418259
-2.70787927940084
-10.3460481135332
-14.8881845387301
-15.3157384383301
-11.6370040499728
-5.07206781535758
2.34931640164585
8.96238250564991
14.571862577467
20.2638906393798
26.8184428280555
33.30145187908
37.4821503528032
37.6874367872672
34.0435324243797
27.8785547733699
20.2061861141613
11.1126350084025
0.731036602573711
-9.38055044645266
-16.3572156677771
-18.1334251136613
-15.593753865668
-12.1915008107596
-11.0364700551193
-12.4563446568141
-14.4927590904434
-15.3301097970456
-14.7488716486571
-13.3070316809853
-10.6910310404335
-5.60545133338069
2.17371351439053
9.79248333226078
12.2173158632638
5.9485208954819
-7.9085394235581
-24.3686925476733
-38.4993222858969
-48.726072546415
-56.3461077339177
-62.3282628641781
-65.6115352531294
-64.7800969171224
-60.0315170507531
-52.1516573554685
-40.2806723945081
-22.5655716122795
0.492380521070702
24.4628378543599
43.5925825879414
54.8791497657462
59.4764425880263
60.4934364760625
59.8263271740885
57.1288588808157
51.4148951765106
43.0177856117006
33.7078005034365
25.3239119920825
18.8194445818024
14.388335377255
11.7284118638706
9.94521834180843
7.79773374800426
4.64071591742776
1.0989362429904
-1.63706972876118
-3.46432459800706
-6.03884015812065
-11.250213479356
-18.962038478036
-26.6754031473455
-31.4306422893231
-31.6015310584763
-27.0591336369095
-18.6385513577421
-7.91887955857878
3.20565066614738
13.4622967238657
22.5064238384134
29.9196744501601
34.2708521186277
33.8816276499961
28.6078137333326
20.2403039370602
10.7195708730475
0.351414777327203
-11.6033333793806
-24.744963789801
-36.663715906082
-44.4398674064263
-46.6030577868342
-43.5341989920578
-36.441208195142
-26.312611622731
-13.7390982600058
0.561935605014921
15.2304683888467
28.2862097841227
37.6810621862396
42.0602889385479
41.3814634546794
36.9685689590346
30.6926910291271
23.7283907183917
16.0587341943667
7.2879065321628
-2.22764634785786
-11.3223385588346
-19.0574828699947
-25.5428340319944
-31.4907615825193
-36.8402568668724
-39.9938837387118
-38.9557410569514
-33.5907902232304
-26.4523726862745
-20.910454997032
-18.4382015250599
-17.6538641012067
-15.4585149979089
-8.9866546400504
2.5614204441535
16.9563141494535
29.8539193274694
37.4141419393061
38.5857170415174
35.174686171092
29.9399440972252
24.5658867093017
19.1366492469775
13.1812179864059
6.80671350286983
0.54800239476087
-5.52136912915984
-11.7002714414292
-17.4183435658346
-20.7790432655001
-20.0745703639328
-15.616898819394
-9.45890004223108
-3.23116953599903
3.14981573835741
10.2380384123586
17.0569868057796
21.3464093593945
22.0769614333104
20.8963923350247
20.3609505683257
21.0766238772639
21.1576305974774
18.300476433208
12.0151494358042
4.05211788610447
-3.05969098121935
-8.02384214591468
-11.3997342672883
-14.1736742260431
-16.2054084875579
-16.7108702083791
-15.881560873068
-15.078654981528
-15.3934236049824
-16.6530330576458
-17.776730545355
-17.4686864269484
-14.6106663120147
-8.78768642106216
-0.915240308433913
6.91436419396164
12.555874686787
14.7229883495919
12.8337273392544
6.71242094354411
-2.81579997273503
-13.5251138349424
-23.0863572337714
-30.7540387020949
-36.8927366437123
-41.0167077872457
-41.5722050332667
-37.9155043314297
-31.2596322085369
-22.9763651889933
-12.839142095371
0.228914731751319
16.0785109422141
32.560537802373
46.5694472881936
55.6223945066952
58.886410974767
57.1930017351642
52.0947268002283
44.7888005355091
35.8845674929573
25.9531701344198
15.8849101173712
6.52070730307479
-1.84599486157187
-9.23757153996974
-15.2767737900655
-19.2085797539198
-20.8908259453719
-21.194328644534
-20.8842264760661
-19.6071731118733
-16.6629090553091
-12.3049282503869
-7.44175928820477
-2.35030996668517
3.50050003685748
10.4626775005687
18.0833876794797
25.1700109578209
29.9267681914589
30.4863309626967
26.2647635291027
18.826876616341
10.7144328606918
3.33077075491658
-3.49003212942177
-9.94285029785082
-15.1948107534096
-18.2928105395046
-19.5681968467492
-20.5240103621006
-22.3675512225252
-24.8561352593192
-26.3439352220796
-24.7504076045707
-19.0427994625253
-10.5500504367234
-2.71282492020937
1.20074379978321
0.505884768192455
-2.56650519502484
-4.41016550613861
-1.933606000291
5.70447916422459
15.8370130157672
23.0652768109436
22.7110439435195
14.2789445591877
1.48930876848021
-10.9216958981742
-20.1568638671808
-25.7381543432047
-28.2575475455648
-28.4813328133984
-27.2366731401537
-25.2748543004742
-22.8850823667867
-19.8374810395736
-15.6678234772695
-9.63547281990203
-0.604087643672024
12.0092426694608
26.6138929389691
39.4820614426172
47.2094411479452
48.9711106340277
46.0903483914751
40.0493542605266
31.5475100789474
20.983770837133
9.02735778946576
-3.32968654363417
-15.0177700093393
-25.198739563316
-33.2252171517765
-38.1395155123527
-38.6734492613858
-34.3736055926432
-26.5163098944475
-17.3007820985118
-8.24297928716067
0.182099504634241
7.65911034438663
13.7202518672158
18.5415499108421
23.2889284429029
28.9067469882382
34.6025507692888
38.0233599047936
37.0361029830939
31.0943892735958
21.1362796228055
9.01530266340485
-2.6967187057007
-11.2786492140527
-15.2977797969475
-15.6465876103979
-14.8339334803882
-15.1297004684475
-17.2474370172063
-20.3210720113166
-22.7057970102206
-22.8780732826949
-20.0189894767657
-14.2435145802249
-6.66178109192489
0.817361687547319
6.32068100218513
9.15883007163088
10.0838582217343
10.2617377184471
10.232481593458
9.99579887911739
9.68832999593437
9.79618076245052
10.8421389773554
13.0745542632913
16.3607530606628
20.2212608611836
23.9207686495184
26.5142702851753
26.9522285539307
24.4905871168803
19.147380921245
11.5614640023745
2.37023446048713
-7.93523227738316
-18.4061059812814
-27.3152487893188
-32.9705853866013
-34.9767144179929
-34.5052130791219
-33.2616806354493
-32.4170017907269
-32.5824940970694
-34.1741211057641
-36.9970455975778
-39.518636062122
-39.3273369474971
-34.8495322538035
-26.6245514052573
-16.7629465777907
-7.07286117158805
2.32618821375107
12.5209728011118
23.9775628672005
35.4079218156091
44.6454909315538
50.5070853845541
53.4752683008683
54.5439829378757
53.7466038737862
49.996534317589
42.1466236022067
30.0267943930809
14.6858922415456
-1.95429521319785
-17.5265068601121
-29.6580765669579
-36.6608811902805
-38.2001585751689
-35.187547216478
-29.0132932127785
-21.3432537556987
-14.6588002858738
-11.7570615950537
-13.4728351234673
-17.2230460340693
-19.0184886065114
-17.1775148046999
-13.3803728387375
-10.0211618674401
-7.41954352276565
-4.07002145267173
1.14009642135661
7.86595145856468
15.3020045074758
23.4734000185309
33.1647498597391
44.532417974154
55.5824949636332
62.0784201189751
59.7910005216786
47.6820294258997
28.8565719678261
8.16349456407478
-10.8086455335343
-26.3806583068211
-37.6947710029997
-44.2196272405248
-46.0788570754628
-43.9481813561868
-38.639127979817
-31.293199385319
-23.6596256715947
-17.4138378585415
-13.1558073800963
-10.4108830770909
-8.42480017717417
-6.67157536652921
-4.94413255909665
-3.44373797302601
-2.64971957377097
-2.67688980826305
-2.6490421065604
-0.8330092214342
4.38533925934892
13.210715485441
23.7198502045712
32.6251414252205
37.4029519413856
38.0565806229575
36.67634152114
35.0989140371079
33.1129045837391
29.1474063754447
22.5314732049625
14.544421603526
7.05995371535964
0.69631587975918
-5.15698906025339
-10.8068275126189
-15.5557655612931
-18.723533127703
-20.7800875229391
-22.946077766229
-25.7576509933455
-28.3552338487046
-29.2818673511418
-27.8560890346994
-24.6270374639085
-20.4897402054396
-15.5915602753223
-9.39123973817617
-1.75843931451122
6.29539720747254
13.1208541900742
17.5112832435996
19.1687999622001
18.2852570970771
15.0471869325143
9.80103432157319
3.60651536579784
-1.68838116733536
-4.28081604435032
-3.75402221542455
-1.85007941773435
-1.4314504218421
-3.72050866793452
-6.44734323274209
-5.77765032561647
-0.678078646045895
5.46702695188969
8.34299523408529
7.11661684691678
4.53962906865884
3.26789643230505
3.17037875741013
2.22885023189569
-0.730669287111501
-4.56855120784329
-6.95805309008507
-6.93637811174071
-6.3011286555079
-8.24263442307658
-14.4213237093901
-23.3626630060561
-31.5486463793741
-35.8664101957449
-35.2225160093198
-30.4529777240964
-23.2531075141914
-15.2468045547722
-7.52237800422183
-0.26695639009282
7.39386694455381
16.5918066490812
27.0604688402434
36.3136133268363
41.0610000854621
39.9241967184557
34.849999232411
29.6933481431829
27.2216507145883
27.376048023959
28.1885356209803
27.7854812680172
25.117079999475
19.5103964374949
10.9788491065238
1.3239463243116
-6.27195694321208
-9.7465001717125
-9.96824146511834
-9.60228046772169
-10.5354114842812
-12.830106653974
-15.7645804970919
-19.0267319497102
-22.521868028358
-25.3565648675296
-25.6303030258387
-21.6964801616397
-13.8163691398924
-4.50415979436629
3.00287484968131
6.92479620913814
7.85233745293305
7.57746768921442
6.97024246536593
5.0619366894494
0.435076229437587
-6.42698798761638
-12.4999292595686
-14.3805282271997
-11.2852227872409
-5.71600905026339
-0.879267112076591
2.45135893736999
6.09193935892874
11.5142691461747
17.4898513139204
21.1338634578362
20.8329069925151
17.6228888589244
14.0276976715483
12.0715145149178
12.1497842548245
13.1917895691029
13.7365878386785
12.9662073129542
10.7859400756886
7.23030908908279
2.24501412264416
-4.03080953547054
-11.2761117416272
-19.3374656261577
-28.0484346489497
-36.4420252756902
-42.6032457535699
-44.9558432843082
-43.8078816009002
-41.1522422686261
-38.4840499704905
-34.8642203893018
-27.5763316579069
-15.0663989806655
0.771839459372704
15.5703369528482
26.0990694939566
32.908241954731
38.9521375783604
45.3338303506215
48.955784353319
45.2444196582271
33.2159213027945
17.102152206487
2.83661554685819
-6.35339521851807
-10.8063196538291
-12.0979883075355
-10.9388430947358
-7.28629752225965
-1.78504756444387
3.56202568226243
6.54807378057944
6.65290761548656
5.54048110824889
5.38109520832223
6.43423363511339
6.14722578638182
0.972764499056981
-10.2266961502193
-24.3981460254774
-36.2840191704501
-42.1386001368585
-41.2579953799781
-34.7971554093838
-24.6602689068089
-13.53316193042
-4.25931555904407
2.01796259557401
6.77186280916447
12.5524457274231
20.4131809987722
28.7488062954853
34.4882707478714
35.618929984533
32.8609803421957
28.8200019271045
25.4073626593869
22.3459798894107
18.3028568976914
13.032975470067
7.96279614924256
4.73380441219091
3.51763236522854
3.01489992851402
2.04001684886216
0.626669996456757
-0.780084360732815
-2.72838214670627
-6.48725330792776
-12.2935113652707
-18.5120198431233
-22.831106450544
-24.079289434541
-22.8636108464944
-20.669281027056
-18.3287731413294
-15.2183136968862
-10.0048558018666
-2.2905262874296
6.49688014163663
13.8795061136546
18.1060110232492
19.4171732169863
19.6636361742995
20.5455761042914
22.149631817215
23.1438908132723
22.0938588268568
18.3750313516443
12.1770891337445
4.23482839431274
-4.30842546766774
-12.1412183575477
-18.2912670142634
-22.6550435803938
-26.1253863789706
-29.943733945106
-34.4458477464289
-38.29685112139
-39.2506482182853
-35.8857016437135
-28.6255218827304
-19.2503797036897
-9.70261565698552
-1.30592697742225
5.30295147046421
9.92222613981795
12.5850880021108
13.3669860891414
12.0910079538722
8.34823802408994
2.29503940826788
-4.48673909953231
-9.50758907900224
-11.2002512962198
-10.0655582025903
-7.84409697789674
-5.82010694047981
-3.97292181552086
-1.25071206199092
3.62055172531245
11.0825753767495
19.8653992860459
27.2208307185488
30.5469229174858
29.1397495335639
24.5217934234138
19.3012571744032
15.8233853057679
15.4916006550827
18.5450375285947
23.9018194458998
29.3478582989641
32.5147134881586
32.1967375255468
28.8226116675503
23.6229193117899
17.4064611780557
10.0522154722635
0.908658896326272
-10.3413189012554
-22.9440748755384
-35.1101529248049
-44.9245787007117
-51.2760962842977
-53.9918856703093
-53.4684366945053
-50.4667435751814
-45.9552539985929
-40.5892800914808
-34.2376960870504
-26.3773189992268
-17.1475116401078
-7.7133863939573
0.787285604728474
8.49773422814503
16.5329430193891
25.3706370474404
34.089695427145
41.4098594047891
46.9238333180994
50.8940603732403
53.2852941121056
53.5861313833644
51.4909678987468
47.3611760621329
41.93680071643
35.6892757589123
28.4946243191391
20.1100326699516
11.1274945681326
3.10247378225755
-2.83180307452976
-7.38827190463543
-12.60292136754
-19.8256078834493
-28.5300632834802
-36.933629993496
-43.510424876221
-48.3477225137539
-53.4832567623823
-61.3066508937393
-71.7154479896695
-80.9610202059274
-84.0799805561306
-78.8099931068204
-67.1161910863919
-53.1263344218525
-39.7740367870893
-27.0788644446373
-13.0592613947309
3.94314799930962
23.5942614660829
43.6221811501804
60.9589966708075
72.8495897874839
77.6903902437376
75.7552469020304
69.2363818293925
60.9419341686147
52.5071132247172
44.0054026841898
35.2873165732888
27.0607287896642
20.2271718174429
14.730934756556
9.84844111665223
5.36823824312653
1.59263214386233
-1.91463436318966
-6.63040759277771
-13.43275462081
-21.0101950339006
-26.5688581191825
-28.235578924441
-26.5416765810905
-23.5784026468079
-20.9795737362575
-18.8127469791249
-16.0940816680661
-11.9577923426707
-6.4611281979998
-0.886519278789078
2.60135049929912
2.33348808951774
-1.21717220434016
-5.38482212024056
-7.29008442361883
-5.92658671259899
-2.52232279229722
0.665070970205603
1.93834580514409
1.18182363305319
-0.292608671351381
-0.885611125347978
0.345540521252578
3.63013396229854
8.58313451866507
13.9119680364464
17.5580007810115
17.9025254371816
15.0418773300656
10.7294294814501
6.96702146004191
4.56739120002409
2.89618622791484
0.714400563888772
-2.9046100211399
-8.14626858564882
-14.2361549441285
-19.4689761967497
-22.1165039503492
-21.891714818727
-20.2443170153132
-18.7266161069004
-17.2995446051472
-14.7272851948292
-10.3400856269728
-4.64688835325242
1.85742710554164
9.73178445438232
19.7522186045243
31.0121098246995
40.3826037370522
44.4434441135947
42.1101467841865
35.2295639425736
26.7419249111626
18.6208916500239
11.4713984329052
5.36374108194588
0.362732103646206
-3.79892750097471
-7.99661691640138
-12.9984411305691
-18.4219001731683
-23.0354157697881
-26.3422008100258
-29.0744508901915
-31.5613177376117
-32.4907984746135
-30.3429708935183
-25.5696052770801
-20.2680118111721
-15.8778570175103
-12.1782749083979
-8.57213340297763
-5.39183920861636
-3.4490048132799
-2.7797650281048
-2.39469871413176
-1.22825120248958
0.940190809717063
3.42562884316162
5.15337383746342
5.23199658050785
3.50484732847107
0.908213171823557
-0.945433090024511
-0.914388303767042
1.00287145160005
4.24884304072291
8.54028862195604
13.6615205441206
18.6564741452027
21.8928707740083
22.336907534617
20.7243583776826
19.1302189520034
19.0088008273996
19.6801971209295
19.1168147660958
16.2007565699993
11.6864307310964
6.92806211952797
2.47876034781864
-1.63663699802217
-4.99011874331769
-6.89478164275484
-7.31196367928797
-7.00108783059051
-6.6337030474272
-6.15297080772233
-5.37533886760305
-5.04232438978904
-6.57572795701162
-10.3631189748804
-14.7059065547007
-17.0772494235967
-16.3482917077201
-13.4449560085911
-10.1287701578733
-7.68213140531178
-6.50760551120399
-6.19538279628223
-5.82807884300367
-4.70911808738367
-2.93833071873542
-1.08087335562812
0.532710887892014
1.80786148929751
2.39943748768319
1.84811623779838
0.453014741442547
-0.360678989985645
0.953085307444428
4.6129287667131
9.3607234004397
13.7947170470657
17.4352029430465
20.3380787291872
22.2734772257629
22.837012151338
22.0417799458071
20.2136237767438
17.4042829486489
13.3869970833387
8.29144518524101
2.93017341563524
-1.73690059777352
-5.48849737889027
-9.00912737035673
-12.9250755363411
-16.7604725620002
-19.1739804776949
-19.1675220439309
-16.7362807075236
-12.5544076712222
-7.65811246266807
-3.42020081397124
-1.0604100056524
-0.686425603289777
-1.00145116049233
-0.224556144785991
2.58260031443522
6.87946652866717
11.1735490394948
14.2655668038046
15.9315291591886
16.3197011443237
15.2473349810877
12.7557265882771
9.87303012441983
7.73619241521548
5.95600819854847
2.77452864861867
-2.94975932451514
-10.5486014613112
-18.4674883960433
-25.8093134994182
-32.7645321277512
-39.9949481828616
-47.8491045284767
-55.6971096819837
-61.5902758837315
-63.1123371244262
-59.5197080726033
-52.8863173164097
-46.0117651417197
-39.1382243232903
-30.0521044058006
-17.6640960148888
-3.85988838216612
8.91678943012035
20.4051204028247
31.7566526809391
43.058799782737
52.7819151855643
59.3107383348759
62.3082980951505
62.687347737259
61.5752451805
59.3252256688442
55.5929491791697
50.3636795600869
44.4382063537715
38.5991668885509
32.7820248026733
26.5724869980619
20.2181613917029
14.6766100243451
10.770652310503
8.55242792117607
7.43238442664465
6.77176402961834
6.24209771216839
5.54992506480368
4.0662868059623
1.19547901833701
-2.84323211493991
-6.98976907485724
-10.2610031155213
-12.6164305794104
-15.0510302788664
-18.8670031151916
-24.3068377672018
-29.4767406257144
-31.1593196929757
-27.5829925008783
-20.5907583778504
-14.7465406289589
-14.0777168777018
-19.4495507718968
-28.5422790836975
-37.7914531772923
-44.3321089321487
-46.7397778554696
-44.8242930829258
-39.3123757973
-31.7085494215507
-23.9482404153694
-17.5499724697551
-12.6676685664096
-7.88660067969702
-1.26966577627174
7.85552128899868
17.8923562442932
25.9759310130582
30.1573000697118
30.4423072717222
27.7930568080238
22.8292207399146
15.9996663644235
8.57113966374916
2.60486768576525
-0.381390493447398
-0.581980390845105
0.32019790292478
0.402276383375457
-1.35619311148753
-4.55341368245962
-7.43088307597305
-7.74475842718688
-4.39191967822219
1.58891298217907
8.0553568028786
13.8176088901944
19.1699566453542
24.4932044352114
29.1360940403629
31.950987124341
32.4508850836428
31.2246558013601
29.4600583807368
28.0573538749935
26.9554901529058
25.2740562150548
22.1095443797996
17.0689027074035
10.2349184503743
2.17728677890916
-5.93773653117224
-12.9076112418536
-18.5057215542109
-23.4752509796434
-28.2126843209714
-31.9361477523018
-33.6070171915468
-33.3417109505698
-32.3217850797723
-31.3250455928579
-29.9376795315324
-27.5520997791863
-24.6886873104787
-22.6802802240528
-22.1144125568322
-22.0998771701898
-21.0549598871467
-17.7933553878568
-11.9657770783336
-4.06903002441266
4.77330899625781
13.3312592107233
20.7058301402631
26.2758343194675
29.5113060676854
30.0791905669876
28.0217814388706
23.8453314954769
18.6937386923816
14.2990015971298
12.1750553982041
12.5104441687363
13.8826103273967
14.1644289246695
11.9800318362909
7.68046881484559
2.94524908339033
-0.852163175255453
-3.85228013895876
-7.01680592036355
-10.4634742664964
-13.1229395550148
-14.0999912287599
-13.7255317810699
-12.920761881531
-11.8868849240019
-9.81689680170596
-5.93286479618055
-0.715605385130961
4.04261846391348
6.62444924449076
6.85426585849118
6.04417998652853
5.54954650239969
5.60513114977093
5.54946865162623
4.84840381945305
3.57928008983407
1.90334762036098
-0.536138664352014
-4.19563517068293
-8.60052738645065
-12.1543276393939
-13.1542372820075
-10.8870920742168
-5.9605397839009
-0.0017378082593655
5.13819786363952
8.50833026354391
10.5512199953457
12.2133833826947
13.6179455967286
13.9079479482404
12.3615480865547
9.36785176168106
6.14282357342644
3.53078411656937
1.29953248095151
-1.19830841041412
-3.93567153393414
-6.33586851816807
-8.41014385322722
-10.91012829291
-13.9279388037058
-16.0936865628907
-15.9760912557535
-13.9948822883739
-12.1817732012463
-11.9451124708909
-12.5177555408127
-11.8774674461998
-9.05949627256367
-5.17793029578767
-1.93004086473272
0.510310621708938
3.43882040374089
7.59733848746004
12.0929015124653
15.6171968562825
18.0270513396437
20.2256976621254
22.863007847133
25.5656423789635
27.2522306954687
26.8381023674409
23.5975336193691
17.1766781172211
7.78574493054608
-3.35424624597115
-14.1098349475856
-22.4748061608915
-27.5399601881941
-29.3949283375329
-28.5685972859922
-26.0410156638865
-23.3747152697026
-21.8849278390873
-21.4116679272903
-20.5396695445525
-18.4705056135588
-16.1941346293861
-15.1900202352582
-15.3030058804931
-14.7744255135797
-12.3780549731214
-8.47976912646169
-3.46662519991835
3.77681272811342
14.4189489016659
26.9307538062309
37.1981847247624
41.9452681619627
41.4097438857799
38.3031871645044
34.7095449463064
30.5048728858671
24.5953444834018
17.1279213182956
10.0310717683861
5.31030804398518
3.18648778447179
2.24736319336799
1.15961944141174
-0.259139285205686
-1.51473173937069
-2.31754594469027
-2.72449864579749
-2.81721880066637
-2.79968561320072
-3.50997763247289
-6.28595495142566
-11.6612293940185
-18.2244968670601
-23.3994040309874
-25.633384759256
-25.5088712485101
-24.5645856591021
-23.3470517192678
-20.7855463598606
-15.2353480075727
-6.02476744150844
5.69470730363441
17.2796018154973
25.8039984479483
29.2977718718535
27.3396228405746
21.0092500831747
12.4459627043758
4.11930186092379
-1.93416626896282
-4.6264600652915
-4.17147176694489
-2.14921582520128
-0.638846299423721
-0.638826840900663
-1.38078326302796
-1.4132856194759
-0.238047639967603
1.09325526412708
0.745640221302901
-2.29646700645045
-6.93689352207913
-10.6539560406648
-12.1621984433313
-13.026194305822
-15.8232869776816
-21.0399485286559
-26.6651510572352
-30.5064670970153
-31.7251238529067
-30.0134781520367
-24.6383695066435
-15.4798984423447
-4.66122353256155
4.24090838113616
9.36097906354118
12.305324744877
15.9650370286332
20.9198588417611
24.864358123359
25.5104882614359
23.2233686422269
20.585054563195
19.925664796096
21.4845585597099
23.5331859876448
23.9745900459328
21.9489824817095
18.1675986351015
14.0940675804244
11.08601987692
9.90046890312755
10.24817305315
10.7727777606557
10.0210758035489
7.57928494680569
4.05324632125316
0.162441481400596
-3.69201252173491
-7.04262315435468
-9.10060669656884
-9.36758648289688
-8.56966590080983
-8.49768536069309
-10.3131408048133
-13.1862872493507
-15.3380762216528
-16.2975346885645
-17.1798494182717
-18.7704933685098
-20.5644207713433
-22.0655508482215
-23.8468640452952
-26.43620263193
-28.7912729580488
-28.9435121689799
-26.2274193321723
-22.0803003033433
-18.1377268700036
-14.0447713451361
-8.07543992666111
-0.0050918901429442
7.61526307554309
11.8040293982643
12.3718787652756
12.135963852029
14.0903762878043
18.8391541852958
24.5974646987232
29.0790348924135
31.1795164086116
31.1480935801294
29.6791568580338
27.2992800133602
24.5021557220523
21.7849936038053
19.2163512230583
16.3321998319241
12.669900929243
8.12666848564502
2.81581938179946
-2.91199895485593
-8.15485049967999
-11.6122395627048
-12.3829270971194
-10.6091780480269
-7.33832953236324
-3.77199719690709
-0.611183100056876
1.84465089991329
3.125068371125
2.65258943054275
0.575148994129158
-2.02746033298923
-4.15410434628647
-5.66281052612845
-6.70806138119365
-6.89807947245992
-5.55194539069497
-2.63591367857316
0.882917899004306
3.5787757142593
4.45178815165157
3.51257162050437
1.55255141449252
-0.775525939962031
-3.52449554594438
-7.02263627055733
-11.2242939887821
-15.6915644751387
-19.844966241769
-22.9471677680645
-24.0922440725113
-22.5150350191889
-18.0863672874513
-11.8059026358884
-5.83055391549719
-2.37055784825227
-2.05515990792573
-3.73227205615633
-6.20155203923785
-9.5827684680204
-14.3875907674874
-19.6767165694421
-22.999297529727
-22.3608164333039
-17.8744245409272
-11.2503170787084
-3.92902247068392
3.81554451933595
11.9785869668782
19.8181942759494
26.2638032344607
30.8068959890714
33.3784115989852
33.7856984881676
32.0102879223135
28.8253153097851
25.3876774403238
22.1973883081748
18.9178229031607
15.2044908874015
11.323812708569
7.90548938237291
5.3505594394856
3.62372484358195
2.54254427569622
2.03116600268161
1.88985275144719
1.50768200047502
0.230614802963083
-1.95723740277438
-4.42081272169568
-6.51059820800559
-7.93981759128335
-8.61016551042685
-8.37239783221564
-7.06094936075245
-4.80562938444839
-2.37748985878854
-0.952700787000812
-1.09482763609553
-2.05810795634968
-2.50877017533355
-1.85263615966161
-0.495395656554254
0.993190298943113
2.42797815588659
3.71696379844812
4.46021037688172
4.05045245759841
2.08029359244319
-1.39789566049088
-5.86861260093002
-10.4260342171602
-13.9922650884774
-15.9730532666274
-16.9168972649374
-18.0211972850568
-19.4977598166043
-19.7601455075854
-16.8067683000915
-10.2785940720409
-1.74655284489499
6.72174165668603
13.6732398601505
18.2073218126721
19.6682564822812
17.759943410576
12.8166678057689
5.9465295867982
-1.12161528542372
-6.71530105603592
-10.0800381144588
-11.5746827803543
-12.0085154152719
-11.7825623185676
-10.4222106183961
-6.8002853701814
-0.175544812322197
8.6233556817622
17.1343524236605
22.5530492080145
23.194755256616
19.1198232745551
11.8885712208514
3.73213551110774
-3.4399558368931
-8.58057531303385
-11.4565202533745
-12.402520323482
-11.9544461779681
-10.339573745271
-7.42682781914671
-3.45974066662283
0.392752541739733
2.62595661058641
2.49260876060058
0.270123974042365
-3.44284498231474
-8.32791346332167
-14.0668217925988
-19.6331954509203
-23.2856511692209
-23.6492718401195
-20.7797915621603
-15.8298812744294
-9.66568698153859
-2.23091686003697
6.62342723883766
16.0918159660462
24.404708901116
29.7168759792944
31.1242374869308
29.2069982365212
25.6775724245518
22.2759594488617
19.8236358183553
18.1477200896096
16.6401503648626
14.8659536559111
12.8793306490394
11.052849370693
9.58397474302268
8.32211903348806
7.09185774912055
5.80121178047643
4.06186916287284
1.12750972866729
-3.43008118853846
-9.09465214172412
-14.5562521122547
-18.4164693986433
-19.9008221483609
-19.1909709647784
-17.1400210097347
-14.6169468879164
-12.1671725359236
-10.1799854575229
-8.98454962918516
-8.60098923882707
-8.66496527807712
-8.81141287320999
-9.01348115632031
-9.46349485262349
-10.1885088302268
-10.7312467872426
-10.2470027367872
-8.25888867371251
-5.3855573475403
-2.87284317597083
-1.27385112843582
-0.0229962001932988
1.63437253321687
3.79770387194376
6.04779773883313
7.87045904617377
8.76717052482329
8.43813011916395
7.26769006224282
6.44990926954474
7.09289396541932
8.85419664242468
9.72035505822741
7.70620267448895
2.90832608881674
-2.39945698086726
-5.65936938830412
-5.77147799283601
-3.32727376263909
0.179005414874703
3.33197169155781
5.48727930840407
6.76083412214192
7.52901350566104
8.2877370227029
9.83171794846262
12.7210475503661
16.1565372239405
17.9326907504199
16.0657167049703
10.4352734055341
2.81725606016064
-4.41512295158988
-9.75104216551207
-13.3187764547575
-16.4146974893621
-19.945644671641
-23.2164659334675
-24.3812276122789
-22.0762250154505
-16.6324520751943
-9.89578299628103
-3.91343338998657
0.372228071004255
3.31564640006743
5.74196701347244
8.16613618309249
10.5180488841502
12.0514020642779
11.6053053555037
8.62939368137881
4.1937727207476
0.627764551174596
-0.148350082212613
1.8767088771423
4.677243161764
5.58336652416418
3.32329705426096
-0.9682458377275
-4.87653481680021
-6.89588132544441
-7.45266332640334
-8.01846276025617
-9.59521018997718
-12.0838388633427
-14.8210940052918
-17.3134665569037
-19.0273956904895
-18.5240121277673
-13.7353869410519
-4.07567958410331
7.88975836729418
17.7956560854063
22.8009525230825
23.3015871002786
21.6118990714596
19.6407340373215
17.8706521150572
15.8973927918972
13.3996008667172
10.5027100270842
7.46972530040308
4.48213392938405
1.84475294246647
-0.0405601812864748
-1.20957621540684
-2.30599498236277
-3.90132971372458
-5.8229978368267
-7.24243069242966
-7.18816779417146
-5.09880495676244
-1.41616844745542
2.29640261495362
4.36793918171098
4.46910997959315
3.8823980204174
4.17651308260558
5.65568397002132
7.17304141655558
7.44441127682078
6.34853763342672
4.684916524171
2.83542661636586
0.270265564697234
-3.43210013205758
-7.61610024589052
-11.0491338493054
-13.182896590142
-14.5669171424672
-16.0522464722863
-17.7816482630223
-18.9722623761731
-18.6159693223298
-16.3589175963227
-12.7023160423319
-8.54545726872043
-4.8229119669948
-2.42140818016238
-1.88237619817369
-3.03243594942084
-5.2589789386507
-8.18421582417511
-11.6598157695419
-15.0047780083
-16.6752059773568
-15.105970046551
-10.0263506841313
-2.90153242828703
4.11195065177256
9.79744193117598
14.4411921114972
18.8682301633053
23.2854897728167
27.1518470013803
29.7385139269271
30.5853750687745
29.7129266936281
27.5288298125743
24.329343700723
20.0083770981841
14.6016766768014
8.98403386439631
4.58241108788676
2.29280332336063
1.81788666921912
2.06487393203634
2.13595497102043
1.9593875871764
1.97175316022731
2.29905846118029
2.57763386015832
2.64281980453606
2.82333100406279
3.12705999203573
2.6438547704182
0.394913836098383
-3.50987073844549
-8.06704653543497
-12.4124077870033
-16.1587748183533
-18.9627186114204
-20.3121956241158
-19.9160175692119
-18.2793431127877
-16.8241721562553
-17.1391177650133
-19.8229871115876
-24.0878349921034
-28.4792641122847
-31.7551485321798
-33.12017960312
-32.0744659115603
-28.386575761745
-22.2863103545856
-14.6327708578164
-6.56759300281932
1.41514120046026
9.88357344138617
19.3961691796625
29.0325762285582
36.4885470881896
39.7209864374789
38.3347570244416
33.6242557679971
27.6118600630435
21.802951783211
16.4145379851206
10.7705166663496
4.559707240923
-1.41894845604756
-5.78330775811034
-7.59182887995274
-6.85152163613944
-4.39759820984846
-1.42190840352844
1.14495157296638
3.03862757530342
4.60447588567435
6.43511683769327
8.82574967003929
11.1912442404179
12.1198619427906
10.454358688554
6.42833265324953
1.61521175627203
-2.16858951239889
-3.98737780157111
-4.25891682965071
-4.2422299463612
-4.72577200770286
-5.19805625884809
-4.60712170895937
-2.74785071235882
-0.468532663715747
1.23459224094759
1.76751574707331
0.802030751692514
-1.69362894280642
-5.08088557538888
-8.07406715438237
-9.51570361358764
-9.2551754833064
-8.12562417263779
-6.85984624472607
-5.10069963849318
-1.72324430740174
3.83839834756964
10.6891372722046
16.775875144152
19.9426737036835
18.9665545500696
14.0968052259292
6.82389050069481
-0.976832686353071
-7.83334553762601
-12.9874840983771
-16.5079651435209
-19.1754949960651
-21.6552225880105
-23.5026175837069
-23.4072639337072
-20.6018766344806
-15.6975397280727
-10.1557569463716
-5.346860631843
-1.91732182790501
0.686044022257888
4.18965028436234
10.1676145750419
17.9544982325891
23.9263961818598
23.621610515001
15.3400965144557
1.7714642734504
-12.1865891173818
-23.0956824965382
-30.3402060779356
-34.6851878750983
-36.6135415170032
-35.9119918791879
-31.8462819009257
-23.6048826677068
-11.3056768020976
3.22167800411182
17.0262871530005
27.5543772147742
33.7029701675686
35.9454893188819
35.8873024975602
35.4078456011163
35.6048862451665
36.2481834821882
36.1908474900532
