1.99641791256496
1.94651442645742
2.14783033667346
2.49980224385976
2.81847573379213
2.87228589557586
2.6615358205622
2.46739163329315
2.39871787571545
2.10633548268379
1.18059367538452
-0.363239623567146
-2.16889649975541
-3.90509881726925
-5.42130648308777
-6.72150722563891
-7.88204088736832
-8.91678390570529
-9.75002739830848
-10.3562296151729
-10.771168081998
-10.9040431629205
-10.5328956712649
-9.56835438044168
-8.19078380968899
-6.73102637614771
-5.52431760452117
-4.77800651202618
-4.41899204601591
-4.11433312336625
-3.49980738918816
-2.33331513582815
-0.501786631671111
1.9205650992935
4.61500131884921
7.16354705593064
9.24312300997777
10.6196281834381
11.1209103385677
10.8034589474689
10.0248868114245
9.16719529931644
8.36000876729073
7.54537527018729
6.66312146677468
5.70780917638574
4.73571637209355
3.84535516317269
3.09931657812088
2.53876950113221
2.26856902443095
2.341255186506
2.57048281985027
2.68807298418779
2.65098800054088
2.57054134669181
2.43513308589462
2.1470704116507
1.73063631055496
1.29602284759799
0.906674958446625
0.613184553362038
0.470042444340198
0.428329839642297
0.344915114109759
0.120951225854444
-0.268301174863147
-0.812865842141722
-1.44147477939218
-2.06352513168526
-2.70188194179014
-3.4511587443287
-4.27098681906703
-4.96004684067605
-5.34372092309013
-5.37006707633521
-5.06775103065151
-4.54581064982218
-3.98008528687651
-3.48839455286298
-3.09115514570856
-2.82912948826906
-2.7516091185287
-2.76993347535988
-2.74271410418586
-2.7046825194243
-2.78501298195491
-2.94294857670305
-3.00175312843379
-2.88161737643049
-2.64474320128846
-2.40231990574318
-2.24841426446114
-2.15778622127502
-1.94959678937132
-1.50449742262775
-0.974243940348103
-0.650138940637674
-0.724306970402767
-1.25603602582954
-2.16974534375682
-3.17503165380622
-3.8780279690934
-4.05517187095844
-3.6926273629355
-2.81251707297313
-1.44807710839468
0.254285302688344
2.03293990753961
3.5594214818598
4.50414332512272
4.74159608775108
4.51482185936494
4.22993891621364
4.07344620323493
3.94244486137137
3.69141110860711
3.31777610961128
2.97319735640815
2.89610110700321
3.23279144088023
3.84466582742912
4.41657915308463
4.79397030384628
5.06875460640613
5.34999050747829
5.61715086955431
5.76699739592183
5.68905241533546
5.368825008793
4.95854212635399
4.61655193478665
4.29700787583664
3.86062924708561
3.31092889676233
2.74080850046819
2.18323117719889
1.69919789759793
1.42861849353897
1.36372528437902
1.26231649499058
0.945243864400158
0.506541833733483
0.143629597088789
-0.0534531959628331
-0.132272351994145
-0.246382503435432
-0.537160705110099
-0.92702782370118
-1.1360519357134
-1.0063834710184
-0.724450653570693
-0.700895721471669
-1.31452171604164
-2.67918724389005
-4.46058253384699
-5.95820822429086
-6.57568376591338
-6.275360587743
-5.55612717522343
-5.0872948575333
-5.38204625446851
-6.59752191629246
-8.48908244130838
-10.6236697456304
-12.6404195462369
-14.2490193766283
-15.1582503239045
-15.2149318952761
-14.494410299826
-13.1204275669111
-11.1632309152482
-8.81729093819744
-6.47708174554312
-4.503584772813
-3.001197461951
-1.82165725393049
-0.677042177613266
0.725616155362406
2.56600158480397
4.87557139501656
7.4881118977626
9.94082027742709
11.674850964941
12.5863180299745
13.1754811619154
13.9178189121274
14.7214506408949
15.1993235927232
15.1723971688484
14.6703407810619
13.6946092751821
12.2184659255012
10.2998852451042
8.08909942744231
5.80179950503102
3.66324937089135
1.76223281151065
0.0123496371835203
-1.62473162457163
-2.94264671286428
-3.61021772009398
-3.44357119815646
-2.57779194842863
-1.4672862957015
-0.626923989111286
-0.232684321135285
-0.0807450579477195
-0.0004258841510577
-0.0809713843060256
-0.427348740399321
-0.971147650812158
-1.58786856475331
-2.15077699275951
-2.47818863491893
-2.48120822454621
-2.3163852069036
-2.1870831355414
-2.10716898118674
-2.01885386090819
-1.95587377566589
-1.94772244834418
-1.97334432823801
-2.11606448710551
-2.54959097397596
-3.28485710285734
-4.08867654519968
-4.69057896631008
-4.98750349269651
-5.0748836413257
-5.12049549648416
-5.16884035594484
-5.09420674227739
-4.79214205517957
-4.31533011913751
-3.73223744225863
-2.97580470450919
-1.94752476823814
-0.670867876860541
0.719955402637293
1.9992352472702
2.83953937053039
3.0094264734449
2.63855740923698
2.11093770802107
1.72062252501873
1.58652945753559
1.75312421273888
2.14665932197145
2.56585789267733
2.89208286201115
3.17606169045991
3.44616335919381
3.62458015972656
3.67095028125391
3.61802187183293
3.46849870707459
3.22329004165129
2.9767182042206
2.86496617844599
2.96634646765056
3.25763930580542
3.54638055296712
3.50837491141465
2.97907396080313
2.13691804769501
1.25240178684088
0.408677488872962
-0.387244746100116
-1.02332842922539
-1.38514282003597
-1.49675717135504
-1.46427009578896
-1.39984117150943
-1.42463566767074
-1.62288227900386
-1.98924728642383
-2.48722603007374
-3.08114147263997
-3.65916326008256
-4.08032461960384
-4.36094944133055
-4.6293286749285
-4.86268882890294
-4.89046056934072
-4.67415897638887
-4.37732028747787
-4.1787096900922
-4.17032147821847
-4.35904002985002
-4.66577892736625
-5.03518006599173
-5.55653108213715
-6.29986563861409
-7.06252797438773
-7.46420530096059
-7.2370594244847
-6.31734289788658
-4.85201307006499
-3.2579126905993
-2.00256273477546
-1.09907845426585
0.002475863359811
1.85204486696801
4.42969896321824
7.18222953901964
9.51401543524923
11.206338186728
12.3894635763907
13.146330621614
13.2960915457775
12.6775195450026
11.4706336364261
10.0560317369357
8.70827009201239
7.59074185999335
6.84654928847917
6.46206010922151
6.19150196795736
5.82491717885381
5.41442127303717
5.11400749350755
4.95643615709717
4.86676741989428
4.72160821296601
4.37108674608775
3.76329588349745
2.99933646295534
2.13486121973505
1.05855847618401
-0.306811934186877
-1.82514513585197
-3.23339299017485
-4.27372721907212
-4.79523735757743
-4.92388936853779
-5.05851823058906
-5.51544141573781
-6.26365824690773
-7.10512693605681
-7.94042866651902
-8.7823741484139
-9.70288751358808
-10.7970604568755
-12.0240502730191
-13.1260963530364
-13.8533770705201
-14.1671749100092
-14.1374065495538
-13.8255153000609
-13.3134371412761
-12.5837629369058
-11.2931498987029
-8.92473538557326
-5.31404293063747
-0.934905654017074
3.34814017315516
6.74166911747784
8.84519467871485
9.6974054320935
9.54165381933429
8.5888282274137
7.1234389987032
5.69815647162516
4.8771053690887
4.76693453841498
5.04316581053409
5.39452393157429
5.7348737996761
6.08636916154428
6.46382698703945
6.81476865315203
7.00032477032861
6.93381880117579
6.70880869524941
6.44709985688815
6.10618441495757
5.58394202210015
4.88287789621271
4.04651614832327
3.09783252811525
2.12639381834292
1.26336518982045
0.543740866397024
-0.0543712993381151
-0.502784447294656
-0.806105509724773
-1.06099608784884
-1.30066595725478
-1.43005320160986
-1.39771126864416
-1.28729123909084
-1.23565854864392
-1.41078496634825
-1.99196805493739
-2.96753047993316
-4.02214856138351
-4.80881664876111
-5.24205517417367
-5.3740696658962
-5.15042844994449
-4.49417444322465
-3.50478759664717
-2.40374353070275
-1.3571518604418
-0.411183354814404
0.466184178341254
1.25274299199052
1.7543239271153
1.77118106454416
1.41997345360553
1.07796408179342
0.962430516345019
0.967488946712055
0.908635647805225
0.717033577548946
0.424433316417794
0.137454436330977
-0.0243945030974278
-0.0730460661165888
-0.140777496200677
-0.296009916316614
-0.509962276335838
-0.766972878883693
-1.04095791857001
-1.26026842447444
-1.45851716826376
-1.80550119377749
-2.33796942723461
-2.83452533467897
-3.06669297414294
-2.99965106170158
-2.70294375552049
-2.26503539080496
-1.82897895173622
-1.52997047293415
-1.36142128107854
-1.20291163730921
-0.943481536542468
-0.514986544252202
0.0791341980872834
0.708462417071597
1.23614776460975
1.70427878450937
2.21179155140795
2.65488495702917
2.82314133835018
2.70342657778112
2.48926949482493
2.35960718182664
2.37255205490887
2.46673311696121
2.5074653183571
2.44829244822189
2.41483816449953
2.50066566242883
2.59544367965709
2.5606717463225
2.42270441364972
2.26899198446596
2.12995042857225
2.03200316658216
1.96623869691214
1.79448369739181
1.3952307746922
0.861332776006721
0.375681076798153
-0.0048993062528962
-0.301852229225875
-0.501745319313951
-0.60357890378286
-0.648084815893264
-0.665744951700348
-0.7227242343036
-0.97290121221307
-1.49954725605674
-2.15634952798783
-2.71677514240338
-3.113692321511
-3.40436475895481
-3.59609467252458
-3.62258806223406
-3.41128257283392
-2.94423065136318
-2.35622908347549
-1.90768498140115
-1.71153728539057
-1.59789521507039
-1.38210052961028
-1.09086864016225
-0.804821919488314
-0.497242425641785
-0.144080330162227
0.199387068900686
0.493031276937985
0.732774450422139
0.90062024693949
1.0115744892888
1.10890044353975
1.12804523466615
0.932908569278025
0.543165804843232
0.1275709812874
-0.231394404617125
-0.545021186981508
-0.733912897590244
-0.663882910831909
-0.324503446410554
0.174432222068649
0.691614868959446
1.05369528961257
1.11412321206462
0.905748555210037
0.637913644387067
0.508835900061369
0.579666264484551
0.773915644114065
0.914880252379252
0.861998788245706
0.704554512795355
0.693050792324399
0.897779269166509
1.0958574059761
1.06099008127397
0.799493489412457
0.478654480198598
0.279778257362922
0.294974596272031
0.441267004627577
0.543826449652595
0.560340806997323
0.588240822060507
0.649744754058162
0.667743875517591
0.63903653397475
0.6287131381355
0.629101760545433
0.59350318363157
0.539037441143368
0.49516383625367
0.454758157937803
0.434565087811841
0.446243944870126
0.409363112180736
0.245029333368049
-0.002354532526158
-0.271529633239022
-0.589022197457984
-0.945665200705823
-1.2213061618137
-1.33253742710367
-1.32228035242109
-1.26846209932024
-1.23304109102185
-1.27875084085656
-1.40026718202826
-1.48695817526052
-1.46894436324137
-1.40705317556642
-1.33696198915378
-1.17408056578653
-0.886106687282937
-0.595400421533086
-0.414827535516266
-0.335472475492288
-0.311364471664062
-0.301327410245222
-0.239077828105889
-0.0904883182973859
0.104958528810044
0.312199361865186
0.522738247275811
0.692024337526201
0.788116369029235
0.86968217955681
0.982768790542684
1.0605424588734
1.04549066965138
0.993364214207292
0.964755522350193
0.950705587539435
0.939373989635201
0.9024474373499
0.752072437940214
0.478842163481159
0.236312269423109
0.130279720803939
0.0684550982254728
-0.0543270540107217
-0.20613024322331
-0.348035625037429
-0.51478118207851
-0.695618644874721
-0.817471452084601
-0.885087792708364
-0.979866809068223
-1.11376067887606
-1.21409523773178
-1.21613553149735
-1.06513825685338
-0.719925086812355
-0.259050829231098
0.1276675042454
0.324800579421921
0.361845656081461
0.310689298443109
0.245556432791085
0.243043919804921
0.29412929317229
0.305201997599612
0.261525558424639
0.261145785275101
0.360399844500584
0.527030494705753
0.713366951652691
0.840820830556716
0.814087281722755
0.680782324632285
0.624431588466439
0.690480415844871
0.709102623324747
0.566826130926195
0.346264459167521
0.155653181064016
0.0189938724294757
-0.0641141733706285
-0.112499306256965
-0.179205214265294
-0.268268241009161
-0.308160868895677
-0.254082839144058
-0.126658721980761
0.0391206246983883
0.179857303583543
0.192006055134233
0.0521396360494257
-0.113116719991954
-0.183788974899264
-0.197840152626769
-0.261108525710815
-0.404523338852743
-0.590189250809645
-0.741643702409201
-0.749213203588858
-0.577139023015015
-0.340980090297903
-0.165103734319256
-0.0507591967761584
0.0331086278825614
0.0834212952408809
0.143232374031389
0.261876041216528
0.361251576427804
0.334781831727522
0.241436149308657
0.214162055220644
0.254784007481444
0.280105219084036
0.259759193449427
0.193485186434739
0.0900012842299839
0.0282346905146466
0.0851310307928623
0.198482129182319
0.248494438887633
0.21877630381001
0.151599409624969
0.0554059403869935
-0.0451293296401606
-0.106184489077535
-0.168257449453834
-0.312929912181855
-0.503236317362566
-0.62107177459499
-0.64942209847184
-0.667850392196106
-0.694139645015322
-0.664845423650802
-0.541845671017335
-0.34821710218134
-0.15640864491068
-0.0741557865346073
-0.136605115903957
-0.226284098562652
-0.232959058052694
-0.218763131761023
-0.27444787184195
-0.334983511953214
-0.284362669601393
-0.103395696233638
0.175217147197907
0.489923911073691
0.701075889000067
0.708258702389058
0.604368234275956
0.551291575048832
0.576719017486154
0.621286710518002
0.645894857491482
0.589550051025859
0.401150829933006
0.179401223810193
0.089086763899689
0.131302738470844
0.186162001224622
0.217048290992859
0.240867801141956
0.207760399980151
0.0889807030546692
-0.032114757854124
-0.0828563319526939
-0.10205904837647
-0.155129613254293
-0.254393998755903
-0.370067664399452
-0.426607925573376
-0.341445729298494
-0.162961605594025
-0.0715904730032694
-0.151040138872501
-0.290284572560077
-0.375656907186557
-0.402031967788978
-0.362078856893757
-0.237506325525423
-0.107163041437734
-0.0666566701598653
-0.0787904605750281
-0.0559292918731681
0.0074611831198855
0.0903444913479279
0.194592497675204
0.285743964499368
0.331003592187147
0.379806102787838
0.463070960946946
0.500853808068768
0.449880012022446
0.403401746099383
0.422599176778514
0.438343114820874
0.405740533344498
0.370867555348346
0.343592752601632
0.284750554395599
0.211867823639929
0.162751949943762
0.105441593533037
-0.0005497586459885
-0.131300727795408
-0.251149553548849
-0.350688602958383
-0.421075913989669
-0.479760152598299
-0.586760646201847
-0.743103517016068
-0.841394264055575
-0.812335551379546
-0.728230306166968
-0.672459799869931
-0.62235502292521
-0.534491201070959
-0.417858581501464
-0.288616926160536
-0.176110386620914
-0.13555227646374
-0.136389940025907
-0.0545614612528522
0.115106062184519
0.215462221332073
0.183092484071304
0.138137430246415
0.165169260413115
0.220369970962563
0.271223704863503
0.333789686746294
0.397326783672792
0.457027293836058
0.542625288328701
0.623334821240875
0.613670877946493
0.519379499439275
0.427654582378512
0.361004657848871
0.290561523633272
0.233559205272564
0.208485706590016
0.189570331008458
0.181337448727602
0.205223780192619
0.191882366935857
0.0539273383697112
-0.139897188097369
-0.231527972139723
-0.194021346385926
-0.143261044803156
-0.173651371275249
-0.293600006882608
-0.447285996415703
-0.517768962365847
-0.422980770847016
-0.25758586525991
-0.191593106725726
-0.22702271748252
-0.230350029187089
-0.155645637989753
-0.0512493873580977
0.0592119195546546
0.137356613507345
0.103713183478916
-0.0255406382406882
-0.123077381480501
-0.129274378292287
-0.0904420947380562
-0.0333168109565907
0.0328733229504154
0.0511151292114595
0.0026245704170175
-0.0356508429752871
-0.0206833165510005
0.0002047286891605
0.0154636696184842
0.0791983065272661
0.199988666481509
0.328914209365628
0.417569038131318
0.403870493945084
0.247500809866883
0.0290710380911101
-0.123503443252614
-0.204920338227092
-0.27841531999677
-0.31632610560621
-0.271413650637113
-0.219328284268986
-0.246706715470702
-0.290850752514727
-0.255081849244211
-0.17095155374778
-0.104035590235754
-0.0372457815515209
0.0377143252219849
0.071195209394049
0.069381575138349
0.0930018782533104
0.131853544701722
0.141184271533391
0.154660698768934
0.217650935329332
0.293815426196694
0.335990575337057
0.340886634004551
0.300397264007113
0.224522001372377
0.184567854121923
0.209014365747027
0.219087995884966
0.172646965036544
0.142285331368842
0.175079730750331
0.229613916763752
0.277666763170586
0.304832542380719
0.251066678540649
0.112602373671529
-6.69021482919939e-05
-0.0444756314902292
-0.127437587604518
-0.298049609845089
-0.452070923535188
-0.51512991324065
-0.52723301573641
-0.512863965403318
-0.448923935681009
-0.362355350365546
-0.305576099168864
-0.267978623297991
-0.231854686774932
-0.23552325781275
-0.280054837851252
-0.28998452865901
-0.24169574874603
-0.197258302174608
-0.187212153020373
-0.197377231689894
-0.226587002994557
-0.232323488885341
-0.13928297650254
-0.0003040912383255
0.0360189719075126
-0.0196090546061167
0.0026977315052426
0.158839571476159
0.34762804536036
0.507043277736515
0.635203075609844
0.692209128695502
0.666448856251754
0.634551383275693
0.635355228004416
0.618267694407074
0.560373536521106
0.476767905789781
0.345313633901259
0.181968096866501
0.0886160801012344
0.0805474358077795
0.0250355862079769
-0.131495830345163
-0.264457738636073
-0.281403531087118
-0.243020134369
-0.230210430020479
-0.256382254726253
-0.314894102657197
-0.374810970795069
-0.366498797535797
-0.284072111317721
-0.226587180195576
-0.255269985121101
-0.323541003271155
-0.386965009592177
-0.427191054303986
-0.378195011488114
-0.217464569342975
-0.0781880736567049
-0.0847289843085454
-0.168885769409102
-0.19905582043006
-0.156852745919572
-0.0805284450666234
0.0106498183721408
0.0808702315060318
0.110514177619937
0.149293921496817
0.217690897159505
0.248295016276747
0.227160503099132
0.242566888248779
0.310330641950638
0.332237037148935
0.28251884558212
0.251109352850709
0.284569282417598
0.339605662123801
0.360389461058148
0.294900116471578
0.126192701847146
-0.0510498957985099
-0.111839873210605
-0.074601786939334
-0.0584435658790482
-0.0978427496460808
-0.137794407498298
-0.156251540014655
-0.162655153967369
-0.144304886061962
-0.116809150780888
-0.136684718207187
-0.194481820461878
-0.223036280097995
-0.244360886594188
-0.332039287927037
-0.421364054585693
-0.364132954066419
-0.165384078793091
0.0178903517685367
0.0745767241482892
0.0110827874860096
-0.0837622242586349
-0.0796626898336025
0.0634934551520653
0.203882883850327
0.199098303465932
0.113413804955942
0.0964265114227724
0.169226401473159
0.264731655888167
0.338354884947321
0.348823485017717
0.290281189450659
0.264830232749524
0.343254917231908
0.406358294109159
0.319509072480979
0.157334567338599
0.0693507197657704
0.0610757493052522
0.0562755310603924
0.0274261770752803
-0.0275183465335497
-0.0969016931391498
-0.118670698666113
-0.0663931469437336
-0.0422474312862723
-0.148051716423896
-0.318317874419661
-0.408500450962062
-0.381600886880135
-0.304963101824327
-0.240603622837052
-0.198621201404039
-0.119112027099784
0.0791792007331006
0.336358410464638
0.445108100440262
0.324295656039174
0.136862168809236
0.0333832261220441
-0.0122506030740187
-0.0390641942795944
-0.0110785041237623
0.0529602712524111
0.0743649187637762
0.0470515353541205
0.0146568346675188
-0.0237927788103756
-0.066836061367645
-0.0826041007289549
-0.0951565711235497
-0.149638116890322
-0.192263169446148
-0.169257627435122
-0.182581266113099
-0.339443613122851
-0.54253138061704
-0.614702055411319
-0.514595664490979
-0.312506354714265
-0.109507249668967
-0.0375162517312207
-0.15704064999113
-0.334081671039781
-0.382080737505893
-0.290222207225489
-0.16191660689649
-0.0254745062890105
0.129153522229485
0.249464922406311
0.316608252352251
0.401885179747365
0.498779501382455
0.463800915457032
0.220944584883857
-0.132845433206239
-0.457325603110584
-0.659272635011378
-0.693473338240177
-0.607354466251268
-0.517846585850332
-0.471106520285756
-0.417451541805775
-0.317838070833574
-0.151989206051572
0.110438073705664
0.418844854568991
0.642782850234389
0.768967744892958
0.92089122332266
1.10463869708776
1.16085406375377
1.03613899014997
0.877791867966588
0.824259288647228
0.887818586086642
1.01599095059134
1.11755563741919
1.10268751392627
0.997139340757767
0.914251525823881
0.883556662231998
0.839557817926537
0.762618686418344
0.68254358925168
0.580248329753101
0.423154392476819
0.247020264587257
0.0967507607466525
-0.0368367133727242
-0.153297107143022
-0.234196204428645
-0.331657658128057
-0.509700215505812
-0.700060607340335
-0.788569964985864
-0.800983239688751
-0.84349852837012
-0.948277328141223
-1.10012560437699
-1.28680336725189
-1.45438218887047
-1.56487411748393
-1.69750969710323
-1.9281491765754
-2.17636296781382
-2.33989431741047
-2.45926993184125
-2.58489179416735
-2.62242145462476
-2.44611475138686
-2.0395897203386
-1.47310551891866
-0.871279706655717
-0.366123615313384
0.052819239319325
0.535905608905285
1.10891734932615
1.5796523670147
1.79650073401173
1.80389709253263
1.69250720513671
1.50675136095262
1.32881086511674
1.26151709548027
1.31019908096516
1.40940798957998
1.5230601859784
1.61399003449093
1.60990480816435
1.50358369580427
1.38222991897175
1.29517094010365
1.21048387008167
1.10244107534677
0.952723022954976
0.734906453986487
0.521696613676642
0.464174477923134
0.551941961369299
0.583833357270737
0.455995579157496
0.266401867701866
0.10558987826971
-0.031862855053502
-0.135111654148944
-0.172815748276419
-0.163576249223403
-0.131446580382086
-0.0872888546054146
-0.0939124259477114
-0.184050637560732
-0.234564477288701
-0.137506225771618
-0.0300098653326589
-0.124248686951505
-0.406326527119465
-0.701806148180622
-0.906407290871892
-0.996331518407754
-0.9587824119486
-0.82828602627226
-0.681745280635162
-0.565232373619379
-0.511815905853704
-0.575463593779081
-0.743038145800106
-0.901523621386462
-0.989631936776389
-1.06356221359831
-1.13701526187192
-1.12091726152955
-0.990315647493133
-0.827701338014005
-0.664098111921914
-0.464936782276542
-0.262357108293163
-0.122183758373895
-0.0265459014529124
0.0836587785850683
0.242895098110246
0.493727617243278
0.837510600625969
1.14450975957762
1.27619009872861
1.25616181093202
1.17492212745958
1.03105785711202
0.803873238777392
0.546874008103936
0.302743077795472
0.0651705575186962
-0.135566736570488
-0.25489142525873
-0.316109474500901
-0.343340898845511
-0.311013223876189
-0.26045023236691
-0.304011915120722
-0.43271462176833
-0.502794991016559
-0.455835645561858
-0.371337018977391
-0.30410380264294
-0.244539950370695
-0.207812416058445
-0.20675397237946
-0.189484937550267
-0.122189791737897
-0.0438321929260397
0.0427107808502005
0.193360752618004
0.375785086546423
0.464026019671319
0.409166094911216
0.261998742080926
0.0634394396670844
-0.143025644510255
-0.281092152851831
-0.33847213093385
-0.373068383341881
-0.379023383418157
-0.306806572392053
-0.196550627411517
-0.108522159073217
0.0083835609697512
0.204924928405458
0.41175370351305
0.58113537281924
0.779704528273446
1.02147203955624
1.20194599182025
1.27048932869007
1.269007840588
1.18932015458807
0.991452688380555
0.732461556148695
0.515716281288552
0.375506329931196
0.301099708498021
0.27144552904328
0.23583754312238
0.177633427020691
0.170171172848148
0.250653926177653
0.315658382065093
0.266350142689519
0.151273222051839
0.0427654719803843
-0.0942782920775025
-0.284174081996969
-0.432211174399031
-0.445328278804988
-0.339028922612171
-0.181805485290182
-0.0530685215360244
-0.0227732910103159
-0.0553405038211057
-0.0236095815186612
0.0962658254579993
0.181398456501843
0.149813514120482
0.0195137480691749
-0.208356315768066
-0.543406051593663
-0.930139085959221
-1.31987502014646
-1.70936449873689
-2.0133390376512
-2.08591595005242
-1.95236034575502
-1.81378630685609
-1.78054654924336
-1.80022985186778
-1.8160310199199
-1.78817483349762
-1.629593747181
-1.29730647668971
-0.865512989324287
-0.427844446404498
-0.0574521434931061
0.13721722559722
0.110266786949967
0.021038052361883
0.095649443906828
0.373640761328676
0.734811591803294
1.09602545206738
1.43459380295914
1.71010094790539
1.88875451282351
1.95155295535893
1.82639081429239
1.45768048491666
0.958352472586003
0.536036621119285
0.300079814807519
0.266018924975806
0.426042859488249
0.680565279546841
0.853398532283627
0.884027350038517
0.866367854984442
0.875406137997195
0.911421548658988
0.975486923469172
1.039704849101
1.01471510498616
0.872397851663379
0.698724283798731
0.555243661008796
0.424645179339156
0.313304032683389
0.255203239082899
0.232524586040935
0.213743809706984
0.194396844236514
0.126382878224304
-0.05154821058277
-0.270069582182156
-0.38087575203153
-0.357220935088879
-0.291915379240426
-0.24552483768764
-0.238499569188348
-0.30561163077623
-0.424541015061025
-0.491704959145753
-0.472551036323308
-0.455306125909325
-0.494005496045736
-0.554719230096528
-0.637009914773653
-0.752791931580418
-0.803354990658105
-0.696016991539067
-0.534945700032986
-0.497570616209898
-0.60545462967739
-0.763886021721529
-0.898367412921006
-0.954571686159696
-0.911458784119891
-0.833012313091413
-0.767827802883762
-0.638042943413637
-0.368087070920338
-0.034230252567864
0.228985203472109
0.347835021869104
0.275433756938076
0.0098706625375286
-0.323306461259648
-0.569923640396987
-0.700248985022366
-0.738213208126596
-0.669441999712475
-0.545574433413008
-0.492004454356606
-0.498720176807868
-0.404919871452989
-0.16060674526264
0.105259500447439
0.306131234701648
0.4777323313431
0.624631898582647
0.674512005969972
0.591826303029526
0.409561596258088
0.192947464611537
0.061224187609652
0.137964994508092
0.393587139847667
0.647753407710435
0.763625252245405
0.737175429712536
0.63831521804182
0.571441289102958
0.607994016976576
0.692142606864623
0.733152755781306
0.775706261500817
0.903338446610145
1.04267187504967
1.06559252979563
0.982907932388104
0.854465897201221
0.653322080364895
0.376712333103622
0.12552289708961
-0.0414143408331377
-0.169615324554989
-0.28482947516937
-0.369550281622025
-0.435634140570192
-0.470998798592972
-0.401381785440611
-0.229898780354026
-0.0905269433987545
-0.0742393951139417
-0.132513181278813
-0.192246739776705
-0.242205892248101
-0.300698974426288
-0.384805373406177
-0.478503071535037
-0.493667339020557
-0.357014594257863
-0.156673099255142
-0.0648382163389396
-0.109471021615193
-0.190457593434802
-0.285695665490384
-0.419843738160024
-0.486477148367305
-0.350892380325454
-0.0691757371966037
0.199539120282409
0.390281826063575
0.488086241465952
0.453261209959831
0.325186575899116
0.251356382962638
0.345022623018257
0.624625162392566
1.05027828063629
1.49704576407499
1.78268165532651
1.82018424327603
1.64007543328354
1.26059868802543
0.714553040142865
0.163768108199306
-0.233758911816416
-0.522268744824636
-0.836241937688949
-1.19265492679871
-1.52857330496329
-1.79481747445773
-1.9225486263209
-1.87460223537256
-1.78200345306985
-1.85919676783349
-2.17287643107346
-2.62973324227179
-3.12596405926032
-3.55117791993118
-3.73529836084181
-3.5726543609301
-3.14679713893679
-2.61916504938808
-2.06554980763197
-1.46396845280669
-0.727570403859975
0.239493325281629
1.37773115432863
2.41879101276833
3.12383732857235
3.47956834372819
3.58909607421339
3.53815489932607
3.41009128447384
3.23697472981738
2.92938744717459
2.42723219711539
1.85333892156259
1.36390745250063
0.97964375368882
0.696736767359166
0.584048091711086
0.656708807501646
0.826758072873294
1.02060355782108
1.17560761547058
1.16969839960871
0.950545470131815
0.662547141042026
0.488300976627552
0.452036120651434
0.459315462508448
0.410242471465659
0.247612020359762
0.0168024236682298
-0.14071747899502
-0.155665405600383
-0.127362484444605
-0.169528194784203
-0.267494591345425
-0.366002407575461
-0.465219436482919
-0.557486076661329
-0.607539438324669
-0.636911833395687
-0.693582152247173
-0.758162924650108
-0.811773814241661
-0.905847881714962
-1.04004669821025
-1.11613534592502
-1.10785412017751
-1.09710560205633
-1.10070146691369
-1.06377712432115
-1.01206993169711
-1.00839950525993
-1.01586919188863
-0.971307394071762
-0.888313418275933
-0.774829560344488
-0.606500783290343
-0.444663459601337
-0.392873349020169
-0.423833777230254
-0.432687839054574
-0.406317899544949
-0.373293540648765
-0.307385025182881
-0.225711113589987
-0.225160532637588
-0.314076624184592
-0.368315765184149
-0.302486278133113
-0.132163035424328
0.120145260119223
0.42679274735452
0.700248002954562
0.863616409362657
0.924536224021023
0.911807347278038
0.842350862129683
0.779088699631087
0.765714124807732
0.709805417827242
0.521293003151112
0.313365501447933
0.249728167914995
0.285046506711467
0.266540156303774
0.170985213418016
0.0733778781776404
0.0220639987292275
0.0445678125088329
0.127899461951601
0.172896120254003
0.11243559582983
0.0192347237971106
-0.0240408694513885
-0.0322498807434972
-0.0050550421078192
0.104958621434487
0.249458471987167
0.321216809889562
0.350536694670393
0.448894719298374
0.585878931229047
0.623624670802256
0.518771880112262
0.347154405483842
0.209828247430433
0.183886913618766
0.262962797634255
0.343150418057048
0.36545158089171
0.399532979476287
0.489626303704886
0.555570950693924
0.558373612106246
0.589840955775821
0.673436233029538
0.66754578921127
0.49595372232079
0.287363013483201
0.179217411899319
0.150867318456426
0.102302768150541
-0.042343020712744
-0.282659392711656
-0.48578079382067
-0.495439166607212
-0.376282401386393
-0.371757356879201
-0.567829721625413
-0.810474403166378
-0.977866573106137
-1.11473962455162
-1.2941688476671
-1.53064133001803
-1.80828630822503
-2.07042332578014
-2.22875525016592
-2.23534691080591
-2.08580391433789
-1.7987983989497
-1.47934351682245
-1.26901720283675
-1.12421431905943
-0.826582853605988
-0.310608817515945
0.228754131708655
0.61392367545119
0.853165097669977
1.01789529398308
1.16024288263553
1.3405849587768
1.57136545504473
1.77270225365617
1.8848041498885
1.92817454831415
1.88939469435885
1.70658864683701
1.4315146530667
1.22706699584623
1.15701329070158
1.14247481292528
1.10798124468539
1.00748899019889
0.787762614076195
0.480672596027437
0.216549820742527
0.0461415511644175
-0.100844420310673
-0.255821402325197
-0.401105039284149
-0.588335099853689
-0.863291834005014
-1.14308395451741
-1.34401103784068
-1.51042601408949
-1.67370972485456
-1.74542277826169
-1.662542012965
-1.46694082607884
-1.17276157153995
-0.714663135910934
-0.0578223341710476
0.730659657054225
1.46599855407194
1.87608646511389
1.80408514157135
1.40518302553169
0.983749812279695
0.669965691263639
0.419633609211261
0.227739081210122
0.12942804441028
0.0730939215634934
-0.0158870113943739
-0.107570683459959
-0.129157008572688
-0.0709709376424089
0.0355167397273354
0.128189268708326
0.0938125960049817
-0.109450449703582
-0.347965874597407
-0.488038017965923
-0.571286409595555
-0.667848297036925
-0.725150563687553
-0.706134784067336
-0.687879338668106
-0.71041793957405
-0.700460765777222
-0.592506699328285
-0.378945079030542
-0.0695045876972801
0.271670388713549
0.527004698648584
0.647813915725737
0.666529959366388
0.581392349128266
0.391081838363766
0.195754652690048
0.0764145948345411
-0.0344344332447774
-0.192136251625731
-0.300069289618605
-0.28054289812925
-0.207391106435151
-0.157766091447493
-0.113845673057862
-0.0705522250140469
-0.0670869684853311
-0.0906367564289718
-0.0857492796532866
-0.0361424806681918
0.0559237598306962
0.189805257884148
0.294046767503014
0.26158400689674
0.111673872391175
-0.0368320189003174
-0.16169063311145
-0.316946730272424
-0.453457415711797
-0.471511080397728
-0.388556908043059
-0.275515057664691
-0.134908563620133
0.0305765635569853
0.176676735203859
0.310909228084281
0.463004445105305
0.569324263577764
0.553655629537891
0.451560457108838
0.311987925223042
0.117213225602408
-0.0807490967411054
-0.140358887051784
-0.0495407956280513
0.0372235821236392
0.0381467039164087
0.0306825278547098
0.0926676978409277
0.216356657106769
0.349152055796765
0.425921528159797
0.431856181382544
0.450435959359515
0.542994927495694
0.631204147767207
0.627461565038928
0.580982477220299
0.552954597042832
0.475335153833515
0.281655306330914
0.0459257396331326
-0.141567705978225
-0.298726396182892
-0.447264102934598
-0.536042015096667
-0.544949749036385
-0.521474087708385
-0.497803254301004
-0.505230045497205
-0.610131500412467
-0.802531452049591
-0.956216776924849
-1.00306170774706
-1.0113872234338
-1.0417018083652
-1.07933516384531
-1.1051236756827
-1.07807908251641
-0.9001341230147
-0.53164808543234
-0.0586530268084876
0.429022423618024
0.896839923493822
1.28463830564705
1.5322802222431
1.66168391089295
1.67890029208153
1.49449252123838
1.09648695373844
0.661228317989749
0.365925416288378
0.240460375342852
0.247149318038525
0.316281573114902
0.303928898661553
0.115662594663824
-0.144733883511155
-0.308689256458527
-0.362502649162377
-0.394878771574762
-0.419303042519048
-0.385710887424334
-0.281864155299801
-0.127501459417708
0.0367645505507408
0.11767577846298
0.0455452984613276
-0.129590818674199
-0.330155711322211
-0.557160881984452
-0.801230072436685
-0.987415643873067
-1.0928285538993
-1.15747485686285
-1.15048478768369
-1.0108946644847
-0.800948027741635
-0.634853964841447
-0.515623095275964
-0.392811937519028
-0.272510649639098
-0.154429817826995
0.0009860442474349
0.176549865588119
0.318942977713161
0.449804579775666
0.600326484029013
0.712698173715123
0.760367532135571
0.831664653247508
0.959951749316801
1.04489390736122
1.0503773598154
1.09523833056266
1.25982956169852
1.4530727857721
1.52110856861251
1.38541020158562
1.07877727405008
0.727272903919922
0.464184893928448
0.310902907070155
0.202298101877944
0.127880010254436
0.123588165003263
0.148466220495913
0.13631767998592
0.124346994417595
0.157789196035319
0.147906378176354
-0.0176160651232075
-0.328019510962131
-0.712401340810696
-1.10832709904232
-1.42574380396911
-1.59680726649295
-1.64911188543756
-1.60755077899054
-1.43448941481602
-1.18746302414034
-1.0537408370503
-1.09984526027798
-1.1804279293256
-1.18141192114567
-1.14234855948639
-1.09213995942669
-0.977641764528481
-0.785830953510603
-0.5840491321895
-0.45084524117558
-0.438135580120567
-0.529126425777301
-0.617978192792444
-0.621841174010059
-0.556038064922285
-0.396046187027738
0.0013429867999146
0.689045577840552
1.47607921195371
2.13198296474991
2.6139362507284
2.96772025270028
3.16139918209625
3.14478375338185
2.92644314137281
2.50171468617947
1.85118416324394
1.05505954171139
0.278480117046214
-0.346595239001473
-0.738028439221233
-0.856262689217419
-0.7563960770239
-0.535038028698979
-0.211506353624162
0.207191323528807
0.603486040649603
0.852741621866966
0.96416773242715
0.991776228055029
0.93915731241617
0.839951855282024
0.754397951292992
0.636308727861531
0.394258217538543
0.0711853490144537
-0.230439429129054
-0.51787666805672
-0.814798548509284
-1.04039126889406
-1.15256463927362
-1.24939924029871
-1.40273145319803
-1.55537224875032
-1.65270840881624
-1.72044317677604
-1.7885325504375
-1.87087795468123
-2.0055686622582
-2.21159379631696
-2.4552739303799
-2.72509810883904
-3.0305821597161
-3.26881824199485
-3.24356188801878
-2.88378884386345
-2.31547791273455
-1.70441816929075
-1.13826974398794
-0.610497768407933
-0.0299919724075593
0.660104567450588
1.3467917069426
1.87614557014717
2.27575750588443
2.64800085987848
2.9264625921878
2.97552076962815
2.84807127003761
2.73174229330007
2.71566622189084
2.74271110772943
2.69326694923755
2.4646362386967
2.08505945764519
1.71945664480447
1.44777164867682
1.1660725889067
0.828367209999369
0.583529491836005
0.539731728986355
0.60284294209182
0.645690882703012
0.641615948883528
0.585028679766442
0.455031163351454
0.271126499708999
0.0644624896333089
-0.168279816766635
-0.401853354402278
-0.561999716829667
-0.63206608518003
-0.66759252053205
-0.674993645948048
-0.616152040793369
-0.517557561746426
-0.403912623390675
-0.187243305605409
0.188330393846351
0.593423736101132
0.873838460018532
1.01255559999549
0.994076124849741
0.70642205816883
0.117673213111847
-0.605130965994909
-1.22789801579403
-1.60148997477631
-1.7210271179924
-1.73191513267851
-1.79333821524771
-1.88699016490297
-1.88844574703365
-1.80195928407864
-1.72774479343607
-1.65602177929375
-1.51736142753294
-1.35680900317306
-1.25420036957027
-1.17260610060488
-1.03563647533898
-0.837644663486391
-0.601479872081329
-0.361423826961617
-0.205287200220774
-0.20374423573025
-0.319688542702648
-0.476225061952047
-0.63189515467414
-0.717001617988933
-0.62666488358244
-0.360502341625471
-0.0469935122228362
0.209707450783067
0.375002974996853
0.41480451876769
0.371534962567956
0.436510272078154
0.727616064652795
1.07612229248467
1.222137088589
1.11831904684983
0.908616908037333
0.736770426292168
0.661087078988379
0.643760134406481
0.606105495936325
0.56656577847407
0.639298979857344
0.833127567780506
1.00715031271194
1.08390351964564
1.12688823770653
1.17731194872909
1.19638581734697
1.16461008572683
1.09117941447792
0.986086038472479
0.916476414797454
0.962358517946545
1.0724641567402
1.13171078432851
1.14865151291154
1.1795246877921
1.15132564132151
0.981904327801071
0.767967389076379
0.639083669500653
0.53827653897683
0.333770716204103
0.0302650192290518
-0.281417978572409
-0.553358647980773
-0.739959729492752
-0.770808201826492
-0.658305833170014
-0.517405383779689
-0.449988611548041
-0.494027408030435
-0.627879897762976
-0.755347076421139
-0.797664903356422
-0.821568373920508
-0.925392287716572
-1.0470941944632
-1.07924703927018
-1.07423027292462
-1.11673583405579
-1.11686329895502
-0.943127384698885
-0.643280395625606
-0.373829663946542
-0.219409370901961
-0.153822651381054
-0.0676649784237773
0.141340621963195
0.380582998547511
0.369610260536142
-0.0333319870602736
-0.659709935879249
-1.28278059688931
-1.84543679398604
-2.35626782333284
-2.75815983583922
-2.97396524601023
-2.95273445062977
-2.66709560130181
-2.15810064864878
-1.52897537122086
-0.82973107371612
-0.054100242758699
0.703177528691297
1.24943329031446
1.51580588287291
1.61245004420546
1.63311446433419
1.5746014661786
1.43926459286812
1.25136685476617
1.01363012399407
0.769038734856247
0.620142800200645
0.620889095707648
0.764418276725295
1.06681840363345
1.50342443797891
1.9114833425449
2.11876211109844
2.10200898779906
1.92133493578342
1.63894538673864
1.36775279346694
1.20145337969833
1.04005339400384
0.687067933983281
0.147327905292941
-0.345421697691217
-0.578864739057266
-0.521410324420403
-0.315061540762156
-0.180082150710666
-0.207822937530354
-0.244314170019755
-0.118897328449974
0.086363873425168
0.169914440242147
0.104008935953949
0.0064068661840211
-0.0738944015112181
-0.17106280259106
-0.293382957853167
-0.42387151968953
-0.549893559183578
-0.644248318920369
-0.710976796169357
-0.814994145262353
-0.943965529513512
-0.950800626995794
-0.77863978714002
-0.581124253777014
-0.482001726396056
-0.415986853597624
-0.318598647818551
-0.253995445591136
-0.26747451939486
-0.293905656486151
-0.243899608428863
-0.0615389918113832
0.242254084157817
0.528890364020976
0.631069514717831
0.562706839861208
0.472787543896837
0.403282656006503
0.292262088847779
0.16401331421144
0.100934013867213
0.0981367029477712
0.118425384980538
0.177741803061625
0.251612380338475
0.245418433002549
0.142585758372079
0.0373931456643447
-0.0116275231290729
-0.0318422280547353
-0.0583392933379187
-0.119781747339295
-0.254691021046471
-0.450913867860356
-0.636293083697331
-0.780884929596911
-0.90113431662155
-0.944916162016451
-0.834303566781958
-0.63741286941941
-0.527200810172565
-0.571303172722004
-0.691627110833594
-0.762588801442121
-0.650498030932277
-0.286057456733248
0.223482723550589
0.682519537707429
1.00100153663025
1.16005573986702
1.08701672403915
0.75644521280752
0.304637915434891
-0.117953322323258
-0.480674772573611
-0.764145559218821
-0.891068990989687
-0.833168962461305
-0.637282295168319
-0.358265938924151
-0.0986472200903847
-0.0055892977582883
-0.0852555021403965
-0.163231093911735
-0.127406781982617
-0.0363596162360047
0.04893128679552
0.135270743648987
0.197356151007691
0.202326594814206
0.2080081763854
0.282060642114574
0.388245774050802
0.475704359168588
0.579494809098451
0.722839475789436
0.831392377734457
0.826539905195041
0.698024083150453
0.469719595591487
0.217069268771178
0.0727020000950879
0.081273057658599
0.130395012261578
0.117992346092374
0.0553784239734887
-0.0358243805623322
-0.148707405496339
-0.212666497773887
-0.175746994490812
-0.115730491673485
-0.10552717860844
-0.0793336054676298
0.0257765348508824
0.150918120090641
0.247210315470401
0.346533649409707
0.436779498319538
0.457421714302592
0.440819923463019
0.485495276672522
0.616338101695072
0.800360543429602
1.01389042717313
1.20165891280632
1.28360401703649
1.24475396006043
1.10945711331476
0.862902230399083
0.521020908007508
0.199302584808653
-0.0076513628224822
-0.121506578839756
-0.176844676748757
-0.161123275598616
-0.11865946228668
-0.138264887631611
-0.18861947162083
-0.163403826232906
-0.10648570137897
-0.173919158856661
-0.385937803980939
-0.623531025475357
-0.814206395509875
-0.948515449460701
-1.01480897650006
-1.04465844345689
-1.09465217250928
-1.12099939934155
-1.02045494630634
-0.805288707268595
-0.600651081865457
-0.508554643555394
-0.570917709183544
-0.764131174672595
-0.962734321691539
-1.04022801250806
-1.02249882874389
-1.00670870922257
-1.00303418676224
-1.01770036487616
-1.14877926986114
-1.41779376510415
-1.6673100191943
-1.76820180844697
-1.75070527675669
-1.64511834155734
-1.39131716666061
-0.973795365029742
-0.495344494494685
-0.0964137009759789
0.106793863590628
0.0653050625206983
-0.128806051532117
-0.297015339397395
-0.366519912663332
-0.387697101931198
-0.330177753289046
-0.0408168623125329
0.549524341196584
1.3325289269846
2.13129336169995
2.77135887757082
3.11624124636263
3.15723258781539
2.99111008679272
2.6807834720705
2.27017449254427
1.88629253174497
1.63323581962917
1.45446998848953
1.27270073051718
1.14661801413805
1.14117843916126
1.19961569258887
1.25582817077868
1.29977923796916
1.27681883196986
1.11085606038527
0.838941133100091
0.563334834429158
0.323137999759656
0.131183546390569
0.0166598144880546
-0.0543553786472037
-0.15240242013801
-0.249297563641356
-0.270789562566405
-0.262190950662528
-0.334802006767919
-0.488416546357824
-0.627084939008597
-0.696713367112417
-0.707430962272503
-0.693136993751961
-0.710556824649384
-0.788911336062373
-0.868840502356345
-0.898422525328737
-0.929902490494281
-0.982861667449484
-0.943367074899048
-0.770978980806421
-0.631419538064912
-0.650761356020766
-0.728808944942923
-0.727612778967614
-0.647721742059555
-0.547309931691767
-0.478145652937802
-0.513106149202703
-0.67673192347863
-0.894168040257345
-1.11014073189157
-1.33449050457921
-1.50933534393637
-1.52135200458585
-1.39412334348339
-1.271634089878
-1.19870989271615
-1.09432088144816
-0.90666766325436
-0.655770452025136
-0.397626045801332
-0.219871071419408
-0.158458121669186
-0.112074006901991
0.022696148671738
0.187197259281184
0.282072234225676
0.349752410629049
0.471108658039032
0.592447718223774
0.617338295652083
0.569898874066744
0.539024067710416
0.567402369393994
0.680433468875854
0.891224587962835
1.11661470435981
1.21823678193407
1.14773712229926
0.95905559404801
0.731169308040542
0.546063013309425
0.440332651920417
0.352038170031075
0.229565605158627
0.136994746520859
0.117590467651164
0.0815398169174718
-0.0218272347394167
-0.0863171797987788
-0.0344886685213981
0.0635043557508978
0.147060845696707
0.256673594217302
0.44035793709737
0.739926108157936
1.21350673947666
1.79946325590589
2.27195768011088
2.47647829808599
2.45335232093676
2.24517747834535
1.80204458616324
1.15305492842013
0.473979518006504
-0.0583382288801308
-0.352832622417091
-0.398330576282621
-0.292953957394309
-0.196054241286958
-0.152151657407965
-0.0631768844725223
0.102612396950041
0.209869732032401
0.115296415594554
-0.20379802934966
-0.682341208596553
-1.19404909326955
-1.5899971510531
-1.821597369186
-1.92895730253944
-1.86688097322389
-1.54697070799163
-1.08443253978977
-0.755629339067097
-0.683701741438802
-0.773727087891388
-0.907930263284765
-1.00541886488606
-0.993446256975174
-0.908892628200396
-0.917933441123191
-1.11019578029052
-1.39822744975333
-1.66208754653373
-1.83640492454005
-1.87448868759572
-1.79725534453606
-1.71938288427427
-1.68762092758737
-1.59326296592156
-1.33176462576351
-0.914915920947972
-0.396860671090343
0.155559091635009
0.632886130358213
0.96774660737593
1.2031778464788
1.37625789441495
1.43665903204426
1.37174184893643
1.28632771193
1.28055980605465
1.36881578015173
1.53603710814146
1.72549631116327
1.80623829547794
1.72152403686467
1.58815411592922
1.49854129304504
1.37853708125822
1.17878265354679
1.00184099101389
0.917673200036729
0.85998660211015
0.78118065681143
0.723898919993066
0.721045908177836
0.770828244161445
0.866625774668234
0.955727764635477
0.970261130926812
0.937606516141887
0.904992997406188
0.773776686847831
0.419605249845244
-0.0645174281127487
-0.46134223108153
-0.695632883047341
-0.818087644503067
-0.828545450131445
-0.686390520013474
-0.417724714123361
-0.120116426977033
0.0803382902724582
0.0841950171100379
-0.094053298291252
-0.337297421162404
-0.567658184924157
-0.789175709166619
-0.979856711670444
-1.08908870346296
-1.15486323222787
-1.2527901531564
-1.33418363017109
-1.30328525932946
-1.2103300711825
-1.15634480908171
-1.08717729152972
-0.899058104068755
-0.647446610597243
-0.470412560099947
-0.415509844012991
-0.438506769770165
-0.43729997926499
-0.278525815377881
0.0474081675656062
0.348133067365726
0.45292850429464
0.404629165919696
0.315697671936889
0.207558760490593
0.0919978451807393
0.016024487962722
-0.0499778892503822
-0.193152518455791
-0.404723828347749
-0.583196510662255
-0.646971500956543
-0.556555759029593
-0.339570852790693
-0.138887888004529
-0.0813536475009049
-0.103608019620585
-0.0726389162712462
-0.0083132849829249
-0.0049569081738994
-0.0398082611202845
-0.0454023137448536
-0.054342098414516
-0.102816503553887
-0.115092073092815
-0.0280755195688009
0.0973184125758936
0.189656550090608
0.254359392972688
0.301552053976936
0.32784557837542
0.358542246391958
0.389797416458318
0.37253645486524
0.337885633844544
0.386974155381785
0.505438257569816
0.573916993388829
0.570213826300316
0.572718212114337
0.608119569787382
0.6692020747127
0.793903742438253
0.98123160925357
1.13829256740568
1.19920448883619
1.18139298910554
1.12183420902713
1.08440124465612
1.14732813860464
1.25138835762189
1.21367477567762
1.01012283565357
0.841040226436184
0.831430781273688
0.899340610443441
0.967896649413789
1.06625662826987
1.18985193959934
1.25958113567017
1.22496852379516
1.07434817262964
0.788315541033504
0.384744865332452
-0.0618983552777037
-0.511160518449974
-0.96718890381452
-1.37632941258108
-1.6569272282384
-1.83679333203946
-2.01457774912242
-2.21552606187745
-2.41036944910559
-2.58982552492538
-2.7195332512679
-2.74649309487139
-2.71216340132353
-2.72373309950188
-2.8081290062254
-2.91624730676824
-3.0027713986122
-2.99045112490855
-2.77847320539742
-2.37743104116812
-1.89171463283397
-1.33726055872155
-0.657529131239652
0.0980782807077241
0.814013535955248
1.46855848162448
2.05946593570947
2.46540045808994
2.5540636805784
2.33429359349165
1.9202871874138
1.47010128980672
1.15140686357916
0.999859220750548
0.857164205198644
0.60709798380884
0.380901480098129
0.37997361852355
0.61067405548961
0.922649005818747
1.17280498764834
1.24511955284646
1.07034764521236
0.731166918094293
0.41442475207901
0.219343855672507
0.133064672374005
0.143239655494583
0.229187027521306
0.321586735388994
0.379633852618758
0.409503403733108
0.38380762099042
0.288748679180684
0.218374945474352
0.264496316238497
0.386670101764654
0.510386050885894
0.61924048231897
0.670597706634055
0.606339466149078
0.492287122404844
0.447067342409382
0.445886913968296
0.395542889941666
0.324658235162895
0.306314880553231
0.321479083829168
0.35629642237842
0.461496033620037
0.601624058943558
0.633207160465158
0.495703427556257
0.261709017747607
0.0114879558443855
-0.194564782141447
-0.285833017227792
-0.258328772865528
-0.202415640609638
-0.170939554812534
-0.133313365252833
-0.105863641191635
-0.17389234592795
-0.352689910269811
-0.579350419543013
-0.821517083641404
-1.04236503277764
-1.14737953417102
-1.121199460521
-1.08812238341509
-1.12296644461703
-1.16833872562542
-1.18667740191023
-1.1916224742411
-1.14190459679887
-1.01958129848659
-0.950078151824675
-1.04366468597978
-1.21539325332353
-1.3155474143286
-1.30829562654663
-1.22332196708344
-1.07920918324079
-0.902608924377241
-0.70409383613625
-0.474643457590821
-0.290266381533518
-0.271791870773135
-0.357298759202412
-0.315270564849332
-0.0493392283006889
0.310015649762825
0.618636020443632
0.823265109107791
0.908423686836569
0.930436295451482
1.02302776093349
1.22123086202286
1.39966369220451
1.49410278855193
1.6146976373792
1.83617643590876
2.05700173971259
2.14592297827435
2.05706847206591
1.78702623607738
1.39735342242938
1.03567111402514
0.768214558527564
0.483583040119779
0.0852314579037282
-0.356966763881117
-0.71827786195487
-0.929930331843479
-0.970898352135743
-0.895768602117438
-0.823826351292218
-0.795056251235127
-0.746105174142571
-0.678230789858731
-0.66691121416164
-0.687912505948853
-0.65436064130559
-0.612407422823794
-0.673101365360864
-0.793071492174228
-0.820241668245761
-0.68631336962875
-0.427987596019435
-0.135684940356068
0.0665805967136299
0.152103313788926
0.294067964316274
0.653210639636368
1.10884179889765
1.37662486838226
1.32580766888528
1.04024385468568
0.667399717714953
0.333523913925235
0.104145858288676
-0.0671186879014498
-0.257111071003661
-0.424664863285928
-0.477392963479731
-0.444742652045406
-0.40928268148284
-0.33656220543961
-0.14499698713536
0.152344694627445
0.496935406897911
0.83318506775177
1.04128031689304
0.999670671842084
0.744915489762965
0.414495372155642
0.0733591603903995
-0.264701700922282
-0.54653140835552
-0.737041123567379
-0.860241415539864
-0.927472508844199
-0.943809394137778
-0.955910782694025
-0.955526143459741
-0.835470699882004
-0.575947080425159
-0.31259950038772
-0.111846931072978
0.101891446239362
0.315351890840874
0.371549778357177
0.207992639972585
-0.0600398110810732
-0.29516302365896
-0.40352580352078
-0.312902388646374
-0.0568576456382292
0.192539252413516
0.300300987331579
0.285407842118726
0.20184160761054
0.0581268892775545
-0.0917741612739467
-0.152746229975807
-0.123592672444917
-0.0827633022540632
-0.0612317231078711
-0.0423708423589223
0.0048096043072758
0.16849259804188
0.518337226561709
0.94642139251317
1.24841853450421
1.34333903087685
1.26126091956628
1.01978581906229
0.673796986612322
0.346341917379899
0.0823993443940345
-0.169449522148573
-0.383549425296665
-0.477982442119651
-0.509677509388972
-0.613763679963281
-0.777159262743505
-0.882438637484334
-0.90329774995328
-0.886371167467954
-0.847980144443558
-0.805674391558004
-0.788208392764469
-0.761747995229766
-0.668881214711969
-0.532741241725836
-0.412699224833442
-0.31002930948366
-0.20516914485828
-0.104095189792114
0.0100648789324589
0.156570458440917
0.266093361171172
0.272073378763026
0.295399649209485
0.532813614761756
0.953858898722525
1.29800654345431
1.35135525382991
1.08379067702669
0.600542243698379
0.079119214332682
-0.3469437908961
-0.692403540120787
-1.00738345875096
-1.22276783111563
-1.25514630328729
-1.15635161547198
-1.01438415241393
-0.841823007264295
-0.654294221003415
-0.475305823196753
-0.218143758021568
0.211857725637966
0.681904579402367
0.927637659585195
0.87385318873082
0.675332588330022
0.502143786596851
0.422632747930243
0.396748918758465
0.304599596540514
0.096975918141622
-0.0862309538275912
-0.0858240705878782
0.0539334542270335
0.183257360407368
0.265573568136158
0.338430957647653
0.366154694778621
0.299660099370706
0.207734805319885
0.222787214998543
0.40973949915596
0.731625416575228
1.06556767339616
1.27692451058751
1.37673378822998
1.52165678839573
1.77126341647816
2.00227821715259
2.12925616677943
2.19387756531327
2.19398285518184
2.06719727249778
1.86129734713768
1.70301322094338
1.62642951886263
1.59253463490228
1.57137772418602
1.47482935820066
1.16160936101187
0.613862241103336
-0.0260283321318709
-0.607151687706271
-1.02703745725888
-1.23677308575815
-1.35954127419808
-1.66238194793775
-2.24795268770357
-2.92812258410252
-3.50360831753577
-3.98593434066108
-4.48406661027261
-5.04865062769555
-5.65234150549804
-6.1870556414778
-6.49688306101458
-6.50037391821361
-6.21813690109523
-5.64147629570541
-4.71001306448837
-3.47452336768443
-2.14013407924588
-0.910669565715947
0.0910862231692866
0.804613004576077
1.29504582406571
1.73713539218472
2.17798152943788
2.45405404041954
2.46439655400656
2.34435195260853
2.28684491562138
2.37928552800197
2.63178606755056
2.97534003569084
3.26341853083411
3.43046882518306
3.56900331442976
3.75012170883178
3.89848855438395
3.90273825135545
3.71102077159545
3.32929428936708
2.8672754071977
2.50910239966223
2.30684374867947
2.12335638058442
1.86200292801211
1.58204404214767
1.34713352830161
1.15348604736966
1.01393323312162
0.939526686788633
0.868546671228517
0.740732766023285
0.569174737911905
0.359268850969319
0.07673114184576
-0.243231128446017
-0.499741928737391
-0.685305160306405
-0.888747281005258
-1.1257714346755
-1.33388640385028
-1.51675191664014
-1.72321317385081
-1.93255623079982
-2.09642825260964
-2.19817548795699
-2.19280536601216
-2.04860519646396
-1.8843194226327
-1.86943892145021
-1.98527625711735
-2.06510157836803
-2.01756461097287
-1.85380699081121
-1.60002544900509
-1.31819936147152
-1.08960674117992
-0.896126665126153
-0.653770107319391
-0.38062847221276
-0.181715853533295
-0.0915673745842533
-0.0553817463750427
0.0035463750383251
0.168461923865429
0.454038342965334
0.716262175372344
0.790033532911765
0.706555530359787
0.62771481999468
0.62362724404846
0.653495853540469
0.67885313596065
0.669501902880121
0.586842796568955
0.455063953066982
0.358850603484353
0.32221613692006
0.28899816022261
0.216597976816347
0.0731601252601511
-0.184636799741157
-0.487455838515197
-0.629951730624389
-0.523870187465105
-0.332457961481389
-0.241768974744935
-0.259824927967762
-0.293369196433522
-0.251280585591741
-0.078562921377359
0.15632962801875
0.273236316013238
0.196742785861458
0.0341615548915634
-0.137807873488921
-0.374031625626952
-0.6817529559467
-0.940147596283759
-1.05229804942346
-1.02497638345932
-0.909847954067593
-0.783872611337589
-0.712254474268796
-0.647035504921514
-0.477669300348852
-0.210856243150797
0.0457503987715697
0.256196382099615
0.45642409645735
0.645100823500057
0.826699206750907
1.08463127372816
1.47959588926617
1.94777580805784
2.37656580370034
2.68486390148478
2.80021541134711
2.70774194389325
2.55092337859565
2.52572320660876
2.66224971858918
2.83342253658279
2.91340578398944
2.81066210501152
2.47539574820301
1.99776385905382
1.5718484159628
1.29530792316754
1.11615883569667
0.944875081578716
0.688991172283269
0.270376101472911
-0.264268554158368
-0.768658471457293
-1.20183712562266
-1.6431066169903
-2.090460272283
-2.46132205465412
-2.78273119494736
-3.15703575642806
-3.57577494889144
-3.96057455650819
-4.30943786199883
-4.64448431160162
-4.91154439821903
-5.02746865668894
-4.92777935784741
-4.55700733998152
-3.9279553095626
-3.15627134017343
-2.34635607178359
-1.52973788983048
-0.7802025393256
-0.246614757387339
0.0089942018948952
0.0732700743598217
0.0413979922694723
-0.0304829693169112
-0.0292745565493951
0.164507758844562
0.521752671188534
0.920659361745449
1.31437689006206
1.71342167983154
2.09927059763593
2.45105874824502
2.73388059446919
2.83601461438657
2.68199422996607
2.38795979743942
2.13936441786008
1.97707811716275
1.84389017636621
1.73472743975901
1.68208016962466
1.69943082926768
1.78890975690967
1.89788298013027
1.91102750365299
1.81022769075508
1.72747825560072
1.71916838998268
1.66884847668746
1.51822250044761
1.36926838140336
1.27511839730576
1.15670678536944
0.966682758413956
0.736712176897805
0.481083196361625
0.223771767508582
0.0539913957166491
0.0091057602760233
-0.0063508248128962
-0.0753749549668645
-0.159055630741014
-0.207550169993844
-0.236560909301144
-0.249256695663401
-0.246904144864223
-0.327638721077352
-0.601164926249864
-1.01744856394832
-1.41511413731171
-1.68735684440809
-1.82523886553754
-1.89681555373153
-2.00597955006729
-2.16073945465668
-2.22883917512514
-2.12806013216524
-1.94000672583264
-1.7442237124747
-1.52196298844306
-1.30544217184876
-1.215140966969
-1.29050481001223
-1.47178845891792
-1.73482645984423
-2.05047805997766
-2.27426220903157
-2.2517724773438
-1.94779917104379
-1.38156633267027
-0.599390514711952
0.231366703733033
0.893278287444137
1.31719688085878
1.56300288752651
1.65518377632391
1.59375500934172
1.4530971216766
1.3232369516968
1.20943812613109
1.07030083203506
0.874239380907837
0.588351816880827
0.233204033334723
-0.0486596427465483
-0.123531640989654
-0.0423479927549257
0.0424848412763583
0.049351020151775
-0.0556450584363373
-0.300172173142563
-0.613309163921815
-0.850276163465998
-0.963377271291735
-0.993730398081696
-0.924779760993531
-0.717045090070904
-0.415696545868578
-0.0744464440410902
0.324977960287508
0.784571245396527
1.25757842122148
1.73800877958207
2.22679982583147
2.63485858289719
2.87468910187115
2.95763399599225
2.86462078114728
2.4909118680705
1.86614089130764
1.25059398589783
0.8997315557151
0.880814860057257
1.13212752556438
1.5198718406061
1.84821406918944
1.97773014129132
1.92571581278154
1.7766113701368
1.57932998453752
1.38623117100355
1.253831959654
1.13405939623623
0.890885136192418
0.46069607406037
-0.110737910161117
-0.741392502904538
-1.29772054189216
-1.61912501668126
-1.69361395687456
-1.68616390521971
-1.72955969394763
-1.85221713882214
-2.09423123589024
-2.47372148212066
-2.88933605186622
-3.25887887561049
-3.64564418233959
-4.08153212122634
-4.44025077405025
-4.62608339762668
-4.68084756589027
-4.60588620151136
-4.30461296129414
-3.76548755847049
-3.09529075244396
-2.35379867930097
-1.52510300318752
-0.634629655864371
0.206259885080875
0.825596713414218
1.0677175570508
0.965821292462795
0.794256656005396
0.81277420218183
1.01984958323581
1.25318790779657
1.41601440740794
1.51149992891617
1.58791528138585
1.73977814410745
2.04446099448473
2.44022486870182
2.77508040349084
2.97738695701728
3.06379457538773
3.04191839867065
2.93502583962858
2.795786198546
2.59095206201934
2.23896544964737
1.83197062013395
1.59676704135224
1.57880393706474
1.5858421693264
1.46243265078583
1.2266818378701
0.965925340757205
0.755577445835512
0.625759783242008
0.518455688433462
0.358176648495183
0.169270494321077
0.0084353333041695
-0.151016800298983
-0.330158383396383
-0.462421476137538
-0.535893161509802
-0.655971751472715
-0.852450232284949
-0.999340037526596
-0.998837815921444
-0.888060449922041
-0.760511540148297
-0.717828874646778
-0.835359063558553
-1.05308290477644
-1.19637080927086
-1.19566425135168
-1.16837347802931
-1.2324173401068
-1.38750980345477
-1.60390592499533
-1.84577795956054
-1.99669993093403
-1.95810172794589
-1.81719117522204
-1.74565214857918
-1.77521222262122
-1.79815009653268
-1.69321143547019
-1.38097854168224
-0.895482347810234
-0.415972815323482
-0.0773747415587916
0.189650806444291
0.476639034233192
0.691685658516512
0.709349699194121
0.582677989506307
0.465762652229958
0.463261396242406
0.625124546834594
0.933660338368045
1.26937032014685
1.52229116558863
1.70310874076516
1.85069675368643
1.93962359727477
1.95435250521616
1.9137423771529
1.78274747339464
1.5001330639587
1.08603986000517
0.611604111343825
0.126669219214315
-0.306004682493291
-0.617896224772503
-0.826936285090353
-0.990435932567518
-1.05849177018261
-0.941689753794361
-0.712449621113854
-0.547348132288655
-0.490877248274903
-0.455891549509927
-0.38778437392822
-0.255940630414656
-0.0111225128986168
0.281291189679132
0.422896170722759
0.325977302659206
0.116165260076616
-0.0524731092097692
-0.107554289561534
-0.0123747621101683
0.198061361638304
0.385067375845155
0.451135734515086
0.435572269464959
0.403965199030214
0.376899741181751
0.374865036557697
0.371225097868076
0.247724989711916
-0.0325020452060389
-0.303396600355548
-0.403617089119991
-0.370522973884665
-0.308733662231004
-0.23760315284529
-0.158434899381481
-0.105901673823884
-0.0852765602004774
-0.0866591238404367
-0.139320040979435
-0.243354579446919
-0.316376725529045
-0.307251980432074
-0.283479509523475
-0.334444866075641
-0.477279750268424
-0.694619179723225
-0.954662304567823
-1.18268117997368
-1.32214257008481
-1.38416087485371
-1.33768575380353
-1.06671682631319
-0.540181430714086
0.126947866804613
0.837501243886681
1.53689385640283
2.06249312675074
2.20589258632729
1.94504528176003
1.45375814808769
0.936751762753377
0.55873939023575
0.385865807093217
0.290478908472145
0.0727853971737003
-0.262054184258565
-0.507070321887319
-0.533433281753763
-0.403627127633918
-0.238463539552076
-0.110508529904592
-0.0280527354913675
0.0391623994037311
0.065533348812715
-0.0483085031925548
-0.291846324124394
-0.462784142792013
-0.417139459770631
-0.267018999586219
-0.194960351195253
-0.226907196493404
-0.314010217025392
-0.476400813000673
-0.730837572933846
-0.991892011935669
-1.1350576144114
-1.07324263182709
-0.768467123680964
-0.282900624745336
0.222537020257212
0.653829738830709
1.06321998500212
1.48230585610403
1.81896328008043
1.980959803836
1.95000223947429
1.73017424014287
1.37579719350762
1.01480279091142
0.708314543125479
0.390391907232339
0.038487872494363
-0.257372036155423
-0.453778142033691
-0.590369453929739
-0.645270771470258
-0.549606322935223
-0.326130086091947
-0.0475776426072675
0.254119183476043
0.502108895279565
0.559073270707893
0.417213869840637
0.224316868458085
0.0530778257804168
-0.164167683818738
-0.44952526974822
-0.713483227690532
-0.882762995788032
-0.973664583137204
-1.06503891966043
-1.25149819617598
-1.54001832443284
-1.76508762669562
-1.72264571022265
-1.40589364373324
-0.99819996514826
-0.671978323695432
-0.530249253855352
-0.659439417873886
-1.06855221128337
-1.64484580515515
-2.2592919915784
-2.791125999685
-3.03890696147747
-2.82350871846497
-2.19401569345861
-1.35275073340178
-0.44077765079986
0.445674094027894
1.17798828771049
1.7103106319752
2.13122162605462
2.49905903966001
2.78009241513279
2.96359205691246
3.05012689337728
2.9661369548822
2.67932609666145
2.31847956024595
2.02722848315937
1.8196474455132
1.67357385947213
1.60517106009367
1.59915371435837
1.6187707183783
1.68092632933449
1.79825763248953
1.90958025566268
1.96031724573184
1.95131929113597
1.85368981607605
1.61164487257729
1.266496340595
0.929421093723771
0.615672230208791
0.252156043263485
-0.177349198769893
-0.643329803395905
-1.14716171613745
-1.63977164484335
-1.99412955665315
-2.19214082148449
-2.37957904115132
-2.64748868421063
-2.93625511568687
-3.18199549986751
-3.3701446837242
-3.45927588323753
-3.40508654817664
-3.20628449704236
-2.8526209569543
-2.35314072771326
-1.83689501549041
-1.44906944790263
-1.15940354868325
-0.847461132490022
-0.504046995030186
-0.18288070560642
0.115835418444051
0.369094211967232
0.507975400502995
0.568997083791352
0.67989371554617
0.860628438582478
1.0293202161729
1.17085583518548
1.31636004378138
1.43856791274616
1.52277028385213
1.62333636899787
1.72720926562504
1.69994021007094
1.45998804787737
1.06820982259421
0.60961948582132
0.159927374735872
-0.125482062347539
-0.0934004507105432
0.218687413111903
0.617427820693649
0.933070506190821
1.07147112415111
1.00681536672606
0.811979668411558
0.594218880119258
0.391674345956065
0.226978081195225
0.168481178677319
0.212645235087134
0.23159375506547
0.138897767156355
-0.0378299787741635
-0.285888375561412
-0.618377935057655
-0.951836707863656
-1.16573124371576
-1.25539621464326
-1.27573125621299
-1.22930303367379
-1.12777127258646
-1.01686879970453
-0.865245816973421
-0.605056947756206
-0.305893325015972
-0.122216971745696
-0.0903251321294716
-0.143033650232242
-0.250307715666378
-0.383736960755273
-0.423332405918291
-0.239749645443348
0.178891682969654
0.733720255758283
1.26612662548923
1.59865495186261
1.646213219857
1.48158750053648
1.20084508217899
0.817251867104658
0.394671922056634
0.121242273384285
0.109000815003819
0.267215211852729
0.451288694681425
0.585700684438386
0.644585361620462
0.668061483450097
0.728772861662487
0.759089305067215
0.566650420591586
0.133395887844558
-0.298208072361715
-0.52528268796443
-0.57169599528236
-0.548881911247195
-0.546982581506647
-0.658277156514809
-0.901775601909803
-1.1419087025924
-1.21989862509372
-1.10810172852695
-0.880223098569647
-0.652446604648871
-0.562900016841354
-0.655499805478454
-0.79580610272601
-0.820406191118283
-0.707192724828207
-0.519635715565954
-0.311523903249501
-0.165971612054086
-0.175273960741885
-0.298880530495237
-0.381451103444259
-0.359419287865077
-0.30312610355014
-0.248219695674168
-0.15119193518844
-0.0005514077786312
0.164810753427456
0.298722728335074
0.338390004333271
0.274056240852551
0.246284237293255
0.392294487601488
0.611988640925122
0.684330115837322
0.56609158127263
0.401150989922001
0.3255203926883
0.401781218195159
0.625303400713173
0.895321286853323
1.08716311591689
1.16856446473493
1.14956882176606
1.01355971342591
0.815852198749141
0.688577661378057
0.633390488065928
0.508786105407972
0.294019526210103
0.124843246102049
0.0282176843805199
-0.133089450639663
-0.436481680102362
-0.814953647448385
-1.16100115483463
-1.37406614641639
-1.39014867488245
-1.26640562137019
-1.12715282363003
-0.981532064086893
-0.750299485717931
-0.483536084674101
-0.3501923494554
-0.403633663886298
-0.547652163424971
-0.70064707457475
-0.820960626077164
-0.852130119083164
-0.787381155234281
-0.684718252704276
-0.550064817074463
-0.339216446433699
-0.0659075105055103
0.243026416804532
0.627145341099626
1.08627384793884
1.51445170075438
1.84325474305948
2.09567852192876
2.24592166304125
2.21271889459908
2.00844998898143
1.72231211712609
1.39878142801058
1.07495676434741
0.815950897978579
0.586115721217263
0.253691512712548
-0.17955823581946
-0.524411402415769
-0.604302157680349
-0.350273238491911
0.222360899988071
0.93196438385316
1.42269902736074
1.43254460030235
1.01574818995304
0.421627850316185
-0.132206649110558
-0.522843385614601
-0.712184204509721
-0.73475877159738
-0.615888504957682
-0.354119937972883
-0.0705923905879316
-0.0096458952244318
-0.247401527487824
-0.598820614072174
-0.94621074945934
-1.42367458901776
-2.16727051239105
-3.11698909612969
-4.11329441127925
-4.96232592105354
-5.4182940723618
-5.31878458932235
-4.72858711989008
-3.85111454125045
-2.88272395403637
-1.97011683621144
-1.14017657164107
-0.265469508298821
0.741031685146115
1.74400008308684
2.53115008885918
3.03002289572851
3.28163829963269
3.36654468454743
3.42327972268818
3.5482176086337
3.64925498780504
3.561615834145
3.25303571890582
2.773030440644
2.14275461803757
1.45363687608492
0.908938686915462
0.604135958546823
0.399940049805792
0.123712544941802
-0.231341673021107
-0.558355608254665
-0.737337827730334
-0.666554086284187
-0.348904698149825
0.0558161592317656
0.368308785508477
0.511282877402298
0.444843028349976
0.138236751290517
-0.337008342877856
-0.822667142439317
-1.17812255209396
-1.27833425217
-1.03965645195013
-0.573786753387506
-0.153154940732098
0.0887099880552744
0.262854635037428
0.492727354014408
0.76684055621941
1.02154795054659
1.18248669676426
1.16298227705451
0.974885972711077
0.751900278785928
0.561288826577851
0.337966397549449
0.0495035049716048
-0.272292884591175
-0.666546937291022
-1.19172952564335
-1.76455848112258
-2.23700687899831
-2.56590311191416
-2.76421525255138
-2.80526215283362
-2.7008406274186
-2.53807335599891
-2.34339868896753
-2.05538379158191
-1.68769172328532
-1.35355554723128
-1.09972246251443
-0.880534982687241
-0.693366381890274
-0.597156835106137
-0.624431226368444
-0.741889114793615
-0.807689204968625
-0.567490405167326
0.148078893121325
1.22450532752841
2.3728040117211
3.35737446310142
4.04326720293811
4.39517372798065
4.52803750826943
4.59944961549562
4.61547721196767
4.49271408535541
4.25893300038485
4.02311844128324
3.84681997453105
3.78280384617374
3.86951227588598
3.96872091985193
3.82278404258633
3.36743909810448
2.78687421608474
2.23997447648574
1.72796243989641
1.18845659517289
0.541785109671724
-0.278853606789207
-1.21365433209202
-2.09346059842723
-2.83474129223537
-3.48192915080826
-4.04614808911067
-4.49466382541147
-4.91132749997498
-5.46255875438699
-6.18988345205739
-6.98527984716603
-7.6961258273383
-8.10748133283946
-7.97749497933879
-7.27690087604584
-6.27689648424736
-5.30946226460346
-4.5700158866519
-4.13518889375576
-3.97019448712864
-3.91689453687658
-3.80520538019505
-3.5474837919867
-3.11539507178038
-2.56519170119776
-2.05290373497844
-1.62683299276649
-1.07443116853379
-0.188498653887817
0.933339251577155
2.06888382289652
3.18638242646131
4.36999492998165
5.60054605274831
6.77608395246481
7.79928547687117
8.56553949769419
9.00710510443754
9.14778329275559
8.99352992634001
8.45776540404968
7.52834239340801
6.39523043839304
5.28878257767632
4.30059027460593
3.44391751499895
2.75210965521525
2.24185117449301
1.90527870010808
1.77212115220719
1.85429394474638
2.0350973766103
2.12221146362462
1.97566244165529
1.54628910002945
0.899032691166879
0.204598743735854
-0.418936649990702
-1.00245247259536
-1.55480227505885
-1.95454859882709
-2.15379965895618
-2.3036491852786
-2.55402511119808
-2.92068658369883
-3.40885229355187
-4.04118212118218
-4.7278741612047
-5.31831102847163
-5.78053548467311
-6.17339106761868
-6.51265549358001
-6.7915910152885
-7.0262741073121
-7.19437657663459
-7.22536025114886
-7.04853560280444
-6.56369389328289
-5.66928322474437
-4.43162712817137
-3.08749538111297
-1.77833641168012
-0.431262231187966
1.02254209349729
2.4673084850985
3.70481632138716
4.61160963777189
5.17735807570498
5.51142485196092
5.79209983783209
6.08403923642102
6.24406610565935
6.09277069407509
5.60805125502588
4.94119607244646
4.38465024682465
4.27391945532781
4.70397415730456
5.37820010734752
5.90171451539319
6.11730666165582
6.03282591493783
5.63685864812893
4.96040300909005
4.12946024042685
3.21477583354459
2.17088587041541
0.96402731923264
-0.380418535386925
-1.82271167500134
-3.26633611788566
-4.54574895922279
-5.53851733488392
-6.18547020108189
-6.43576262458044
-6.38466028453703
-6.38933750425015
-6.75744423239252
-7.35293299040423
-7.74028910215905
-7.66143552897115
-7.19913758251028
-6.57112087286945
-5.92668185344516
-5.27871968909783
-4.54259339918366
-3.69866643600622
-2.91186144150683
-2.38436899302701
-2.14103923316844
-2.07495728328079
-2.07052655391651
-1.92873098845192
-1.35814219794908
-0.241447037063788
1.21344601077405
2.68278713399889
3.94689362958351
4.9002123615543
5.52415286968596
5.85587264921688
5.90352815998072
5.6822917340636
5.35192990101722
5.12332117203648
4.99973263655265
4.79872211845871
4.40448409026105
3.82853749912505
3.14102726691516
2.53411239303837
2.27934149764338
2.40705751275687
2.571857819692
2.3759789757522
1.69701871163865
0.686335639075969
-0.351101492017966
-1.0705463862221
-1.27710094216271
-1.04996948058604
-0.640805163566125
-0.307000387638391
-0.223954595905765
-0.391282456498162
-0.587012237929338
-0.5562090526847
-0.265657872653963
0.131115068331972
0.506781971074677
0.787789270191369
0.883796392319005
0.775811408793269
0.586079013389751
0.447321421013936
0.415948794890201
0.531900867523018
0.782627896094569
1.01659391783811
1.06214211843516
0.890334980622037
0.569945866088195
0.197757347281348
-0.0735245142851722
-0.134390069626152
-0.0782164425946582
-0.085001924180685
-0.196974481787016
-0.378889260662186
-0.662183552579359
-1.05596047828958
-1.49663578872801
-2.01599681034735
-2.73016500153719
-3.56846085137435
-4.24276011576286
-4.52174037815249
-4.34389837607696
-3.71993449216724
-2.71805821354434
-1.46691459428214
-0.0473381248928835
1.49103888178233
2.92828490542404
3.86487148622283
4.00035698820666
3.29826973782449
1.88604262533123
-0.0303144478102584
-2.1621616144702
-4.19803518915734
-5.84173865715523
-6.77184611697132
-6.78857588109062
-6.10713992757959
-5.28986041906758
-4.79977150779311
-4.76846649978694
-5.11777673804373
-5.63961487280233
-6.00065356790766
-5.90531827377972
-5.26636959448786
-4.17074857248607
-2.78845851683487
-1.29685108257906
0.283799561995669
2.12517207800486
4.26796163479194
6.35629364066089
7.88426214364067
8.62905961257951
8.77011471667476
8.74778457050541
9.02206182177174
9.72996567598635
10.5201122529981
10.8542579035787
10.4359163893521
9.29059138254293
7.61462063074898
5.67563097020598
3.7150301273537
1.84657580548729
0.128384337616587
-1.29777573287887
-2.28209347436195
-2.8296812622434
-3.04468644372222
-3.00390901864481
-2.8258490859206
-2.7234104935618
-2.83698237451064
-3.14526462208861
-3.60371417887951
-4.18196018418846
-4.74548304084179
-5.1015188510565
-5.13636294574867
-4.76463920422342
-3.90431014765473
-2.67999973804972
-1.44451231575185
-0.40405896148219
0.60507836743793
1.83751884807834
3.28952885641379
4.68109698724898
5.66496589350939
6.08668198120584
6.11785555279792
5.99901561782931
5.59971219770341
4.47552639945208
2.46485187693215
0.0177347033595114
-2.15191133694292
-3.60498536234502
-4.3860154970141
-4.84646855318436
-5.27815486922865
-5.68782266054671
-5.94065096284431
-6.01331589945403
-5.95827673323693
-5.73253816506847
-5.28267714299765
-4.7181754372528
-4.16792928369106
-3.53382646166728
-2.60336192920767
-1.33877059451234
0.0968792982827346
1.47925151152017
2.58302039167228
3.26338341019348
3.5479766189188
3.52761320880216
3.22061837300316
2.70342799550905
2.22915497074433
2.00669889079934
1.97355766307312
1.90814866237752
1.61943445227937
0.990589424471064
0.060804225561494
-0.897061231034974
-1.58804179870337
-2.00565422985043
-2.39642295843771
-2.96423840931699
-3.69727869828847
-4.38748573321802
-4.77181622541747
-4.74705636637717
-4.41484726078779
-3.85473038374267
-3.02107337814744
-1.9633719776599
-0.908180040900977
0.0308518975338132
1.00498558167076
2.14687133839767
3.32647214230108
4.31546857364583
5.05227075296872
5.69241070520861
6.54183279383474
7.92135057048252
9.89098897029718
12.0644308850982
13.7688320292878
14.3550605681143
13.4280385716584
11.063225081797
7.88513826972763
4.72067821623679
2.07437943408008
-0.0342522493471194
-1.86451728849224
-3.69742124513487
-5.60662038538882
-7.36296339479123
-8.68941822828532
-9.61160812245773
-10.3842621637109
-11.1116974694196
-11.6105341491439
-11.5770104285882
-10.7738710180917
-9.18185732365417
-7.05250179860839
-4.69741117345803
-2.27429656813062
0.0557542568139304
1.94528626680436
3.14887932017839
3.88107992930847
4.60119432779241
5.49253051539018
6.30120173228413
6.57375563858284
5.94925989437649
4.38308132384028
2.23722080908226
0.0779923208665551
-1.70681718324329
-3.10092164925099
-4.34567683068157
-5.67504891863121
-7.01397690569869
-7.86825761768296
-7.69665402228733
-6.45729673244773
-4.62249692128491
-2.69765716079357
-0.937069419547944
0.588646298641929
1.93094838372266
3.20327179268915
4.40034664315657
5.37188109122187
6.0340741610274
6.42551090675202
6.547852255222
6.36188835140453
5.88484239033684
5.07490300406246
3.75190759947983
1.88252851108589
-0.184544430271423
-1.97368196237499
-3.2582343374703
-4.09202444653269
-4.63311442237364
-4.98946980554765
-5.10557207580035
-4.81539610799187
-4.09107292916836
-3.14425710938832
-2.2178766223397
-1.39932382659244
-0.654279008441682
0.106067975550989
0.967320689007568
1.85407172085466
2.5051355939605
2.80124744722488
2.99468976586329
3.37948837757585
3.8693445856122
4.13127196167028
3.99592330496982
3.56499092501895
3.08489583812798
2.8304044953455
2.93210407063114
3.24980664167014
3.53647811784881
3.67121784640686
3.61529360028278
3.28784531630482
2.63717421260308
1.72146338110958
0.660533800252186
-0.357718286531154
-1.06249127839431
-1.29889219366986
-1.20984055945043
-1.05022509134946
-0.88199880846494
-0.572375514414676
-0.0067652878676024
0.753198359119386
1.42916593513111
1.65939829048159
1.25857205996464
0.275066769544862
-1.21416741979241
-3.12819806054258
-5.12409758931835
-6.59562916915334
-7.11203075063892
-6.71303857538456
-5.70389233206015
-4.36305908683971
-2.93424201612859
-1.69952043698964
-0.914884657578771
-0.709240132353271
-1.0224965609204
-1.60366330377416
-2.18097197990056
-2.68377779339001
-3.19977882694788
-3.78405166239785
-4.48628931142188
-5.43860652865216
-6.66950844420165
-7.90942740544596
-8.74039223185732
-8.83506042225273
-8.01280504196034
-6.30280891572532
-4.04355533542852
-1.72583642666378
0.338748918000323
2.14255624996665
3.89658378959311
5.89663554437713
8.26615884640792
10.7344809749739
12.8690305198134
14.5401214481347
15.9059580799441
16.9502805964149
17.290565503938
16.4674760685317
14.3155348506285
11.1403381284516
7.62994155505721
4.49239790419758
2.09747202331614
0.462981224178902
-0.563625170401773
-1.27481189330612
-2.09369047355452
-3.32622376136538
-4.96095843036341
-6.8406284299422
-8.86530613017077
-10.8773972600807
-12.5522238944468
-13.5694672683762
-13.7685721232734
-13.130864567578
-11.8003251394653
-10.0893668329738
-8.3008649690313
-6.61466263576627
-5.1906039244506
-4.13426463475075
-3.25359879715164
-2.08275120834665
-0.242983870705126
2.33824768922494
5.44746907963404
8.59351255975291
11.1314908786366
12.6360067659648
13.1086827762309
12.7775005781801
11.8921091718522
10.7200900083858
9.45693736599301
8.08482070133192
6.51253618024999
4.82430071155986
3.22556768077209
1.81376397387436
0.539381922463821
-0.669569435292331
-1.81573121523234
-2.79244962046188
-3.42524295413821
-3.65585021318949
-3.67585267288605
-3.77704842644347
-4.10845766043857
-4.65494261875415
-5.34019236444404
-6.05342376791875
-6.69548760459842
-7.2581342944029
-7.74443342335236
-8.04250622432343
-8.01069745107223
-7.58619870383431
-6.68724911836327
-5.19490111267596
-3.18758745892461
-1.03971345928354
0.782043022783504
1.87627785436757
1.96471140043797
1.10894458485991
-0.143223303674314
-1.06870016313501
-1.21783621274071
-0.51057219062043
0.848278266229633
2.3977919021843
3.64116903675292
4.4327870456012
4.99718973465865
5.51618641688867
5.85526106245869
5.69393808689822
4.81243616719286
3.29883186612147
1.52926430266955
-0.137569957129979
-1.63474375860669
-3.03953917514355
-4.23112546029145
-4.90160178936773
-4.87231839961036
-4.22219492552026
-3.16692874353617
-1.95979877932888
-0.784576703508858
0.399523855493384
1.76444554265249
3.29657003140476
4.77538728054072
6.0843772556168
7.30822012322092
8.54370327341924
9.83241843701144
11.1919247891785
12.482091570544
13.3127609356403
13.256119525477
12.1228368960843
10.0292212110226
7.32244261300944
4.41549148769349
1.56015916442952
-1.18622415801479
-3.74701349732294
-5.96588792533078
-7.81240000877729
-9.42981978014179
-10.9329046777207
-12.3431652764089
-13.6852704802466
-14.942103383687
-15.9616135061781
-16.5572299141875
-16.6293761462622
-16.1113728163526
-14.9213724921958
-13.0583361578147
-10.6841435332531
-8.08934541915303
-5.58444459633849
-3.29808397906885
-0.998168440624368
1.70324556723808
4.79662647205795
7.66510463912016
9.56354803774844
10.1934358015643
9.81042884572447
9.01587409173894
8.44321780871958
8.33704837064113
8.34492550775737
7.87115602562517
6.62631080701247
4.78702842838801
2.81814051352874
1.27223996993371
0.560408254380784
0.711391538710159
1.36407487282731
2.00144985062489
2.18256045402464
1.71221523495798
0.747100267746918
-0.326072547872064
-1.18526532710537
-1.70667663364618
-1.89043125313639
-1.769863801942
-1.26194110471093
-0.0194812420333869
2.30122831018001
5.44536718428496
8.45474710008121
10.3117380707483
10.5479750495934
9.26373279203374
6.90185636886192
4.10932448470146
1.51603130036752
-0.565314696699481
-2.16173863408753
-3.38908477102661
-4.31775993329556
-5.00729589196959
-5.46791671331619
-5.59153084584678
-5.22151429056933
-4.29147222934641
-2.94500312156276
-1.59993816283467
-0.769853480056953
-0.667438091482204
-1.08236275935272
-1.73352109534783
-2.56854019195686
-3.63563238918583
-4.84908898898414
-5.96488881881703
-6.6810535067349
-6.7955361696919
-6.37525747461499
-5.68894375607073
-4.92326568616526
-4.11703290880629
-3.34912554949176
-2.72884059734685
-2.21324306027105
-1.68074963784448
-1.12067887467545
-0.529585474297423
0.255249562637733
1.40960083418693
2.92061708267573
4.63623241090457
6.34454296174609
7.72980523745326
8.45331561472682
8.38915733055046
7.67907843288308
6.5574642382148
5.23999403270475
3.92372594206087
2.7630652831199
1.90913636404832
1.59680017102204
1.96047586118426
2.66805630669281
2.97556351141824
2.28499668418666
0.565520860037885
-1.7297966961944
-4.03600223830621
-6.03419318660498
-7.71834656043115
-9.06025305704871
-9.74191086092347
-9.46336952304968
-8.39666519371651
-7.04810239989094
-5.79533755989475
-4.83126301928017
-4.36889005866454
-4.53272987457651
-5.10223280863715
-5.60414319194742
-5.65767318825475
-5.18234462450332
-4.35557123924778
-3.3795257220063
-2.23643598682503
-0.725467915604418
1.26925837664198
3.7011216287768
6.52500972918833
9.70170101221424
12.9883802132452
15.8957170930559
17.8980603655678
18.6357256409458
18.0545708749398
16.5159108549004
14.632666290182
12.8166447881656
11.0980905551449
9.43932371840202
7.94810541308712
6.68113776316303
5.53323727806803
4.44741399686688
3.5303197975655
2.90159166167556
2.52172859054892
2.08418928683453
1.03041469251176
-1.11749669242728
-4.33827595181623
-8.14898022306696
-11.9967429732246
-15.4238343912476
-17.9945989108594
-19.3711596802524
-19.4712816169637
-18.4730348197196
-16.7782017039641
-14.9311341195186
-13.2937192835754
-11.7963059124283
-10.2420831476088
-8.73838603110268
-7.51396689608609
-6.41522154539207
-4.9180910117156
-2.66362363586994
0.161105770486827
2.95467815075456
5.1895559218224
6.8748991289929
8.53418111545439
10.5913912340632
12.801939130534
14.4253479683269
14.8906015328224
14.1470227271329
12.4897566540804
10.2497586152648
7.60809202873788
4.60879591787674
1.37131785209543
-1.79638288748972
-4.62780557778119
-7.09952599193531
-9.22508072198259
-10.8163998906061
-11.6457139998132
-11.7001908127977
-11.1395791100174
-10.1442776108198
-8.86841508044284
-7.38057713409887
-5.61603013992973
-3.50765014609647
-1.13785780952936
1.30532159291848
3.60428970440831
5.48696116717656
6.69773627424273
7.18590161009881
7.14309890309375
6.85263508664339
6.51645160773188
6.09085262949527
5.24939600249529
3.69893004341756
1.61102917321048
-0.39981959862108
-1.75079033344972
-2.2339881068469
-1.96997410852906
-1.23592246333752
-0.339691676045558
0.497193379895545
1.1688640556144
1.6195112557806
1.91137209565454
2.35084209863076
3.24760804792844
4.44696130140073
5.34721801961479
5.47168218754947
4.86915407852264
3.97771211632049
3.26485246077647
2.97172888751331
3.09465881911985
3.59218591251246
4.50515359283843
5.76367785497816
7.06518304265845
8.17254087320971
9.16876111990066
10.1822816806014
11.008741382815
11.1920442026945
10.350715900633
8.36942662582326
5.49732076201073
2.3170610264303
-0.595893917928002
-3.05018547995077
-5.22164378990857
-7.38028936733512
-9.71380398182201
-12.2264360748091
-14.6586996317259
-16.6064258073209
-17.7987952809263
-18.2224102883593
-18.0527170880981
-17.5863436784074
-17.1030010651305
-16.5778037250314
-15.6334930267719
-13.99118707136
-11.8913031544967
-9.92335631407731
-8.4969533438435
-7.45657503591272
-6.06286672456357
-3.47405868034807
0.490878959982919
5.12713849123105
9.49742823096126
13.1065060299024
15.8581230450228
17.7176194682438
18.6209640559889
18.4459925017188
16.9281939936951
13.8241610016674
9.25368370242373
3.7710071390899
-1.84827636176173
-6.79700884111194
-10.3918219718173
-12.2563771164606
-12.3874636897622
-11.1075918241982
-9.00309014824723
-6.67444551621629
-4.31583737751147
-1.67265882799807
1.45048397266873
4.79252918170574
7.74916207961058
9.58777176132922
9.55600328436522
7.25923914743271
3.22211605289476
-1.1428407481294
-4.35948828628042
-5.68516733384897
-5.22711213342114
-3.57308727561686
-1.33756907304241
1.17465621327613
3.99580766003966
7.19733992408125
10.5818853474576
13.6028204951444
15.502370395593
15.6527073939157
13.9511449026814
10.8972236452333
7.28425814867752
3.88398442138066
1.30249342477119
-0.139577151510284
-0.463217658402231
0.0758157111866466
1.05662251523275
1.89318174717139
2.09560927294475
1.64210819191352
0.823172319314421
-0.283711252752243
-1.8161660947071
-3.60737161836719
-5.08143073355481
-5.77286152119172
-5.73488409388282
-5.43727088159905
-5.36938958406895
-5.61584634434677
-5.72789602287123
-5.15759434279439
-3.85242484807653
-2.25536181484081
-0.757327571239182
0.5923506418865
1.80778975406013
2.6260244952282
2.53463126508859
1.11886037435301
-1.52650065125055
-4.7216101235942
-7.71471927696716
-10.2685192096343
-12.5457559384514
-14.5114774837817
-15.7390572904492
-15.7544108437527
-14.33374219656
-11.5468430840892
-7.7528377831909
-3.56877783578621
0.280931315631679
3.21066833907769
5.04558368724968
6.08269255642271
6.67908768053334
6.75732009080976
5.99514536518169
4.50919470629583
2.98524796726931
2.06234126501444
1.86719178279888
2.12410064603669
2.44270210602167
2.59050081857174
2.76145750884037
3.4708608288704
4.93781852257277
6.64617698152781
7.68546847041946
7.49845111852722
6.26891717826467
4.66015866843359
3.16762135189481
1.68107558477725
-0.191712915030834
-2.29301568715855
-3.6768885880383
-3.46291728050847
-1.75639964752939
0.512912063674841
2.51909921489769
4.13750925528839
5.76976550102749
7.71715585016091
9.68081428322527
10.9063647243789
10.8755310750865
9.74794063274472
8.11319431184806
6.51724333920234
5.2075222235953
3.9989383301547
2.30090293513394
-0.436257921301346
-4.15051153270793
-8.11189808718746
-11.3964956872293
-13.3785617690754
-13.9646434908561
-13.5486183524597
-12.7096737936779
-11.9004971087761
-11.3858133730206
-11.2686512285258
-11.4086473627895
-11.4554963171814
-11.1018169196982
-10.2014115534195
-8.64026600556862
-6.341728609157
-3.47601043775399
-0.423695827460596
2.58962639217347
5.63800091524199
8.75362809086621
11.5632364140975
13.3818090790585
13.705021364529
12.6964930638721
11.1816331596893
9.95731502612009
9.04555534048782
7.83466916430543
6.02504531391442
4.23028155718669
3.50332500778168
4.28655932375891
5.85789957860805
6.88727862703794
6.61541041399475
5.39305798123079
4.03023270260698
2.91825641608795
1.99104718100855
1.20027266178754
0.627660211291967
0.240077037030269
-0.209782166756938
-1.04710947728969
-2.41609421613975
-4.01690887487617
-5.24095604974145
-5.82979184815934
-6.27523658496549
-7.32832106634132
-9.2555081888219
-11.7431373461198
-14.2930129757473
-16.4831258781828
-18.0060005618733
-18.6596883181123
-18.2883126961221
-16.7763739947411
-14.2691971421589
-11.3287332853883
-8.57574449287383
-6.10261627443092
-3.4055303218509
0.0692047913292238
4.38198737374437
9.02448936821188
13.2854437005401
16.6904637461026
19.0593938565915
20.2292914884106
20.0659624667632
18.8456403891555
17.1865220620568
15.312099046226
12.7138002372617
8.87209221949143
4.13835720144102
-0.317250681901841
-3.35348010978547
-4.60961827329084
-4.55228448285479
-3.86320711510533
-2.84719014627733
-1.54777210092447
-0.289002284762963
0.279529262329191
-0.250908662070758
-1.6686374306132
-3.33848461289956
-4.61093529978523
-5.1042772431868
-4.77594822533496
-3.77223139867029
-2.25639590016975
-0.460657131114811
1.20442661821391
2.26946165483977
2.39238236818145
1.3912871081327
-0.633406378568273
-3.02989856340004
-4.79524890475767
-5.41139531408228
-5.29084660716467
-5.12806555796386
-5.05172409279861
-4.69196480331092
-3.86731275442669
-2.91524137140204
-2.38993746235543
-2.52383960500046
-2.92370316790125
-2.77823392764716
-1.42630978657384
1.21302194861687
4.61166275309894
7.87092327942409
10.0951956402277
10.7702364654585
9.86186570183142
7.63193114258162
4.5698263733149
1.47708704205337
-0.717456089443002
-1.36052210803433
-0.199704047552671
2.69447290022084
6.80140202012345
11.0739074466812
14.3319988903808
15.7540507457303
14.9936173503076
12.193849110209
8.10999714148983
3.86976109856692
0.251472287882723
-2.71478189708285
-5.32700007716485
-7.6188890099691
-9.32965216507327
-10.2474414754266
-10.3715984098422
-9.79434649240176
-8.59998867711712
-7.03583799423995
-5.75713275958599
-5.54569026478181
-6.490778897987
-7.70188082433002
-8.19872522973663
-7.93706566259276
-7.702596180714
-8.19451960017022
-9.42987172643522
-10.8384111850508
-11.737441156905
-11.7966221627313
-11.0599766625792
-9.49703559235638
-6.85068180047268
-3.23978180128987
0.349509818406654
2.61933391571341
3.0104756002482
2.04838828993357
0.770854550788017
-0.0742396074916694
-0.410874062370755
-0.570233245353645
-0.726461042438955
-0.741419716822024
-0.565096673897329
-0.476909870757634
-0.704333367204732
-0.972759682079039
-0.697060779674718
0.380317828471537
1.89277634182491
3.2138921611418
4.00370827045193
4.31862645161671
4.28876156953855
3.96720271035986
3.65288385072955
4.0790490659216
5.85817683875347
8.75421607848009
11.781235577694
14.0028226596891
15.1306424544924
15.5778050482393
16.1170871089055
17.2631440938728
18.8379958738899
20.2896878897673
21.341463959526
21.9975574765384
22.0321730727693
20.9313586291063
18.3951662952889
14.667057842712
10.4104144825936
6.33478274406059
2.70728467726805
-0.864975119915188
-4.90468966812857
-9.25424493731427
-13.0446042656465
-15.477057358339
-16.4198004229857
-16.3119576817652
-15.7587768832058
-15.251768510687
-15.1076578633464
-15.5117063194143
-16.4525663994139
-17.5594918048902
-18.2203120162358
-18.0594556477366
-17.1583617644567
-15.6774330512883
-13.5553918076436
-10.8407792019966
-8.03441313664206
-5.76425805245086
-4.25443188966964
-3.27856750332626
-2.47208622202525
-1.6372565547654
-0.942748202555354
-0.837801920423356
-1.63484578546448
-3.24184856924438
-5.32005549511005
-7.43097559661844
-8.94933611943096
-9.17682799879853
-7.76261930478576
-4.90497592477767
-1.13837118157537
2.94925413523331
6.88492604929811
10.3739342939931
13.1853946812416
15.026777799921
15.731973192233
15.5344179112221
14.8973942234781
14.0474503118388
12.8303059053551
11.0183007867918
8.67020400920962
6.1789076218439
3.91644901592097
1.81528917059355
-0.483340014356139
-2.91208192370721
-4.70995668514816
-5.24048027794896
-4.8902669129686
-4.71960768883436
-5.28788830937897
-6.21479558749065
-6.88724693607895
-7.24630949536072
-7.75098722511251
-8.68976743167635
-9.67226195379255
-9.96320939802408
-9.33923106748331
-8.34875438690141
-7.58903901482965
-7.00629321309317
-6.09337293302015
-4.53527646639945
-2.48515972654388
-0.370918600091416
1.47914139078476
3.13922536864873
5.01472866305274
7.37379133275445
10.0280391841865
12.5588684528365
14.726225746924
16.5548682679192
18.1233626877069
19.3697147269831
20.1416179996936
20.4913856938336
20.8403689025047
21.6438349433638
22.8914517693307
24.0935925281269
24.6733116139521
24.1771065952562
22.2590064175602
18.8158655291746
14.1957979691549
9.08670283627469
4.13666795993711
-0.327278439910483
-4.3714583369413
-8.32037381583018
-12.351182840526
-16.1392787690194
-19.08668957378
-20.9035694218209
-21.7597211860389
-21.9517453710572
-21.6970927347168
-21.1799148099566
-20.546437165973
-19.8986458496823
-19.4241683811748
-19.4381516016915
-20.2005442918993
-21.6785729439499
-23.324743574766
-23.9927279965706
-22.4264587010049
-18.2610893841191
-12.4974884270558
-6.75136613011816
-2.04880107842241
1.59863268862405
4.61171164762648
6.9875315700152
8.00888923608248
6.8261472201932
3.3670966192035
-1.36418088396195
-5.84946424952056
-8.83040120634541
-9.69607826561129
-8.4726741964395
-5.6147755616876
-1.76292785109488
2.3553238234627
5.9278310071375
8.27686719140149
9.25416207977899
9.27839724796042
8.91524885559002
8.59732642533617
8.67518792077042
9.30660478377576
10.1887482630483
10.7595526747322
10.8206743216612
10.802943392152
11.4159919799056
13.0941009129449
15.5740886954674
17.8788654139164
18.9608595030558
18.5688875412329
17.3777778246789
16.1844420815277
15.034935855538
13.1222599190995
9.54586783069768
4.30924402022615
-1.46127721003342
-6.47028936499537
-10.3117879362023
-13.3557461002683
-15.8494376536625
-17.544302919759
-18.0336731814141
-17.0631098179198
-14.6352465007469
-11.1296898413622
-7.2360550286921
-3.56629436310286
-0.396784549307136
2.1553011152179
3.86260814218263
4.38569295232528
3.49501714897418
1.37459126663423
-1.19242150911427
-3.10871421811499
-3.65446972535124
-2.86627886232432
-1.23151221550179
0.775703106502939
2.86923907197136
5.02157824839823
7.47903109595175
10.4464717621034
13.6248749717124
16.1893622856723
17.34524881044
16.9994016944635
15.9283921577509
15.0871190092786
14.5339868072372
13.1992152134825
9.95540905842458
4.77627346732468
-1.3165256605869
-7.18233042340453
-12.2245269415641
-16.4305885584512
-20.0775005419452
-23.31267196019
-25.8786766940525
-27.2918112544303
-27.3141259053588
-26.2600616235599
-24.9439147122407
-24.256589491841
-24.4678319081534
-24.827353597236
-24.0964359835037
-21.5887107048248
-17.5121141259309
-12.2890267932301
-5.86884967184743
2.08070195820322
11.354376918503
20.5850210599091
27.4782926667201
30.0578217993179
28.1005584965892
23.3529973183769
18.1615668122499
13.8279566579284
10.1589546493539
6.34577623835362
2.14997634279455
-1.7373792406798
-4.40317465350008
-5.53429556462909
-5.36308673686696
-4.08787839227008
-1.80919100980785
1.01972867824446
3.52654270226396
4.97018220074261
5.27419452289733
5.07184338835521
5.2617727856839
6.34007060038272
8.07082532349335
9.84828744426512
11.2407507759596
12.0605500967113
12.1773612085798
11.5442391092695
10.2562298324551
8.41120759290754
6.07902112919719
3.50560718878254
1.1321376691428
-0.710537914908835
-1.97671772143067
-2.72115947237914
-2.90236270911704
-2.43623213568115
-1.35490995941632
0.108625148434044
1.59518708100409
2.85623639706726
3.83711851905478
4.34917987523935
3.85102884703092
1.91483711078542
-1.22045346433693
-4.88338632942787
-8.54951023979881
-11.8761317739511
-14.4865044899105
-16.1803201280922
-17.2035252634356
-17.9603251656697
-18.5119863869469
-18.5067616437422
-17.5285237353183
-15.5006937131768
-12.8570431959208
-10.2634914616767
-8.06803664314404
-6.11364979247982
-4.15475503253474
-2.31930725266599
-1.06340387231394
-0.671677045674818
-0.733502415199612
-0.123369650978414
2.26569622980385
6.57779500561965
11.7482524912205
16.127736115002
18.3598893347561
17.9943167022012
15.643611936419
12.5491171405061
9.75719215329401
7.61008895473688
5.96071024665353
4.67975293530168
3.90101653740118
3.94922556410368
5.01734362419528
6.72923473643753
8.17475200802571
8.68366801251559
8.38908364978785
7.71245610707461
6.58167396206729
4.62659729398013
1.99026041369118
-0.502372979851656
-2.05228757641126
-2.66793259671707
-3.30281690236991
-5.15196144138392
-8.55244672957837
-12.5180971029762
-15.5159642886402
-16.7542500592629
-16.6993420565245
-16.4317998746813
-16.562487821989
-16.7472085511616
-16.2592696003467
-14.927250522043
-13.2332258792734
-11.4998662077841
-9.4158223626838
-6.56027146815787
-3.052025124869
0.596512246598654
4.10097680686913
7.67320674019065
11.6965691943658
16.1712919186637
20.4757368456087
23.7944419573825
25.8354923245314
26.9033909039271
27.1905167468356
26.3982456162158
24.3290301377969
21.4994808040018
18.7795694555006
16.5573264657817
14.512968685672
12.1498571133301
9.3046838282059
5.96781134267786
1.71461960365186
-4.20469790528815
-11.8394086253109
-19.85165640236
-26.2758974299925
-29.9059867597788
-30.7994734040044
-29.7826398296772
-27.7836488375514
-25.3341961143803
-22.3638832807053
-18.631007599546
-14.4280894697783
-10.5126363844786
-7.2631706375876
-4.341494352316
-1.39601179080646
1.21010067600963
2.64940909769553
2.59813746711263
1.8570200352063
1.89043624542964
3.65673326291112
6.93635739899906
10.7887761789335
14.3473887426313
16.9269986773052
17.7203591250584
16.0409279134519
12.0245003836651
6.75882318753508
1.50668179607309
-3.14728733747417
-7.34552345170099
-11.2229226737783
-14.2763841426565
-15.6747472223709
-15.145721527995
-13.1924927622963
-10.3850431944509
-6.9307493297361
-3.18660456702674
-0.143032893699752
1.08498831986292
0.269318710403609
-1.54942182368473
-2.75125956066835
-2.33377041030561
-0.466250662330329
2.23035261732231
5.72868178300496
10.4244040645814
15.9365449953909
20.7102316918075
23.1906522917201
23.2094119137548
22.0731123523777
21.3970341131077
21.8187474453571
22.624682153464
22.4802151150573
20.4909437482841
16.6336365839919
11.4466105358387
5.6281511343154
-0.064149810101908
-4.82769202897897
-8.02774294860148
-9.60484985084205
-10.3757072375621
-11.7203766425274
-14.5849143821551
-18.7433645473976
-23.2219003070625
-27.2686556668578
-30.6065915779392
-32.9923260481816
-33.9971174043264
-33.1686413185243
-30.1491682446416
-24.7669195197751
-17.2480094520328
-8.32873868942682
0.844271643298836
8.91718095436593
14.7346786695172
17.8848466225421
18.8030139409995
18.2604581653242
16.9152735522558
15.2718617710503
13.6399285234178
12.0825397489792
10.7472310389411
10.1152788318507
10.3953897282128
10.7133065975893
9.50757453524274
6.03062714481856
1.32387903037234
-2.36291275868033
-3.0995533955364
-0.45246836311684
4.41859395486216
9.51560307167373
12.8847078251489
13.1843817642036
10.051027660877
4.36215791291016
-1.96883659539418
-6.93351706018816
-9.5589053501734
-10.289029624239
-10.3029616668271
-10.4046701901755
-10.513580983848
-10.1979935830505
-9.52334607851744
-9.14556323540445
-9.66848735142105
-11.1704515312717
-13.2340884494631
-15.1196124953768
-16.0229690748396
-15.4871030418522
-13.4885609419476
-9.97006406875304
-4.62796773302297
2.44605535618859
10.1151102620444
16.6419292050878
20.9021607223664
23.0488890917586
23.9179271105891
23.8043250613644
22.0279993564844
17.9572672587514
12.2910599916672
6.86303828720554
3.14947659890153
1.29767668519949
0.476396755048806
-0.339864250905264
-1.88041789659295
-4.23200209194708
-6.72491373485796
-8.48761831312816
-9.30735476726692
-9.81950485846365
-10.8580290422115
-12.7193297614861
-14.9011209174792
-16.3954860697867
-16.4077776841438
-14.9869719318911
-12.9459276612616
-11.1980324911589
-10.1912668173608
-9.7504748779228
-9.29394227683319
-8.3577984806382
-6.93633509300798
-5.05317400934938
-2.11754196893786
2.70559971609721
9.2832257730379
16.0845314106221
21.221386328023
23.7512844492437
23.9261141690216
22.4938181366098
20.0360119049233
16.9299324889033
13.6467531475709
10.768012225559
8.67912175383811
7.47086772704016
7.14923730815268
7.619603004123
8.34290272727493
8.31390797347682
6.67677341138436
3.39562532100248
-0.690438342668763
-4.43118795524628
-7.04731067308465
-8.39774608380709
-8.65606708102344
-7.85099484078628
-5.93182405206782
-3.22804723765993
-0.473402353886367
1.75164900700063
3.35596921060515
4.49599043735299
5.27171776019424
5.64614369054049
5.39980653517875
4.19855484930495
1.91332398371449
-1.19570222147215
-4.76068002999491
-8.67840635546323
-13.0750628360013
-17.899533837604
-22.5406931181122
-25.9071939235079
-27.1047983140531
-26.1004242376373
-23.585337791629
-20.3289205696022
-16.9622924763605
-14.0861001814663
-11.8968239635383
-9.71196389047009
-6.51104836084484
-2.13595600376937
2.41571857525321
5.95918566703497
8.07870778450209
9.13645478679441
9.74158638651102
10.418198480114
11.5489570440987
13.2688475509368
15.2724789186801
16.8912063251669
17.6404730150552
17.7688846257289
18.0668216161073
19.001700622427
20.1578942580563
20.5482037799064
19.2904143636005
16.0128488934049
10.9113856504216
4.57603992980961
-2.24725701634966
-8.70070540126955
-13.7691229917945
-16.5449533129592
-16.6561417279458
-14.3337951854347
-10.2225087957509
-5.33088533816391
-0.865535978236287
2.31678258619878
4.02828088320296
4.36630416565401
3.25627991345118
0.561101887862709
-3.55106295524346
-8.4111926600787
-12.8424037632771
-15.4889528220752
-15.54911172513
-13.2934113177769
-9.8079502695537
-6.30344350578643
-3.560570098419
-1.6717319918898
-0.226850497598712
1.04787120481635
1.91992046022465
2.17383441925186
2.29725760716374
3.1700212590162
5.06023154098133
7.266375210642
8.77109250025446
9.02511647649471
8.12939074047983
6.46137267936815
4.21903245865975
1.39798820171709
-1.80451721011793
-4.84663625217823
-7.24448777720615
-8.80325974210147
-9.29358728372713
-8.33762659656101
-5.93165061072438
-2.74789013695085
0.405559614259394
3.21427557619809
5.71083161033124
7.68151860432547
8.54406116315067
7.98135427290701
6.67724976574688
6.21077341356127
7.94822933903542
11.9346670810157
16.8582313860628
21.0370616497481
23.5387384482369
24.6096861317342
25.0577864498858
25.0708293221473
23.7785973145929
20.2361178589421
14.6686282795067
8.38643875193241
2.55244230021747
-2.63298212439937
-7.59737119172235
-12.667968160573
-17.8287750727701
-22.951991529005
-27.9753621417547
-32.7076648314095
-36.5076073124687
-38.4587326252032
-38.1573341918364
-36.188705441278
-33.4850929285487
-30.2847752637858
-26.090283244853
-20.7013213697219
-14.9768831522474
-10.3159114471249
-7.35170134801177
-5.33138424215714
-3.00455204749756
-0.0465932785553993
2.70298589997277
4.32447914413938
4.67590942320158
4.2151088942966
3.58579390456099
3.53040726687656
4.6662885393495
7.03685208055123
10.0281870714952
12.679821279552
13.9763029561146
13.2879530847258
11.0919236777561
9.16211884627866
9.59787639671019
13.4694268121226
20.290613204039
28.4953047838388
36.2363959661209
41.9391873156615
44.509415294336
43.4050527248128
38.7857137393987
31.6026528624567
23.2594054246794
14.9220077823335
7.09842881458494
-0.216584755616206
-7.19340006033926
-13.9412557833428
-20.4017618792839
-26.3942393641689
-31.7593194255836
-36.2788723363579
-39.3965220813547
-40.317533869089
-38.6464277114144
-34.8802951789584
-30.2108504723791
-25.845206133643
-22.3195851378781
-19.2160025780934
-15.6379960120945
-11.2258577252104
-6.67492797865781
-3.05156874287639
-0.630747127020639
1.38984502584994
3.98527714531265
7.26002805228611
10.409568871679
12.6196493502331
13.7722002034718
14.235240629817
14.2845705632888
13.9895000334645
13.4740057376345
12.9890040031626
12.7710193954538
12.9957427315562
13.7753243798088
15.0345470426576
16.4682418944479
17.7517201455748
18.7465859176452
19.5054702203436
20.2113134702671
21.0280796394711
21.7812114878815
21.9067650405153
20.9995552757703
19.2833668639079
17.2755247336439
15.1236871199001
12.4342158762931
8.51043635170191
2.63780556103544
-5.46183575918733
-15.0944625157243
-24.6164247854064
-32.2006922098636
-36.6633436548072
-37.7387724083282
-35.8821917715173
-31.9798930883057
-27.176112840931
-22.7036550685436
-19.4635115960078
-17.5156114642163
-16.1318716041502
-14.5877757019222
-12.8969328849781
-11.734291031278
-11.7652586557553
-13.1334032219205
-15.5501407759894
-18.7567872067491
-22.6262713442309
-26.570006697678
-29.0910981131942
-28.4967918224605
-24.1914839712979
-16.9353028752564
-7.88382575075039
2.02920829519391
11.6409298990537
19.276404067771
23.5997103108341
24.6693155841395
23.9175477466614
23.1411252705983
23.4304433120281
24.7524045105505
26.4127036720926
27.9282083220356
29.3768841167227
30.9670944689826
32.5848466758154
33.874204337936
34.523675467868
34.3535579658057
33.2580480483749
31.1442018520146
27.9536729713154
23.8557394783619
19.4089107381415
15.319833907753
11.9300068622478
8.96419137113472
5.73634198952166
1.63967090000096
-3.32972858890633
-8.48658863867236
-13.1146960645048
-17.2046560317209
-21.2971497806818
-25.6898139453205
-30.1567486848714
-34.419517506798
-38.4807071461763
-42.3091021844618
-45.3762901648606
-46.7155751292265
-45.60974834878
-42.3360943988969
-38.0042930299221
-33.2540994275598
-27.2412901514199
-18.4868415817961
-6.83605533622686
5.83066908398542
16.9125313157271
24.8516620698255
29.6822452586718
32.2270902644246
32.9718988124478
31.786570574527
28.6800326897207
24.4616027123178
20.3497137379428
17.1143403579554
14.8105905537204
13.0577565259965
11.3072911160093
9.08016436877258
6.17636603061649
2.56615027022888
-1.79707457806038
-6.68399415126463
-11.1672816540019
-13.9196250041919
-14.0846914492613
-11.7997734609163
-8.00750276256321
-3.87289907476791
-0.198129826162593
2.7759360164581
5.01139570763042
6.26289899892466
6.23766923424362
5.03483858460846
3.0988487388115
0.764990450359013
-1.86077804660479
-4.5889412418163
-6.98869816743877
-8.60249338725794
-9.20813299404477
-8.87815705168429
-7.82503918155547
-6.16937124705666
-3.90258132585574
-1.11862204410647
1.81369055014904
4.39434572050888
6.31919521950468
7.75645398876199
9.31267938847661
11.4329533164359
13.6448839115363
14.698603177263
13.7266246786206
11.0326094244996
7.56002166250334
3.90592205748355
0.0640586421510632
-4.1710044997651
-8.80133842060518
-13.5279127617951
-18.0200248476331
-22.3322698173643
-26.8536887908124
-31.634984265142
-35.9006333346185
-38.3967365531858
-38.1573809530292
-34.9624724092218
-29.3341884628513
-22.2470168603428
-14.68395285741
-7.26907947671754
-0.208177390592112
6.5565604666795
13.1867063551632
19.777594526577
26.2166228290377
32.2493756494728
37.6347385071001
42.1150286029246
45.3597555655215
47.0977444850927
47.1389269267973
45.1883612911644
41.0341725450186
35.1816850027479
28.9267526618693
23.3810394182663
18.5304765649751
13.5058890703796
7.71338765557952
1.49849336715045
-4.31292944855954
-9.32533321444501
-13.7760669342179
-17.8203734139888
-20.9733561727113
-22.5663631614421
-22.5638343081309
-21.5871138555133
-20.1622954822902
-18.1192864311568
-14.7397918539115
-9.61644384911109
-3.61747325908886
1.12296210250739
2.61470073535454
0.578117252323508
-3.46210947264901
-7.5215626551154
-10.5219163332311
-12.6778345563826
-14.8846340833354
-17.606616463018
-20.2103578146704
-21.6057439783061
-21.6507103433443
-21.5904618533845
-22.8704908465107
-25.6506552681092
-28.5309233462483
-29.5432383617627
-27.3668819109938
-21.7798212333276
-13.2868742104233
-2.8084465572254
8.09272749240602
17.3227814439212
23.3899002270015
26.399285392278
27.4997155432007
27.4882569315752
26.3390975088593
23.8865567661671
20.4651637476017
16.8112859054215
13.5425487323902
10.7776380778868
8.22508610048069
5.59815656152359
2.83358048491987
-0.0142161367066941
-2.74078522899572
-4.75893105063999
-5.25362847034697
-3.83202849359165
-0.975506283867047
2.17236125122847
4.51110485638353
5.80541305762511
7.01225267846456
9.43947928574029
13.2076920403489
16.7718106694367
18.2953750164369
17.3126830809249
14.8252858202162
12.06920880463
9.48439105390731
6.69236680373534
3.20079903634485
-0.924245906843777
-5.0981547223451
-8.82885831751261
-11.9957759309306
-14.5122447346128
-16.1447503802392
-16.8728006939916
-17.1337863356929
-17.4920972588452
-18.1211451837717
-18.5480340119696
-17.7818191952889
-14.8679471533005
-9.60257176370456
-2.77938807712976
4.2490174719922
10.2803079251282
14.8388900173168
18.2898859289679
21.125390361232
22.9107742890386
22.3106846725098
18.5324015682968
12.5012248619886
6.29396680050188
1.54888618359388
-1.45689553902031
-3.48036523451178
-5.36925585930809
-7.32460051474905
-8.84833073998031
-9.33598192284243
-8.72460984960986
-7.59163365934842
-6.69213843246637
-6.3611106293392
-6.23138361541734
-5.5915637218175
-4.18492090040867
-2.5394828782383
-1.31077041824268
-0.527490910051095
0.110489488060257
0.276189475446755
-1.12592559476086
-4.80265421957265
-9.84919344144645
-13.9961139288465
-15.3395525542634
-13.8583721043603
-11.2022554108601
-9.22144681696485
-8.91959566319124
-10.497795611117
-13.7712022520364
-18.3254497638918
-23.4361040894484
-27.8769989629765
-29.8651082038248
-27.5932578545842
-20.2276374867315
-8.53900377708996
5.29885704356548
18.5620793010665
29.2726660873897
37.340448352351
44.2172900791191
50.741187312335
55.3462267816709
55.0556189215451
48.4385357266601
37.2156242229547
24.9349026701172
14.4929554906795
6.86484175127178
1.46917031917242
-2.7762894417556
-6.54308183488502
-9.66801136936679
-11.2956271087004
-10.5559532289917
-7.50484172157164
-3.56030302693829
-0.713580750318432
-0.0004083442739475
-0.758364065784853
-1.47294484833642
-1.33651190864157
-0.966661332432605
-1.59221739945955
-3.5798359684344
-6.01264384355757
-7.85991789378422
-9.11121730358216
-10.2688993719479
-11.1877866978866
-11.3307094933807
-11.0915574160218
-11.9123430522429
-14.7220326209875
-18.7389180861906
-22.1175390965334
-23.613910115928
-23.5726466074845
-23.4696728673488
-24.5502736516177
-26.7833026060101
-28.9515077422084
-29.5682078553991
-27.6798754701266
-23.0656815952594
-16.0570861700124
-7.35048046281828
2.0884937834091
11.2300156980505
19.5051471363802
27.2834358271618
35.4282555752982
43.9178936826125
51.0371612809459
54.3476811122337
52.5687474325964
46.5402937280477
38.6084818566186
31.1591356075497
25.4217546123429
21.3621665011014
18.5317756451803
16.7362611261913
15.7810782170713
14.9800367996863
13.3671240424767
10.3980879195665
6.36474547391926
2.25103020672699
-0.870620526985364
-2.61924521467133
-3.5640300995569
-4.57091947170379
-6.03794170767056
-7.97984620391173
-10.559560351811
-14.0419950691045
-18.2406987381889
-22.4050561001046
-25.8473895665603
-28.5745219239861
-31.1495346559573
-33.9044107608242
-36.4311511265253
-38.033208057896
-38.634577889551
-38.9597545985105
-39.6538322337957
-40.3462100789644
-39.7312048726314
-36.6398631280391
-31.1607780808847
-24.7624998755706
-19.1328810161545
-14.7764798685149
-10.8271167129179
-6.12893081249985
-0.28147978070862
6.12695164831595
11.8499456076352
15.7152748164588
17.6086151300521
18.7929923910723
20.919860153987
24.7004370150808
29.6102429952134
34.5311483039716
38.3571347581703
40.2644826751883
39.891505959382
37.4399176886625
33.6112245078468
29.3745469241324
25.4960385369227
22.0360321176617
18.4254305120687
14.2196588126237
9.70030322955703
5.674480394291
2.83583564607427
1.41106448396526
1.30823187202453
2.42025793125853
4.59687987375571
7.2554156724917
9.30580438728117
9.84723255558971
8.81740196864086
6.51382129189401
2.63352616208261
-3.49372154182221
-11.5468956461944
-19.6639246631708
-25.6259711928927
-28.5326073600626
-29.3658353134343
-29.9854619777161
-31.2996343416929
-32.2370310380109
-30.7700456946039
-26.039851245936
-19.161909772651
-12.0095546275146
-5.81677157311232
-1.05957421284233
2.16132379975174
4.36078940356934
6.96253601342226
11.4665850786145
17.9434629818414
24.7318162235749
29.9863089401069
33.1802883476805
34.6461258096327
34.1847993349575
31.1391394180884
25.7373306736483
19.3217054796362
13.0119288755143
6.91545653246068
0.870087483897598
-4.77694345002585
-9.5095463166916
-13.2930563703638
-16.5430439550898
-19.6450861632059
-22.6062739082159
-25.0016187036437
-26.2639000567175
-26.1660163204233
-24.9573085128523
-22.9848968281291
-20.363797286256
-17.0361467598843
-12.9028158321842
-7.87727489050024
-2.12358216338827
3.57299173230929
7.78899372813876
9.05969453684868
6.75507221125066
1.51010165218313
-5.25292367064604
-12.2271856809533
-18.579353323027
-23.7050817994598
-27.2474386413447
-29.4843001872561
-31.1087822177604
-32.218991720408
-31.8052753459466
-28.5743004757505
-22.1936795400734
-13.5822370260609
-4.08750499875951
5.48436823291021
15.1003970431798
24.9853741140975
34.9846717682378
44.2790924658201
51.5138985612271
55.3189970040433
55.0573417359584
51.2134834365115
44.9782834544499
37.5336603088285
29.8531477401096
22.8452427310842
17.1277720624252
12.7101794039992
9.37699514629245
7.27676612271127
6.55526611558547
6.50489224258022
5.81622323303363
3.87833421760302
1.36897087474642
-0.632983452578115
-1.84603317937603
-2.96995560104547
-4.83568058144723
-7.53420161133087
-10.438633073575
-12.9579229844611
-14.9848644901335
-16.54629926205
-17.3367401231153
-16.8103378624819
-14.611730810348
-10.9266179032841
-6.65241777476472
-3.18992305237864
-1.72076087376348
-2.49943625271694
-4.82817955854751
-7.63447384720024
-10.0975052304965
-11.9493419239747
-13.3278673712708
-14.3604596940205
-14.9573290625987
-14.9875601282973
-14.3914434184129
-12.9610461688573
-10.2925609595734
-6.32168546583772
-1.81727427051413
1.99925965901239
4.30890693051995
4.87909687255225
3.50929140669635
-0.0956337132870186
-5.5174286330841
-11.0609591067939
-14.7195077265783
-15.9099262061632
-15.7591686791913
-15.3688726541214
-14.2941042837182
-11.2171758887647
-5.70987843907238
1.24912973040925
8.24821284382515
14.4703657018637
19.9879674215283
25.3292001761463
30.4461138038927
34.055005340369
34.6416329893443
32.2920613239904
28.7984528394261
25.6468242459432
22.4924163907396
17.9188605280822
11.3008082268328
3.71267695411891
-2.82381065608917
-7.02576906159481
-9.47503955058834
-12.0150969268384
-15.9314623428858
-20.7756274592785
-24.8771992028484
-26.7497121832958
-26.0809302590922
-23.81368214762
-21.4532878609959
-19.928837513495
-18.68270140223
-15.8725785694954
-9.96081711992944
-1.65460782402699
5.76493283438899
8.68900553372863
6.18021004537583
0.614377633566244
-4.56519599150177
-7.25172840680148
-7.01566731975514
-4.09804845812648
1.2433196788189
8.65560287896074
17.4352290878367
26.4729709838517
34.4547952242796
40.1710582954098
42.7704044831361
42.0549379161008
38.7721159092061
34.3179118588429
29.7352876026684
25.1319422575777
20.2742719417886
15.2916689226222
10.296471640693
4.63990991754146
-2.78127626304796
-12.2908647920284
-22.6338108928135
-31.4649766131466
-36.7810324652286
-38.1831469164647
-36.970852910565
-35.1321185004564
-34.275257562815
-35.1744634103641
-37.622376035767
-40.402809748973
-41.848697340463
-40.8874762185151
-37.5034014422201
-32.1583628512956
-25.0470932627373
-16.0029253772944
-4.9272284388563
7.68048256000954
20.4563871080636
31.5537071255031
39.5184797792841
43.8257307794164
44.6431855241018
42.3214196489245
37.1848633163703
29.7112190653288
20.9376560802805
12.628517464374
6.58507145421252
3.39724222969542
2.00612692313896
0.723637867999882
-1.36483817620235
-3.93575536538955
-6.03053519605357
-7.03134073678915
-7.20953421928473
-7.32118046391324
-7.63048414991077
-7.51961569657117
-6.12374777964404
-3.09104078555207
1.32588175188396
6.48561386404258
11.3717074158207
14.7767777039526
16.1151241887618
16.2146810704986
16.8354454450865
18.8482228520644
20.9293990231134
20.6782654003057
17.3242523615167
12.7923820960492
9.59052311898506
8.03179683168799
6.10299139146202
1.80318193244774
-4.97859023831042
-12.7723972690023
-20.0565643907953
-26.2284761747431
-31.3818527824169
-35.5565563632256
-38.4142791808945
-39.5860225110889
-39.1407099136694
-37.6309433380976
-35.7592098575953
-33.9859623967728
-32.2641057864586
-30.0518831663238
-26.7256416736769
-22.1225172772197
-16.6493148401683
-10.7847996042064
-4.50078226650803
2.66460102113854
10.7718585471156
18.8031318255557
25.2209100722471
29.4132932990874
32.3280644164373
35.4563904614238
39.3621104281111
43.2995893967848
45.9475798834041
46.3034613059734
44.1838636257978
40.2383936993035
35.4357521216015
30.3618321706818
25.0210522605668
19.266832884757
13.2333899433257
7.30373909173713
1.72991058007639
-3.72113545718961
-9.6496193269292
-16.3061026896695
-22.9882961099747
-28.3765819804679
-31.4675643063153
-32.1020652994707
-30.89077984235
-28.9395697435393
-27.348804778138
-26.4895832050547
-25.7532794039659
-24.182037003117
-21.3104403216942
-17.4882590689403
-13.6982887341943
-11.0236864156109
-9.85449400036193
-9.38703862929165
-8.01439517210703
-4.38086096953639
1.63916386052358
8.5958678128297
14.1240740344507
16.4844069941492
15.7819020648769
13.5789593832936
11.4074570410486
10.0012066830393
9.83201332686655
11.6708952388677
16.187594104001
23.1276341098204
30.9393089642563
37.075880374748
38.9487790377985
35.3228937686587
27.2937712159434
17.8565895837205
10.1565173131986
5.75677450034899
4.24318208686294
4.0986076582299
3.59989311837789
1.08318634729124
-4.67031247057387
-13.4297351270653
-23.0239296625064
-30.5263443577014
-34.2228940041051
-34.4033139413019
-32.4570511419833
-29.5520363406719
-26.2012047790848
-22.6954401499695
-19.3586813277277
-16.0429703606874
-11.7627655524552
-5.64191786642091
1.55685609766069
7.45093744237529
10.0663760718303
9.6809583090263
8.39232410761248
7.93929118869589
8.0641641992694
6.94333102276827
3.15295489808538
-2.78537627897929
-8.79796926741418
-13.0542661698844
-15.1309368175256
-15.5434310609596
-14.7485108298749
-12.8603740396452
-9.86640901651902
-5.8205911723628
-1.18656001537712
2.84257881917045
4.81655252454966
4.11573429230748
1.43892807427668
-1.69541125354723
-3.63259166338908
-3.02644225605776
0.649036134962947
6.6314401999921
13.0662197422219
17.9626363639151
20.246362661275
20.2021049556939
19.1033356107139
18.3687539647118
18.7743550459942
20.0672104790012
21.2070804753888
21.2614904448014
20.2049059027507
18.568450222399
16.306122956312
12.6001350688554
7.11986825588709
1.04763472619521
-3.63861408042313
-5.9433094663931
-6.80418708039791
-8.17379436567546
-10.9769841999499
-14.0057120972246
-15.1874484003603
-13.9825056914629
-12.0005019889322
-11.079691701443
-11.3950566564871
-11.8083378165469
-11.4368948582574
-10.2827196051218
-8.67026578098812
-6.68655113000048
-4.25167173944139
-1.45275786109708
1.43331230025653
4.25859211405695
7.05212922327658
9.50830241239813
10.7118402789919
9.84250380018067
7.14021631939409
3.90916046856777
1.60796755689928
0.965756956590345
1.61977230538006
2.3864045865486
2.2009951033911
1.06085254032309
-0.0979656561194813
-0.501502498936139
-0.302319537645862
-0.250060951171414
-0.847348329206519
-1.92970847842251
-3.01359515065543
-3.97936826390997
-5.27709485392109
-7.36378764570829
-10.0495917763985
-12.5546655647822
-14.1960646143729
-14.9459881397945
-15.3241757092762
-15.7838793419013
-16.2611484066347
-16.3827451218964
-15.9818637514538
-15.1165141649992
-13.626957499366
-11.1868424358675
-8.00768893530555
-4.96971185560651
-2.56817286651555
-0.0122644347971836
4.06093583666536
9.88019578853403
15.8744110840518
20.0045813396938
21.7479266613018
22.4609365182636
23.6247466530915
25.0959225236287
25.4559800420272
23.7530479051886
20.3925468214475
16.5878495592771
13.5123154900376
11.7616055025126
10.9881799646821
10.0897755677044
8.22254725463791
5.63576674793806
3.29610609893506
1.81191463103123
0.802244475239951
-0.894797564804461
-4.31439475962315
-9.22118545311402
-13.8374694857651
-16.1636443558939
-15.7074112331195
-13.6118907603796
-11.0944189047319
-8.2621727544716
-4.72307336032348
-0.940525180998881
1.64651379168963
1.99439297052479
0.540570147470544
-1.39286828507298
-2.97158708409504
-4.18573805385154
-5.13770830755622
-5.75572061940786
-6.24422175776272
-7.13148869133018
-8.63370609744747
-10.3963490345056
-12.010284796757
-13.395472919267
-14.4681688876467
-14.6665040090563
-13.0586691234797
-9.05281613390166
-3.19023535112874
2.69562431830012
6.41655188894054
6.94059732945906
5.11090070561757
2.81542356604553
1.43325171777307
1.08774581005775
1.26710450603263
1.82317821217949
3.03579201253348
4.82989741371413
6.47662410370912
7.31124317314696
7.43301841900839
7.50862918390191
8.12733836776927
9.34845735246908
10.4344031005307
10.0078069734704
7.1450666462198
2.62458638710408
-1.41569165241464
-3.38082378557182
-3.46038735349692
-2.91310473559793
-2.61072572019222
-2.47983418657895
-1.98731747317065
-0.81511691379075
1.00999922981763
3.55173941606946
7.22627339299582
12.3275039416522
18.3363173711076
23.8562671740638
27.1753832935959
27.0215686085303
23.3083259409699
17.4066883847673
11.336598538035
6.39050782401138
2.56406095909798
-0.883196336792499
-4.69383043575996
-9.28493188893459
-14.6487730558763
-20.4432638739506
-26.205021680348
-31.2121027303148
-34.1314705757277
-33.4996383005114
-29.1612313323507
-23.0289008042144
-17.9348248555017
-15.5990040654734
-15.6369555070352
-16.1973891850949
-15.4204319159839
-12.6842586997673
-8.88445541576652
-5.49724975424029
-3.14866274362376
-1.03570042866705
2.16132689819067
6.76279224615186
11.6301635055983
15.3525075437006
17.640915949606
19.1621783897427
20.2140868681469
20.2204022079552
18.6393739539738
15.9014221957692
13.2926199813146
12.1139102449553
12.8334597662516
14.6984861938862
16.123016663799
15.6401942686949
12.6377091287375
7.47318919886509
1.24653431680476
-4.61053287444908
-8.97538188517013
-11.5218089764838
-12.5885998158416
-12.6724209545227
-12.0945320288114
-10.957600478769
-9.2737792185035
-7.17610823627858
-4.95902403804996
-2.79271812026785
-0.520926715429506
2.00650108208381
4.4199169527685
5.90168779079466
5.89032636190298
4.63728339980105
2.98945988041472
1.54647199842703
-0.0703317060537871
-3.03151307286046
-8.10991838498017
-14.565267769332
-20.3083698743383
-23.2007845653034
-22.2940511124033
-18.184339449529
-12.4441452770369
-6.58073301990304
-1.3637269719199
2.93182541988374
5.99813941201991
7.63826027093191
8.27810982063547
8.85388480162845
10.1351519733556
12.3600521162517
15.3829361960794
18.8807687689311
22.4283876244494
25.450566023227
27.062954134388
26.2404836030846
22.6839773123019
17.5384626330129
12.6851481278959
9.02121778153202
5.68760344064978
1.19926542908755
-4.79036681142825
-10.9532503399999
-15.3855205952759
-17.1165995928603
-16.6027025954973
-14.9733559275016
-13.029639268084
-10.9521511839546
-8.64268916175224
-6.06752833096829
-3.36026244169161
-0.81617694509653
1.19206976581752
2.40405396240762
2.83677686414048
2.71637637831488
2.10113032127229
0.544294363129846
-2.57871239483453
-7.18173489297547
-12.143589557012
-16.0871001344197
-18.1850128263753
-18.0236335905177
-15.2979416448208
