2.2533981395313
2.06225586890379
1.6233197739204
1.12479063447345
0.869728053233563
0.882607159123953
1.01154569300044
1.16518400283867
1.19865694532718
0.924271679562456
0.416060708323718
-0.0640705820409622
-0.46017442053501
-0.866320234972061
-1.22074617750599
-1.43271712125031
-1.59681599760026
-1.80083650010869
-2.00339129674752
-2.23151473013719
-2.52877055748734
-2.69367691415812
-2.47847967290851
-1.97346902348167
-1.44383743711536
-0.98586632891131
-0.619638235872812
-0.420272497717086
-0.362607984181106
-0.338639278888017
-0.356474680151362
-0.424385004580651
-0.380721819355777
-0.143260101026505
0.105950881379108
0.245482714080827
0.42185551337358
0.708889025168513
0.906412779983734
0.887222870394752
0.802370736831222
0.79384917800397
0.844878023918116
0.953464995895309
1.1003590512327
1.1334578426977
1.02314389122432
1.01307004087283
1.23306044843006
1.48071460351189
1.5686233048822
1.51551965153113
1.34445315876997
1.07537312882825
0.848869837980636
0.735275783122544
0.609715761364394
0.436946131858786
0.37353610574439
0.453260577902152
0.530145450894111
0.5633960818216
0.601674379332968
0.578329859025978
0.439138733793579
0.2658143520857
0.0549302082700922
-0.296519148103115
-0.677428951120649
-0.851561654665777
-0.873529219961992
-0.990079526868378
-1.20807070445526
-1.35259164467976
-1.40430858254848
-1.43986947977782
-1.4110936406666
-1.24735588337067
-1.00339193508626
-0.753892584487039
-0.556347438329822
-0.554913342037983
-0.814944171224943
-1.08512087441962
-1.07230291990605
-0.848762985552326
-0.675963999649276
-0.647504715018442
-0.749605189194282
-0.946814288785237
-1.0533900916322
-0.88285303080856
-0.547077817583387
-0.268003310993489
-0.0361932288620312
0.240411143750547
0.520369577966959
0.798012837410449
1.14419054877143
1.45513789774498
1.54544520288658
1.47851327868499
1.40743647469678
1.23894599171801
0.848486400726394
0.392395153146398
0.0891053243912156
-0.0240036539813151
0.0495907392902025
0.301547573367295
0.566450370415383
0.65646296382176
0.576775504085828
0.369299123242966
-0.0337261190081034
-0.583438153467729
-1.02836374100168
-1.24559183170968
-1.37305829972619
-1.49709770696534
-1.53451723596728
-1.49198427308919
-1.48407203706306
-1.47197466881716
-1.32404900950849
-1.06670471738947
-0.793523451221334
-0.516331087907063
-0.301899094054448
-0.255931170496098
-0.277517139386563
-0.17077666210349
0.0474521268445044
0.283961858955282
0.602752325846987
1.00579052323538
1.29360248873952
1.40388202403503
1.53426913820222
1.78489426704113
2.05537043704338
2.30866560075673
2.56941163307363
2.77650914015998
2.94521610594942
3.21968221145351
3.53530491686706
3.59786838597102
3.34578299110979
3.0311409088009
2.80796544973486
2.62357038274931
2.44014364529136
2.23006064504049
1.89924558887225
1.45635646757834
1.04718272482593
0.669620716010113
0.137752427129253
-0.565065998703176
-1.23011370432472
-1.77898403340302
-2.30929203934359
-2.80402100414886
-3.18903415468379
-3.57238189260329
-4.05094573742453
-4.48060513174354
-4.72831376233808
-4.85836861219855
-4.91278661960872
-4.87512516544584
-4.864427494557
-4.96803788796391
-4.99901224448254
-4.78775779671083
-4.48605137584106
-4.27735044968944
-4.08429617699509
-3.77330034374815
-3.33056898666339
-2.75773806966298
-2.09991356174607
-1.50507417510559
-0.983470507381559
-0.315674796644644
0.587807029736417
1.52441339068541
2.295540040915
2.83555917791421
3.09226401470743
3.13954299356873
3.27647616412195
3.69295923113553
4.22225952477669
4.64406097745604
4.95945478731768
5.1940632313959
5.25400465857082
5.13862954439481
4.99039378566774
4.84990004000951
4.66721047479991
4.51706137282822
4.45951042577567
4.32029077294217
3.93110178417412
3.36642667027046
2.72758935448804
2.0273062657497
1.38475380391862
0.929335054823577
0.531001427053513
0.0169336362181529
-0.504752273703126
-0.868693712524969
-1.10683641018237
-1.23902881444491
-1.21130748999102
-1.19874461689155
-1.52288515987713
-2.19618095464276
-2.9358653595809
-3.53455795280889
-3.87978906499382
-3.86276233877755
-3.57687942134817
-3.31000271571049
-3.17092058713744
-3.05352291163581
-2.97020923996667
-3.03594563196021
-3.18636067571674
-3.2448115052607
-3.16473620585667
-2.99038905556917
-2.75201434736938
-2.53254189300868
-2.4035053258058
-2.20873714623345
-1.68604127531922
-0.855064706725588
-0.0137284412716016
0.60868364349752
0.936154181898285
0.975253784022043
0.923539036112559
1.05457569386318
1.30924009342822
1.38940831968747
1.30296471515576
1.32079633908772
1.44264447968665
1.42044953738963
1.20177381844676
0.941601035502856
0.773005613862436
0.815346784818386
1.10567388530255
1.42044305548175
1.52889318414923
1.56837605560497
1.78114609431302
2.08011961949292
2.25145858212205
2.28359313302264
2.19532178161772
1.91660929222009
1.53815958506163
1.29480165267388
1.23484089631533
1.23046942104535
1.21503977401897
1.12870109499219
0.841119659002011
0.372787643660748
-0.0442364543872544
-0.289254977566386
-0.476491877378369
-0.679391238942654
-0.842035961948885
-0.989430821722643
-1.18827753147437
-1.34513766992727
-1.37485144669728
-1.40482810372536
-1.50280597304459
-1.48901896758853
-1.28094663946907
-1.06587836676526
-0.971331304162733
-0.939324227472355
-0.93848806771279
-0.942959732129629
-0.834642054631977
-0.625376488258687
-0.522261833624996
-0.567653226342404
-0.557046028647824
-0.409110531018471
-0.227009801199794
-0.0118832545621144
0.293398009084493
0.599564710017733
0.834033694265465
1.07099203970302
1.28252179680432
1.30280311626933
1.15142537623408
1.01430752049488
0.916043044778664
0.770373685435536
0.620211865187778
0.50554885559124
0.299371865444118
-0.0648526698313476
-0.436079634428171
-0.696500215910445
-0.910006190508032
-1.10572914033391
-1.20620446783384
-1.23386420196488
-1.27566473664024
-1.26162617274641
-1.10845917646322
-0.959713766241682
-0.959324005175827
-1.00279051360308
-0.968858901542311
-0.904460453672201
-0.837766062812989
-0.735079187720314
-0.638027402550232
-0.533739644739514
-0.265355429392538
0.148375877905737
0.412806380654305
0.401381843439398
0.328555753173788
0.365584078275844
0.492941348707976
0.727396287383449
1.08460764736715
1.42636075899448
1.67547991224638
1.94323522479198
2.22937436802369
2.36827300398357
2.38230570044002
2.44361317041746
2.47684182648264
2.25468157487417
1.82085776584078
1.41422726801359
1.08536242021876
0.706457284015434
0.224380168972794
-0.322940946939301
-0.88534527072625
-1.35455795827773
-1.62374926021687
-1.75199550398733
-1.86729575778013
-1.96927827409346
-2.05709566495053
-2.2417236022338
-2.4715092917898
-2.46272982538357
-2.12647507665006
-1.68857294987641
-1.28904305916025
-0.899546233322972
-0.606503259698077
-0.518686144878794
-0.511521465082972
-0.436568668660905
-0.356948857335426
-0.308245594639561
-0.146390494262306
0.200278611973414
0.663588570305219
1.22774781077076
1.83974044364047
2.26435577483547
2.3701165402464
2.33941389669815
2.34871487116906
2.3447709684858
2.26641242478182
2.13360748962814
1.89074961277482
1.48366412451647
1.00929599939733
0.553145855793755
0.0794882857607422
-0.352710809769055
-0.555799379152474
-0.524644915016525
-0.467531691763308
-0.462076136393016
-0.435256434178575
-0.483316491189902
-0.783762796908849
-1.20702452096343
-1.43333605077624
-1.38878093316375
-1.23798448153107
-1.12604729334895
-1.15723240250555
-1.35705309613619
-1.54609078627736
-1.54981681858177
-1.47724908938688
-1.49169433236682
-1.51383370939006
-1.42543898235801
-1.26404826677457
-1.03436622054795
-0.704993165530239
-0.453949950428616
-0.480750925716066
-0.616566085307169
-0.561578682825571
-0.368840447185331
-0.29648196012204
-0.399148193465789
-0.563201286533139
-0.670896508200084
-0.564305268463929
-0.139939449498061
0.490889956941702
1.16736684911037
1.84621130260984
2.40473395182656
2.57957305056917
2.31932100709635
1.89523494452074
1.51635518018116
1.15892529075185
0.843920376997568
0.695822692644029
0.679392029434711
0.65819412748912
0.665733091047567
0.74003056658187
0.675173813351939
0.333432592111494
-0.0589821181734981
-0.248595919485289
-0.25782611127794
-0.166341476836192
0.0251834570168399
0.241801042329134
0.395167750613652
0.537001012473868
0.697428998582499
0.779364615502923
0.777299026408962
0.799205774704252
0.823009151733956
0.782576341879695
0.811021728676346
1.02233302939343
1.2380536955221
1.26544281947659
1.17212554382412
1.05235882361003
0.87976105207875
0.711198602134814
0.641659098621993
0.549569194557136
0.254824557219475
-0.170720897418615
-0.553699324107394
-0.893290771121243
-1.25244408292735
-1.60909024659855
-1.97991664588941
-2.43245433618044
-2.87320199192248
-3.10501631218773
-3.12855130108546
-3.09493928542729
-3.02650423678335
-2.8814097619647
-2.70974595208604
-2.47899520250482
-2.0561371187525
-1.55871981796504
-1.30627149554269
-1.31931231417853
-1.31903367718168
-1.19500894727269
-1.0263864161395
-0.794057813219351
-0.472702363980208
-0.172048081286648
0.104115487008704
0.535325659968381
1.15476601883645
1.76968217122953
2.24240657757073
2.5521836511241
2.70444032589307
2.8362672851822
3.15318926831275
3.5717373082227
3.76162939144076
3.61811429103494
3.31955758763936
2.9727648146033
2.57884311265784
2.20094713275293
1.83850948067659
1.34263956087752
0.692604483264114
0.100674788812374
-0.309776909964392
-0.63724283991404
-0.934682949721686
-1.14562722923247
-1.33129931212471
-1.59594565820628
-1.82183921234393
-1.83611168985216
-1.72022406856714
-1.65376651360568
-1.67579402089015
-1.79690449411263
-2.01952406888816
-2.16501603948987
-2.0524858129162
-1.799562996448
-1.59939669185005
-1.4077608155754
-1.16187131582459
-0.982262707789206
-0.896474120589424
-0.723384539275358
-0.378949586498877
0.0593323783120517
0.573781568199865
1.12757256780705
1.51221202281854
1.60712078291858
1.56762429877203
1.54345119057421
1.52625477172655
1.55682184112317
1.69515549494428
1.78929485664826
1.63927848500267
1.30306989265292
0.954309996209769
0.614420729468161
0.251703553275323
-0.0735286169475939
-0.33394889834134
-0.578505865963187
-0.756280838783514
-0.754060583136275
-0.638467148412391
-0.577009514846247
-0.567177094772437
-0.527055187971051
-0.495561812880364
-0.482136851167857
-0.373292759201847
-0.167788398522467
0.0179771489771679
0.210057719630082
0.462627225664562
0.602043287496611
0.487509193014321
0.309874878236167
0.290425686893911
0.379940095280927
0.476312585327311
0.568609628206748
0.572909222114342
0.425226764757681
0.28728783050357
0.28135595816625
0.23629722046438
0.0382253825109074
-0.126422350935959
-0.163657171451577
-0.268450084380263
-0.538280989702415
-0.842025711608128
-1.13343370231664
-1.45864678074685
-1.69175247585307
-1.63867659516819
-1.30941235653733
-0.833996339996945
-0.29053361037661
0.203614424804166
0.476403172460106
0.520264117836865
0.478817679700447
0.385072646086347
0.217160329741018
0.130922987736402
0.261506275193454
0.441710022211147
0.463967083780626
0.386894897014308
0.324272868324132
0.248251426439938
0.154550735933697
0.0968108883247084
0.0501808736857717
0.0122283094291534
0.0662998708734573
0.141846137829204
0.0448682862169505
-0.142135446950144
-0.130621800345714
0.0518976219954519
0.0950156615525244
-0.0725546127292061
-0.261723208041722
-0.397920613367213
-0.518901901617668
-0.606005820499473
-0.690873849621405
-0.853089605166899
-0.996943308631337
-0.958085286875392
-0.800482636747713
-0.676733645475817
-0.544713720065913
-0.319788888020804
-0.0778873255834086
0.137547414026397
0.435590793755836
0.808528307330765
1.03860538783871
1.03512229995354
0.9760720362263
1.01293992500921
1.10567355221003
1.14822639639828
1.01647532724659
0.642104489100691
0.238286044808967
0.149904363955203
0.345724854286555
0.467181434158416
0.405165710996838
0.355683784355785
0.393840861126442
0.473696154652059
0.67298227149227
1.01814365290653
1.29331185972044
1.30144003327022
1.04439928489697
0.551893372069636
-0.12272462394888
-0.770488960177489
-1.24471908695568
-1.67421539149237
-2.17841539289773
-2.62642631698451
-2.87708969020356
-2.9399747636502
-2.82686153765881
-2.57763425609333
-2.3544306307797
-2.18926193173835
-1.84389093678744
-1.19944983677094
-0.492320733098208
0.0689972698852795
0.587244826151484
1.18607061907641
1.7747267740012
2.25213872585473
2.62404660000357
2.84067874192507
2.84056577385314
2.74336053686737
2.68725176335194
2.59532526512159
2.37226268522091
2.09899869173706
1.83981283957069
1.57081910338468
1.37536409512384
1.35458673649333
1.38907925767255
1.31321058598705
1.14420560993202
0.886007403746718
0.422683700758704
-0.203020135110958
-0.779886959491135
-1.28031369143611
-1.83111901764975
-2.38126520311582
-2.78394918985562
-3.04515564550695
-3.16567805059163
-3.02633560602234
-2.69258850003647
-2.47650566259261
-2.51889470174593
-2.64737103971811
-2.68251360831564
-2.57389347677238
-2.30468349647795
-1.91234567749001
-1.48718292858708
-1.02130321156507
-0.438248593681846
0.190360147704147
0.696916762839817
1.07465129896956
1.4102971627617
1.63493137164151
1.66718031996956
1.68149581297854
1.88800258818697
2.21433570629219
2.48431005039039
2.65061289854391
2.67758128421387
2.54778942739444
2.4400226878281
2.50805673131299
2.56131371114349
2.3415966955933
1.91123916439572
1.45319805979545
0.994390353171817
0.549112339069093
0.171775436740813
-0.236047367341387
-0.79365629553663
-1.35026042722421
-1.67802150904679
-1.7916621838808
-1.79804292376583
-1.72276802425172
-1.67591989310704
-1.81076643954592
-2.03281657593246
-2.13146440646149
-2.12817664135631
-2.12089641298549
-1.98564543060067
-1.59279835138448
-1.07846097026972
-0.618007206087153
-0.192551833180671
0.222591360348859
0.525997256189211
0.691532002434056
0.822918400610057
0.945028818570074
1.0130866738253
1.07692339912716
1.16234187608712
1.15518128998054
1.03605420192223
0.955254786873864
0.931036011888327
0.83010756386236
0.665442081290012
0.521530194327574
0.304350168880436
-0.0558860649908861
-0.385340538552408
-0.549089138805618
-0.64038303598267
-0.731273160687967
-0.82367648399299
-1.05408752827874
-1.49940988737679
-1.89431158132361
-1.97568473487173
-1.87121880220273
-1.7908269123666
-1.71685386285271
-1.68526824560529
-1.89521168975354
-2.30729753090221
-2.55796112420054
-2.35846788015279
-1.65491953125309
-0.527953853228351
0.735828303864358
1.68229908073046
2.10271402718567
2.23648209745162
2.40912963634531
2.70047693702998
3.04797461049967
3.38377388510726
3.60945753633982
3.69930708140367
3.78493510537177
3.91054259507073
3.91035133736698
3.73517674106085
3.55968469239187
3.41184188870882
3.11472889430424
2.65198813945325
2.16046206558563
1.63971344520008
1.06756002837313
0.596046869417515
0.301225005756021
0.0278671467286748
-0.301485380351868
-0.558178961438027
-0.667063759422578
-0.67252229797697
-0.644246428178495
-0.814976784624583
-1.52955550202416
-2.74584732529037
-3.91062196011148
-4.51117645685588
-4.38540387837188
-3.5387225963684
-2.20493711671217
-1.04034551921315
-0.7291993892447
-1.38339445471817
-2.57110752672881
-3.74466729097746
-4.48462386103467
-4.64668221225252
-4.4636786955228
-4.26636152480912
-4.06077767991148
-3.66126051231627
-3.15176847354413
-2.80011792169887
-2.59936277360759
-2.31302705750179
-1.86022488744405
-1.3169604448112
-0.728099030407634
-0.151278375587139
0.352130915120223
0.854351611070145
1.45100090742355
2.11368861785498
2.8489471637595
3.69863225756182
4.42048123445906
4.63459984169841
4.42513161597663
4.27605217625439
4.35299376406031
4.37288010036093
4.13523075051293
3.69263332516524
3.13878124213307
2.61260388579668
2.26512314962642
1.97763094746867
1.44930595276652
0.664681024399741
-0.099762850648438
-0.690856864126383
-1.13095420610166
-1.40480095625797
-1.52822093382529
-1.64674900604457
-1.81762578059446
-1.88373259902888
-1.70996233081925
-1.33567391047335
-0.826932366966043
-0.214193616399208
0.406588169543154
0.929384751522431
1.32089436550356
1.49134723905478
1.33909310788697
1.06676134442291
1.05208456303031
1.29483643512474
1.45717497793807
1.44277422037819
1.40922884192932
1.318059095317
1.01004862094086
0.575033700005051
0.226604665826985
0.0263029156634957
-0.0214900005713201
0.0752335893993894
0.12017392261951
-0.125462098274731
-0.602579407190243
-1.08308501280364
-1.50424211834126
-1.88757238293885
-2.16939705073969
-2.3412811973935
-2.48928728677604
-2.6032244660738
-2.6203096737818
-2.59053880754611
-2.53656824624672
-2.33703438560878
-1.97140114462977
-1.62552875002429
-1.39633764511924
-1.1780231190623
-0.923546813540237
-0.701589085375896
-0.465890775164226
-0.108646032762461
0.272344446696708
0.494928427144323
0.593169468103229
0.695426342277111
0.792035500739445
0.865244673532812
0.961602034692299
0.992465742448972
0.819048876942137
0.54706780899548
0.36271619128135
0.217950534745985
0.0350134603552648
-0.0526994337165259
0.0270661976016367
0.115745277938435
0.118755705218047
0.0995126786986671
0.0650763516923776
0.0615505913690202
0.317029387132523
0.849315546156647
1.21806097150615
1.0924719201975
0.7241777016635
0.539097977840946
0.639265273319649
0.883444532129736
1.07586263806726
1.02386329658214
0.722085555807563
0.412043879206468
0.268054395892459
0.21975867669452
0.186061443975563
0.195357349168467
0.209745113941725
0.136983969282479
0.0327754099790218
-0.0014896551911231
-0.0370246993478861
-0.12541742277322
-0.0947265873551865
0.120435945384464
0.251821148733241
0.13990614704276
0.0316293328655058
0.165117132773183
0.453139824028103
0.723276311590931
0.887999209618267
0.876416187003803
0.715572228730855
0.535237230131955
0.300418389089221
-0.143705522148223
-0.669527036752771
-0.956048180611401
-1.00522306066014
-1.09392616058199
-1.26639629346755
-1.31344673383406
-1.12331356848761
-0.731402448817385
-0.256313805970476
0.0442189773001669
-0.0102576747100576
-0.220651734813622
-0.283619119074096
-0.231533868455977
-0.229617005280352
-0.196548963660962
0.0142309880831564
0.339968249245101
0.667061733130193
0.9371011069116
0.944169610441292
0.419821402991495
-0.543309584484065
-1.51065874840185
-2.18781061216374
-2.5401544630477
-2.53713893814978
-2.17509050409331
-1.61598578328088
-1.00426868592268
-0.364166548870013
0.198622939527996
0.557335234374635
0.834050284377165
1.19419658653796
1.48936145196974
1.5196401987623
1.43913765825908
1.53522654001605
1.84189034170629
2.18173913739265
2.30789243005542
1.96370633879453
1.1433513427775
0.235773742885152
-0.379172680490574
-0.687897547454096
-0.807334781753176
-0.759352640592456
-0.642993048678787
-0.617481204961271
-0.62896902579123
-0.529202675896019
-0.396205636745325
-0.374046582067972
-0.353621498471878
-0.133552106890952
0.274988633998938
0.717012885984498
1.07746429155138
1.29000718992958
1.37133536151318
1.45820872714305
1.57753688205038
1.48556552704386
1.0388984397644
0.524989868362086
0.257517736458988
0.0985927830332709
-0.266054036939175
-0.872396743516306
-1.5499568789705
-2.12463451453118
-2.450456233906
-2.56265107017696
-2.7256815960164
-3.03328373344896
-3.20348741790013
-3.0349050439316
-2.71046480541093
-2.43336447703077
-2.1556152546856
-1.79474268273897
-1.34434227113505
-0.762545805476236
-0.0660020445649548
0.591112287582226
1.14540514012195
1.66493534105893
2.06064750818392
2.13760835154248
1.95467751223565
1.75738871127634
1.65473993403861
1.67316643992936
1.87401374429843
2.13872494749852
2.16861208878495
1.92748892719214
1.74204511570379
1.81287071123813
1.98264428460508
2.07366696079565
2.08071442218607
1.98740925474381
1.74876801461371
1.44282068038678
1.16748699205901
0.925591521056722
0.778653113028068
0.814347660912893
0.872006244069978
0.68746431687056
0.300760558841143
-0.0647444259223599
-0.37293998554786
-0.673924667393778
-0.915699994245923
-1.13563712065201
-1.47367875466698
-1.83258346382823
-1.95722481472218
-1.90657820548365
-2.00230690158856
-2.3529714333833
-2.81477326928497
-3.25540789532927
-3.54429080945443
-3.53757055461392
-3.27689653472638
-2.92056799602007
-2.45932922165651
-1.82918261424454
-1.17991033272822
-0.691978253990621
-0.321650937716082
0.0101454513704433
0.236831756400893
0.343428491184515
0.464383029121822
0.671932783913907
0.937534356359985
1.30420552687926
1.7785662582766
2.12448301814626
2.12439950977427
1.91784918089924
1.74448583063292
1.58313855934752
1.338699397211
1.05973093298029
0.752154842911246
0.350502409227804
-0.0198433178155376
-0.112087261815725
0.131991170647239
0.602459112623468
1.14847072570005
1.50134983809065
1.40284492980544
0.926253950447052
0.339637470888989
-0.269043743559824
-0.858889838699711
-1.20540127392304
-1.2508076048995
-1.33668419185863
-1.68078752183092
-2.02611378084098
-2.10740068098852
-2.01247621805246
-1.88486688739696
-1.68697628821213
-1.33691373209344
-0.776169726328332
0.027760339660803
0.961146715701744
1.83973055902324
2.66848139373123
3.5165822128881
4.14467483237886
4.1821158295766
3.69310334175169
3.13845482532355
2.7734311156251
2.46946608419206
2.04197111154042
1.40750735207687
0.615814893887451
-0.0132062855396043
-0.11324083384335
0.210919265332765
0.493835953067875
0.542826457029597
0.513575566800144
0.492640040848517
0.457535152850966
0.439481397918532
0.373137030707328
0.0679722710961321
-0.455109177487887
-0.928806788308021
-1.2163808874625
-1.40410250123356
-1.59905999374919
-1.91337541536576
-2.42489143884276
-2.94840403982147
-3.17760242974046
-3.1448236646816
-3.14060117810638
-3.22635920844063
-3.26285009103056
-3.26310986544491
-3.30423352438992
-3.31613477457393
-3.29477786257527
-3.4604345159076
-3.94959241669251
-4.59763787494706
-5.16234386312322
-5.49961468706237
-5.46971359966153
-4.9594720316434
-4.00417414831153
-2.65667759482395
-0.885708695868392
1.16379335681052
3.09914076678015
4.68951864724519
5.98910554565869
6.95664248218347
7.41107362979693
7.36701607192498
6.96442608282523
6.20721490220772
5.1731958256189
4.20153562554677
3.52775079231931
3.06061975219626
2.6993257816585
2.46230549693786
2.25369760813616
1.94716351713281
1.65999519187111
1.55986415778492
1.5475458873185
1.4139386397078
1.0808680807987
0.556758037772266
-0.0425244172046023
-0.451943181773837
-0.56591234618225
-0.631269784570351
-0.840379201424368
-1.01435666709677
-0.943035217725135
-0.694881781129185
-0.390326080421269
-0.0327921235390032
0.284402697778874
0.362149331195539
0.193707225288575
-0.0356832614916144
-0.244546485077143
-0.442150705169193
-0.556132301144266
-0.595681320551231
-0.740044996322779
-0.976673706306493
-0.996596400265091
-0.661121305604959
-0.177545117100658
0.270927521109277
0.657165357387183
0.916044156100826
0.989427767871609
0.928822253425304
0.718548000733119
0.261297694743478
-0.338861017016831
-0.822306720515317
-1.12933645353218
-1.39152954274876
-1.69015732778732
-2.09133352838491
-2.64117286439718
-3.11951621654804
-3.20830086512245
-3.03414384338271
-3.0598677333188
-3.3970029261164
-3.71267075432044
-3.76096855577993
-3.56730599593251
-3.21417687699948
-2.79492162974108
-2.42691224711219
-2.09950448901183
-1.69388373647633
-1.22361590653239
-0.807537843019991
-0.438383022815104
-0.101660355937894
-0.0037803384665125
-0.270941394789985
-0.58771948701248
-0.568538107811648
-0.27765382290264
-0.0221146376538989
0.0734494236599905
0.0318500895720022
-0.0770109337232433
-0.0734673175083985
0.149123634822398
0.420272105015704
0.576277564940169
0.745420378283431
1.09335651954341
1.5763381212138
2.10137144359229
2.58938074032337
2.86068748027721
2.82715120188935
2.69658273341123
2.65279354415815
2.56224415338368
2.27075873877969
1.88178660273802
1.58480850345951
1.54503323614478
1.92789630924415
2.65029687754806
3.28237035562587
3.56449145879336
3.75300063921069
4.15796283933615
4.6863436173499
5.08097138098487
5.23734620623855
5.09947080534916
4.6213846062382
3.98581670033888
3.52695870673924
3.35837365141876
3.34393074902896
3.3484023470457
3.25148720837368
2.92893951114896
2.44791751570898
1.99483266961732
1.52260455309418
0.841887089643039
-0.002138514133745
-0.874636221849071
-1.89727348512995
-3.23889236632724
-4.79264346388003
-6.33342955124281
-7.67633660784024
-8.56579510704779
-8.82958390833078
-8.67111631006857
-8.41810392233529
-8.10813126559168
-7.67081853459202
-7.22721970508802
-6.86356889995028
-6.42873843485847
-5.78460591968892
-4.95931182827826
-4.03396485816686
-3.16542475932746
-2.53541343163417
-2.00787862499378
-1.18125729030823
-0.0300217446770898
0.930750122629305
1.34775998280357
1.47421618070919
1.73435975158937
2.23223179196178
2.79385700775851
3.12518978950908
2.92958024737942
2.26816011424127
1.73621333969327
1.9020742459561
2.68949420374468
3.55882199549274
4.03828314725585
3.93151994403153
3.35288645749416
2.64596786367752
2.01709235673619
1.37947846183292
0.735179036431619
0.326225721437254
0.198113003537427
0.0816552675597657
-0.11651708101731
-0.165976918503428
0.0874003071162075
0.610708220924838
1.40456041459356
2.43555938331976
3.49147655179022
4.35638765890678
4.85872450140065
4.64275378949433
3.34149448286555
1.11923421664442
-1.2999946097688
-3.19978894040109
-4.32550782950932
-4.96273467945508
-5.69142338639252
-6.81159360924593
-7.94255869590753
-8.42149178879277
-8.03271453284873
-7.07084537013014
-5.86192299030205
-4.60171666151185
-3.47193510025921
-2.47418977395769
-1.31355282683746
0.183491586803585
1.75127651987222
3.02767090293596
3.9002005297001
4.41067791598343
4.7309001625081
5.22001605045367
6.05456281130535
6.8954725480326
7.29798933417957
7.24494871226631
6.99379528215613
6.68794215958844
6.30055036528736
5.66678350932348
4.56047923194575
3.04732534935713
1.62071800699702
0.689676026192149
0.171222713217248
-0.215139547870627
-0.611988836290268
-1.07299705146812
-1.4965268805138
-1.50347400426063
-0.830264871101121
0.227998721140657
1.12787473170513
1.65828197443378
1.94924420954064
2.17264471080778
2.47798091927385
2.98227875157483
3.63556547796164
4.26741095341542
4.8294768997214
5.42287239632609
6.11016078272345
6.8244140692619
7.2827019189403
6.90022203994594
5.19660413372968
2.4665386414297
-0.37165163548629
-2.68256848733247
-4.46389158585392
-5.93934297711722
-7.33815271581875
-8.89224252915269
-10.5546940062285
-11.9197128266464
-12.7276511348064
-13.1407975655092
-13.3727843523684
-13.4700965415055
-13.536300700116
-13.7333943576427
-14.0095347581037
-14.0966907575741
-13.6740122491737
-12.4383064970975
-10.3664049327742
-7.9829466139793
-5.9344216330446
-4.27304975387826
-2.56605542468346
-0.627756938119675
1.23887379865189
2.62638749122326
3.40428184729599
3.85772556083281
4.5370479123567
5.76453421967656
7.28938351027808
8.65357322751955
9.76286284077072
10.7507177080849
11.4517139126792
11.4641912586905
10.6396674789533
9.18816474021827
7.50425570666359
6.08455204949442
5.22980564310752
4.67074880715641
3.91226850811603
2.96609968448482
2.28131805562642
2.03268115667386
1.90973025201871
1.48309192140498
0.512025118735477
-0.865629672531323
-2.09706976330501
-2.65868436081153
-2.56378612639472
-2.18663262603447
-1.80352945748306
-1.61546278805526
-1.83914306075253
-2.34656861378666
-2.52619571628302
-1.85106893066503
-0.407536088204015
1.19322822107419
2.21704988119444
2.28401887032155
1.74837643998526
1.44151490731039
1.8454298563755
2.72375086295862
3.5947648479889
4.18936604282398
4.38809729815781
4.16273916847714
3.75794136294711
3.60088801184154
3.89297217400355
4.48142571928149
5.07706740927475
5.4240655216725
5.46259099640071
5.47435764421674
5.77447203321629
6.20807958393757
6.30987941455908
5.90931091596762
5.24445887900855
4.68199843760959
4.60928429508127
5.24028309085237
6.24201630753327
6.91434948337367
6.89659174075457
6.34043159322268
5.40707116312824
3.99674893886598
1.90007988788452
-1.04791153401745
-4.72032151916765
-8.46297922677431
-11.5329053659506
-13.8565732827146
-15.888253421732
-17.8007744660002
-19.3812812839874
-20.5920922915093
-21.6493069924054
-22.6037710379046
-23.2479382901422
-23.391309751613
-23.0367885942576
-22.3700756373429
-21.5997743459918
-20.6815963356887
-19.3346139685763
-17.5365214574605
-15.710576330657
-14.047434294958
-11.984224309338
-8.8740706428882
-4.92442163993083
-1.0154422915163
2.25498632036144
5.12867934008777
8.46352637625805
12.9116146306946
18.06849950969
22.5950156435011
25.3701384128674
26.273613894806
25.8729722319756
24.9101607224245
24.112277768536
23.858781467938
23.9283402510262
23.9643876244691
23.978160886851
23.9603863705159
23.3980654414687
21.7721297436959
19.3126572606977
16.8421844984882
14.9623100820765
13.4834583259036
11.5247881353806
8.26547299216918
3.71598856660494
-1.38574554723786
-6.32305130616319
-10.6687152078482
-14.0178131238588
-16.1398158040516
-17.4677166109091
-18.8608805789321
-20.6912855593443
-22.4791493207731
-23.457478133598
-23.2801980961929
-22.3511236174679
-21.6419900400452
-21.8173884442761
-22.3645194472951
-22.0940190772131
-20.6417177874649
-18.8933844707855
-17.8169168687068
-17.4205064907672
-16.9028058038763
-15.3818892266913
-12.5038351787408
-8.64218728022648
-4.45910553575599
-0.253509276911386
4.03304855474684
8.30975584236524
12.2818359726013
15.8644813324963
19.2820312365941
22.7249368542104
26.0195414777658
28.5839968695498
29.8385748433013
29.8519421962575
29.3326032441003
28.7910877344964
28.141730441965
27.3258918542443
26.6908631325599
26.3653517528624
25.7815792869109
24.2402394428824
21.6807472817198
18.7078207872243
16.1054153825955
14.3132261949887
12.9747358387483
10.9398644155997
7.04958894234935
0.98973101564289
-6.64395149774934
-14.7206345457521
-21.8474511028361
-26.8877409656309
-29.6847154588442
-31.0506350154845
-31.9170729971098
-32.653939200015
-32.9965875254015
-32.3079890631957
-30.1003324628617
-26.5447693361876
-22.4117755203643
-18.6371532864484
-16.0484569885161
-14.975761257426
-14.7292368634283
-14.0313131700713
-12.3920972139738
-10.5131343745704
-9.1660998105895
-8.4672089831095
-8.35125680507413
-8.77302037439025
-9.22686592677278
-8.92062876023232
-7.62534465576209
-5.76105417419205
-3.6594615235114
-1.30997683033567
1.17573549714727
3.33903841668942
4.74326825973915
5.39099203767309
5.78295745374762
6.6169514343197
8.26059940792755
10.4376804553028
12.6141205365686
14.7047213553902
17.118557603316
19.9988979580828
22.6040428611046
23.6770920662186
22.6420785853813
20.4004539045855
18.5417940404647
17.6497471293109
16.8502133487436
15.1147946065852
12.3852790282106
9.27449374968261
6.33024162311285
3.81454319739939
1.6902177863862
-0.346637868512435
-2.53010496017813
-4.72425801660589
-6.54983876011956
-7.59089581449499
-7.53390494712276
-6.51203911700789
-5.18411290240113
-4.04450084319426
-2.9517241321743
-1.76006074521542
-0.896057912547898
-0.767790373587002
-1.08941343234584
-1.25898619146774
-0.965593021048221
-0.1399604423676
1.14242686216681
2.3887824768379
2.81365488734342
2.07987710721594
0.641154677652452
-0.757387108775421
-1.65032936813076
-2.01415340464556
-2.2047360645968
-2.6162311679971
-3.15510376326804
-3.23164021008405
-2.36315339835254
-0.553421041204923
1.80684886181617
4.07277977720091
5.5703308410311
6.0258594368233
5.615924423078
4.54510261706663
2.97579868758789
1.34431288214397
0.184166471106669
-0.401401047069875
-0.673495900484265
-0.80064514756351
-0.848700689008347
-0.994331525373972
-1.4314325933647
-2.28483042896847
-3.68964275602021
-5.60569174542305
-7.58887634729225
-9.12665073076016
-10.1212947085548
-10.7936342683966
-11.3196577963499
-11.7334073023483
-11.9167009472686
-11.5884090154855
-10.5979593546287
-9.27428045864527
-8.19708602437966
-7.59207202959119
-7.14393624500012
-6.30188347537305
-4.56841381183547
-1.6872325973426
2.19651084873079
6.63315995913628
11.0535339816134
14.6314612043351
16.3512516710138
15.8501280465806
13.9922302467497
12.1159595209978
10.9990556793998
10.8092094348187
11.3484806965437
11.777384361736
10.6295591621094
6.75172556615234
0.324026003497592
-6.96902229267231
-12.8338531458417
-16.0567944022408
-17.5867976768151
-19.3243918367489
-21.6697921918422
-23.088112537693
-22.2416793203518
-19.5478100897702
-16.2993743495912
-13.0997840651487
-9.61586811110846
-5.43475201245773
-0.853470543543481
3.11876861906613
5.58096457000587
6.60925087928875
7.19982647239746
8.3567635792698
10.3315162888504
12.588726771381
14.2780929322931
14.8920532100498
14.6839753989905
14.2497078693695
13.6471310653447
12.4514374771197
10.8079682394378
9.67410809725224
9.64262547397132
10.1140764410405
10.0102380606212
9.00049742587118
7.84682383164943
7.59848956592501
8.39073679029719
9.23390283818016
9.30852733990916
9.01001117239596
9.00943033608916
8.81141186615882
7.33613773171335
4.69268234878772
2.30335096304041
1.2491436416263
1.2393536322199
1.21831046444611
0.432182939033052
-1.1691886083695
-3.21399065513621
-5.28600054594661
-6.94565572932741
-7.69111083633934
-7.37407276808171
-6.57919331927627
-6.11148099370988
-6.12713607294252
-6.17075519523043
-5.95616322088196
-5.68748787761366
-5.79775805421322
-6.85886322874338
-9.49345011062145
-13.7055214478179
-18.3501239315278
-21.7776281376473
-23.0355299203239
-22.3336797480818
-20.6360995766288
-18.8955427064528
-17.3608828904578
-15.6402583176656
-13.6189589461445
-11.906065897309
-11.0139172539036
-10.5652210664362
-9.69338657537141
-7.78754137528989
-4.59531268457203
-0.123366876331452
5.21641517595857
10.6169047737052
15.2017379316018
18.3797421723466
20.1456205424273
21.086785300531
21.7541457363604
22.0605897398334
21.6683329940438
20.7018344811352
19.4886609357707
17.835325164121
15.2169827232643
11.6083680355126
7.66213645187259
4.1174760211846
1.30705800019569
-0.862255263466685
-2.6459942208717
-4.10927799894604
-4.98803719110923
-5.01712982465874
-4.32004812498416
-3.29690861652782
-2.29096759097817
-1.54549224639512
-1.22080128383877
-1.27171929308477
-1.55007283507604
-1.99315691146636
-2.374539541832
-2.10897788006627
-0.835307918092355
0.966107880567001
2.34918694474259
2.75143920411045
2.33073653940184
1.78043215938888
1.87084821116698
2.80685748577674
4.00989480635085
4.74575909660149
4.78186439212461
4.28995725941753
3.5186038042563
2.76348742587345
2.24159080840867
1.83157581217853
1.20930672491403
0.137015855382585
-1.61851861989508
-4.28456000509159
-7.64944041598164
-10.9661703499319
-13.513796891525
-14.9399885098677
-15.0825494356394
-14.0244464679783
-12.4242556495189
-11.2623980445287
-11.0379802688153
-11.4087129089112
-11.4977043097523
-10.307328234552
-7.20946993141177
-2.5623944149748
2.30212489078296
6.01285936314915
7.97795659344346
8.3873638999881
7.86660413213912
7.10402298069234
6.43459489842815
5.83150286701294
5.37463196872863
5.29628847151864
5.42802438931352
5.14103352543582
4.05382935504697
2.43334021975112
0.86622943302809
-0.153279247245665
-0.445507947302935
-0.258522530284812
0.0117243147933151
0.354822541162398
1.12995586334425
2.50782192956652
4.25000679873167
5.96077145408684
7.31362208669033
8.27658636755421
9.29287708152864
10.8425577184719
12.6484245686023
13.7140368727527
13.2542562773121
11.2314629585668
8.04111309836725
4.18405910478004
0.259042646351425
-3.23036092235626
-6.1712868796062
-8.69362929046659
-10.8720702943476
-12.7962099030367
-14.5866664488832
-16.0708190163459
-16.8177024457286
-16.6919453856247
-16.0395465317851
-15.29546041217
-14.6861649692092
-14.1533785822952
-13.3069038743962
-11.6793990530016
-9.1519131563884
-5.86926650634271
-1.89607633100697
2.55577258067254
6.78167620761353
10.0650613271159
12.3428694604765
13.942403898733
14.9345268246796
15.1388049419239
14.4784156253823
13.088269027173
11.3711067855352
9.9985756650945
9.48733845398568
9.72155522560033
10.0820821836006
9.9429069128812
8.9410250194926
6.99760094657821
4.27683695906864
1.10140504399558
-2.08353285394503
-4.68060366283406
-6.13160372816695
-6.35472008185026
-5.860018340164
-5.30698885415798
-5.13219688109253
-5.59332920433811
-6.72301131674222
-8.12536733617938
-9.2420727750176
-9.87964805621038
-10.1576967054706
-10.1282472687033
-9.83194200013672
-9.46930093811191
-9.17834075099411
-8.8904139852757
-8.50179089931048
-7.80846400248505
-6.34607146503028
-3.83304547302286
-0.709697607151263
2.22237856389544
4.54704458594008
6.30653036245915
7.68512241790408
8.94356349886833
10.3182147337457
11.7802074959586
13.1659937774059
14.4659447545542
15.6361377568402
16.3486151987888
16.3293857441753
15.7397362624631
14.9068851408554
13.8398076680774
12.2028455539989
9.67026521705833
6.28413080938549
2.55829868860691
-0.869299295443038
-3.79420591649324
-6.4807692142899
-9.10004861431742
-11.4928192710627
-13.5392548029818
-15.2530442976909
-16.4542561124638
-16.923936452157
-16.8633315122554
-16.5943804621713
-15.9418209216332
-14.5511523383682
-12.6415133728482
-10.8573733224039
-9.52206430482872
-8.42160265102813
-7.13804158239074
-5.38551314418482
-3.19653560914296
-0.809949029575642
1.71586518943134
4.5185788412687
7.42864814981632
9.87095652431536
11.4326877116532
12.1187660040226
12.0457735187981
11.3845805499839
10.5252116443868
9.77844293388199
8.97866454603978
7.72483606561424
5.8762472930287
3.63636487370736
1.36653055167745
-0.600030576454719
-2.17144479934493
-3.51334396786678
-4.68367971557611
-5.41806269419889
-5.51711799095552
-5.22045709378991
-4.90893415724349
-4.68411506696387
-4.5021931033829
-4.41723325020151
-4.4493551955628
-4.45886418949855
-4.21216853529797
-3.3787008076165
-1.71581332689179
0.433143752538101
2.20673334365715
3.12355390026604
3.50822766449085
3.83681886087427
4.19346118101658
4.52918918460515
4.91186474029272
5.36620065216687
5.830013507563
6.26141234489289
6.58820527343657
6.76503356381544
6.97476882124958
7.40320131650174
7.79549155807149
7.66160161945526
6.8668645671378
5.66190345518389
4.33337758517467
3.15278237485956
2.40082977878214
2.15641161286511
2.24841951670959
2.47642658328491
2.6272963213961
2.35090261848801
1.3934840351384
-0.0704663293513301
-1.62320273110387
-2.98727429835354
-3.98446287486143
-4.42497268678579
-4.3534841731329
-4.07320547621898
-3.69841485958305
-3.09545380419864
-2.42198087067515
-2.30022933214392
-3.34713510628449
-5.74734366788576
-9.08352107339324
-12.3593856466928
-14.5479459079845
-15.3808955607361
-15.352942990165
-14.9874212563234
-14.4935010016402
-13.9821513332023
-13.4981387849545
-12.9235735444629
-12.1890791629733
-11.3911465239766
-10.5033073977074
-9.24936178854689
-7.33735701117383
-4.55458488193023
-0.790292104947366
3.67401683280115
8.09852883488509
11.7926421928686
14.4575774315601
15.976414183255
16.3651478912851
16.0706368771486
15.8128859248164
15.9469660911937
16.3441503380419
16.8999637355373
17.672603326093
18.4841307174064
18.8392371237216
18.3060101429319
16.7609146439888
14.4242463041198
11.8052378491062
9.32042340856197
6.90185986960014
4.2996001737876
1.67197275075919
-0.473379909575916
-1.75454272177702
-2.12628846578819
-1.98401765371525
-2.22774656169675
-3.759668652536
-6.6919512254786
-10.2883042677063
-13.621269617925
-16.0657819752692
-17.4567592901279
-18.1129958229443
-18.4890659469889
-18.6833291271997
-18.5975635369035
-18.4668878556022
-18.6841533516029
-19.1409913900674
-19.2011016117167
-18.279776448099
-16.2367529949711
-13.4344681581777
-10.5480576539886
-8.0203982484288
-5.63884682294857
-2.92639634515871
0.119309663061868
3.00494819348108
5.33898766724186
7.11319964290181
8.540988872831
9.90710773730614
11.3472141111744
12.5476010197038
12.9789445944306
12.5634455123777
11.7604764454841
11.0536125830542
10.7743932539085
11.1743760349226
12.1339281742489
13.060903785182
13.4975864515189
13.5161647490267
13.322733775666
12.9734611673894
12.6019751126917
12.3526738619164
12.0053940766636
11.1790063670652
9.90355371120314
8.58661799014357
7.52948227773505
6.77055042114413
6.19930425248704
5.61358107171293
4.84266898274176
3.86276550323412
2.67045803219547
1.19765676446761
-0.517225248081877
-2.28389262190932
-3.92602826544465
-5.25720134363134
-6.000689912461
-6.07313394111357
-5.82968150793736
-5.70907481219784
-5.82120649087393
-6.17440848975595
-6.96174661530527
-8.20419056269576
-9.42333320287534
-10.0128255115551
-9.63148078071522
-8.20561083484704
-6.20585445737294
-4.96838808086406
-5.90798891562632
-9.16126968945789
-13.4958035826844
-17.5174632385155
-20.5299479859544
-22.4296594312398
-23.3007108394013
-23.1630375281614
-21.9805273633117
-19.9145765873394
-17.3737675610857
-14.6330287436068
-11.6838531884168
-8.65394842130412
-6.01330428054254
-4.14567191174909
-2.93625637927786
-1.73688730865672
0.448573316994553
4.32443299126177
9.41363587901823
14.1902357886494
17.4639193234109
19.2639712690086
20.2206789313024
20.6653761613255
20.5651259367105
19.8469169473423
18.5984030748197
17.2564114151326
16.4898847671227
16.4815880549201
16.5387290807321
15.8783225654258
14.4981267914654
12.810067778978
10.8312012121843
8.27487291144061
5.14815150348935
1.88842769871554
-0.915381911553402
-2.87765675168921
-4.08829910154126
-4.92287724620952
-5.49916009818282
-5.66264162542269
-5.54296658366167
-5.59362432355304
-5.96074877920858
-6.24529559268422
-5.9189358576371
-4.68322353084552
-2.60902763646749
-0.197487154834873
1.96957584626657
3.79900167571378
5.56374786555668
7.21290475188231
8.23311655297478
8.13749252183557
6.76625452530946
4.35003208107104
1.58066235695656
-0.714272422864779
-2.24656045407828
-3.33923310945646
-4.23727068555721
-4.75287718652119
-4.7230995208726
-4.43886418854214
-4.44749522205419
-5.14935996035591
-6.59997080023117
-8.4730295385524
-10.2519722949541
-11.604148143195
-12.4461558071548
-12.6652464047277
-12.1058622217493
-10.7917593265469
-8.83691998159887
-6.33486615640086
-3.67965522799012
-1.64429778280079
-0.70648920542523
-0.542829396666843
-0.42324129486654
0.150931866630885
1.1983145485013
2.2869853341899
2.90042698714439
3.05894256430573
3.31338500611266
3.90495069649238
4.39159472377292
4.32836084567623
3.78342277639948
2.98337191059659
1.96015061059014
0.724727650019016
-0.529061388618549
-1.43407016223889
-1.58895898512744
-0.913980322322419
0.126918793763645
0.995407419260685
1.68284198504695
2.43425189411059
3.0594000498945
3.10482695452848
2.64762806305128
2.37017349872853
2.84171340836669
4.0995079934666
5.79353639343635
7.37449100086984
8.29489205670757
8.29313257422695
7.4261928028764
5.96011615076509
4.46732997131193
3.6519137127685
3.59964074072982
3.50044817493627
2.49354229493271
0.510309577006069
-1.85248034262401
-3.88588952155731
-5.1760920357336
-5.91460388661789
-6.77838059862733
-8.1859916085729
-9.84880778374868
-11.1966339944992
-11.8018758091156
-11.2970218908378
-9.54629361204984
-7.11600691200837
-5.02158423460036
-3.84990474286198
-3.44639403155674
-3.31183473923391
-2.94302449432205
-1.98815204661617
-0.426403729444488
1.44291437722533
3.2526853351989
4.72948327130127
5.75553672994549
6.47298861602659
7.10933530428146
7.47298277381743
6.97712370819082
5.49770847006457
3.81723330493259
2.8689443095232
2.92945231480083
3.74675680552565
4.90620244332964
5.87618817350627
6.25576597166083
6.21397583962249
6.41364411805457
7.48154095284889
9.55436977615683
11.9846383334799
13.5070836138291
13.2500979042422
11.6152286421789
9.65920443424744
7.73462838703562
5.30189554717656
1.93761430271748
-1.98995716634086
-5.57501260954793
-8.06697142544837
-9.48467629210088
-10.5641967264945
-11.8748204474281
-13.1943037293913
-14.0293197838882
-14.3560456136456
-14.505195732133
-14.7553186643289
-15.3607737844456
-16.5196004732851
-17.9542815127639
-18.8432809339832
-18.4454662267374
-16.6073449132084
-13.5622809835364
-9.48682167829711
-4.43169616483796
1.30755112754016
6.73110885262808
10.2902043418835
11.0280053279867
9.60915338270655
7.76489062559808
6.71563315321829
6.4449153929461
6.21662251796436
5.32899641272245
3.61490526714391
1.60960164201166
0.114122115745881
-0.469123003603689
-0.214078867148146
0.609875653607591
1.50702912053628
1.8656153903326
1.65731090178735
1.68445582023327
2.64807963430157
4.28617920990734
5.75044985421944
6.47365033950639
6.46471114722209
6.0882485312376
5.67620336947195
5.20843109251032
4.47627333172743
3.58482921501571
2.97312552577911
2.90748707720758
3.29405417199194
3.93078235251148
4.55677701968333
4.75542210867687
4.26165539849057
3.36019967443123
2.66038914054406
2.54681126344126
3.0607154884708
4.0708837412514
5.30427054705014
6.45997602066713
7.44410298321239
8.26458250172068
8.80209366877915
9.01481949856144
9.12909270336384
9.31375841590503
9.50736757166049
9.70838397175484
9.83923638395389
9.19942398628345
6.80753460740937
2.53312710493574
-2.67278713171404
-7.74871173233151
-12.2344407390584
-16.1031337078234
-19.4158252278757
-22.198630698083
-24.4667870286041
-26.3831337149942
-28.2173301770591
-29.8537850785116
-30.59875597759
-29.8790220888454
-27.8881159458638
-25.2288511498989
-22.2211311638981
-18.7953863949594
-14.7295342054653
-9.79377368221446
-3.94708983031202
2.45734629007023
8.78892797862322
14.377482476436
18.5065819337105
20.536890248608
20.4610155044427
19.1216045699893
17.5644429348204
16.3837298886128
15.7320442100456
15.4383154446259
14.991567452264
13.90931951046
12.2125737178827
10.2344891002192
8.15443699082014
6.05864884295109
4.18584213595213
2.77138874009766
1.80745061842615
1.09164631518289
0.414319019191033
-0.205302055292358
-0.413636135657336
0.0339876963342889
0.707164814280411
0.864600096620669
0.375447441153312
-0.285201373812482
-0.872378387448293
-1.59431885618477
-2.61655970487979
-3.85709122455851
-5.08652291820268
-5.85293709516762
-5.59477099692735
-4.16986201433243
-2.09852697337588
-0.17682639422021
0.979684306774191
1.15465559922218
0.667666361131094
0.201955812826492
0.168245614675387
0.369032174536861
0.493901893777821
0.587480955020952
0.779370244115327
1.01057071000277
1.28962218490485
1.80716358439876
2.68024552277331
3.91874236063317
5.48612713680676
7.01426221258991
7.76186928109318
7.253034576168
5.70786981317877
3.70124690688258
1.7711967993213
0.353635370344654
-0.391282647420006
-0.726224533915309
-1.03014685243687
-1.50514453857969
-2.32153229565585
-3.61632980167995
-5.12467210072281
-6.20280706041724
-6.36335560411846
-5.57786009397775
-4.24336060704858
-3.12236816368902
-2.98225403549683
-3.98058456207969
-5.62257589366865
-7.33031572112418
-8.69666931762223
-9.33845070346877
-9.06373126277501
-8.16193109454558
-7.1088709574032
-6.09991946083083
-5.2088301612272
-4.67434116932411
-4.54100435007005
-4.3136691750098
-3.43019346341624
-1.85547680202484
-0.0137575405746883
1.50218746318469
2.11889537582465
1.67796113629184
0.698918595261586
-0.0714904959980985
-0.243046897691989
0.269566021948727
1.51508899067964
3.44326634686777
5.79785839961696
8.16142073599333
9.98541088517571
10.8023163785552
10.6479672693807
10.007158569107
9.19197397349421
8.12929328571299
6.78946263356568
5.35737245232774
3.99172761013432
2.83009822011176
2.08204760033775
1.73751365604742
1.40063264835271
0.678758304637072
-0.508426496204002
-2.04521365984473
-3.62669411480299
-4.65938168594951
-4.68386384484171
-3.99940056186406
-3.46125072241388
-3.58544141026622
-4.13966624081774
-4.53901997436329
-4.35321409551727
-3.58209657747238
-2.66898258636005
-2.0031422055448
-1.30326101745302
0.137055158920129
2.57752374674678
5.59285178813665
8.53226731118747
10.7583821193923
11.702069365004
11.221614378158
9.78667821593835
8.00191259106742
6.07397622153729
3.82833277718501
1.06528329431851
-2.08436523062957
-5.05598839237387
-7.27094683357296
-8.64890682529874
-9.37668163240947
-9.34357713609042
-8.40434792770581
-7.06759216812102
-6.2315073864715
-6.23804832428708
-6.63615563670676
-6.72567702251251
-6.00850219295928
-4.40580853384238
-2.38145021345924
-0.647016802250805
0.454331894779636
1.12120862804724
1.68068277646416
2.2824763061793
2.93392718275573
3.48771678675014
3.66069890388504
3.38497732910911
3.01426500656277
2.93334166955848
3.19153816522565
3.67494418117126
4.27765778487885
4.75068779915677
4.68853953001385
3.75893471260051
1.89401816541025
-0.509656809715197
-2.58427320271995
-3.65258008640761
-3.9319462107119
-4.13215325779835
-4.48196060355225
-4.65369947570015
-4.40696639238184
-3.77825167829981
-2.91385195501757
-2.16012952192714
-1.98673987244996
-2.47322456987542
-3.17393238117092
-3.62635990199044
-3.67413450110715
-3.33649078602762
-2.69638651784911
-1.80688247229332
-0.504123817363819
1.44497281974496
3.85419890553507
6.02005356049766
7.18543758658341
6.94983776287387
5.39972057221422
3.16330808958149
1.16839524556049
-0.0511407792894916
-0.7299339116311
-1.3320459637678
-1.91762371947716
-2.30202484167974
-2.47491852347889
-2.54811354420119
-2.51470170685891
-2.16017771660612
-1.05481945185585
1.1736127026324
4.32755514419508
7.65263027931778
10.4627360931399
12.4107092685441
13.2761749782193
13.1054706816712
12.4661067475541
11.8949905225262
11.133039672409
9.43755934496271
6.57481710760387
3.15160788497126
0.120809116517884
-1.88883349294317
-3.03109005031065
-4.09230290992366
-5.66005420421823
-7.59910289558746
-9.53806038891725
-11.4482703860251
-13.4195715641536
-15.2835653016948
-16.7713209393404
-17.7017947480941
-17.8408944980231
-16.9690305762236
-15.2841140039351
-13.4143895061936
-11.8307809904826
-10.4008753109353
-8.57047944119684
-5.89572004062434
-2.49381999566239
0.979766287592923
3.95935413921129
6.46004017435942
8.67843069871305
10.4435583699422
11.5629148816859
12.3604678781793
13.2901426209018
14.2656761253767
14.7796199999046
14.4365531636711
13.2076676763251
11.5036097036526
9.99676481433948
8.99020647928788
8.09629474101213
6.86505305102582
5.37362342104336
3.82925714823686
2.06923586162122
-0.109757031067437
-2.5033974293061
-4.66400451447639
-6.19695945928142
-6.82382762869636
-6.51917526181263
-5.67683409783088
-4.96324678178508
-4.97057508728533
-5.91678130334607
-7.4349789820428
-8.668621830572
-8.82940691593677
-7.70622802126038
-5.55209070798377
-2.69882115341179
0.452958701186269
3.31064111418937
5.36531398933429
6.52729676638034
7.02268406678205
7.13619413469748
7.04134158371268
6.54362449686585
5.11292096452798
2.58297512505056
-0.388369999004007
-2.91306827457122
-4.59748810994951
-5.44532875058612
-5.5786136926334
-5.33226372159477
-5.13361004760258
-5.09878753181357
-5.10598657076375
-5.19055627089094
-5.46171857897926
-5.77136896400528
-5.77470685592282
-5.141907562736
-3.65543226997977
-1.46643782607138
0.790440489162838
2.56155220272303
3.92210663326266
5.22045483718238
6.48902092540365
7.54696966401684
8.31889798188859
8.74408122148947
8.68708562749978
8.13490523032492
7.22166915441092
6.01906713703101
4.58435878833701
3.14557464508396
1.9105128468437
0.808388885894052
-0.297199025235274
-1.39080411959631
-2.56769347250188
-4.14751409185062
-6.2530591031903
-8.58006171512522
-10.6545810662152
-12.0150823402124
-12.3082134295346
-11.5918005324299
-10.3366556226257
-8.86806057582821
-7.12190051189159
-5.09396307537082
-3.10202425344899
-1.45404746685877
-0.148094718890893
1.11351455707166
2.76856656009346
4.97927156887238
7.20501173753618
8.55957459726386
8.71303629170702
8.08968722582235
7.26589601112988
6.6102104073782
6.30481625537133
6.22036450924359
5.94119005891172
5.2553777993999
4.39549559553605
3.61478875962004
2.85467557083003
1.99456007854346
1.14334690956917
0.582945746730812
0.62539278318301
1.43074343226725
2.65722360457909
3.45015474740731
3.17537260479309
2.05357695437159
0.802005765070238
-0.109626152998377
-0.638265336866345
-0.946762419352272
-1.23812659810734
-1.63007827321519
-2.13978810481784
-2.80198794697932
-3.56741568710364
-4.11587380300967
-4.17304345038155
-3.94243512982012
-3.77758627776287
-3.60865863433156
-3.16330227521601
-2.47236858525926
-1.70502122689162
-0.854214549709006
0.0415782475839422
0.755038343845029
1.18240561553112
1.40980448942031
1.45000483101625
1.32844854529836
1.26206783631334
1.31389473479725
1.12782603591196
0.399548127256837
-0.666837475210434
-1.66066550154266
-2.44802449393678
-3.16037493181926
-3.93914137064171
-4.8084595066926
-5.63467003549422
-6.19508879288816
-6.37664836500096
-6.17054851878936
-5.45439825079364
-4.17207184807374
-2.80037827549101
-2.07872036213776
-2.1217887425867
-2.32358651930236
-2.18625275333654
-1.73774900512053
-1.22228575328303
-0.871561601360019
-0.836899202337234
-0.97637140759312
-0.893107299743229
-0.36269360099321
0.510878296567954
1.53545731371391
2.52239451190332
3.29824109851723
3.93089829748532
4.69059017924996
5.55353655879852
6.09853032167346
6.05182271081354
5.55753866811074
4.90891018603225
4.42690427707409
4.48242250533241
5.20897816541399
6.31094110139278
7.41163702089765
8.39430130693567
9.29094637550289
10.1024021718017
10.747679991876
10.9089836176795
10.0083795448286
7.705413400768
4.39053811116452
0.899537801239715
-2.16855188217308
-4.63763207262807
-6.51010002602984
-7.80376167436265
-8.45078286796836
-8.32041690425897
-7.61778514578067
-7.07782722492297
-7.30185807515037
-8.07030918868431
-8.68527558197493
-8.74423104688031
-8.33618629138927
-7.81062695097314
-7.45335919049539
-7.01956957208214
-5.69047982796303
-2.97295470275677
0.519082020550799
3.60888728126971
5.59460694839029
6.37291261220547
5.99919985642987
4.67264020053746
2.9358722368753
1.51211128072084
0.911559252107013
1.12577926925409
1.65351368926171
2.06464330703101
2.57434759815816
3.70215269371853
5.34865939083008
6.63471518224494
6.70174996536767
5.32617685760999
2.82089569425525
-0.195509439764134
-2.88241022783714
-4.44601769973064
-4.52658669125872
-3.33035607154414
-1.58944801958887
-0.384741333294867
-0.505300430283929
-1.76816844281088
-3.27194243825644
-4.28531797768299
-4.60482797801054
-4.38243954730551
-4.0707745336545
-4.21281751226993
-4.85539216224464
-5.41461659612206
-5.31933996246258
-4.52553914673574
-3.4210632438748
-2.54528984946093
-2.25761130700684
-2.37962479633114
-2.36455398846939
-1.94335901094105
-1.24541085345763
-0.335602644440355
0.763303143221374
1.62317742892663
1.64391558459635
0.775184585875652
-0.445642235350531
-1.50982935950233
-2.28712014146949
-2.89730468742466
-3.42230054574469
-3.65021172560482
-3.1327795921721
-1.66034202831651
0.4330003475132
2.58350355575022
4.36818881049645
5.39899618692349
5.30479347497185
4.2312130681265
3.03328858670714
2.60262318338314
3.20995175412041
4.56998267540578
6.15224140169502
7.41908363522558
8.16454740508257
8.59999437490229
8.92154519131603
9.07106659294359
9.05529235249625
9.07779274137206
9.23123430463375
9.42969206952376
9.60097805028778
9.56884677570626
8.92322986835665
7.4095635822523
5.30080412719121
3.19146387003899
1.65203472121234
1.02070474635464
1.07945432300116
1.03681552974122
0.298066187365418
-0.912266287167715
-2.02171362234643
-2.82621066196653
-3.41124569179656
-3.80347651295609
-4.03796027454079
-4.23443081642339
-4.40107655877476
-4.44013629715764
-4.41841615824969
-4.57242732858613
-5.07275499262582
-6.00749475392149
-7.43343252981823
-9.19581822254212
-10.9196477093768
-12.3498133806879
-13.4059184898518
-13.8918827699039
-13.5993775798352
-12.6657092743176
-11.4186693900555
-10.0411760039223
-8.71732520132927
-7.73378457457901
-7.12292041600998
-6.67036690662609
-6.51180781176345
-7.16992741811896
-8.74922056393583
-10.5182372869298
-11.3968511863473
-10.5782282034782
-7.86232735555335
-3.78001469271416
0.733264711498566
4.9836037454061
8.67566216615704
11.5462042247814
13.3304025520571
14.1169327295057
14.3774878808128
14.617562727676
15.0556170088314
15.3973856456039
14.8814979669192
12.8969452480414
9.66143462578433
6.06773274894976
2.90227191019433
0.461843909382759
-1.20518503483532
-2.07215243243784
-2.15774725067291
-1.56812349853188
-0.579459733748155
0.315502358474261
0.750572257985736
0.875883508866482
1.06698337030134
1.39649435063466
1.79258052206204
2.43893568223886
3.54654613179169
4.96205826398491
6.31904871879157
7.34250777812787
7.91865151713064
8.16620275017793
8.35555407636378
8.45952885617171
8.06179592425569
7.0009774411053
5.65886816182776
4.33598640369256
2.91544078033011
1.41866182335791
0.294937581359697
-0.125964516982606
-0.0643910218279433
-0.0851152346615099
-0.715195439074866
-2.11131567730179
-3.84926840027441
-5.19545526431544
-5.70208778866632
-5.41201770865224
-4.60381519312644
-3.59353123196489
-2.63947465534852
-1.79944512503426
-1.07235868423315
-0.809387706693812
-1.54895307731916
-3.20686370176708
-4.93707420938538
-6.04698114971659
-6.52841255181092
-6.58437909278414
-6.32228056439774
-6.04271825480111
-6.1980668656072
-6.9598125997326
-8.19878759339952
-9.71563702173993
-11.1615258891876
-12.021655305065
-11.9682715698023
-11.0442183888232
-9.50082898855845
-7.7201672386305
-6.14227140075353
-4.96655129606162
-4.08226531397097
-3.38176858993724
-2.8001273213349
-2.07759684165645
-0.974139855272113
0.342560248770373
1.5707911740002
2.73517012524914
3.95371426467016
5.02539058992552
5.62678401813901
5.71612833959156
5.60833772322144
5.87694247209328
7.05392561637039
8.99771757397256
10.6719260037705
11.0111646934795
9.9330772832232
8.16135450521138
6.31487839189138
4.61342714663825
3.19234389308955
2.1717472951291
1.50610850631016
1.07241340227138
0.855374790593135
0.966235520074431
1.49673330291729
2.23638095266029
2.63515221586184
2.45110054843964
2.31885270666757
3.07536939742466
4.59700924545611
5.92463952609915
6.41142165005473
6.12701376105565
5.320028836591
4.13221723702188
2.76666425905699
1.49750276027853
0.544360032362904
0.0323667433761111
-0.09645823542045
-0.05125692293906
0.115067434278827
0.508043706549487
0.921165865164295
0.807828765198334
-0.108098793159317
-1.65832758013303
-3.69603276022454
-6.152583033439
-8.58113607096677
-10.2056949914912
-10.5183769979895
-9.48156303347907
-7.30511662087028
-4.49209665025423
-1.93249042596682
-0.455661938764357
-0.302458822693154
-1.13462118331122
-2.26071144664724
-2.89023122885146
-2.70553600721841
-2.19779608583022
-2.00014392662487
-2.04013196731524
-1.72318597594318
-0.668804390017306
1.00545732961607
2.75886728440295
3.867036019521
4.04433330827282
3.83981669171618
3.9580422947665
4.29240635373225
4.07135504969796
2.82376791897044
0.905338519440621
-0.739331292079617
-1.25991315836741
-0.672828713220355
0.0490382062899155
-0.0824493476250248
-1.20356326398762
-2.76867774487473
-4.07924652735491
-4.46526444425971
-3.59024776436441
-1.92826637812138
-0.487770082316267
0.187713776961052
0.408940712127822
0.636793939825081
0.760677988038199
0.250966031882377
-1.11727104108635
-2.72010451250973
-3.31307687264149
-2.13578863802492
0.118390738966653
1.76088316395313
1.54543335337982
-0.557807636536139
-3.57177063347751
-5.96042845078677
-6.39147292043478
-4.82084281851706
-2.60846692303084
-1.15381503947984
-0.702110491920647
-0.614690263374466
-0.294049328773872
0.353036405980687
1.03226621351994
1.58876862821313
2.46916363901923
4.246490980547
6.53280581060512
7.96575453717713
7.57680061105506
5.73604485071814
3.6482220897556
2.35226524273947
2.16383855635645
2.62688194549245
2.97672833619967
2.84439561325333
2.44672459612804
2.15869142507595
2.19220122806297
2.59230529828703
3.16670781922835
3.50280832804035
3.40422990933124
3.16442546816908
3.09627366988619
3.08199923651078
2.93821450862574
2.82711863075819
2.93239294423469
3.16674640515635
3.48817264045438
3.98782738943004
4.40906643856764
4.05634410394032
2.41906542718042
-0.335429386109553
-3.48930865224818
-6.28768767618773
-8.47931441219133
-10.3641674180842
-12.1339208220484
-13.3728956650127
-13.5431667066435
-12.7404006523563
-11.6414127723192
-10.9087488869769
-10.8120476011819
-11.1338642483505
-11.3593755716639
-11.2053993867847
-10.8160558695733
-10.1879226463483
-8.81570810234495
-6.29466198702831
-2.84204008675735
1.12529838146325
5.45829905319593
9.97656047284717
14.0949230218888
17.0560463778594
18.3587216771166
17.9726601218355
16.469410566674
14.8928831725747
14.0500084559324
13.8106353407847
13.3033177543014
11.7723702967228
9.21763053665743
6.43413499118917
4.38357633008273
3.21884382099667
2.11980203684408
0.420147906361945
-1.50727240969135
-2.87983411112946
-3.51344445844428
-3.79830103499438
-4.16792812265909
-4.92680931333103
-6.16514865124089
-7.59263574010351
-8.69376874327191
-9.05037132013346
-8.44067256392825
-6.97747174203082
-5.28174214528322
-4.06333136662686
-3.43475153562989
-3.0699919213016
-2.92370144740146
-3.24888913904168
-4.04218723280107
-4.97551198692591
-5.77613930132156
-6.35659537796033
-6.67612363264834
-6.62470664627075
-5.99601466070297
-4.66547307855364
-2.88106618944497
-1.13761411009094
0.361931063841322
1.78751942374836
3.12483999706861
4.0627789046236
4.63548024819607
5.33038596927008
6.2433209117218
6.79300159866297
6.67484885857527
6.56049926633503
7.44670544852837
9.49701233350739
11.6009909362698
12.0694776433663
10.0729496551833
6.50393359678833
3.14675268151305
1.08772392479551
0.235394780454937
-0.0275643513791358
-0.348597086636969
-1.22176223190568
-2.63534060108338
-4.04350748752212
-5.01545611241148
-5.64107395490958
-6.15281007259408
-6.55124662261384
-6.71051442052906
-6.52468726391557
-5.94063687591384
-5.01515674497017
-3.82588405156776
-2.38513613807222
-0.962932717225278
-0.286012963685168
-0.840893998612013
-2.07317432649519
-2.83562031038975
-2.59511155067356
-1.76383427149831
-0.969952773372258
-0.466514867002695
-0.166441837542577
0.133736838854478
0.527739185451173
0.855285567079086
0.938768224059303
0.884867402195949
0.842000558872277
0.689415933737437
0.37313348469538
0.221022742326128
0.498810675839799
1.01781374995249
1.52487050499108
2.08257238556053
2.80747107378111
3.58862421262097
4.19968154908535
4.43775996611173
4.22227166711909
3.79351328877377
3.65332943703579
4.12588824392297
5.10502179649391
6.19689039898816
6.93168761442572
7.0572037268184
6.83810699986204
6.72211724792738
6.55331794760741
5.61857334090856
3.66039517657644
1.34233844831559
-0.465004023553465
-1.47872902747967
-2.06642540922401
-2.89518560624769
-4.47068937724506
-6.65446734060008
-8.70185074641347
-10.0631670994917
-10.9576085451092
-11.8751761830279
-12.8027908936476
-13.2363905050808
-12.6968491409194
-11.1281922787304
-9.12444321317015
-7.69948353817387
-7.38761868859445
-7.62713743335069
-7.31425992692372
-5.7794095444168
-3.12907826342884
-0.0689247736796853
2.47392504065385
3.98526603407295
4.76117422539061
5.50141860861242
6.69190293376814
8.49981453254995
10.7717476315074
12.8713983873873
14.0112927992645
13.9572703205242
13.020842782
11.4472183868995
9.34623751009136
7.10181893042855
5.32061057228258
4.38062809367806
4.19162445052537
4.20676358656823
3.69669092706451
2.3892389907051
0.809823372508385
-0.361624393705559
-1.13432932668949
-2.03298380568889
-3.29390388501946
-4.65215518805087
-5.71492827187154
-6.20227045029168
-6.11621921694636
-5.93972975498286
-6.28315474955165
-7.14182585583045
-7.87860155357882
-7.94229086152361
-7.20114905205443
-5.72939343094493
-3.72974029943947
-1.57566392663646
0.301194883991483
1.45769974030946
1.5349636024716
0.725253480351091
-0.0780009956004074
-0.121481149641311
0.419016186707649
0.864259075347663
0.854741450725073
0.424194609911587
-0.206305537136573
-0.540881896092532
0.0084830309055074
1.54620521759883
3.53985581143193
5.21221160538538
5.8856246886994
5.24500273700148
3.60240751008453
1.6846058004245
-0.04667513257396
-1.66490615284097
-3.3331003841297
-4.87065695323349
-5.81880711427397
-5.75300082879335
-4.61106368329057
-2.9173403426368
-1.52024452743008
-0.876694046260151
-0.754030016594365
-0.716765354340549
-0.590632336072144
-0.421378509457897
-0.361191051967963
-0.573114846988799
-0.949489855201635
-1.13285817246652
-1.06105162522954
-1.10549961083186
-1.42014077990872
-1.57609751219999
-1.04596794259156
0.280617187812413
2.06812558250444
3.70161836627329
4.6294655437476
4.8586698151519
4.95834009175667
5.45465709369152
6.48210900886485
7.93578074099592
9.4923861667474
10.5563309339095
10.6203798637389
9.60031366575356
7.63389281431504
4.89126270730002
1.76773684421346
-1.10856838153266
-3.22697631864483
-4.3675741610287
-4.58259674128499
-4.32324316400244
-4.34420255440225
-5.01886464610985
-5.83679880666492
-5.90542020517364
-4.84256639896039
-3.01614743657468
-1.19079817992875
-0.077167123705538
0.136899230803772
-0.0595564626532375
-0.0525409428650614
0.304419204245652
0.834112854384478
1.35834081588103
1.59767189355329
1.2400978900748
0.387578894820722
-0.497298110432045
-1.19059705768961
-1.82512749715116
-2.49567048809031
-3.22105009427861
-4.15602343359568
-5.42112265076352
-6.8742605820474
-8.28553990776621
-9.51000223776353
-10.4304143856288
-11.0245815157644
-11.3950071022393
-11.4234952060647
-10.6329860091181
-8.70716952542121
-5.89055080837381
-2.70440894187689
0.378072184207585
2.88667222641196
4.4398205033962
5.0779655507924
5.27655759335128
5.56665767766543
6.25844770187379
7.35408689374711
8.49093863176474
9.16191411149366
9.20208194116306
8.86094026000326
8.39837588344566
8.01563989916705
8.06811802736439
8.73438569945239
9.57267235500048
10.0125041211133
10.1367384904807
10.4318619680531
10.9526813540851
11.1778698020502
10.5480553108514
8.93908430558572
6.77348971069124
4.68806292345485
2.95106072058456
1.35879451677293
-0.255246500952617
-1.8203953018553
-3.38068484096391
-5.09916482966823
-6.84749460999706
-8.30485997125363
-9.42760459557352
-10.3639622637365
-11.084538585434
-11.5384757007354
-11.9536828132618
-12.5971683218403
-13.3888643156911
-13.9695381603894
-14.034286140492
-13.5295426723282
-12.6332837467114
-11.5669948242077
-10.4284624690033
-9.31135460833521
-8.46695253204944
-7.94110407626844
-7.0507425074301
-4.80330283846563
-1.06479767703161
3.09531285850273
6.31458728209552
7.87820749471505
7.95672864511891
7.38624938348136
7.07297175432843
7.32000457633569
7.90805873238012
8.75849800679027
9.97867409111567
11.3152860798394
12.1999853572001
12.3412329395342
11.8261402006609
10.813632267881
9.49668717977279
8.09180382415861
6.63090390856758
5.10837930805601
3.85418726041324
3.26765781400605
3.22515569028671
3.20862116522674
2.87630344690676
2.17971449041351
1.23109709943333
0.328360769259569
-0.24950245273978
-0.64641805517772
-1.2755409488382
-2.2269116518188
-3.2193286115069
-4.10847718224494
-5.02254903418015
-6.03141504662118
-7.04713414508194
-7.94902345889385
-8.50373280138895
-8.37029723757219
-7.46054651455938
-6.08610015749195
-4.65160666664454
-3.47836728223429
-2.86249563674305
-2.94759511356671
-3.60187654326445
-4.58541981701173
-5.62625052609199
-6.36759462451746
-6.68449423757662
-6.96271431124505
-7.52672974639621
-7.92871299101594
-7.35341219446456
-5.5765583797311
-3.08787729650318
-0.496586103534172
1.83950583307463
3.83161393396924
5.53618488031805
6.92243774749975
7.88638698254612
8.608119804477
9.49643970081644
10.566139542063
11.3103598734387
11.3459326451459
10.7291644714764
9.57188902417228
7.83773244100385
5.60969236182117
3.19168719219613
0.899497989617012
-1.01561279984086
-2.33584516952195
-3.03349267002256
-3.36024379417834
-3.59426185858783
-3.82339109042405
-4.00520889757995
-3.99573775687721
-3.59749529004949
-2.87666647384805
-2.23068346330295
-1.8630113135401
-1.54045535034899
-1.09688050035963
-0.695344467630039
-0.418663397311176
-0.133163538381385
0.163963920809956
0.391570072742352
0.730044828142901
1.41245420182798
2.30373290997732
3.09955835014999
3.721219098578
4.2236007194549
4.60244968912726
4.85065093422065
4.91348468716265
4.62660105694832
4.01953062191277
3.51094416733592
3.48479949714838
3.85332249870995
4.19956150138426
4.11139481558253
3.3776928385731
2.20277293847731
1.18677267592317
0.746019573267184
0.637332979323581
0.34294089700866
-0.312592710175715
-1.28285906750909
-2.71404680813483
-4.78236952662546
-7.32565520267035
-9.91873778335055
-12.0952032526412
-13.4744442046754
-14.0596437912101
-14.3588759300283
-14.8412555593985
-15.4385451172054
-15.8474170938648
-15.9649183888703
-15.7376417578468
-14.9160339859136
-13.1961692925038
-10.5000261939036
-7.21791726543111
-4.20402695422717
-2.07280761116532
-0.379583659678541
1.91649516935281
5.10097413376863
8.49896325392916
11.5792299303408
14.4067476260586
16.956552879828
18.7773714619467
19.4676005215825
19.0149839010524
17.7268874242502
16.1507637762075
14.8865023702191
14.1932023299562
13.8464959373988
13.4107194757291
12.5042611007899
10.8970342863919
8.64590377510978
6.16204072546787
3.97269974141226
2.39438838964981
1.37987031807509
0.461436228175314
-1.05001071530143
-3.40068950705302
-5.96376685624118
-7.77961569328993
-8.35037719060923
-7.73471125170871
-6.3626620557444
-5.04331544747573
-4.61380911051151
-5.27075657104276
-6.56995082092766
-8.01082461238783
-9.20042121033233
-9.73656652597374
-9.4973344179798
-8.82528119014007
-8.08486920635765
-7.40754668012754
-7.02336258997052
-7.22235194724894
-7.7715267375643
-7.91352585989946
-7.08070388114367
-5.28013178685543
-2.94372796073617
-0.74307675200179
0.711523805327308
1.29073512895358
1.28335325058094
0.903913664668642
0.209194755208679
-0.527481541223938
-0.768928389858241
-0.107325012189045
1.48940582878257
3.7057567357607
5.97895207706652
7.80996610684655
9.14457624091218
10.1768445195279
10.7946793889254
10.7231968956499
10.1868261878251
9.81362510220334
9.83461037701884
9.83681824418292
9.29532521518091
8.11686099959934
6.81741127019226
6.18963405407542
6.46713807568722
6.88173337156536
6.38275418339532
4.6017387597351
1.870629726132
-1.23172922742802
-4.00156185671149
-5.81384402923681
-6.61556088578015
-6.92117692523631
-7.27736635461153
-8.07487313823332
-9.60690968332954
-11.7290629946195
-13.6708806575398
-14.6641089118816
-14.5905182356671
-13.8170131409405
-12.718641895933
-11.4794608287733
-10.0269741632354
-8.10854019081257
-5.68118903478844
-3.14476523272143
-0.973762611248442
0.667813890088644
1.71513226723948
1.95113795727029
1.31299336715067
0.186370134517527
-0.865109505232006
-1.47812903426584
-1.59172416320442
-1.41484240092806
-1.16112244712134
-0.68258572939611
0.252495783928074
1.27925000698338
1.7057691872308
1.56917127008421
1.71414175921757
2.75779140058651
4.63511411833684
7.05869767903568
9.6811060863547
11.8774207566501
13.039815793171
13.1275030063894
12.595456445161
11.8736605359438
11.0642155514977
10.0022795535393
8.58481208047766
7.06342765711459
5.78693093075182
4.68445507617038
3.43264500196446
2.09502592268992
1.0817488349159
0.523339759677134
0.181465682776022
-0.100574396788553
-0.312186334123044
-0.530223064948301
-0.858174168801227
-1.21751275963935
-1.4728626410049
-1.56421763139047
-1.34705899324115
-0.667620518392363
0.232551974759843
0.779201725501393
0.617421184748233
-0.235485871085668
-1.63528195878619
-3.28640762434656
-4.68248999548609
-5.45711770484687
-5.64591785165388
-5.51540335485669
-5.43646145769298
-5.85247992033065
-6.94568512774947
-8.41081686581654
-9.83517983449178
-11.0335301031308
-11.820448485474
-11.9313555011438
-11.3883132957086
-10.4804011166297
-9.30219186860791
-7.78164789108258
-6.09297316624132
-4.56353773662209
-3.29829760309558
-2.2428824234558
-1.38627853321195
-0.641158239483699
0.229264947027025
1.38624803964592
2.76823351098584
4.1733771858586
5.36291340135773
6.20341640369274
6.848837843736
7.60247005306958
8.4688450534433
9.08563802029877
9.19321307204021
8.85167734936909
8.17524034226683
7.26200640231281
6.31902954147088
5.41522967107949
4.31113365506404
2.97492618840653
1.93551888348856
1.69262730772409
2.118683462358
2.71100909681872
3.04657061469107
2.90249019861293
2.3839925358731
1.94374835943286
1.90320703434477
2.06145447216714
1.99439525525909
1.45206875299804
0.356652538252282
-1.14335166273672
-2.54297428106559
-3.34399190707456
-3.5394379280339
-3.42524347362462
-3.13971124853633
-2.67465420484992
-2.08120157036671
-1.4672653499315
-0.994557782948828
-0.854880654407705
-1.01565928480631
-1.14644717468531
-1.03839424366801
-0.850924243006835
-0.718673191474234
-0.471220984367064
-0.0245129829931282
0.330567694609279
0.315785875318752
-0.017571995092261
-0.514543009294693
-1.04391233848961
-1.36954777522928
-1.34434799598935
-1.17560363477254
-1.15435268127367
-1.35452584310319
-1.82940713227627
-2.67554830851569
-3.69815074795309
-4.4621201997452
-4.77128089990332
-4.72085694996184
-4.39784431910886
-3.90136612257509
-3.40529295622631
-2.89348351209514
-2.17211769882259
-1.30955393858338
-0.628044799113691
-0.218377533190974
0.076273665741137
0.290205887195874
0.381253111143798
0.444748194373799
0.557887747647842
0.694883054972993
0.963372712898785
1.55372395997489
2.38227596601711
3.15319752468426
3.74812432491073
4.21597709066738
4.50120023005114
4.53433212317418
4.45464319119251
4.45855032448413
4.62239454341703
5.0453285235058
5.80432932262056
6.61251605655771
6.96216695141002
6.72263386524922
6.18863894252698
5.55713238232369
4.7361920376663
3.56567681347563
1.98350746800766
0.184807618272641
-1.32392100692409
-2.18375873102761
-2.65657479627316
-3.25824555583297
-4.08665986600582
-4.88881651144604
-5.50965269151007
-5.90680225590965
-6.02952382177726
-5.94802511391896
-5.80427701022389
-5.56262038455175
-5.12755690993118
-4.60571471600781
-4.13728615352956
-3.69151414014716
-3.26757460786654
-2.97603364872567
-2.77027370462159
-2.46027900678519
-2.06002920464363
-1.773904923612
-1.65091251567672
-1.56985228425113
-1.49994456562389
-1.48972508117
-1.49530918616532
-1.44818161719467
-1.34263388167843
-1.10686879398956
-0.623384683899963
0.0546433189877607
0.790066319604138
1.58447404756842
2.39682219918472
2.99842176183138
3.36064508463534
3.80725676774106
4.45982165047262
4.98870609868903
5.16136371899041
5.16117257538479
5.21810096693313
5.35134346767087
5.48313259760244
5.45427592519609
5.05751562524198
4.31541695194904
3.50335709086444
2.78813168780469
2.1459982597136
1.56931691952075
0.971662651962493
0.0937590754962998
-1.08634865152889
-2.12492286950248
-2.62440978808824
-2.65049699289151
-2.45480217390179
-2.17837549982894
-1.94100219021903
-1.84221871820042
-1.81555617831478
-1.76722354984436
-1.7922004567975
-1.99372750051841
-2.24840574699948
-2.40335187721988
-2.48857237481699
-2.53512290958529
-2.48249952433007
-2.38787705436919
-2.36028762189203
-2.2795997942525
-1.97991270192628
-1.57806639462359
-1.21801663225963
-0.737006982638093
0.0498702830886348
1.01175602233181
1.86892775453376
2.40281468123991
2.47574283439286
2.17825041242268
1.85502268184513
1.6922752641948
1.50659636586109
1.13703491982705
0.674594983303085
0.180518811322821
-0.381501037010137
-0.898028838308557
-1.2158011176086
-1.41087397154718
-1.6037695775566
-1.73615897440332
-1.77862643734666
-1.82586224629735
-1.8422365632572
-1.68525613749132
-1.40822624403062
-1.16740301338982
-0.90665216185849
-0.497002451471104
-0.0441221901576564
0.277788686487938
0.494147295048446
0.643185301176032
0.61198322381673
0.415179489125622
0.282725170688073
0.290117529293719
0.302237642656769
0.336411532840831
0.541318775112677
0.875475996355654
1.20073858347363
1.51039350917611
1.77445903407527
1.86996760025084
1.84997669521482
1.91043738456627
2.03609662003953
2.06033768342552
1.99011079255157
1.91513500614912
1.79477949122608
1.61269904810071
1.44535333385847
1.21685427896772
0.767811791782384
0.215758379348289
-0.157561316356758
-0.31294526323637
-0.397432539540864
-0.475972920671138
-0.591762818590083
-0.811271063361449
-1.03202757921675
-1.0565729084938
-0.918873663365356
-0.825917814710086
-0.821886814205683
-0.82234934790291
-0.860744794387413
-0.988563861737343
-1.09307865371227
-1.09332238577992
-1.09931960803463
-1.16395291347502
-1.17688720552601
-1.12951455767104
-1.11101006346055
-1.02833509928481
-0.739838391392579
-0.367066519991721
-0.107274048719929
0.0477431700089994
0.151835558443729
0.197909948682471
0.296738175742519
0.558692700117126
0.806540273247297
0.819739313724078
0.712369726190975
0.681915192872671
0.661128756582135
0.549386504497277
0.429548011941721
0.324842125356905
0.134062217295575
-0.108441592131339
-0.298722414325113
-0.502269580925094
-0.769349170510956
-0.938809469216864
-0.910068211789467
-0.799587112270727
-0.668833057828878
-0.465982776503928
-0.276588554151065
-0.237652479463796
-0.245594621018777
-0.122432330872635
0.0455758676711653
0.0780801508284701
0.0188683333052291
-0.0304445413414343
-0.139698936428097
-0.346853748525011
-0.530164665057419
-0.641051585121177
-0.710750247303982
-0.627769676858398
-0.317597686625989
-0.0002651571342217
0.132804263760279
0.229333585062541
0.429437692820751
0.582222625394007
0.562328456777867
0.471809232225777
0.397229158422381
0.337679566653759
0.354253447401298
0.463443981347946
0.5300123189486
0.515843690916677
0.585792083017267
0.815133960749069
1.09082559147616
1.3220405849886
1.44655125639371
1.36113748643179
1.11898235883095
0.942910488612518
0.857262255495115
0.660338277969599
0.34603415970741
0.136230175743763
0.0797512839979517
0.0189963205817589
-0.099779350455716
-0.22869095151703
-0.394908185715796
-0.574243450984167
-0.597682838560127
-0.442649713369618
-0.328011500901511
-0.315145398629923
-0.199470479178587
0.0544865184844365
0.21775667480655
0.203115749463958
0.127719520155955
0.0278795782603223
-0.102923002396276
-0.17269392123221
-0.174098146298315
-0.23423784302633
-0.344113845315625
-0.392183695279898
-0.460477102855569
-0.69158786529627
-0.978297696277597
-1.14959193070422
-1.24629490320016
-1.32933934718851
-1.31768374424634
-1.18505753494721
-0.970255379517903
-0.583090120191277
0.0181873169020528
0.583950402024153
0.866802681587097
0.931263576574429
0.913488315314723
0.793908228269157
0.568449354722419
0.305428853480444
-0.007149333776485
-0.357198685026208
-0.554426213901137
-0.497364321556909
-0.410229250809644
-0.509798779204871
-0.677433648668626
-0.730658092877886
-0.707810077156347
-0.65200117011653
-0.480315430722046
-0.227482092389745
-0.0368801145076086
0.112082862267426
0.292195501410587
0.394942215600682
0.361401269771553
0.363380953438441
0.477977449337617
0.554068606041297
0.558244340592171
0.630786151279919
0.773872139870246
0.902268467037339
1.08587006680738
1.35633913504851
1.50221463112738
1.36629456331447
1.04560813399139
0.627462535079254
0.111741676474183
-0.356358948816004
-0.584472319976926
-0.611854465318758
-0.575751427010547
-0.508644767410129
-0.486497589819222
-0.635793573094731
-0.843748171298867
-0.835308933035673
-0.587330349278456
-0.305451211061031
-0.0491066117306817
0.262157428279747
0.582226941911295
0.796449023101767
0.885531208660149
0.79747600397264
0.4290674516555
-0.0755170016558409
-0.375495757611461
-0.421150911274986
-0.490997795195196
-0.716516124699213
-0.963603452068758
-1.07587263210601
-0.905584748255473
-0.36612389519781
0.301311053165084
0.683751639466493
0.749301216499993
0.826896129909191
1.04449084240445
1.22118457022168
1.20741866986013
0.968664896739867
0.545586406954841
0.162740788457312
0.0361522211662071
-0.0277442005842147
-0.401812020199556
-1.02754880547109
-1.50807835062055
-1.67587058185564
-1.62576933144026
-1.41315425857991
-1.08151788691501
-0.730595284513011
-0.36431279324853
0.0400310087656004
0.30942383448368
0.276238203302428
0.105981095109457
0.0631675329859396
0.116634293548491
0.118785343926903
0.133598011181889
0.250915454966762
0.359106312261838
0.373633023515404
0.361535656168029
0.302892733602631
0.141635739118752
0.0727326606416623
0.30856364956798
0.666556371724563
0.820227111003296
0.738121156053316
0.535689697928075
0.219316570010202
-0.172006556481627
-0.506567193150266
-0.743380469448102
-0.878589149388441
-0.811526452152811
-0.5625053409154
-0.384618122924644
-0.389288883767284
-0.363587469568073
-0.124525871514646
0.286151941741725
0.771940141221731
1.17668874889091
1.23922088431472
0.906834738231226
0.471774224948341
0.151842235565459
-0.126519603229199
-0.381391328244168
-0.436058178623692
-0.24785180417355
-0.0071696975232885
0.137710356257942
0.163048509580319
0.0476552063304128
-0.153888946167803
-0.252487902857327
-0.183526049432217
-0.121573497270755
-0.156960281452128
-0.154846881068963
-0.0521675998005785
0.0543621476428064
0.131675994269311
0.176859326051249
0.082814391390919
-0.162177530592598
-0.378188597792945
-0.483691769404115
-0.544702176205399
-0.499881062935469
-0.263427705943871
-0.0187072642901175
0.031288420665332
0.016015443923531
0.117833744341718
0.248773065701587
0.314267839979778
0.411209077746326
0.550787138899684
0.594124773710643
0.544515065746706
0.523518818383747
0.535050422265951
0.565371200425837
0.67779627721573
0.777222587308998
0.636158595050181
0.298138651966349
0.0526954358855632
-0.0349680006938897
-0.155165317774148
-0.35208184853919
-0.499933095819995
-0.60477550619406
-0.760804330816858
-0.917470854946415
-0.990202453420345
-1.02477440851977
-1.03679799018362
-0.949546866008111
-0.800800266258615
-0.686825718758885
-0.538557575399284
-0.32088785167789
-0.260553342870419
-0.486829995129496
-0.730444660894063
-0.708580038791023
-0.479521948493803
-0.217839473382477
8.70334835784961e-05
0.115201640038558
0.127215225094326
0.170050101017414
0.313047332359618
0.480994837082939
0.685432305347757
0.994103625284993
1.25744032843688
1.29037218401042
1.22659209933962
1.25437684317761
1.24080528542631
1.04431516734755
0.861672683877858
0.896349579895356
1.04256760503479
1.1234947377217
1.07061776161713
0.794549127883866
0.266505669084727
-0.284467114293253
-0.600170780314483
-0.723855349461135
-0.821269598823831
-0.884185374547192
-0.885358880484092
-0.935082565182266
-1.03062293170554
-0.991869826586592
-0.816130877027986
-0.708747890024748
-0.702388511870219
-0.642060651982849
-0.487204331282334
-0.290583954601538
-0.0601789493749355
0.128407644134585
0.163989676128857
0.132298586670626
0.178128919450153
0.210203723933703
0.112309267006889
0.035121878611587
0.121749050097482
0.252739167361762
0.336766443812726
0.454719294561694
0.552935889034869
0.456522407139802
0.237265003470189
0.115551984396947
0.0893024206698442
0.0568010602816737
0.0689766750453384
0.129771789136572
0.0648577610226037
-0.181938055900379
-0.4484789792941
-0.628080357572886
-0.712041212437263
-0.618980857082429
-0.338762091755335
-0.122530775244672
-0.179486553077447
-0.342480146236883
-0.327717983906674
-0.107753009226331
0.181707341988537
0.40380249448929
0.385583320816777
0.0904056895538651
-0.192728871428506
-0.204722418219611
-0.0857660971247362
-0.0580991543059928
-0.0765529521662189
-0.0763189384939093
-0.145781739426012
-0.261549264643383
-0.279048324908963
-0.230850832520271
-0.235989216179609
-0.227731961419437
-0.122381737040657
-0.0186035414657337
0.0347459195484571
0.138671254525673
0.273185782048637
0.311752743816883
0.302266793326368
0.342881396589567
0.333855456624852
0.212360696291669
0.154601664785999
0.253577054249934
0.342878989307215
0.324347045468696
0.297806767397517
0.291188872847042
0.228497999921355
0.154701064322991
0.161806445491876
0.180384365317732
0.134757955065439
0.129548770438279
0.214257619238946
0.222750728396106
0.0953877692775479
0.0431070299360755
0.192963719039369
0.394452022592272
0.463009054341874
0.329149199239831
0.0225985946333337
-0.263093638912536
-0.311839935593401
-0.21921349417559
-0.253353688219134
-0.388602064969743
-0.397364333234868
-0.289879915749045
-0.220111640583784
-0.156924605916849
-0.0394373441194093
0.020982230198121
-0.0209345420704025
-0.0483395301215772
-0.060107264837523
-0.140439437983357
-0.16320790001194
0.0402352596944764
0.343344134960669
0.530588400387155
0.603375164116169
0.609163302766331
0.501710054040424
0.346518890480209
0.299701381177546
0.3045742680309
0.153168831796813
-0.164477162112295
-0.477552142031893
-0.709010681975058
-0.866308877748109
-0.91527929880689
-0.888910217492439
-0.904192845501863
-0.919610589483055
-0.772842816970749
-0.512025298310205
-0.322050497641422
-0.185897908399137
-0.0158582878444427
0.0621214461243249
-0.0728548544032837
-0.295386344360181
-0.462880153177605
-0.555405118605395
-0.498673237436579
-0.238830905533775
0.0485860093203779
0.194051629489763
0.293098935070845
0.430362580580039
0.484724264457474
0.451525911033691
0.529851831873152
0.738530606612394
0.900691916729446
1.01131827189635
1.15482060950701
1.20271545855624
1.03744322237565
0.839375939728403
0.801977086719807
0.851632738795426
0.85271973416401
0.762170593369614
0.505143105786439
0.0353682044943644
-0.477376631258015
-0.806170403745291
-0.940521208475421
-0.974718490699838
-0.900083775123979
-0.736241569346916
-0.639623925932498
-0.679178205461058
-0.749065318818095
-0.790837519397401
-0.81668008420153
-0.762347240905212
-0.617241088958878
-0.519841405249499
-0.481868236605606
-0.338412792441095
-0.125535148617678
-0.0794578457386705
-0.202003737232466
-0.283270317086113
-0.290622113260265
-0.300909225280523
-0.242603776066556
-0.084623668999277
0.0227427697819855
0.0772684754541702
0.294205698911865
0.664428772241809
0.885739678864939
0.813130574061076
0.579409522132952
0.341508964166783
0.238278514047424
0.386272890039775
0.661563204540674
0.762365533763845
0.61270843240633
0.394267339576855
0.197413465724338
-0.0060159109170129
-0.132003307526239
-0.0804920491583264
0.044189772225877
0.0942404090644478
0.100800430817421
0.124227008406099
0.123518248969764
0.115881980598862
0.149876927432283
0.0922598013416478
-0.156276310862492
-0.32116406410593
-0.078657126279959
0.449926386043435
0.906677133397331
1.12005814499897
1.06040548506878
0.75766725905309
0.423633258877486
0.274903059945724
0.234364062284488
0.147176879105809
0.0900297569727592
0.127993182333801
0.0844499835910902
-0.153909098445994
-0.465927134087186
-0.787829245725488
-1.16409870462326
-1.4834886347465
-1.58785320434807
-1.56052035616115
-1.56242941577531
-1.59485169258752
-1.66391624964591
-1.84174515811964
-1.9752863016186
-1.68850055761357
-0.827897290816757
0.324559487980408
1.29113798471576
1.68829844524682
1.42356724442488
0.809521428969889
0.327674451388595
0.138749356949914
0.0416197462583286
-0.0556808091815522
-0.0084555747342927
0.206174225522049
0.440269696395078
0.642038390135827
0.780769475646238
0.705458346632998
0.440000988867849
0.310297565825291
0.501337979478529
0.849846708613247
1.18464029420481
1.43917535467066
1.45241997309585
1.11830247767301
0.637171475409112
0.258428681427245
-0.0213226323265997
-0.269809479061136
-0.446233465610986
-0.546563575692253
-0.588467520685659
-0.490721956749105
-0.297673418684475
-0.306563255533171
-0.647688683180211
-1.0479866532116
-1.2374788779088
-1.21153386626576
-0.99974934127394
-0.615131932974374
-0.247389792413051
-0.0951685829545311
-0.0603428191662805
0.060050192381237
0.23439246355211
0.344390460831103
0.442385958440988
0.583684123372742
0.662636787035872
0.627678960900945
0.570568916391352
0.512707661999061
0.428414988286408
0.417501224819013
0.509365330450854
0.504816718399389
0.330095717918438
0.216577634658463
0.282710220406998
0.346313672095146
0.295553435449871
0.213139994404652
0.106246835843103
-0.0768711944650504
-0.245719661095665
-0.317757978970564
-0.380995313230646
-0.484324839400719
-0.548483342484918
-0.582394778592246
-0.643393743020648
-0.626216978456238
-0.465411316976019
-0.373542797371153
-0.51982265032422
-0.733685464687219
-0.802981997706418
-0.751379523754714
-0.666241244854078
-0.585556800803362
-0.58832341593759
-0.681022969694343
-0.667980826605766
-0.414585403982156
-0.077194498006546
0.168711457025685
0.377686685139626
0.599398670562532
0.732790648959897
0.805636029655689
1.0063661557639
1.30288927737947
1.44004181358366
1.34980133635194
1.18283355868223
1.02735467236388
0.904006314020165
0.828502152807558
0.696157753981922
0.402153835479555
0.0965679898766253
-0.0368223638322353
-0.111939085856801
-0.279918562988913
-0.432964547431684
-0.517513780022873
-0.724998627599183
-1.06649779154158
-1.24360603149371
-1.165218938865
-1.09014956831793
-1.1463762272102
-1.18191516372755
-1.08729749323084
-0.885616383476286
-0.625823301989509
-0.434729966646402
-0.449183889311431
-0.577016591779105
-0.597088972444464
-0.488039719894262
-0.368334681061729
-0.215937560357477
0.0562465899647596
0.392036007756321
0.711745070484128
1.040299859104
1.32089745003595
1.3831985118673
1.24699573876704
1.12340262853484
1.06742509601943
1.00907983287846
1.03121532340111
1.19938725481425
1.33106454609802
1.30305845538698
1.25871288208503
1.24963202855483
1.10929760690574
0.836758846750192
0.634334378283812
0.532335366902312
0.412420679980499
0.287930691180652
0.181493115812388
-0.0361630049515015
-0.391270218098578
-0.717927589308653
-0.996697791704523
-1.39397980080658
-1.9045946297185
-2.33348628753057
-2.5660484359039
-2.54917628749091
-2.2093698823819
-1.62798559192087
-1.04022605281425
-0.556814875643794
-0.171063378602111
0.0140440430307487
-0.0768760025541472
-0.222085064403219
-0.121827470880151
0.206897433895014
0.523327883179659
0.687892939770419
0.67102404773475
0.476646905156258
0.249802454473145
0.186640653668149
0.239165692431523
0.204533643673214
0.055348650253856
-0.12318322988457
-0.312722619125706
-0.39340461613029
-0.12906971463113
0.449842307702715
1.00879524143819
1.32867728058925
1.3874692490278
1.14053778558388
0.647463432770287
0.217130635325866
0.047219457704249
-0.0261314097927265
-0.184437490494003
-0.382344861932722
-0.552574758205952
-0.659659769683414
-0.581100769015886
-0.320689045849895
-0.157757897954675
-0.24287348471278
-0.350371325223202
-0.289076847561454
-0.165645516863109
-0.0726709405477081
0.0634336521043349
0.229788408586715
0.299761030308422
0.276696046103714
0.266318691970654
0.277289314784888
0.288502509214355
0.357781367074384
0.46586493230125
0.473686997307685
0.35859347351423
0.214742035006413
0.0292401958340485
-0.189927009431002
-0.220666893545218
0.035628092553764
0.295053925873715
0.332187508464984
0.295722508334092
0.312211486297164
0.252413369778702
0.0811110472028284
-0.0380893210190906
-0.0621137130858855
-0.0844705278599453
-0.103552016898077
-0.0955010150288795
-0.124987222051506
-0.180458771732788
-0.182632558172056
-0.208964240119647
-0.354383071581007
-0.465345373350969
-0.398231922610007
-0.319318556033247
-0.392035081530039
-0.488382893441488
-0.492159437539197
-0.511371115592141
-0.598211031096715
-0.615795675619796
-0.458678863330982
-0.11496396475616
0.410315204462511
0.95713077556342
1.18369412870033
0.963290412711
0.579989981171971
0.299866590957807
0.0767708647431117
-0.114657523059187
-0.0850095742278567
0.213303738893846
0.526830393427057
0.620916500222963
0.462501756788454
0.145443157780915
-0.142119518245846
-0.270788876990637
-0.385174141407012
-0.66849736925558
-0.96221349071624
-1.00529670376977
-0.854372177006957
-0.670429025778895
-0.407115323868255
-0.0656221436576332
0.160844444532527
0.2707580899062
0.493533678287693
0.784547682316954
0.808087867552505
0.490779108814086
0.124235970868159
-0.0288770011787096
0.107564151684031
0.447416221797416
0.697158463182586
0.582755552896279
0.218240766390243
-0.0695131078055314
-0.228023319302825
-0.444606560988063
-0.769791583590501
-1.12757820718643
-1.51624926127016
-1.86043363581519
-1.86070334715495
-1.29136408970146
-0.278917491804031
0.843506006392307
1.69828830699508
1.92184959928877
1.47856140734341
0.838928681171674
0.467061245635667
0.333255605740994
0.215430425662616
0.0952140664008007
-1.17021433066657e-05
-0.121531713972215
-0.212991883768298
-0.183608862285718
-0.141828168995458
-0.211722753201672
-0.291707975492638
-0.266605011526927
-0.175247894931987
-0.0211963805977837
0.207957702635907
0.334283061312569
0.241031574533023
0.180388390566276
0.370862639019227
0.567996512437718
0.473675639563049
0.213765059857523
0.050415607335945
0.004332265429094
0.0021053371806853
0.0315885221062355
0.0304899735563869
-0.0754932664588893
-0.219540996217374
-0.302703572752105
-0.337205820874807
-0.31096534702852
-0.147440889555702
0.046433923573384
0.0191917647473014
-0.214226371234573
-0.377245107819713
-0.376857302819874
-0.32297888360437
-0.200162333142102
0.033399698330869
0.209430418782588
0.194591763266383
0.107674488211593
0.0610585799077109
0.0284997985671424
0.0392273161940505
0.117398667465675
0.106194505997743
-0.0793236146471511
-0.238703515901445
-0.23154238100729
-0.205172265185856
-0.255208979266408
-0.262475887231815
-0.190873729962528
-0.139111956736419
-0.108213098769686
-0.0809664310302784
-0.16270792220403
-0.344988609330598
-0.420660085348438
-0.331197611257984
-0.234417582531221
-0.15859886425083
-0.0018377440574631
0.150566213586835
0.126359959429741
0.0128751122637927
0.038104571748113
0.217281542914435
0.412622631495098
0.570861511807578
0.661047137552493
0.617910083358947
0.532334264011188
0.608681084484279
0.842333583706864
1.05050333222644
1.17142878487152
1.21778561699271
1.12191610562968
0.905239626674924
0.725417690353278
0.598243058935229
0.419901860813378
0.265514077876037
0.25736310406877
0.256870371477158
0.0869909377288332
-0.163664792885211
-0.385447311413606
-0.661242479562352
-0.987964035994294
-1.18644192479483
-1.24982918541794
-1.38411370356926
-1.66149057064129
-1.9700069208876
-2.19483086674967
-2.19670491875248
-1.86787395674439
-1.38489754738421
-1.08377952807997
-1.01382467763841
-0.942082380614192
-0.745826447260696
-0.469839405932054
-0.119376601633226
0.291274318168001
0.630332314356449
0.836045625105093
1.02410226013843
1.23333109328485
1.33295880123626
1.30732552816732
1.30298813245586
1.3449681487062
1.36235277535294
1.42033800477529
1.56829914598282
1.6506150235739
1.56873789122061
1.44118853840131
1.32648243343914
1.16120879637596
1.01281654525075
0.976458466127233
0.902143410028673
0.616937190122331
0.224171517894663
-0.132781396264743
-0.509154834462512
-0.9523367162046
-1.41225627414561
-1.92178882857777
-2.47938009432903
-2.85433837848388
-2.91639411236096
-2.93215366456845
-3.16494620117903
-3.48224512359736
-3.61629313749277
-3.46202491619319
-2.99991496089507
-2.29718227660005
-1.58801897670937
-1.01530778353634
-0.403344660904385
0.421462506921954
1.30253018079249
2.02468503471142
2.63158281306421
3.21183979285435
3.68474354316363
3.99372157519307
4.1688188888678
4.13605129093464
3.86474619169096
3.63096689975674
3.70807439540583
3.96352409678242
4.10511012345843
4.0369852192301
3.73910033748943
3.18162142347954
2.50223160209989
1.89962699563437
1.35673868560636
0.769593522178998
0.146713566997825
-0.584285544804476
-1.62007473342033
-2.90098542051391
-4.07071160860942
-4.92199752157461
-5.48773601895096
-5.76013095226655
-5.75292479699235
-5.67332749634627
-5.65771366015664
-5.58006805114799
-5.35223950001335
-5.06968792138434
-4.72909894257214
-4.16546574684955
-3.31589925274052
-2.24418941690737
-0.979733983747908
0.388252805941033
1.60104699398575
2.47494724192036
3.09198621718169
3.57285234640126
3.90899404000127
4.1346402096709
4.33900575870342
4.45726279650632
4.38686864074328
4.22670664204291
4.07858431517612
3.85505165697904
3.56309003723119
3.39786352424459
3.34009730726937
3.10454076096794
2.59802486814018
1.99155554964027
1.37733398458726
0.759854513101522
0.209303767197279
-0.31955028276361
-1.04096918744984
-1.97903182126503
-2.90684150657491
-3.71666183596283
-4.42828056680891
-4.90617514891842
-5.03690586213138
-5.0291355965722
-5.13642898808762
-5.30993706168646
-5.37085353358792
-5.20232424118681
-4.6563548034845
-3.65159876949969
-2.40554063281753
-1.23690984986666
-0.189858298964942
0.87450488325684
1.96620425760482
2.99136508098057
3.87208657466317
4.44175225068845
4.5185977241427
4.24802548533696
4.02608566363232
4.00035048116118
4.00955152661943
3.95580110848674
3.8469862104489
3.6333302222113
3.33505063045664
3.09189368194608
2.89384034430393
2.58526693985403
2.17626820982256
1.77671665426587
1.31894114020083
0.71932815424752
0.10361088763379
-0.449533049318741
-1.08421793610809
-1.85404812588383
-2.59464269630667
-3.22092932876287
-3.77367498492192
-4.20319071082147
-4.4665174310067
-4.67023472736797
-4.83141532587267
-4.78974023300393
-4.53079094067091
-4.20825824551723
-3.78426199013611
-3.08491772713775
-2.18780672334281
-1.32152693620085
-0.469685898928205
0.515521945664529
1.52353565317626
2.2730185039711
2.65723830435036
2.73517331137141
2.58958164028652
2.39780766454788
2.37735338672805
2.5372903129014
2.73168301818494
2.8955098039432
2.96469653538406
2.79350451097046
2.4137908837521
2.06798336174293
1.82681490972188
1.54603816088675
1.22459872963581
0.989531695439715
0.799498927303706
0.532696029574691
0.190342860038602
-0.247450278261283
-0.855453886087223
-1.4910452278707
-1.89545270911898
-2.12494832692543
-2.43566332534881
-2.80355594625295
-3.00415314074647
-3.00205888535643
-2.88152397978675
-2.64094626266307
-2.32356225641856
-2.05239688019872
-1.7973554630401
-1.40489860012275
-0.86139751826522
-0.258114225520478
0.386207405563226
1.01837012322485
1.46342896790578
1.67009661291674
1.80111180439764
1.91490915995818
1.88320461634585
1.73712185985891
1.68905371590809
1.74884001362294
1.73817097654851
1.64469063786529
1.56965027125608
1.48096042464558
1.33096658517656
1.16915744303807
0.966655093682418
0.659128860660969
0.378640923172861
0.263907651138447
0.16270529682147
-0.103118123161918
-0.414091433496894
-0.615406686335817
-0.776907639747852
-0.955485950203171
-1.06937768880663
-1.12930297350398
-1.22414303550718
-1.30054946002537
-1.28761737017387
-1.26414759569868
-1.23829122849882
-1.0631134942736
-0.755745472650371
-0.546746715352424
-0.532353986780201
-0.620086087352865
-0.779696295509739
-1.03076196443189
-1.29495144509214
-1.51108530094201
-1.70782829393803
-1.77251698016326
-1.42637308316043
-0.61611878847346
0.354653164032767
1.17447226794979
1.68246576635495
1.74452167551723
1.40135210714263
1.01768810011741
0.888827029483078
0.91410434981509
0.920741872850177
0.919833810697475
0.856581065146039
0.582542058620748
0.181745591425947
-0.111941748370262
-0.271064821760075
-0.37059463505595
-0.342056633037524
-0.153471251023992
0.0730502420307933
0.327476824530318
0.709779185618672
1.09696956430799
1.25394069091594
1.22874240693026
1.22685030865804
1.27201590519768
1.32620875891468
1.44348518622975
1.560031682583
1.491549611666
1.26352807038661
1.07349232884478
0.924062306773362
0.653216728055938
0.245187488975569
-0.207672655301092
-0.701079838332033
-1.2067089699639
-1.5755086463601
-1.7685214301942
-1.92067719178625
-2.04852303239306
-2.02512942505915
-1.87161445130327
-1.71213653802187
-1.54111590056883
-1.37550196420135
-1.38288771806119
-1.55779464873176
-1.62823358843846
-1.49116538538731
-1.33112387855362
-1.23441283046767
-1.11808035424583
-0.990759783463882
-0.879023830207873
-0.64454936341865
-0.196043081748917
0.3435884722911
0.865976467531949
1.36786132986838
1.77009317982559
2.00489546500008
2.20978742625302
2.49497906181941
2.71550770660906
2.75653264595279
2.74805810296765
2.78820660112511
2.77580614693255
2.61516591586306
2.28814616057145
1.75550265772004
1.06281758389021
0.423828532686472
-0.0390231190821599
-0.451849462916515
-0.898318449072432
-1.23935982743304
-1.40293245897572
-1.53641261101833
-1.72390687646284
-1.88897093816441
-2.02144685827673
-2.13837068613287
-2.1043192692843
-1.85486716867384
-1.60358644309805
-1.5275805362998
-1.53351030626824
-1.51292411745639
-1.46976903768953
-1.34865084741379
-1.11779992161999
-0.932900284023856
-0.868075989365656
-0.711839208792961
-0.33036008062625
0.0959097409560465
0.420239256748355
0.729094847553619
1.07556776099438
1.39900918123145
1.70028409795946
1.96264731269263
2.05452491120558
1.96880420321637
1.88988634277714
1.8790604657315
1.83203044342545
1.75693957637223
1.70906886074797
1.53691692420106
1.08009072987248
0.485491998829882
-0.0030915695672027
-0.379463163811825
-0.725867217190439
-0.990793353460983
-1.159197147092
-1.33706300209477
-1.48741349729948
-1.43883075810955
-1.23973175041241
-1.11994443799554
-1.13635219390813
-1.21124849503644
-1.33821682854766
-1.45320119639062
-1.39872978551645
-1.21399510502564
-1.10829053448862
-1.09336539777063
-1.01480901081115
-0.859103148541278
-0.680029931734315
-0.427776373837675
-0.126807765805068
0.0794493617898553
0.219913852606187
0.44745064888153
0.674370885145103
0.704550711971559
0.649618788977101
0.764876042213295
1.02864265696117
1.24923887789664
1.35622607669298
1.34391526922276
1.20937823463941
1.06212755422882
1.01394789367803
0.971231923472088
0.795684742400363
0.560105728176197
0.408330678959595
0.329372827185938
0.270320210184593
0.255371654869837
0.236344474271884
0.0978096269666038
-0.0881252708668632
-0.126949037880065
-0.0301125439710065
0.055525085210753
0.132523911457293
0.243107134853571
0.299771558054657
0.288514072410895
0.346511554066304
0.503932991361083
0.685954207279967
0.939667920530558
1.29317248213041
1.56114936336188
1.63642710982755
1.69396770954016
1.83681764767098
1.9196463022939
1.90222542038094
1.94378520540058
2.0698748937173
2.16008050000774
2.19273537527699
2.13548991016805
1.8237875335957
1.25182280994317
0.650675812467097
0.0852013254005863
-0.622780482746517
-1.48696003890778
-2.29320191240001
-2.94574031078659
-3.50814610263669
-3.98081039792216
-4.35797927639892
-4.76862984450724
-5.28055858976268
-5.72661135062922
-5.93425977401135
-5.92716346178632
-5.79504375746537
-5.62822940245075
-5.56700975041916
-5.60290266532708
-5.46666233421337
-5.00449661759173
-4.37618969905836
-3.64928531271342
-2.64485817901875
-1.3784136296465
-0.147648156657115
0.934671422494974
2.00887790964754
3.06621739100859
3.91312091091357
4.46217788074084
4.75847515224017
4.89555804256372
5.06139026015604
5.38978716271901
5.72785265323169
5.8509900890443
5.79344889346761
5.66633150022468
5.40728316821915
5.00001798186898
4.62116782509755
4.35280197642201
4.06463618321335
3.66094810724296
3.14765205754444
2.50799562431484
1.7879031863087
1.1711970749001
0.739845430808684
0.347645238795479
-0.10085694277149
-0.508143892639991
-0.843916235751068
-1.2133993137285
-1.58653686767392
-1.83981500975596
-2.05960526025815
-2.38917733122125
-2.68577911028127
-2.7368371419818
-2.61763147155099
-2.51337818613357
-2.46537540044403
-2.47901384658084
-2.5492849673954
-2.54155847848898
-2.37760444514175
-2.20761049113188
-2.10035416345268
-1.86055572661187
-1.41711317526096
-0.989379100901091
-0.670525545124748
-0.302146140944236
0.135288310930321
0.471924692496081
0.688073695516706
0.900397831313949
1.12433572469025
1.34538585609175
1.59637667923753
1.78499297646286
1.74640648248856
1.53225600593489
1.33045575949714
1.14186064785106
0.845955462562715
0.472279200931112
0.121455419931347
-0.231612797109491
-0.618289668884838
-0.952108411506632
-1.20050668358254
-1.43617089558359
-1.62455937070443
-1.67103430235052
-1.67375872137604
-1.77696743564078
-1.88941709532226
-1.88641792394135
-1.8565790622039
-1.87673948281094
-1.86601595653301
-1.8136075966451
-1.77590081546378
-1.64976363853207
-1.34118221814017
-1.01164191224997
-0.790593642730516
-0.509899602083068
-0.0265389158051856
0.536863823298358
1.07448864848116
1.63269207545278
2.18599394259633
2.657791963406
3.0998882472761
3.5215165494758
3.75342123933653
3.74339138244876
3.66260986570586
3.55049255365638
3.24571397572319
2.75362675459263
2.28535005310007
1.90808742450576
1.49076643500834
0.958264026257079
0.341576791161083
-0.323098291689411
-0.946392564491121
-1.39464992247845
-1.68882152147135
-1.98009556508465
-2.26062864018164
-2.37912633125863
-2.33149607907139
-2.23369128909724
-2.12425757231897
-2.05820302902469
-2.14395949337736
-2.28880719022453
-2.26117736724843
-2.09058424168848
-1.98524060560712
-1.90340367892071
-1.66512077462516
-1.33379610334507
-1.05553416731521
-0.753547400480208
-0.316517673769147
0.212874284725474
0.829207548195141
1.56741021600159
2.25596232906635
2.67408758197584
2.89682625246061
3.11688066618446
3.31022000210377
3.38242120995157
3.37499244430045
3.31148901971452
3.12402553607109
2.81732876484428
2.44069172412497
1.94143324461242
1.28157727364574
0.568122733435934
-0.117585523251829
-0.811079715335306
-1.44140328786253
-1.80469015185009
-1.8987694582352
-1.96398390401917
-2.10853438115328
-2.24204419911256
-2.35490101130873
-2.4783823035724
-2.50029317570547
-2.38071487414597
-2.30038116645153
-2.31274552685968
-2.21254406763248
-1.93758033352354
-1.67797740020443
-1.50882339651631
-1.33157814688095
-1.13033134743831
-0.913900556647902
-0.569470472470837
-0.0695772962110051
0.423999905647568
0.83921984121362
1.26109658297789
1.66806273156074
1.94243653426973
2.08835665007887
2.15524771764886
2.13104879379768
2.10571245369777
2.2329261446895
2.41477178273699
2.37187121634889
2.04411502305575
1.59861227678081
1.13283683046061
0.66449950768363
0.261948925945753
-0.0630555021552632
-0.416121552848574
-0.808941011360306
-1.11382783286011
-1.31910931975512
-1.52650441442619
-1.66417475436081
-1.57552822213386
-1.36147713016969
-1.24246670054034
-1.20411925971923
-1.13358514027094
-1.06852780924444
-1.02939492937793
-0.927974219289851
-0.803450547154426
-0.779007492470584
-0.772904362817797
-0.636792491766902
-0.450152163939842
-0.320360366856612
-0.138715999633835
0.168042954966338
0.463442460169523
0.672079587079744
0.875423634173355
1.08598920675855
1.2826748890243
1.57522712005592
1.99042580322685
2.29760527727339
2.32362923116769
2.17742515642173
2.00872208827984
1.84204287540488
1.67356337827175
1.44546058682852
1.01908308746433
0.416000133448
-0.113050556103381
-0.457006124844423
-0.800911899349866
-1.2438509180831
-1.60610659938003
-1.77997762126113
-1.89847409679679
-2.02934685676043
-2.08155649658314
-2.0547424953521
-2.0179800339922
-1.92662294440123
-1.77421122771307
-1.70123402471334
-1.71366133683797
-1.62396029771464
-1.40326487476725
-1.20313794806515
-1.02419340538797
-0.765517833178269
-0.486016899888246
-0.253449324450176
0.0446480703969229
0.464121152198198
0.888525022750915
1.30402994945485
1.80562423761751
2.28784892376606
2.53288656296298
2.5435685188461
2.45321788581095
2.30654632756748
2.17602576155342
2.17538391245143
2.20128575846799
2.02232008665205
1.6650057404391
1.3553557352484
1.14146293675358
0.902210013166603
0.605790298247015
0.28642097576901
-0.0719542217790191
-0.422270571744487
-0.633908163062364
-0.725691451040279
-0.858066064968437
-1.03539364742396
-1.13679176833081
-1.20057982319779
-1.31483439719051
-1.37120521361192
-1.27801474704876
-1.17469504532575
-1.16281218085901
-1.14824350626264
-1.09780647805943
-1.07933391146626
-1.03744560036002
-0.9005508326102
-0.781811339772304
-0.752063457398969
-0.66977694497911
-0.485244284038997
-0.369563626124614
-0.392122101075852
-0.447776207685919
-0.509582885011149
-0.562024866919235
-0.429747932931137
-0.0666275516447037
0.226126987862891
0.197122815789197
-0.0304628238346773
-0.216402419604441
-0.254127305313376
-0.115422547821647
0.123138061295511
0.255716045566507
0.224548210201476
0.257114305672443
0.50094235714759
0.772408057992551
0.872016804033776
0.854588303203066
0.821467016997406
0.775509242382231
0.782858966763681
0.918580872079597
1.04636853306031
1.0090135243556
0.90651754643062
0.86192223678481
0.792415856053662
0.684791975693639
0.709314877048147
0.867365509950687
0.949022238984743
0.905717223753271
0.848377711592607
0.750401582335994
0.538880325020688
0.302458698571377
0.1022677960764
-0.168635027932388
-0.54527744169862
-0.908382954723275
-1.19868162207013
-1.42224574904095
-1.54591234825849
-1.64394918507184
-1.89189106204122
-2.21634701200333
-2.31757277596929
-2.15149949935629
-1.96072926585673
-1.80418987236275
-1.50078495987307
-1.01149884176276
-0.483424293144898
0.0184590534661869
0.514556748796318
0.962488692019074
1.33098472010575
1.64463289592847
1.81393630529427
1.69635031864466
1.41636013618064
1.28040892220306
1.34512400209099
1.4182402723449
1.40014570113539
1.30091425322767
1.11966367260638
0.955110096707914
0.947860398974201
0.99284381377179
0.862810869700707
0.60308817037927
0.429574500412943
0.368301156264134
0.327006983648894
0.273834522364358
0.0924463558887327
-0.387016363882818
-1.04374971823495
-1.54940869289317
-1.84216975866661
-2.1080667585469
-2.36803995187644
-2.48202779105854
-2.41798527769436
-2.22790420322055
-1.96493751745659
-1.74674759525545
-1.6233264771699
-1.40441372579155
-0.924738053186356
-0.343614915712386
0.118239437344127
0.518346081168053
0.982239399162409
1.41382697457457
1.67808098844397
1.80805949396593
1.84185510646482
1.75440575641504
1.64349853551737
1.62942813585059
1.58768818195636
1.36438883236422
1.1082292057814
1.00822483449869
0.963496683660488
0.833511173768672
0.675154429422452
0.523154453859193
0.315847082987028
0.114160958822178
0.0254828726473743
-0.0291672855539937
-0.161792913641986
-0.318655379065238
-0.458095527958147
-0.6468134188912
-0.8598595009217
-1.00426233001815
-1.12423105732108
-1.26004170218979
-1.27011648406201
-1.09234543356117
-0.896499023551195
-0.756289090847175
-0.543985626406216
-0.262520240490182
-0.0689212770017249
0.0312087043075327
0.127420838175201
0.17101649483759
0.139401922406125
0.206125685760581
0.441560911299541
0.621582471067121
0.589689811160362
0.492859866845406
0.459542849663538
0.398601929811006
0.247640556668061
0.0565168360471518
-0.181933807433784
-0.424491229267813
-0.457563716294589
-0.235145039354812
-0.0562984761771618
-0.122889804593905
-0.285492527737243
-0.38869252738277
-0.445282316882954
-0.427495693550488
-0.298933268866491
-0.182429866192162
-0.174677141514494
-0.19130091302763
-0.183167356114359
-0.178242716870546
-0.0587105558803648
0.266014898511057
0.526621551319848
0.413284754810037
0.0742541898558831
-0.129702854539998
-0.112810221379824
0.0167323381318165
0.183564540936202
0.280423686879723
0.229244145763636
0.169306840630043
0.256784430347544
0.368288069828544
0.318024147826096
0.183138948242064
0.12294511978403
0.110467172694258
0.0922835671352255
0.138851375200245
0.235602077072063
0.235986377904929
0.147624202314304
0.120967656298775
0.134254830455533
0.0556593974724392
-0.0705678431854143
-0.136440552767071
-0.179416831478885
-0.235746179824194
-0.252960912664577
-0.258277528936371
-0.305376570953579
-0.29860434785481
-0.180747650795034
-0.10284054533529
-0.134216390647214
-0.12004540421832
-0.0295206155438557
-0.039432386252151
-0.155910151432665
-0.186395127551691
-0.0794385092245052
0.115120387714227
0.444613340539825
0.827799803947981
0.94403095746521
0.680733091335274
0.32741615301831
0.124287146385172
0.0175082755656626
-0.0700949849837208
-0.129772211311905
-0.214502378188814
-0.362562931260484
-0.464102078172481
-0.448245739768563
-0.428754500391414
-0.47454214536516
-0.476997549158654
-0.392575679941065
-0.32489092921092
-0.279815115669615
-0.1690644079533
-0.0534650790338844
-0.0487300671221739
-0.109300314519292
-0.190438400216203
-0.365991482644339
-0.571784530339294
-0.592252894165663
-0.41858129777699
-0.232731474658784
-0.0667456902298594
0.133681041753786
0.27749049601078
0.317689173100887
0.407252050927533
0.602031158454857
0.74752858389502
0.798294087523535
0.857827769942836
0.898024733767615
0.839697749815907
0.780720034210395
0.79018208133805
0.735663821315655
0.577457539103892
0.471457579581879
0.434672755249826
0.333159753410184
0.234885591657722
0.338497257478165
0.596677986826189
0.792832804410996
0.870403752755461
0.862412362651009
0.685953850770133
0.307517189192767
-0.0986913054006435
-0.396706169676581
-0.651585469837561
-0.907274014157304
-1.10317380783103
-1.25722414985029
-1.4138648104419
-1.47952439055521
-1.39292921328787
-1.27273419869189
-1.20454401143012
-1.16803654368737
-1.23473047246526
-1.46768978539322
-1.67507257296056
-1.63949518498834
-1.43287627827061
-1.18502183332299
-0.821022959800345
-0.294912662389895
0.248290769124536
0.705006354262523
1.06616483305914
1.24152357304609
1.19956060201155
1.15696520729678
1.28990528893379
1.47672339386935
1.56569928400963
1.58148496515849
1.5291263947589
1.35196966423724
1.12635715383151
0.971244828218965
0.823293318780469
0.568249387829372
0.250660549403991
-0.0525363267811116
-0.355567785921782
-0.609571705009386
-0.69913664147743
-0.701464017946122
-0.820888643560858
-1.01817660608735
-1.08398362107412
-1.04162746140951
-1.06141840462108
-1.0954800437993
-0.987415101824691
-0.758396618477575
-0.511092043686839
-0.307042239501288
-0.250587263708907
-0.372284910100344
-0.465995368457435
-0.36912273366885
-0.219518441222214
-0.14112015449687
0.0039069327128593
0.294401496364861
0.571126343149813
0.755469301268509
0.945980762788334
1.13869030316032
1.23361444568728
1.25609501173308
1.26370075881804
1.22918682926645
1.21822020583628
1.36797072411112
1.58389452344917
1.61501845611708
1.42494600162063
1.15063769708072
0.818287359605307
0.415456254804172
0.0540301981409375
-0.20969707633681
-0.497099251136802
-0.85357735101873
-1.13676923438852
-1.27987578514849
-1.35543145151595
-1.35064044212621
-1.24174051013972
-1.20043187468531
-1.33251279290977
-1.42673053126785
-1.33217854642626
-1.23852968625989
-1.27234721123971
-1.25362356185079
-1.07533119408522
-0.871299283694037
-0.714390435335573
-0.563163325746748
-0.453356123525546
-0.392967026808371
-0.24612902499511
0.031607079549792
0.321835256535353
0.624283800310257
1.04175970402764
1.4734892930655
1.71592961133673
1.78775243343532
1.82256067042991
1.82950414045365
1.79471089815035
1.74629265986453
1.60939569214929
1.30581263752355
0.965078602024993
0.723825463922547
0.467395535614008
0.0711383093674278
-0.320071875021228
-0.52552996167492
-0.608778998467406
-0.716602383703762
-0.889384657831742
-1.1554694250696
-1.5101497086686
-1.74472862065203
-1.63448543309171
-1.27457383690487
-0.922204024911969
-0.672154390205653
-0.554886300566802
-0.64285474217139
-0.835539801600201
-0.907204062156178
-0.862557029218946
-0.851076198524568
-0.803228262117252
-0.57541913980358
-0.273475738547963
-0.053813914714622
0.136997557721203
0.362900032473257
0.576667244881819
0.823610544834732
1.18073999349814
1.51055405384011
1.66611473760989
1.76490203740715
1.88975143763138
1.83724265788947
1.49889126330007
1.10839171127886
0.859916074358851
0.663982757862974
0.41034778248337
0.125433871975252
-0.159823342288518
-0.439042958823328
-0.69101764287656
-0.956183828006429
-1.26780342587354
-1.42659919732059
-1.15068861497095
-0.537051227897041
-0.024001742305888
0.152833371322935
0.102662826641356
-0.0559302303327655
-0.267821532018623
-0.419057528912989
-0.491620081333157
-0.610744749255237
-0.725006491834227
-0.603814694282228
-0.265490081188816
0.0111455067621878
0.101167510702066
0.0648104960467299
-0.0893242883426612
-0.311955521579619
-0.425882081437749
-0.403385326477859
-0.420540718098085
-0.492906195785599
-0.437974097974038
-0.243899201474895
-0.0944071149658618
-0.0702915413305097
-0.108143062037102
-0.0838586107061767
0.218042453482659
0.913386219216565
1.73104079472211
2.24713707573826
2.3475431396585
2.15586033302001
1.71753770557327
1.08954469171186
0.500626255375731
0.116804825821828
-0.143361923175043
-0.380838547288182
-0.566451715954757
-0.717103909483976
-0.902369751582048
-1.04302453329628
-1.03815377950952
-1.00638808626283
-1.05745542638292
-1.04728423057144
-0.88486568240608
-0.744014588077938
-0.7155620325743
-0.664277337531082
-0.569705458152009
-0.558970325980547
-0.591496077002153
-0.539399640015913
-0.460408745085941
-0.429824013251611
-0.339924722571977
-0.138554285256152
0.0489140492913017
0.192485575547746
0.398658456712487
0.653712148253013
0.8756891313884
1.11399941384084
1.39036468509348
1.55928923060576
1.54616411207638
1.44345430306405
1.2945834240401
1.10049945494016
0.967041126327827
0.918607879856352
0.753129463369248
0.378717218330924
0.0217067227583713
-0.155629599826954
-0.310912614550353
-0.569324801403082
-0.780548413606966
-0.824452983299882
-0.799990750002073
-0.796767670551629
-0.830062452163147
-0.975003830025725
-1.20761107355656
-1.27851868097837
-1.07169820561823
-0.808789794156551
-0.66520295457346
-0.562325105500829
-0.457707559903174
-0.413411004390079
-0.36973792450792
-0.244197154611184
-0.135217845388671
-0.119209538067223
-0.0907918332526799
-0.0071570687256221
0.0520547827875413
0.149275437653975
0.407384066977873
0.704086104257993
0.859479037107306
0.960940923513754
1.12701403851313
1.22918180205004
1.15734353444053
1.02550651434347
0.915623406325861
0.760861871967386
0.557778012630219
0.386131078205768
0.245006791818809
0.0988847123286953
-0.0277477807763874
-0.146980129389227
-0.310457876145463
-0.442437768012108
-0.427718740903718
-0.379659579299056
-0.489277281996532
-0.651830571770071
-0.637351797927539
-0.52264666862005
-0.538955680199318
-0.672160625014872
-0.775441804744529
-0.813800051491517
-0.754778390008031
-0.562912559933904
-0.395254764607185
-0.410921731493099
-0.459045682407105
-0.35350743774177
-0.224344876610288
-0.210379174331123
-0.144306772201305
0.113274353641907
0.400590558692503
0.549484426245526
0.588447792869995
0.576525659838162
0.573025045523582
0.680153570125796
0.828709473704419
0.762309717840353
0.447717684538324
0.168002094753623
0.103072523324184
0.186278264646472
0.35800803779341
0.586059329990922
0.725860620463051
0.674972687580675
0.526576803723708
0.367810439392128
0.151915589564678
-0.0936752100314485
-0.226730701304727
-0.250047941184621
-0.294236970192003
-0.343452483751587
-0.325603373521237
-0.348686055060008
-0.475227482296663
-0.507607290851811
-0.348473779868382
-0.230530622985926
-0.313637888926696
-0.455547727592041
-0.531126252274005
-0.557794154085911
-0.495044777463071
-0.31179087352652
-0.136447052659395
-0.0423525573300473
0.0688144389435165
0.191473201636417
0.191585043948046
0.127169743106963
0.164725796305822
0.225503645808853
0.153560944157081
0.0626341277165526
0.109660580728905
0.191283966691226
0.176464615669338
0.104164618985042
-0.0222965687454512
-0.247782600532717
-0.412987572463463
-0.269047370734931
0.175329660541392
0.705610707520708
1.15660723638784
1.38348398041024
1.22578796045481
0.751477356812193
0.292996985277847
0.0487879359986355
-0.0893000002026338
-0.220965336437612
-0.279013497869677
