-0.453709715897128
-0.471894437295134
-0.493330999491838
-0.536241733184425
-0.586503013025899
-0.607721097903391
-0.619082197846952
-0.632397007221194
-0.560874818269247
-0.344185866273036
-0.0835674043818659
0.0881138165925824
0.165045533672678
0.206184253147111
0.246495927418379
0.307004750137392
0.367169311716175
0.360716948150218
0.296685056426351
0.272492190537765
0.300258253762922
0.29188605539158
0.244452021310555
0.232658392482269
0.232133104208465
0.169504095817689
0.0901055121891076
0.0676892511380579
0.0428986439204616
-0.0716664864974531
-0.241376727880252
-0.375684938660474
-0.412170809655285
-0.308996213781894
-0.104904421132144
0.0547536961589556
0.0933708408627717
0.104336496525196
0.168751340460379
0.230885191452288
0.243828586134255
0.249104478467048
0.236559538832904
0.123505069545053
-0.0635941251169226
-0.175263204065521
-0.146037212369936
-0.0490214912825887
0.0416038383498746
0.0848935123116947
0.0397964825753529
-0.057427300818117
-0.0862808788618673
-0.0083120858316693
0.0935940333680264
0.168506978882659
0.228911806090052
0.25704109631598
0.236412090133355
0.210396284431127
0.198915380019832
0.16409614313678
0.110264426051895
0.0786417908143911
0.0483439870408634
-0.0081645160853686
-0.0360618983400866
-0.0086201633266718
-0.0121722225325908
-0.0986474734401208
-0.195957497618705
-0.237515359076389
-0.224134650512535
-0.156356373384349
-0.0688718854734892
-0.0666372904037438
-0.179117228359541
-0.299108800139965
-0.372414481988378
-0.470953874931119
-0.599645151831317
-0.641630581295083
-0.563292103655608
-0.468973743820318
-0.410407985464165
-0.339847856932215
-0.260698245728856
-0.225923130108439
-0.207603738281672
-0.146906836567574
-0.0658106726500542
0.0122739794660695
0.120828644703234
0.227768084709781
0.240227160597283
0.193316826619714
0.228782036543008
0.366502941643575
0.486998930664677
0.517715152740763
0.489140021922837
0.462104174050433
0.48416576034723
0.542769649589176
0.5540420956455
0.48403606689127
0.413103434461067
0.398227924987043
0.408461880864441
0.453476846869304
0.567402343322263
0.63279609108697
0.480290511668369
0.174020319794826
-0.0650145947231658
-0.184397120863377
-0.301731875738166
-0.463308126709434
-0.621950868837747
-0.752819395548236
-0.826527328484917
-0.787928709304449
-0.663762015455634
-0.549253765410674
-0.445245300458284
-0.28525780637233
-0.124846000888787
-0.089450497789199
-0.149759074948649
-0.165939990388425
-0.114831689302221
-0.0808815258404072
-0.0911366320339659
-0.106251448539347
-0.0920923636308771
-0.0287419798615672
0.063390027142794
0.120966204052311
0.142824503347446
0.204037869435447
0.303602780262451
0.35123284196539
0.333967621085033
0.310892415698854
0.266258327002041
0.168926369990354
0.100186701356254
0.130433793641958
0.198266942659538
0.261652886654266
0.37266150239649
0.49391421117357
0.484864301420253
0.3389884883569
0.192602074522508
0.0954883191842191
-0.0059211718584337
-0.119389867488597
-0.229934529679409
-0.36889390683453
-0.520019066006147
-0.582977678478337
-0.518425458168516
-0.391696658267137
-0.241241342999856
-0.0671951539530305
0.0564332288367374
0.0464525376998859
-0.0393722558912766
-0.0929021561320457
-0.126366069689472
-0.196793337347673
-0.271057782509994
-0.286532338060889
-0.218712570693664
-0.0447054104674266
0.208872552027924
0.405825960569712
0.443426140911497
0.383273304663628
0.323924782944565
0.272198031639049
0.220320877208923
0.195740957612491
0.198719877490255
0.226697934767298
0.310882536799735
0.408745936544136
0.402631481503768
0.314918703227558
0.313297206473306
0.419227087687802
0.466484065221777
0.384498278550258
0.245646677082095
0.0562502404866926
-0.21338316873997
-0.455550690011142
-0.543504202439056
-0.539655960930249
-0.585323437051207
-0.692079274827664
-0.789337295095455
-0.850434681639539
-0.86132512708641
-0.79360704198468
-0.680664293792948
-0.607836598041157
-0.618057682686634
-0.719277651580244
-0.898741771394707
-1.03285398145466
-0.944781537860629
-0.651695169850584
-0.368998063136852
-0.217366704872381
-0.130776899738554
-0.049538848709438
0.0125302704232916
0.0663652944208688
0.14687817544581
0.267714998173634
0.448517988398238
0.672806206588674
0.817180946341292
0.785751026546525
0.676632249934302
0.653882116276952
0.743005256247463
0.886826485906369
1.0551447040099
1.19118402288864
1.22569182263656
1.19970806201784
1.19151485711737
1.14429550094212
0.961009479048328
0.701812570188051
0.512997212235378
0.455330664967127
0.520992681552453
0.679102604320861
0.812733855645461
0.771660703447145
0.558872970827508
0.309685010836629
0.0706684418735319
-0.208001632574735
-0.474349952762727
-0.598905739324329
-0.592266866020493
-0.600208256185559
-0.706986383931112
-0.885008946530626
-1.08145801778166
-1.26605499374261
-1.44364426836589
-1.62075273196301
-1.73192094742517
-1.71003955022242
-1.65332203144333
-1.72883602584737
-1.89119407730916
-1.92815267234167
-1.77849356010233
-1.56083593544357
-1.32748495105626
-1.02544144841875
-0.641519490589258
-0.213490482613011
0.193413888915833
0.431197941878127
0.384518208731218
0.196044918510117
0.15937139854159
0.387349684506075
0.793083716316113
1.3113039834484
1.90196476770904
2.43545277305831
2.79411688436988
3.00744265299654
3.14778229629563
3.21090042092938
3.21355426133625
3.28112950054152
3.53631600085136
3.98537993292446
4.52503851019082
4.95411943955605
5.02372644269949
4.5951266763332
3.6956451314501
2.40244317711888
0.839702901317506
-0.720960408032915
-1.99960293026375
-2.9546569865219
-3.71088600019431
-4.32760604264153
-4.80913487019319
-5.20175832689607
-5.52240564552593
-5.73418282601701
-5.87201230179021
-6.03040843841035
-6.23040483357077
-6.48210564800317
-6.89253476833221
-7.47771173432888
-7.95186668253551
-7.90497458243308
-7.12370018688874
-5.66542709523986
-3.76556566274432
-1.71313006198276
0.32224440543539
2.32339954539247
4.20561509967018
5.71711620530848
6.69012087118826
7.21777233285625
7.44757920277806
7.37083015413061
6.93164458699637
6.17668441703013
5.21063290240412
4.15856107392067
3.19864384433099
2.47022691675027
1.96902302584253
1.65569889664089
1.55023082698459
1.60122912520687
1.64030035917088
1.57500912518497
1.45859573019343
1.3389918907512
1.21666279937839
1.11809437024227
1.04051575775374
0.892223942307869
0.611374963632354
0.250125681646454
-0.108560105333504
-0.39589181397565
-0.546268652433213
-0.586743423030315
-0.653503519984011
-0.786953977300803
-0.859712360677066
-0.814490651771935
-0.76411366587912
-0.77560430282544
-0.789599330526062
-0.794905519264694
-0.860160289541124
-1.00337505767162
-1.21453472229097
-1.53266547126119
-1.94506435636838
-2.32062478127655
-2.55939521314043
-2.67405473798193
-2.6571531187498
-2.45098582580252
-2.10662457873153
-1.77455637414678
-1.49906788161502
-1.21086467675749
-0.91099944695421
-0.674851948882694
-0.517902278239667
-0.399854078773625
-0.281583428471314
-0.110301324183964
0.126621250920162
0.328595032310347
0.401419543945701
0.396339154821587
0.416012523702053
0.502506027349402
0.69678020886824
1.02517108402101
1.37053453559167
1.56077594156444
1.60421927296842
1.64668097373021
1.73855171594123
1.81482417553185
1.80218059576646
1.61139403774809
1.18056534315218
0.614261771460228
0.0962078794368692
-0.352397110131439
-0.819425538517507
-1.25322734337677
-1.49551897725805
-1.50891335407681
-1.3879384720063
-1.22124642234337
-1.08098372474879
-1.04304733905478
-1.10140532624016
-1.16126694257149
-1.17532270555769
-1.16789742171671
-1.12469041274191
-1.01058855025401
-0.85505413088028
-0.663919685177176
-0.33787012884508
0.172664821946176
0.744246288855488
1.21008566011932
1.49228460385045
1.59421942967161
1.60676495251232
1.67383096870883
1.81290007338005
1.86341986605586
1.71347773356729
1.43632394661983
1.14457423183132
0.888100761813789
0.718838923798584
0.665355303588315
0.649531531728129
0.58892280826605
0.522262182133478
0.513218566528498
0.541276478536368
0.561881836136761
0.535348486371372
0.387809589325532
0.0976709191867127
-0.229334017715037
-0.507542396241976
-0.777798008434494
-1.04904779046948
-1.20312709365161
-1.17796162160002
-1.07446931031018
-0.987521306942509
-0.905316675941002
-0.833646226729808
-0.829798864596549
-0.882637403441138
-0.935233587553649
-0.98974516396693
-1.01929673629228
-0.892211715941848
-0.564976976174245
-0.204155383701175
0.0262181388352501
0.134518744389907
0.183751978473356
0.188261893176895
0.167545013703228
0.159473367494364
0.187870775513829
0.281960717385992
0.44109820704317
0.569792459254874
0.587362636236768
0.562027485560377
0.581305999713376
0.601029990762064
0.587086237547285
0.628555682262756
0.742741015372759
0.778895238140402
0.652077361216193
0.454530057002559
0.265677232218341
0.0749102034109232
-0.0974262805854552
-0.208622139570509
-0.290688291069205
-0.384531757752311
-0.455668566193986
-0.478526284681159
-0.482953508486857
-0.450731944774976
-0.325043535496724
-0.169022446667965
-0.13334123772233
-0.235252140343317
-0.345027494999277
-0.384786886657678
-0.386033170180492
-0.404754421613229
-0.493761539358993
-0.658923049503655
-0.792230130154215
-0.787303015260696
-0.699446810826896
-0.631934546356127
-0.558361181264307
-0.422528088424886
-0.269358833292797
-0.134779466283621
0.0198943230078895
0.175630823135548
0.25635674753513
0.290377857935978
0.366152637898037
0.460994697672863
0.509014101225353
0.547554822524485
0.627218146040202
0.708504309684027
0.76005037312703
0.793659082936279
0.757707589723673
0.583253537898112
0.323358356640167
0.0735647801608653
-0.16737547312203
-0.397287752654172
-0.498050178308259
-0.383627269090165
-0.140158043236719
0.0987907243052958
0.284957039681906
0.39373270820607
0.399305141189161
0.369186779230894
0.413376802482299
0.509158237571351
0.52126332460825
0.377717730629113
0.124000228578952
-0.123436207541507
-0.230654306187464
-0.171801102942226
-0.0912623105914194
-0.114311742326986
-0.182744642245266
-0.205584834453241
-0.218894783236935
-0.268888035925635
-0.307201357419163
-0.283274996161053
-0.171118739366347
0.0845345953385894
0.451303778276766
0.718937681648214
0.732570490835059
0.587240939140122
0.421989258033297
0.224920753860602
-0.0098358977025178
-0.177183009170207
-0.239440129046923
-0.28650395603925
-0.359379316436296
-0.412102258037071
-0.442588361090243
-0.487660071541221
-0.531836319129157
-0.551287768316835
-0.570421570336812
-0.583867155401938
-0.531770693908611
-0.415686650361841
-0.312137284440396
-0.245169548066362
-0.180496847649211
-0.117110182312481
-0.0477988218584831
0.0798657634067207
0.239056381046051
0.309621901864641
0.283068069987205
0.292614065765965
0.383834431018489
0.453985643165394
0.428686563591262
0.324092358998541
0.179608095275348
0.064504987042256
0.0528931087678799
0.0969034741292697
0.0511354802891707
-0.132936758415144
-0.363152685029683
-0.520528891675854
-0.491897252503284
-0.21583646697042
0.164713126906468
0.370615193223455
0.322561526822675
0.205917925473215
0.151088771751052
0.100619697222875
0.0118787083078706
-0.064768037301643
-0.113226793243226
-0.155498638897323
-0.170651992580882
-0.162126392405673
-0.215817086868476
-0.364142884708651
-0.502073560688819
-0.531634289372727
-0.469292680144272
-0.366139595271374
-0.255912480338745
-0.175334155034077
-0.109601310665559
0.0131048231650647
0.175964059930224
0.259323393285847
0.233538081788033
0.192405928324715
0.189586471531969
0.22707755040794
0.342141028249563
0.520570240491026
0.637352282859135
0.634982464004886
0.604030165847772
0.592545849030829
0.543187557201656
0.471935246482963
0.474702038337159
0.533772709104795
0.534796632149372
0.455899498016723
0.367313014330723
0.315264674332632
0.31839203948064
0.357974143733142
0.328671325111149
0.160723838951558
-0.0277223787908367
-0.0812433109038613
-0.0421075425368736
-0.054374419769334
-0.13574042554305
-0.220115916991063
-0.316110088759327
-0.462338178041675
-0.620961448534279
-0.72963842866453
-0.770495637256559
-0.748415763891743
-0.7130134388166
-0.774255320153109
-0.959561267635403
-1.12850305990187
-1.15346799128776
-1.07138168644916
-0.975729972021889
-0.906516049103135
-0.875103804793127
-0.841574141762141
-0.700277661437702
-0.428387891950825
-0.156099245772838
0.0171934497831196
0.132744750827877
0.238490447956375
0.330240672881469
0.447611284678214
0.635882696305549
0.838681872054608
0.99649930284338
1.1511743815672
1.30761369352189
1.36080333906318
1.28147084978885
1.17259674281784
1.07372341887583
0.930576066837233
0.76862595967418
0.670882004724253
0.613404859035679
0.520019485183404
0.41131383208161
0.339481745863148
0.279839539367135
0.215224064193943
0.193740128397764
0.199085356459162
0.118471628471542
-0.0851970433537469
-0.329944599951416
-0.564808015348822
-0.793683241588735
-0.980231138678474
-1.08916621577736
-1.15062166102256
-1.1732916583688
-1.11805973098795
-1.01705110029477
-0.958303485194734
-0.932684893107901
-0.846069408278852
-0.650243151442852
-0.346953168727126
0.0414654867228706
0.417133900449147
0.645114571971732
0.687541212107957
0.589551358997082
0.396958721161039
0.214763716386516
0.183124678661887
0.240493286552496
0.132901332852262
-0.18909746525653
-0.436703429119357
-0.371427502748017
-0.0776830615144572
0.224831779321479
0.409033800585148
0.455243934035884
0.427902271257327
0.431486909902325
0.484529679198434
0.512977131282766
0.51196449356958
0.547805546185073
0.561997775579916
0.397364661486708
0.0654848573785045
-0.246813562387491
-0.456909458755983
-0.634594215844982
-0.790581065786121
-0.844876660136342
-0.767840609623213
-0.587890086700285
-0.332190441502952
-0.0516594057660032
0.191617048386657
0.378612003791263
0.483820852682751
0.450481528757021
0.316946299928397
0.231388032774055
0.247212344026927
0.265576764255052
0.230315979961796
0.185075733295454
0.121593305621125
-0.0219408461219959
-0.21512335952271
-0.35092718070364
-0.35815320775251
-0.209292888730831
0.0533473666256988
0.254344919899081
0.230919484071982
0.055121025462269
-0.0714898124989625
-0.0964040084467718
-0.102400620982005
-0.109785249986754
-0.0901040696464906
-0.0821211090532022
-0.122683679780846
-0.158968062169798
-0.151295478993484
-0.143785285702379
-0.162568254359915
-0.187434288300257
-0.232935536993337
-0.296689054724597
-0.289591987037035
-0.181530137777745
-0.0862966845509504
-0.0555402607074525
0.0235181607173177
0.202882787481454
0.355487260446895
0.367781267865041
0.266186319927131
0.129761701028989
0.02710995757772
0.0026995584389238
0.0243761811253645
0.0277040164705705
0.0403902954310315
0.122135087641909
0.211764169697702
0.217089266379652
0.190330248391347
0.233289643099893
0.328148918372055
0.405196288865701
0.445886351183938
0.435481923810367
0.368069747104242
0.313597182005185
0.322091346874121
0.316120795550579
0.229147301516667
0.138785951114095
0.121822251405003
0.122546119286893
0.0872040987589052
0.0586858342848983
0.0364334090004662
-0.0655069647627041
-0.240078148305517
-0.365682954828521
-0.406267400846821
-0.441496710099843
-0.509341108822024
-0.59316934356395
-0.699366834187148
-0.806797290191076
-0.841126799849622
-0.780273843187688
-0.664541030291389
-0.502726573267359
-0.307408629899861
-0.158699219964651
-0.0960711977069627
-0.0502913512261275
0.0208409410272378
0.0723402826951888
0.0949764636106296
0.127135833043448
0.144574675881642
0.112255913889273
0.0903113581857897
0.132063848840346
0.186812730842558
0.2184800528505
0.258605725839088
0.283827139367747
0.242198491454142
0.197197951923956
0.225965111158226
0.239255004318382
0.12864893540272
-0.0142034324992682
-0.0439375573167186
0.0054684760195933
0.0336642137071649
0.0681274748935991
0.16527202873869
0.275267537800465
0.345627839999131
0.39600634196302
0.410940290218804
0.332643218465523
0.182927571871807
0.0389866533671061
-0.0670202818168288
-0.117498255441563
-0.0999696308488701
-0.0911679379152198
-0.183953047496682
-0.319742967785861
-0.376760974192053
-0.379323241802375
-0.440663052096921
-0.58601774687312
-0.773310861425572
-0.957365716852253
-1.04740169948538
-0.980171120659522
-0.87502168968932
-0.912745874293099
-1.06679659884361
-1.15226095303368
-1.08280996454328
-0.907876986251201
-0.696655239135416
-0.508653743435368
-0.356039448269442
-0.146984628675973
0.194780226616198
0.584698889773227
0.905858534862118
1.1978506104544
1.55732262819605
1.958910689478
2.31666512653782
2.59414727662346
2.74844697881888
2.73524965716374
2.64902030113107
2.65692661039132
2.74729407764369
2.75408937137808
2.61857863733525
2.41163212819975
2.16115917229695
1.85712909135324
1.54044052870395
1.25036022252765
0.985063876386108
0.756382693874755
0.558073440213565
0.308537426559985
-0.0529958317018489
-0.494375355362654
-0.992641816202796
-1.56048943243715
-2.12036526841278
-2.52909131837915
-2.74267698459227
-2.80129762931488
-2.73550922997319
-2.65752139616639
-2.78113146667275
-3.15978564554378
-3.57897071362329
-3.83584813653452
-3.91875787267632
-3.86114780024098
-3.68075983744711
-3.49930259200922
-3.47981382262067
-3.62770335951994
-3.8189270124695
-3.95395774405264
-3.92550316280971
-3.55622738388059
-2.74703077296846
-1.59238710988499
-0.248740033330116
1.17084716234677
2.52207530310094
3.63313909655555
4.4169651291872
4.84637916706719
4.88261719621308
4.55976744357289
4.03304346264774
3.45453771966524
2.91863517559542
2.51758722084916
2.27826686899463
2.09283813897803
1.86797190834375
1.6420923028478
1.443882897543
1.21073471996427
0.944871197345432
0.74716311967032
0.629749466506692
0.495104849972606
0.317035689735463
0.166364898169801
0.100004965561927
0.152707473012716
0.325063840849332
0.497268489253915
0.51756546904912
0.410770926475339
0.323140581072952
0.295105601104277
0.286457808835802
0.350896053334328
0.566402990470223
0.852561455281499
1.03769683025939
1.04239377722886
0.870795327532579
0.528826877491142
0.0593926278406273
-0.456324892823342
-0.982636497544937
-1.48475685640004
-1.83033211182113
-1.90308049934444
-1.76097131851258
-1.55324159946921
-1.37816938263592
-1.28326254231076
-1.24896582229796
-1.15681996818263
-0.941183744758328
-0.724138105143924
-0.641208165945645
-0.646111953481369
-0.627598420986284
-0.556420829175633
-0.406373002802044
-0.120553632482621
0.274899550388462
0.703847950474271
1.16952922123118
1.67688609816948
2.13642432493752
2.51158918229989
2.86993489121479
3.13502654463032
3.03754863982768
2.46617587557989
1.63577182758998
0.805322512434675
0.0367512979955176
-0.724828024871506
-1.52990088134441
-2.40072259339811
-3.26785392682845
-3.94193158149677
-4.26507990383905
-4.25133427462271
-4.03115394193298
-3.76156284346971
-3.5861436439475
-3.51398826415608
-3.35626577075246
-2.93905796032804
-2.3074973332008
-1.60562881450605
-0.914492129192161
-0.314736157979236
0.0846424120762101
0.275180894516191
0.368603757204738
0.497089549831581
0.807825161559972
1.43340220448773
2.32090802164441
3.21725826254792
3.89949811097365
4.25615859408236
4.16834266383405
3.5821159988807
2.6809023786227
1.73120127277236
0.822583732090121
-0.0282075444298001
-0.676357686499703
-0.984337052291404
-1.01043766073418
-0.896434448648526
-0.702355852389706
-0.421451190700668
-0.0119946629710903
0.586173537830052
1.31420607054717
1.91193958188985
2.10949828686667
1.83834444570647
1.18034323019931
0.280667493819165
-0.58250519820154
-1.05722213079715
-1.00133628185611
-0.580181062732688
-0.0496643189991957
0.418175040643692
0.752371354847158
0.990780951741911
1.20056656606187
1.30759742630541
1.14455623769058
0.70901722535344
0.210133340059141
-0.14099974955007
-0.258386951909909
-0.188053962378393
-0.110036417788641
-0.199050267885466
-0.402309460758579
-0.519728192911667
-0.504053686796525
-0.460376695395915
-0.406261890202055
-0.293562519545102
-0.188204973875973
-0.194652817664004
-0.306831588158128
-0.47898961865036
-0.675386797742176
-0.78046515224943
-0.68296446101769
-0.474684119323566
-0.348835222818715
-0.340749522799189
-0.375456170358516
-0.466256921615259
-0.639918127438245
-0.781602558202312
-0.773506717619489
-0.683282286399896
-0.652620042135401
-0.720580373975181
-0.852561060536022
-0.992094104391792
-1.04617422909309
-0.973475713029964
-0.857969730806429
-0.766032742849582
-0.635255777020051
-0.405052389936106
-0.106766355184137
0.226201546012781
0.563783976563257
0.804430934596056
0.872922561371788
0.834225323378398
0.765031456083873
0.63345309055439
0.422175193681211
0.213300983642505
0.0812742372114816
0.0640843069792082
0.215619272471208
0.493104495040951
0.687402122148297
0.664651858313271
0.536618205426221
0.438452627675329
0.344314511146618
0.226787059205254
0.164476123742011
0.189948184335122
0.232109216145606
0.25165419863777
0.265006320601946
0.257492295525361
0.226872443805022
0.240985134417572
0.309469168117213
0.30456468088365
0.129321239948838
-0.166798166217563
-0.506346824294594
-0.843959338732048
-1.08627978250408
-1.14575472276083
-1.06412322248365
-0.924895158145252
-0.711400518820302
-0.368092613307058
0.100517527284931
0.640368544510913
1.12786264958471
1.37061841755555
1.29379391483105
1.06880763641835
0.920769068145714
0.902791890422753
0.938529365864105
0.930305004551451
0.778530511909944
0.473728854528706
0.170242151898075
0.0011305870736048
-0.103157723059227
-0.256522615873877
-0.431090972413774
-0.574388732470428
-0.723600019786061
-0.895756338901484
-1.06165542912561
-1.27122074362793
-1.59796745959939
-1.97061832251458
-2.25964128193143
-2.4639192049926
-2.61014003520684
-2.57383830160338
-2.20960550252412
-1.54625181710205
-0.685097194144786
0.33668146923216
1.429209837847
2.36322789743129
2.91752084939149
2.99943400339399
2.63395041660662
1.97480812702165
1.26132730825747
0.653130254145506
0.197406752710898
-0.0361918066431116
0.0209724453919608
0.283780015312708
0.573024093722632
0.789357545026736
0.892635726093639
0.836682078203597
0.662401849124417
0.51034289728863
0.447113549201227
0.417871329389379
0.365968003392802
0.237794427997198
-0.0409210833360402
-0.412890151663356
-0.655691488920647
-0.657185199992201
-0.538538223851062
-0.393846109868775
-0.141259527279876
0.270926776960138
0.73024610016826
1.1047530544955
1.35833311653194
1.50975961271721
1.60685076767542
1.70186243855639
1.74817755301951
1.60747844482149
1.24174503225869
0.777870697039759
0.342709540897802
-0.0087621305138607
-0.219168746596076
-0.282161731266552
-0.325398004046858
-0.462724106824333
-0.657268095860047
-0.862833096864778
-1.14612136914522
-1.56432249074554
-2.08465732585632
-2.67373398664844
-3.31406550154104
-3.94034491588527
-4.47193572296322
-4.83946991052155
-4.93349790668822
-4.68075648047377
-4.17946783968159
-3.56632889672706
-2.80629634147403
-1.83642245720468
-0.793481182870788
0.141740255825104
0.964707421574735
1.71146261685552
2.31543593572423
2.75492090635746
3.10442235386259
3.33700187836495
3.32155867637894
3.07224279475521
2.76645385108451
2.49626652807841
2.20760266726851
1.86358815200327
1.48773794479067
1.10624071727195
0.795966313738945
0.678924929895505
0.742168778967486
0.798749700343628
0.712937982828782
0.526603347241517
0.342486095463835
0.217377738628949
0.147357305656714
0.073317155717514
-0.0328351709336874
-0.0901217630049202
-0.0473194921903322
-0.0272750708297729
-0.151394278734264
-0.333158220852072
-0.433504502364563
-0.468733210381753
-0.495485904146035
-0.481212531852381
-0.433286926162569
-0.447423769550094
-0.519782810387088
-0.508677560046701
-0.335290918579366
-0.0620359731184829
0.20382571530458
0.363662709834208
0.376044762987862
0.330395049916859
0.351167705091211
0.422709518050615
0.467350120973339
0.545678760361936
0.775124459794527
1.09855240328284
1.33086972925178
1.38998546807334
1.32661872110781
1.2026426099737
1.06316816114464
0.919680573961615
0.689055498858245
0.306083276245647
-0.0878044410042897
-0.272584209363258
-0.24623977222659
-0.192225074003556
-0.220313111940839
-0.317472573868124
-0.451532993789632
-0.585737650680284
-0.687022900879502
-0.764162605162322
-0.805682957852839
-0.74659385419839
-0.601116557692127
-0.481892186007789
-0.390488440964436
-0.20255699765193
0.0473648362030335
0.105799691038004
-0.204546994371831
-0.837956452009351
-1.65684811346639
-2.49945516653709
-3.18668251554148
-3.64550952075627
-3.93803272799174
-4.08314660075934
-4.01154932952266
-3.7383184371544
-3.37877607573074
-2.95765045055234
-2.3708912879116
-1.53845122004473
-0.471984003842419
0.742059305306914
1.89844446930905
2.71115747754251
3.0289532061181
2.93538967595767
2.59461088979331
2.14166220003197
1.71330961756127
1.39163291198547
1.14508421646704
0.973025116818511
0.97702376179176
1.14789180291367
1.28739697136166
1.28630453413399
1.27839469868261
1.43091700330941
1.77085414144846
2.22305246705293
2.63071026770556
2.78642018001287
2.60673291993339
2.20355039360986
1.71444210359525
1.21773562616937
0.825543269112042
0.634206367145711
0.579329030280042
0.536491335385319
0.5013147066003
0.501773343591208
0.460803345555548
0.293904437856597
0.0089105764281648
-0.363618413495586
-0.781832812348234
-1.1212575189419
-1.27001712968755
-1.28945375940931
-1.32345682805284
-1.39133876946687
-1.41706419671211
-1.38591625995577
-1.32522258690366
-1.21649362507223
-1.04607481470234
-0.862194020121188
-0.733229442123979
-0.725423859608286
-0.870755829886682
-1.07043437849215
-1.15746810196438
-1.12985438715099
-1.14276518222872
-1.2346517893175
-1.28126284564437
-1.21857705649965
-1.08414994217868
-0.883107456007093
-0.622421098007299
-0.391868159568952
-0.244414609399153
-0.120719233093004
0.0086974734825228
0.0997687533064075
0.167383076348698
0.256757310663145
0.318061407392451
0.3257847138661
0.415511993562245
0.681932375518891
0.98621500720272
1.15136686311396
1.1865419076596
1.18867389345332
1.19010388182575
1.17561708270379
1.09834171034643
0.872951877166755
0.495112943339315
0.11939998486952
-0.109646556628194
-0.204581792510095
-0.210471423653464
-0.105420659791246
0.0692192481000716
0.18447369310687
0.215059622138798
0.25352668382882
0.314125447701094
0.327032387017116
0.295391317780981
0.281258057037022
0.304730205305673
0.364131309900144
0.440171096555845
0.441970620367588
0.299091239256112
0.0914562996247786
-0.057689548189207
-0.14218235119747
-0.205840686752025
-0.251339317091932
-0.30378675399407
-0.387748337092348
-0.407709502777987
-0.264113788994578
-0.0660453748621308
-0.0036112600008877
-0.0824010662943692
-0.186146225995127
-0.272454026188597
-0.335432561852489
-0.336198361517276
-0.302286289594642
-0.339414986633989
-0.473448124626027
-0.623164025780838
-0.734121511031326
-0.797870949048274
-0.781394218205815
-0.680788174212748
-0.577381969031256
-0.523034673910844
-0.472892467835376
-0.40205109323616
-0.324815426961036
-0.164335127513668
0.184022002325183
0.640480285280193
0.983473882083096
1.07824666354044
0.93347942468899
0.640039252990492
0.351927403309946
0.186202615384241
0.0969484565032458
-0.0163794690588528
-0.132482804023856
-0.200487212446391
-0.283391944304206
-0.429105457605697
-0.541456647606452
-0.530139542675352
-0.431698851529968
-0.285435572197612
-0.0602723747411361
0.253203007793373
0.633719998788201
1.08061585811809
1.53869292411128
1.86269965182937
1.96119202103022
1.86682579224378
1.64254604683462
1.37043625346035
1.19049926858619
1.14997379320626
1.06961061765618
0.758161199216419
0.282524045215442
-0.160257158287645
-0.525194451098378
-0.887636758030398
-1.26154633517507
-1.61613006693352
-1.94601589221943
-2.22923031134249
-2.447758928025
-2.644130402455
-2.80315017755789
-2.76851738829247
-2.44671089843186
-1.96633728249857
-1.50761875795889
-1.13456461953838
-0.86012257247737
-0.682184185223617
-0.52411881932485
-0.303525810209561
-0.0260547699465853
0.300683109297399
0.720891890451748
1.21394299910256
1.69621831689142
2.16134584610169
2.60632322810093
2.86963134657194
2.79229492773067
2.44965504120475
2.00592377982742
1.50003213308902
0.968323188822092
0.568289186337553
0.39208592866649
0.337667907450516
0.289108192898701
0.258889709771357
0.281698561776047
0.322931426848539
0.332698849814979
0.272435439915115
0.107633424926592
-0.121739848853591
-0.296666718738031
-0.373100604507713
-0.425544270154098
-0.485467796700757
-0.494253001284801
-0.440574063248322
-0.386896783843072
-0.377091735225745
-0.431745025649588
-0.544036067334403
-0.604712340830467
-0.482930060378156
-0.224467642257473
-0.0027938586707962
0.106939580744429
0.133936999062613
0.0826501242263272
-0.0295382684011188
-0.142292946669024
-0.301462364304305
-0.654261652310804
-1.19050100362814
-1.69350649078508
-1.99665482626072
-2.0806665156705
-1.94239085579005
-1.58907482164111
-1.1165517960887
-0.625849360324239
-0.141322203021644
0.297982846011224
0.600190360768845
0.731975645622242
0.73054579452807
0.603039101951918
0.37194660658088
0.185857340729947
0.200507675937506
0.378326059096376
0.550684508577013
0.60592163414961
0.51359076128684
0.307515739915236
0.129739897221758
0.118828928803726
0.220334407060681
0.287463003582211
0.326474543457138
0.444231905947146
0.631230099788578
0.774009686621536
0.799011033487268
0.702262295908365
0.538093920723023
0.405216810179301
0.340730383219825
0.280479275661129
0.220032729889421
0.282357622043133
0.521324425185967
0.815033443505933
1.02368957463903
1.08774857567758
0.968837743837264
0.680447631348479
0.341450867485237
0.0519785842785101
-0.187848293145013
-0.351557420338049
-0.362240080550929
-0.262286225232253
-0.201099664435867
-0.216695465488857
-0.226801186927531
-0.223373514525944
-0.273089681656746
-0.366088628976197
-0.459868687752199
-0.599794766050764
-0.805101007835329
-0.942935074358523
-0.905918844823442
-0.797121899137553
-0.784539900084205
-0.894072883618158
-1.0352704419927
-1.10449935395785
-1.03642806627778
-0.861377325880327
-0.681767056176566
-0.538432939206177
-0.397850390080538
-0.273609346679154
-0.208370807296111
-0.165158118330756
-0.0947605098799537
-0.0387756259279043
-0.0275957796584828
0.0034891135327813
0.0903004930329632
0.18913843278702
0.303912875828135
0.475801093524777
0.650022203654786
0.753588162344342
0.83999554041925
0.965405710091719
1.05192533674501
1.04950965339427
1.05779588232799
1.13485405757847
1.17911952008424
1.12296968421002
1.04806672760944
1.01465370481916
0.960410192235372
0.83692225342424
0.686507086987057
0.555831160517664
0.468331646498338
0.450916594330218
0.464264858138182
0.380771493878979
0.127917417367121
-0.236272874727641
-0.612458914405718
-0.908256597559989
-1.04433179643718
-1.03936708553694
-1.00664368443009
-0.995849982359004
-0.985550634800459
-1.04258426914233
-1.2647380856338
-1.56629579702202
-1.74955107088254
-1.75850989954062
-1.66826456193707
-1.51856904131223
-1.33465544616676
-1.18545736405442
-1.08586554766547
-0.971426302156432
-0.811943091811006
-0.5977415829829
-0.262610891920799
0.199987644330711
0.639290805225692
0.920075923951447
1.05999940270724
1.09735480110806
1.00758216389031
0.82891283420742
0.683965894369266
0.623877862110315
0.607227019825788
0.627542971557562
0.705591522202561
0.798578982834622
0.863295999912154
0.933097644573282
1.02328076695761
1.09223161703405
1.1692885637025
1.3418607626833
1.57961155200219
1.75936467282443
1.83756161997153
1.81597833008071
1.63086398562289
1.25502518074138
0.799283527184412
0.396235023652738
0.115130928864786
0.0188889256761682
0.117870164624798
0.265797622244187
0.273267154673727
0.0876039186220274
-0.243193765169181
-0.647822041300318
-0.989386511329616
-1.14213465927395
-1.17743696461064
-1.28566599955727
-1.51997172199463
-1.79944994003526
-2.08272831058862
-2.35895509398293
-2.58100774966829
-2.73961964458556
-2.86784204950153
-2.90899839803866
-2.74928658587063
-2.40185485866413
-1.97874624596256
-1.50310421606244
-0.942800716175457
-0.373299957133386
0.100738089558347
0.517186727276973
0.97065460105408
1.45081405454186
1.88995022470426
2.23554956571126
2.40795823670392
2.34280665375473
2.09152221724828
1.75503298843012
1.39060660592802
1.0824313310445
0.949261408919788
0.982666042027448
1.03106851965164
0.983828373942003
0.832253477119679
0.604781045400404
0.39174325954853
0.31323341387094
0.32886599642582
0.257861051234075
0.0827001581186405
-0.0046033639221612
0.0784097093112986
0.197445689433424
0.229111662260211
0.148380734803019
-0.0686404420311447
-0.400490352981617
-0.708018408056424
-0.874525240773351
-0.925286574552278
-0.916559205638128
-0.840948242906991
-0.700383584957476
-0.533411026765044
-0.347675035764948
-0.151882701765252
-0.0216177827109417
-0.0037576972558945
-0.0312880361136161
-0.0450574061254813
-0.0750392890182176
-0.121991044894843
-0.13168526321012
-0.126996105718412
-0.172510654850332
-0.220641528572565
-0.181358879335754
-0.078514211223317
0.0211708054085256
0.120918251902158
0.226249211241148
0.310627595535861
0.395391012848283
0.500186816678407
0.537455730586203
0.433162120262345
0.275684899233783
0.182548910921035
0.144107527385944
0.123364757805671
0.138433767837059
0.159614509922197
0.106952732001467
-0.0237733280149479
-0.190753549534083
-0.390104464090143
-0.560156420647168
-0.548547325877481
-0.326600714621443
-0.0784459119334802
0.0343099902731781
0.0340207440438814
-0.0059454404997772
-0.0742479837524076
-0.156304967827049
-0.218693210437894
-0.276365404286125
-0.348118879037519
-0.390328759666345
-0.384325385863008
-0.38323910694362
-0.384424976142495
-0.308339468079077
-0.157648991824567
-0.0271493652334756
0.0476149545925662
0.0994799794432362
0.152911178043849
0.252872818122841
0.437471260621007
0.609888328292573
0.61680491931895
0.481399773148634
0.364542958402725
0.322042381033962
0.292813519401147
0.249916239405691
0.186465804416316
0.0637733450081761
-0.0935876326413946
-0.192253221887351
-0.224307926525613
-0.254660938786018
-0.259355240962522
-0.173059635122316
-0.0473966137871151
0.0186753644471164
0.0197990949155643
-0.0120486832911571
-0.0738229963178052
-0.12427758878475
-0.112536317707801
-0.107394115313504
-0.2184166260435
-0.391138420945176
-0.469443772526413
-0.424167394785561
-0.331339929968912
-0.205169627513904
-0.0441905066093177
0.0665242330385951
0.0682970165575033
0.0253641298756888
0.0132591829137956
0.0503151978464534
0.152589104029565
0.296070600697331
0.369716013255353
0.314095053981963
0.219963782006591
0.187369844710301
0.209081966586286
0.242212542730769
0.259418599546319
0.237428642785587
0.215124406241842
0.280867517866088
0.404332084845003
0.438145848453046
0.361038317182576
0.305594411524333
0.304600415822296
0.258069417772763
0.151407597752152
0.0586266865824809
-0.0214846240709491
-0.116270826421495
-0.167419082667695
-0.137142989268619
-0.0914817078836068
-0.0692288146702012
-0.0296419535260273
0.0115263997432212
-0.0236654875898348
-0.115734023519518
-0.162359381847799
-0.150303576509793
-0.147573201280199
-0.172202098767522
-0.214713142306112
-0.291283393237224
-0.360952806038031
-0.337414123816249
-0.248786234309058
-0.210097013630977
-0.235374548828748
-0.259269179128399
-0.281172521539983
-0.317898993325273
-0.318668560070567
-0.248576906924365
-0.126470222746728
0.0566982064727309
0.285247564030595
0.412266158532063
0.305480049233759
0.0468630959656601
-0.174982408038325
-0.270407378135715
-0.243879757642842
-0.151506145487597
-0.125631012930783
-0.247030815363142
-0.386727062576722
-0.365896502166389
-0.206748007259209
-0.050336091747774
0.0451533919684976
0.0731487687840245
0.0099188433829718
-0.101051142302239
-0.153663563415284
-0.136175769586295
-0.133375341753635
-0.166039523007401
-0.192380961613595
-0.231399078063065
-0.300091381174127
-0.289921240906372
-0.094467576244213
0.208775446175893
0.446948054824633
0.532615961741183
0.493007314545959
0.449704354171629
0.56624120009453
0.868204663061693
1.17261032735929
1.31530115456748
1.32103774923728
1.25959575376984
1.11929658059709
0.899463910361185
0.648790020087701
0.387447029610567
0.144348908199027
0.009555950002795
-0.0085842663288253
-0.0689088457679699
-0.296343060700356
-0.615821020055628
-0.864083762672015
-0.925461500623403
-0.759526024086786
-0.465543253295726
-0.266640978118369
-0.269584575816408
-0.340529640230536
-0.341169616596766
-0.326628361166814
-0.392498469766298
-0.50171479748998
-0.574965030254753
-0.602208935903585
-0.58928023353315
-0.531099476370798
-0.471719734021243
-0.462359287318775
-0.472256705920516
-0.450180312931951
-0.398290258343207
-0.299156574224036
-0.108332647398474
0.119045157350936
0.259733321527421
0.294454490747602
0.292801708076433
0.287415586771296
0.30328007169177
0.388854333336515
0.507561367867802
0.55582445510382
0.543382256874837
0.573512982042897
0.645210256648048
0.662027518690545
0.590912368857886
0.45704627441601
0.285644993914799
0.158878274019592
0.16229953637356
0.206566631563285
0.114186330985518
-0.0931307283975658
-0.221079379387753
-0.195412489756165
-0.118658495940876
-0.0960994902824557
-0.172409814712199
-0.350452528762008
-0.558842510293671
-0.70248007189004
-0.789954979560374
-0.889472083843573
-0.974953880565354
-0.971465576815888
-0.908121818201535
-0.861436811109443
-0.823721493108657
-0.773937163298765
-0.746910922264544
-0.710408949334257
-0.559132796282002
-0.318474156707346
-0.141069148227241
-0.0653113799035195
0.0120944421952716
0.15220063740608
0.346230119780232
0.581546489568687
0.797849898382751
0.910409630454951
0.946249654059853
0.991223020071629
1.0079940341361
0.906136561121805
0.738236858250845
0.62604697212714
0.582878515576552
0.573818557573497
0.61977238573746
0.720334647937185
0.817446164138034
0.879918336781639
0.880526192269039
0.746885179833771
0.493945127291077
0.28203962985769
0.19543956420615
0.129168026762422
0.0118751786221395
-0.0629722772132084
-0.0303671372425308
0.0300674573930377
0.0553371829617545
0.0864564244741857
0.148027327054172
0.212234531047638
0.27883936586877
0.342301919804339
0.346403100286827
0.293486225111485
0.277731469133211
0.331305756951968
0.389014919876603
0.413092422082953
0.382312293794878
0.223170965384522
-0.0714201894441998
-0.362092034979265
-0.535518038551607
-0.617227278520349
-0.65471379356589
-0.670993398903452
-0.733765043068506
-0.875894664737768
-1.00393872018174
-1.06092934088556
-1.15609129677837
-1.38142826369886
-1.67133992571941
-1.9499823660075
-2.2100377274256
-2.39399470626651
-2.41863709449217
-2.31635370863112
-2.15683222758839
-1.89634096673956
-1.4742600285856
-0.954286314841711
-0.443923530889672
0.0036996074206443
0.340579299466125
0.527679487627203
0.627869596159107
0.749444682945973
0.901752994513507
1.04479512130209
1.21122391297836
1.42697039286786
1.62368969888592
1.7650123210728
1.90599521020409
2.03609751667056
2.05819766094424
1.97367615310188
1.88909894648745
1.8395622446728
1.7738914984767
1.65160949385381
1.42790016479369
1.06185690523756
0.628697520731738
0.289324086131367
0.120058006751686
0.0946184749686965
0.168206523313543
0.251573480680182
0.237703449402374
0.161869104693497
0.143781263391224
0.121496310355644
-0.0904696861352957
-0.459267851364563
-0.739050470229654
-0.803077169913593
-0.721235458157251
-0.594033543825577
-0.52742497994108
-0.636055800817994
-0.889540224883833
-1.1010177447792
-1.17577594308767
-1.19680125272809
-1.21984242158623
-1.20372028495164
-1.16065107038836
-1.13298748194456
-1.02948987520001
-0.733344918951188
-0.34301406142113
-0.0839290845836504
-0.0313804233571611
-0.0770319794543988
-0.0875894409796382
-0.0079924969551354
0.105993345185614
0.147968144251512
0.11493450191443
0.113945123680077
0.173358179853566
0.207413103640908
0.187797222477593
0.157657625905983
0.0995966642300723
-0.0043604849665495
-0.0542674962570371
0.0302648644644274
0.174908694323677
0.311532154105417
0.495624558734157
0.740530693777117
0.945313005362343
1.05820693399491
1.09483701089601
0.996680291263163
0.697617749602553
0.290322915471141
-0.0643627815154475
-0.318362180830874
-0.492537869809004
-0.573480733312555
-0.566636442975205
-0.529941622871255
-0.477057135640346
-0.362533101633756
-0.193819645491272
-0.0440075393638517
0.0305791123857096
-0.0061302169042783
-0.152700597692687
-0.27566743628242
-0.196546363535813
0.0662845519285566
0.339201307962076
0.569244329573092
0.818044736308406
1.03784055269131
1.1143256550476
1.06626201270582
0.998066652396076
0.950265278174023
0.921116199298222
0.894765678165253
0.78696650926593
0.526278693661889
0.190705802961615
-0.0944323097392322
-0.328906740349919
-0.562766052733996
-0.769616615070744
-0.917476180596432
-1.02816882023014
-1.10770467229875
-1.16507801657073
-1.27211289811169
-1.44278170172741
-1.54806876167947
-1.5079199715793
-1.42596670290712
-1.39389514681184
-1.32963779669661
-1.13096255968406
-0.823279024934792
-0.468649525455154
-0.0972968531479071
0.218546065337106
0.39642643623716
0.471450180215317
0.538047169821226
0.597815112201784
0.60223389266153
0.564000643291598
0.518501891596399
0.477058250552166
0.45819238258606
0.455148221718907
0.418288086639147
0.376383725921081
0.443745888010837
0.608520788711291
0.704503984367
0.667130922309181
0.597003794497935
0.540969260109185
0.447398764609061
0.324785842040929
0.223736344496433
0.126502272663203
0.0285239719239602
-0.0069142595596588
0.0004735453891281
-0.0568138357834246
-0.160075483598957
-0.190344104874453
-0.178173677046324
-0.260802345365114
-0.421094846385243
-0.521692394825824
-0.539024154618851
-0.55073218948652
-0.571225862847479
-0.562531371789397
-0.513409328567206
-0.402079877425446
-0.202021330385199
0.0142869007817266
0.122766688801849
0.121165561189179
0.111121467845744
0.144683839420535
0.222789351643645
0.345863599494381
0.453592612862057
0.45912052009363
0.411936105816304
0.461190215540384
0.64331156904938
0.861991636470357
1.03244117635859
1.12205329982803
1.14593508059667
1.19305573226151
1.32361569623595
1.44304550156708
1.4412927362507
1.37770972052772
1.33947253124976
1.26063474490519
1.08250678042206
0.91176757752725
0.836561892897558
0.778028564969485
0.644302968519249
0.432022382547146
0.130637790783881
-0.275033721132828
-0.715672321026822
-1.10432307644464
-1.42785881223146
-1.68410999329114
-1.86188064280864
-2.03933749620926
-2.32795886990883
-2.67914158907668
-2.93086832378958
-3.05544605207249
-3.16071827893492
-3.26143880462673
-3.25581133433836
-3.09481345161427
-2.80132175364067
-2.39785547263079
-1.949176361472
-1.56577499357001
-1.2775507169558
-1.01186262364164
-0.702767776928503
-0.315661632111858
0.168959377946905
0.698918226502264
1.18434800989595
1.63733527235335
2.13365488005219
2.63938946959528
3.03911860288048
3.27587453429382
3.30339171300718
3.03244770906681
2.49000146163643
1.86737448215974
1.29510187458917
0.775429696221583
0.376121841503228
0.216982504663554
0.246234056086286
0.288294161113859
0.285153033779302
0.288416668233642
0.319660938599053
0.413679506728358
0.651257040645464
1.00162864657915
1.29291246044683
1.44898027225966
1.58831517925507
1.81605171574444
2.09045047253894
2.32181624918769
2.4262767385228
2.30755586440004
1.96495344279234
1.55779730706842
1.22364822496951
0.937980273192877
0.628431156405357
0.267648151714975
-0.179581872586041
-0.727146286828208
-1.28765109173811
-1.75360549844572
-2.09670540907004
-2.30898382551691
-2.38236662137883
-2.40457871345225
-2.51561975571044
-2.74327454220548
-3.01995151195412
-3.30947162588437
-3.57773950091427
-3.74410971601879
-3.78230824889587
-3.73750784130134
-3.58848720493177
-3.26020428468062
-2.76640489683919
-2.16758852928811
-1.46605826174591
-0.708177310127128
-0.0519801343363713
0.419886059818763
0.783574051256393
1.04873000731628
1.05755131664827
0.733276949017596
0.236897705938621
-0.214072939243087
-0.499839045651372
-0.544572047934876
-0.326256415749127
0.0348556769909667
0.363757113060253
0.580896591655386
0.680986044866087
0.696766228967075
0.746322472378192
0.938658998179105
1.21174388785655
1.44804532298929
1.70544968903595
2.13868818465188
2.76152536408908
3.44609415726501
4.07123927451808
4.57152805356151
4.93003811293147
5.14548589785558
5.13076959413208
4.74232544306719
4.02477012606245
3.27103819099703
2.72097237312716
2.37353778227571
2.15279175849037
2.03304992497795
1.96413011988908
1.87228834840505
1.71252867828177
1.38326684775576
0.731283032222407
-0.202396433909118
-1.11312899598027
-1.75958151342992
-2.20274113547835
-2.61740843080391
-3.04045577454242
-3.39622963256406
-3.62578402104169
-3.75483075851982
-3.94653050123828
-4.41507841183822
-5.15078759736207
-5.85523447948183
-6.25365479472325
-6.28553920785855
-5.9365686132801
-5.15665938524225
-4.02333604914363
-2.77048450570986
-1.63838686198877
-0.834849661940109
-0.53218613851493
-0.737548751931118
-1.26188397163321
-1.87370606156898
-2.33880552722104
-2.35584128784421
-1.71015333717172
-0.497925133297655
0.96248438606249
2.35267496888442
3.38395197114407
3.83377281045442
3.7298736636849
3.33366796316765
2.8552738409177
2.34247956311746
1.83921808956547
1.450367169988
1.23708818538761
1.16907475762371
1.16475126284088
1.14762137637182
1.14404209502136
1.31136831016421
1.73338366345068
2.22353601444951
2.50114966242342
2.50372677512158
2.34473555897651
2.0813467233408
1.74128298701776
1.43803992706258
1.23582401617117
1.01779679367206
0.633106194595373
0.0646258521591952
-0.578291979724296
-1.10387158944781
-1.33264405791953
-1.27288662252178
-1.07723146689213
-0.747596410548815
-0.105485121252258
0.86141125964772
1.86851363934814
2.61438995272798
2.96910273892756
2.88653463218816
2.36630285698857
1.51223700713925
0.493378913569582
-0.508628913020575
-1.30037268137247
-1.79411272312084
-2.11466196563831
-2.38595486186933
-2.45915837333148
-2.06789205040715
-1.1881142195673
-0.0507402049147875
1.12236522153467
2.22036198270569
3.14654237795607
3.74991089254941
3.82091732882296
3.15136696563127
1.73763426155622
-0.0628757437979182
-1.73376842767219
-2.96814432132786
-3.75391184048019
-4.22339749911409
-4.55920049878857
-4.90984522533765
-5.27603231223998
-5.57503835808723
-5.80069111569327
-5.97494018400813
-6.02766443044418
-5.88350006139693
-5.54939997333102
-5.00322706851613
-4.15896977070161
-3.00877161452122
-1.62314550077718
-0.0262293177514425
1.72404256788812
3.40638422100514
4.7871985600673
5.76986871825467
6.2410434674644
6.00912511351605
5.08843267272861
3.83520499403793
2.66934854888187
1.81877571047847
1.31596948747184
1.01659009268385
0.652570415392744
0.0748799765525168
-0.581709259563249
-1.08067609671621
-1.31289204175926
-1.25415431580642
-0.88050710665103
-0.260270275270602
0.429432410176249
1.07784649870862
1.67882861367649
2.15768380812894
2.34500614235453
2.16828156320747
1.76560891087806
1.42591020456206
1.43168604827389
1.83831445506273
2.40440778917973
2.86599574520191
3.21566642222506
3.58438262345845
3.98519803513375
4.31124460177399
4.42264922290353
4.13186098629807
3.30260455739904
2.05743157385378
0.729873664266441
-0.399452733245849
-1.19296808016163
-1.60455764116182
-1.72758415757652
-1.78183870461852
-1.91691770214757
-2.14523597504433
-2.4856415478674
-2.96215402152145
-3.45147547901166
-3.73910355228544
-3.72116253802576
-3.41065343105815
-2.84044495112468
-2.12683256632469
-1.53169097257675
-1.29392687345733
-1.44684388259454
-1.87383066497566
-2.44796177949623
-3.07747452584834
-3.71886375210571
-4.32855428950795
-4.71546993013165
-4.58163572855767
-3.85849622282855
-2.85331600617453
-1.94774048202955
-1.31781712794228
-0.987230916115153
-0.925390461048337
-1.03773254086354
-1.21811023341161
-1.41567945402363
-1.58781478448433
-1.68998149649992
-1.74423711333787
-1.76868392747131
-1.65323625222665
-1.27619005520408
-0.67553632304232
0.0752854006805754
1.04981566053226
2.35585853593132
3.9560302758731
5.68562724595491
7.29192475226315
8.45663140595062
8.99840954595834
9.03895830205368
8.7956762225242
8.31332388865454
7.57126821659712
6.68814532231801
5.81664467770245
4.98154955211443
4.19020304043694
3.55426191907785
3.16806633518163
3.01496516525036
3.07162036977665
3.33556727922258
3.71109779799082
4.02626571217437
4.15162746891173
3.99297194578455
3.46394911292344
2.55159393569659
1.27678693456851
-0.430513218312232
-2.64205366297164
-5.2260532812358
-7.8763813557997
-10.2849600563438
-12.1994063301161
-13.4643995322492
-14.1017192647373
-14.2187053944763
-13.8423618223858
-13.0057848006822
-11.9094696303636
-10.7876418096914
-9.71110140872136
-8.66670897308555
-7.65489179632638
-6.59581352290381
-5.36316048153832
-3.99182122523244
-2.63893441661476
-1.33277203279691
0.029674154227674
1.46618304219747
2.8428577497791
3.94425578154815
4.53910814065044
4.56035768219647
4.30546335105429
4.24759362344927
4.55757894988775
5.00067236236645
5.31487465306206
5.43378170455975
5.34659877652659
5.05338344313691
4.70352424457281
4.54216652117606
4.68669453692772
5.06020243874267
5.475097897487
5.73140660939112
5.75660577547009
5.67358177834632
5.64501492416026
5.7180065406292
5.88287201371535
6.1152907188848
6.27686031183544
6.16267462142866
5.71619474763175
5.04761386948132
4.27339434452252
3.49632894413923
2.8237401159274
2.23060236883002
1.56206174069231
0.801723586324319
0.13290821258851
-0.336040609507547
-0.654188131605326
-0.807446326836152
-0.686193361371223
-0.284609719920329
0.307048498737219
1.08904955055408
2.1072783870411
3.21893433327247
4.04641420932156
4.15866880392225
3.27687352326874
1.44977316202836
-0.884514611822585
-3.11965490441759
-4.83155022967981
-5.92704648755942
-6.63053259462827
-7.43664027551929
-8.8210497666744
-10.7595868186668
-12.6539518090146
-13.8424887664806
-14.0901459244978
-13.6550249533215
-13.1019549253913
-12.9703534487576
-13.3527074447144
-13.7753128500141
-13.5821939355614
-12.3855179272393
-10.1959455094902
-7.34952750649235
-4.33419866933708
-1.49970921411365
1.07428128813585
3.36793306396637
5.26280310422991
6.71944796111096
7.91231085097096
9.03103017185955
10.0294056639796
10.5756289654281
10.1895036764851
8.58437570683527
6.03143435667218
3.26200186255299
0.907060505320953
-0.825709885734393
-1.91230579242235
-2.23781554452853
-1.67614402353611
-0.230564165749129
1.96559782901836
4.58344637566028
7.05048881002561
8.82037470733639
9.69427623461618
9.74162433821593
9.06546832948401
7.83452836930883
6.37863686711261
5.07891559258152
4.24767716197788
4.08544516702294
4.53716222835573
5.1924739608601
5.50263826365346
5.09862773431171
3.89987494336905
2.13318747645634
0.327241342744011
-0.956398630956435
-1.53181736840332
-1.62831125469797
-1.53125133082934
-1.29545659880639
-0.762055435747552
0.182761058288901
1.25081739706206
1.72262387410363
1.03351117293131
-0.641234851805106
-2.60212838976806
-4.3157187381602
-5.67419191534934
-6.74861492844941
-7.57735088229845
-8.12780263165448
-8.28640881079278
-7.9612300304239
-7.27513590383983
-6.51881513075675
-5.8677320351952
-5.30764154216679
-4.81759392198337
-4.40034088081369
-3.93610932699659
-3.18711164789511
-1.94393251423046
-0.149146454180548
1.95857681855231
3.81800785564521
4.90512421794888
5.17658584728295
5.03768838125435
4.96144617402825
5.24411624440005
5.90490708205827
6.61035446153403
6.83253862841755
6.20076537771797
4.63585444286064
2.29931722319107
-0.31627957425415
-2.43874787395847
-3.567704744936
-3.92085419589927
-4.08035886680414
-4.33660771401618
-4.58414273977646
-4.66624321733308
-4.58058628968925
-4.41577344772897
-4.21022252658531
-3.88455859537634
-3.34277324537294
-2.63655032315665
-1.91349702171052
-1.18444084408877
-0.302398827528764
0.775784032709678
1.85331819963481
2.65731602841288
3.02684537370744
2.98698450400756
2.77755885997391
2.71612547393051
2.90239809774846
3.18063112287036
3.43306197155075
3.68087653715425
3.88527960398159
3.925133353593
3.74928491810425
3.29384033017791
2.3731470452338
0.967923004142645
-0.492918987880177
-1.43598564031696
-1.66784342250719
-1.43765488649361
-1.11498574504332
-0.953444482793641
-1.05721996946022
-1.43393395267099
-2.03173011058562
-2.67835079797335
-3.06057895789349
-2.96288344760882
-2.48472581665968
-1.79205684648872
-0.750949956956471
0.868691786178006
2.86459189280735
4.57433289083497
5.38955379479189
5.13821682268734
4.04060648255797
2.47154190709778
0.734865524519869
-1.02564175409472
-2.69602625054894
-4.08256196080136
-5.10334294269107
-5.96220370237831
-6.87709050564111
-7.74549796194892
-8.3166772468724
-8.55298151863199
-8.60379854682154
-8.56248864978568
-8.39674699664648
-7.98832257697462
-7.18990099560722
-5.96737045338837
-4.46442685553156
-2.86642389536139
-1.34651924369364
-0.165358453097937
0.484399209838107
0.866979232921996
1.69653747414905
3.61181993260626
6.71587357227476
10.4768431768482
13.8890825455839
15.961159112142
16.3805763751374
15.6780176145878
14.6602968927052
13.7852089005786
13.0146087976556
12.011799475597
10.4787236637761
8.47673674405809
6.38805734835595
4.52141976747766
2.95313229057901
1.80123677794497
1.31156615839871
1.47938190607769
1.87372927846077
2.06511702217047
2.03857986742054
2.04396692070161
2.20568995424281
2.35152994492788
2.1056803646056
1.17422581568905
-0.370676192694036
-2.16885527663753
-3.95713516691667
-5.73717102467145
-7.57784902311603
-9.41282020579708
-11.0133952136737
-12.0878438348274
-12.5105971518763
-12.4624719115425
-12.1880153255995
-11.7373468056414
-11.2338180004955
-11.167564048182
-11.9053185880256
-12.9886379493518
-13.4000493028404
-12.5228707246286
-10.5354222372296
-7.98337008557364
-5.27553836998189
-2.53878599438565
0.240010371437563
2.97773604197447
5.46026418661271
7.57354628999929
9.34004200616175
10.5342070313277
10.493782223492
8.65078195225722
5.24099792398029
1.32818798414348
-1.86434600135926
-3.66461936163723
-4.22344561941033
-4.21903562374372
-4.21107341862389
-4.22765966447894
-3.94001470421263
-3.06187817928304
-1.54947300524325
0.322324742334988
2.00131527223278
3.04943744153623
3.5824961306326
4.10794742231429
4.9159650961207
5.83424699519419
6.54930107275607
6.96818395552462
7.26247312598943
7.6571560271262
8.17479500169681
8.5884330428111
8.61605219451001
8.0390173530177
6.67617140259814
4.571142209223
2.25808471403601
0.440344549612053
-0.727995685916196
-1.70072827585455
-2.82255640177254
-3.91736556681021
-4.64013885707258
-4.88777010681437
-4.77226982217016
-4.43502951837485
-3.97300797490464
-3.42777454299584
-2.81527021281521
-2.15924377576228
-1.39383470246367
-0.28912016211318
1.29036262654701
3.08183920996474
4.64770140158802
5.84860324958322
6.80453673831228
7.4627427985551
7.50899778894394
6.70207740419289
5.14663151673282
3.28263851709696
1.63746539191788
0.501989257544444
-0.109755421217589
-0.154435344569808
0.544892141767375
1.94799885960295
3.57607098120785
4.80793539619577
5.24516116667774
4.77639791885901
3.55260464378851
1.96292822786623
0.440959998409221
-0.750104571283164
-1.5094287073126
-1.82976020483186
-1.82459937540146
-1.69870581355602
-1.68095463075742
-2.08363689397202
-3.27148988302909
-5.33150972085464
-7.85567098475822
-10.2249337822858
-12.0130219953574
-13.0378934581653
-13.2762195472941
-12.9376627473247
-12.4330368978019
-12.0490564255658
-11.7395842682464
-11.3216967851431
-10.7630438484373
-10.2440071113279
-10.0109290854573
-10.0909531075342
-10.0601560304924
-9.19835228149522
-6.96563393999793
-3.34217638327164
1.13990812750234
5.58396412926766
9.16970915095593
11.5993026585821
12.978795151876
13.2980785475883
12.388601444416
10.3953326140177
7.85561659055705
5.25993055953579
2.89276287429197
1.03227696259412
-0.130233130863835
-0.739439326918201
-1.09064677873933
-1.22289182608645
-0.887844723336185
0.19994993118452
2.18461218325276
4.93477864237794
7.98609760354211
10.7767498483687
12.9890236531255
14.5750748426688
15.5314198846008
15.7958923281044
15.3100805521289
14.0845203799032
12.2574482750787
10.092830020613
7.80383945695721
5.42490085838202
2.98523508346948
0.662423396706796
-1.39512504980559
-3.18074961206688
-4.61591221667414
-5.51761398932675
-5.92760581499414
-6.1713824610052
-6.48896161925069
-6.88816441289725
-7.35752970475659
-7.89376971149454
-8.31990842130526
-8.36054167369536
-7.9050141782667
-7.04292262137943
-5.92716649755753
-4.7467847269161
-3.77306704309777
-3.32484716385654
-3.60629913496898
-4.45629482155916
-5.32510209469778
-5.78599162714366
-6.07504002166222
-6.80987489377727
-8.17356118574939
-9.68810208068575
-10.7502058349869
-11.0643781083615
-10.5909350475934
-9.37593237430983
-7.46312150274472
-4.87712924153691
-1.83867100315559
0.94802243736916
2.57603390901652
2.76110465295586
2.17773398619714
1.84015818398973
2.40039348930625
4.0864240338985
6.88727421732404
10.5104774255705
14.3001881547613
17.3851525602521
19.0425711964415
19.1146096013701
18.0988343146511
16.6447563373527
14.9483567460052
12.8028467412888
10.1714927385827
7.47568477767147
5.29752427663119
3.88047989448435
2.88188772955263
1.641162099471
-0.175661880026551
-2.24748158608755
-4.0311619589984
-5.37261152040131
-6.53881466790215
-7.84267794647311
-9.38476062033556
-10.9551136840014
-12.0791919179576
-12.3537815842938
-11.7698152311286
-10.5247177381609
-8.60689475650887
-5.87381320686494
-2.55862777127348
0.556739833915186
2.58651679458447
3.13393463343145
2.53243905633851
1.59050213770984
0.999012679426932
0.870180618979895
0.809259491018844
0.297228232730107
-1.05402201610034
-3.31404664617383
-6.0161296637696
-8.31060208523227
-9.58907748084049
-9.8936994915523
-9.6895470878388
-9.42692133462383
-9.31557998304506
-9.29789735915926
-9.20460360170591
-8.96981150605567
-8.5041518678699
-7.31688258797312
-4.6647953130625
-0.368268770061219
4.71991190538541
9.274797457465
12.4604095131531
14.337437871256
15.4920747223758
16.3283965656614
16.7197852550712
16.3805752098681
15.4298160243156
14.3456082212895
13.4266901646884
12.5159258232792
11.1750583870473
8.98122732189445
5.86989242550006
2.4510676512312
-0.197368282577703
-1.38125145646398
-1.42814094908595
-1.35701555244511
-1.98927856401762
-3.37120426504842
-4.83452549528611
-5.56906573973951
-5.30113547957436
-4.41961806429624
-3.43363903285186
-2.55851326554668
-1.89290986485628
-1.59893037670227
-1.68159809221598
-1.8602577326362
-1.8191899864745
-1.41403909291791
-0.644233098562133
0.309890362033993
0.971939468393035
0.692409893833028
-0.956722913576136
-3.7847833943767
-6.8885801643354
-9.12144707548977
-9.91694141590646
-9.61881620597881
-8.89377719282182
-8.01096057455649
-6.84266977345171
-5.31719114968667
-3.63747117736935
-2.17140762752488
-1.23467613474347
-0.887947156438146
-0.92378342187611
-1.10723808979556
-1.34772286459723
-1.5764437390581
-1.62955858121242
-1.37940160944884
-0.822424211095147
0.0688372735997794
1.40017181252162
3.16486271816064
5.15510317825996
7.09945921511027
8.76509556726553
9.99671081620586
10.791764422644
11.2254499509751
11.2224463405355
10.580963645582
9.26335014415868
7.46602710891522
5.41952585720839
3.31249763592914
1.32595080285338
-0.455878680601049
-2.07539426567017
-3.54333241106055
-4.82585570092184
-6.01160615114838
-7.20430056003871
-8.22652421016793
-8.76214785384658
-8.83727909102029
-8.85855281284831
-9.10859864268503
-9.38733913569522
-9.17872488047044
-8.10780641806107
-6.27797168397254
-4.17335150606114
-2.22227585813495
-0.581856818791768
0.645933128728331
1.32758904178459
1.63122443158817
2.1203899372931
3.19040167842481
4.60961890427998
5.87421003050256
6.80908000983565
7.57975267559707
8.28349101737862
8.72970353208245
8.57088484124268
7.64044962038755
6.23411025895985
4.98865561369783
4.4298598852508
4.69665155896113
5.57819575708955
6.60328823416978
7.22851228047449
7.20070700285033
6.65372278741755
5.74177667408685
4.41034064141259
2.64714722822556
0.70444656523117
-1.02389096920756
-2.18073109626054
-2.62410244583883
-2.68117004352129
-2.98896187482172
-3.74191093920563
-4.35205802798084
-4.21023127527188
-3.54324748086444
-3.20089665685786
-3.79678703696274
-5.273458340107
-7.07161711757496
-8.4871778311949
-9.02532241693426
-8.66478552385752
-7.82750113957024
-7.03159750790415
-6.50785732357109
-6.09603949525345
-5.56264252318194
-5.07616276708022
-5.15289155741581
-5.87842623977677
-6.43601136644689
-5.86486130560185
-4.17937055668807
-2.33743968116954
-1.20982973306387
-0.913636838001157
-0.975158600032817
-0.740663986299491
0.318067261175674
2.34302206016991
4.9280981916718
7.18072327772484
8.05048357932827
6.92555639480813
4.18850178421263
1.10870580103868
-1.03440732106821
-1.79480845411919
-1.60088706357016
-1.12348760604465
-0.669200002689786
-0.145828646651071
0.436304717785029
0.609965976840818
-0.177150077607423
-1.90387999696692
-3.91210151093364
-5.41248340075652
-5.83965316839637
-4.87954827596192
-2.49970372296199
1.02283260337502
5.2454357941852
9.66703500751912
13.6645876347654
16.6148529523848
18.2886245128199
18.9263048580891
18.7823577154453
17.8283793310744
16.0168169043043
13.5760915418836
10.9006945286322
8.2676832234259
5.66275393834682
2.82659380927489
-0.387197924947086
-3.63136281452955
-6.21611400966503
-7.67666040354424
-8.03249175889014
-7.55771064970351
-6.54081478687224
-5.26516162577397
-4.07083243275939
-3.3963998234951
-3.64425315326073
-4.8055102356119
-6.34721601499563
-7.76871276322424
-9.12752632669782
-10.6659885392019
-12.0573147220992
-12.4137618807773
-11.074352530165
-8.27730273156087
-5.15799669508425
-3.07934084534929
-2.69163352772271
-3.50585015134721
-4.45077814408014
-4.80232204473252
-4.51249652879107
-3.85771931433642
-3.00861269111759
-1.84197374806452
-0.0457453606059503
2.42323351114957
4.93839415573431
6.56671152004754
6.93022898473776
6.45017135223041
5.80794342381186
5.57220230631583
6.24789654253376
8.05268483170346
10.3953682972918
11.9201583206088
11.3818014061029
8.54312046516087
4.26726947678418
-0.177734516508265
-3.86430318428565
-6.3612371727087
-7.49122012500949
-7.30006875410999
-6.2010225135191
-4.78323939308713
-3.41337015817793
-2.19825282936396
-1.21941204744644
-0.599875329665155
-0.518816677869749
-1.28815156971905
-3.03955264917142
-5.10108548123522
-6.1111451422672
-5.1671651036595
-2.71922646260465
-0.153296566886928
1.3261234577301
1.36108115876929
0.387628288359183
-0.776019719251297
-1.42087474617739
-1.28571067589555
-0.563983469298231
0.303622303138691
0.867197399317425
0.915557923211192
0.594844149234703
0.226853071383028
0.0545368479164159
0.182838595313166
0.572727439526975
1.05622896659563
1.59348432646154
2.44550038324355
3.71320417785036
4.7883490595433
4.77655119546866
3.5541231184024
2.04365805584947
1.35639936887797
1.85448188547302
3.00834038347205
3.96476033860288
4.24553786898472
4.00550029769609
3.71953108914129
3.77378371884727
4.35065524020804
5.39605657888739
6.52939855399091
7.21067626089934
7.12188421205543
6.22602072674561
4.52002635912524
2.06180559235234
-0.752746276684156
-3.24706486334597
-4.8482535338657
-5.28498864665362
-4.60718019492856
-3.32826721386677
-2.36834845140491
-2.40885341508592
-3.27568762988153
-4.21155944673376
-4.71860427972782
-4.94820753526657
-5.33259683299547
-5.99354689261973
-6.54147327804861
-6.47878065698269
-5.81532280649086
-5.21322397505456
-5.52691650643052
-7.22478335191786
-10.0199712830682
-12.8214240772641
-14.2796055277975
-13.7465004127137
-11.6403347403922
-8.75956611351937
-5.52924499589352
-2.05128133235806
1.55473630744249
5.19248317961731
8.891264528658
12.5689020878491
15.7726681303673
17.7738216071035
17.9708991039869
16.3711720380845
13.7737999383766
11.3693300741395
10.1229192915074
10.5311555321621
12.5770232059588
15.422747343994
17.3060698433926
16.4250396245724
12.28002241407
6.0248993468448
-0.503066434166641
-5.95635156218257
-9.93656324815453
-12.7812734038067
-15.0122653379209
-16.8098168568012
-17.9590081173004
-18.253906448496
-17.7937834116
-16.8759814748206
-15.7024012399349
-14.1192703950754
-11.58211927849
-7.58864701122163
-2.35724870406518
2.96162533222967
6.85506776252954
8.35385196837689
7.62663821658425
5.82988996096257
4.24603834466315
3.45407080532532
3.30940028218299
3.43799918093116
3.4264409909736
2.82654269319252
1.56368568145598
0.314335921539971
0.0244938766476703
0.992860883002841
2.64709134559551
4.1478763384698
5.00469523323041
5.1625996478998
4.7227124819022
3.77208452459344
2.55746526305113
1.60582133913265
1.25201010307262
0.994026698377565
-0.209941541844535
-2.7417588716581
-5.76290253419656
-8.05742461315559
-9.05481010438576
-8.83351908979762
-7.6114270358453
-5.65324986174561
-3.48226467657047
-1.85903393246168
-1.45732583916954
-2.48070524720795
-4.50814632879632
-6.73179114963789
-8.33293041955938
-8.65592222991754
-7.36353110050149
-4.77390342983744
-1.85204752473311
0.535865842541637
2.3110936383456
3.90705609652441
5.51288993855991
6.91047347174396
7.93517570118843
8.77570030595069
9.76708256398473
11.022809173996
12.3737828375219
13.6821179208049
15.0525289992324
16.5313210296904
17.7009510325169
17.8597877835435
16.6100712068337
14.0999266831066
10.7985384263443
7.27598142828518
4.08599585334571
1.52768189169008
-0.526861472577394
-2.4092992922911
-4.28134767334836
-6.04332209650661
-7.46000334790899
-8.30733895734449
-8.60191686211153
-8.78285531510444
-9.51154064141638
-11.199992332141
-13.6737418755535
-16.0722204592932
-17.0532953025991
-15.5307654042872
-11.5874312188417
-6.58776485810756
-2.22458708758973
0.565834991898458
1.88087353200521
2.31293430744868
2.23098077764863
1.55833837264077
0.233137540047369
-1.26400657057966
-2.07161383198424
-1.64780493008549
-0.234899833297018
1.20697472258571
1.40762404968281
-0.547714180616695
-4.54952606148746
-9.42423784156651
-13.6852960372439
-16.3617820350951
-17.2493488878959
-16.6773292003942
-15.1569329497644
-13.0360165805977
-10.2337170638149
-6.27625230784335
-0.754675517768853
6.05414065370489
12.9674601225569
18.466713670542
21.6409542367416
22.4802348535562
21.2774619287505
18.2319852730631
13.9547741676651
9.86583450428077
7.41731156000735
6.90135952179253
7.28456319866288
7.16014305814829
5.80632894775739
3.58444294820172
1.51379314073061
0.389822122590198
0.255512521401118
0.65886255470432
1.15177659511572
1.4310681256983
1.32436483862554
0.871226457365747
0.225425070932203
-0.614276939422041
-1.76501344877114
-3.13585303316927
-4.33297560829509
-4.86154598887577
-4.37272389667247
-2.95296610601839
-1.30390161839713
-0.382524540883624
-0.659213608842667
-1.78109917488503
-2.91873959655417
-3.31259608435369
-2.67204471551246
-1.40604311145866
-0.457642480895085
-0.615969440097326
-1.90051816192284
-3.66459525113488
-5.16358741608843
-5.95426694060931
-5.99802220075632
-5.59203646175599
-5.13166448017561
-4.84197254921785
-4.65199207545442
-4.13419095858869
-2.57999067231159
0.494915708111856
4.73406424626929
9.05363122119464
12.4769905503024
14.6764222438617
15.7183904426604
15.6056109286115
14.2522615394564
11.8230267654123
8.92768319789207
6.24835909879717
3.83390695240591
1.00212711616092
-2.75406524179495
-6.93151270446596
-10.3988286980787
-12.4835188826632
-13.445561988607
-14.046791531347
-14.8633459161942
-15.8320500021807
-16.2465079714615
-15.3332068942332
-13.0611596345662
-10.3745028608389
-8.47582890952638
-7.77537294038697
-7.52813283388384
-6.61271098397738
-4.80175442851418
-3.12937109344927
-2.6982694408431
-3.20557894740456
-3.07494032598735
-1.07837556955665
2.56190009985799
6.68539097738653
10.3265006719803
13.1408740581316
15.0347322436211
15.7961865667622
15.2921932419874
13.913227437837
12.4867248676741
11.6041803580351
11.248617798779
11.1584841000963
11.2086255866434
11.2611273117493
11.028750476801
10.4080955509486
9.7495119104794
9.57314930049427
10.091936401264
11.0033644037707
11.5880656674022
11.0873516693714
9.19673473612776
6.18257452154976
2.47181038331274
-1.71730243976428
-6.27519050950758
-10.9279170121136
-15.2061287774377
-18.6742787988131
-21.2589339866369
-23.4295305410195
-25.8683258422983
-28.6973510379374
-31.0747003215284
-31.7500580997785
-30.0361669495974
-26.2256748028349
-21.1873593684252
-15.6160659263723
-9.65232331939137
-3.30278174085896
2.83809373500825
7.65279052659737
10.4624335678968
11.6811798330889
12.3846808846244
13.4162365519041
14.9270677591722
16.5312560170526
17.8202175690151
18.8114496703196
19.8475869775072
21.0344458386209
21.9415194570454
21.830832227457
19.9379536864914
15.6943238904352
9.25137340688032
1.94391006981467
-4.19705723853726
-7.74213137296125
-8.7447238104258
-8.41424735036124
-7.96094318910998
-7.64391437630866
-6.86907018121407
-5.18978387469641
-3.0246401553272
-1.23022505040385
-0.175913028542676
0.458040549730907
1.12983731770922
2.12299506890957
3.78823559728161
6.61232366575809
10.6554041360937
14.9071231055653
17.4380036708644
16.5616536615595
12.1556461572366
5.84936256191162
-0.221230420034953
-4.91109733051882
-8.51814919029899
-12.0723437858564
-16.2191432082982
-20.5609914133085
-24.0273565897385
-25.9601460008182
-26.6902510574709
-26.9519199699037
-27.036475671113
-26.7452932889421
-25.8461102140865
-24.1872491443164
-21.4235453677684
-16.8801247262363
-9.93089059809706
-0.847050211582217
8.67426422318137
16.3223462835698
20.8620320041286
22.7609300679384
23.0604630860681
22.1565130108027
19.9229257754667
16.4636403357057
12.3063232263681
8.16880144485187
4.82320968341283
2.86948330657304
2.32841886360972
2.6147879519802
3.05809803987147
3.33248946116619
3.42753931025936
3.49340369412712
3.80917792677675
4.7005833768308
6.27510399736868
8.19795535913984
9.89774545405903
11.1702725413625
12.4265688251481
14.0409154708014
15.5487805621207
15.8471727321416
14.2048148018855
10.8928750071354
6.95129848279558
3.48955555571153
0.958161505637284
-1.11143043386945
-3.46768576620668
-6.22788096821116
-8.91936962018567
-11.3088756414539
-13.6146516740905
-15.8391320739202
-17.4185483168871
-17.6995700124366
-16.4860513506568
-14.1370964596677
-11.4301667091506
-9.30658894974619
-8.41516782619326
-8.69922199811087
-9.43536367326586
-9.73308366530293
-9.08485798208907
-7.51872611550873
-5.23561389712083
-2.19561198461115
1.68219957441717
5.88008865512575
9.25181013888825
10.9321612887796
11.0933373467913
10.6376691135863
10.3165962328466
10.1813114282188
9.61604059300155
7.80665025493691
4.38395352402337
-0.194689341476182
-4.78938433680282
-8.12452155208943
-9.52281568241642
-9.43082398068989
-9.07879002479051
-9.31823906131842
-9.86621996305482
-9.82744217122632
-8.72463806699872
-6.83683475089663
-4.77093771529402
-2.91866657134271
-1.24467058411961
0.460983130654388
2.15786196711528
3.59289840175551
4.78736708272559
6.11316897145878
7.75577135383163
9.48804917707322
11.1017787097576
12.6233086853362
13.9342053343443
14.6371730128963
14.5569661895629
14.0039428209873
13.2637764771971
12.1095757961652
10.1320329015788
7.47796861966927
5.05683704389895
3.87633151409314
4.07241963427696
4.63043980709623
4.17441353124805
2.01534469183275
-1.51390591124741
-5.40897451108979
-8.51653937132471
-10.0839680613656
-10.1635916385028
-9.41947609248414
-8.43018328741281
-7.29104468171619
-5.93316142750631
-4.66774389872116
-4.2510220515191
-5.28067799244887
-7.48250060651268
-9.81729038766455
-11.509576370139
-12.7343374041949
-14.0350871027193
-15.466923280647
-16.7925043285746
-18.1416647289024
-19.7569807933646
-21.1086924702752
-20.7983614734003
-17.5450602543802
-11.2036061158655
-2.95431784738094
5.31021450794429
11.9198569068233
16.1287125100917
18.1834488420349
18.83113629047
18.7339150905763
18.1379121447003
16.874069954014
14.676425592821
11.5901396597098
8.08214056677531
4.84278627736579
2.58369025971026
1.81184180870243
2.4545875606943
3.7310495016726
4.64742255905744
4.6978641968873
4.11278348717789
3.55737459090312
3.55734021939025
4.04494772697793
4.51211011442518
4.7003550762485
4.89791584212602
5.37100824780907
5.8300507613074
5.76858221299909
5.08664020836326
4.11296536805346
3.22864813574608
2.70188972610552
2.7287043587976
3.40771189004786
4.66233915140801
6.24420811435876
7.82876705119499
9.08264681912424
9.59428089482326
8.85064886132379
6.58248088109942
3.23771130224895
-0.173153939289228
-2.91799420699667
-5.02185808619256
-6.74487015929084
-7.93889461050588
-8.30356943483852
-8.05042076573215
-7.88019185506608
-8.36017762128639
-9.62634235204768
-11.6574790507344
-14.5032813735898
-17.9671094294268
-21.082967618625
-22.3345533382309
-20.8977875412157
-17.6062988575311
-14.2141089938727
-11.6847209485984
-9.62569318795792
-7.35921265290393
-5.01775418332093
-3.46883607931354
-3.51903686716437
-5.27414338262919
-8.02683100292676
-10.68071315185
-12.3601032479296
-12.6537288538551
-11.4175374174232
-8.57244587001929
-4.15916487282645
1.43784251179294
7.32431626662984
12.3028743931115
15.4663592129234
16.5942787024231
15.9901166924391
14.2836922294349
12.5817537579442
12.3011851426521
14.1971812244504
17.5501280909226
20.6513578880577
22.0851686784066
21.4433884426814
19.1425499947288
15.9461475651076
12.5655295233626
9.47663486506153
7.06935215415856
5.75902244778968
5.58899725503897
5.81845204732542
5.35719135763129
3.70529869048651
1.22418943886473
-1.50586807732078
-4.31916357270179
-7.34619393584945
-10.4153924615169
-12.83024196907
-13.8933830326032
-13.4716742291993
-11.7609345353355
-8.70837376504251
-4.22957394994217
0.952200722610382
5.16876930079518
6.75052599601282
5.10537479888904
1.12549628595931
-3.27635383405678
-6.37622115339165
-7.71373444048167
-7.79277320086806
-6.71388916130691
-3.74571202314525
1.28010547454429
6.60516835098222
9.36592252232957
8.02191392072455
3.74905013394344
-0.709338531212126
-3.4950078615913
-4.86633714387576
-6.14023658519332
-7.87784683622363
-9.46261491601825
-10.0819949255888
-9.42670149806905
-7.46738360945261
-4.22252615717287
-0.0377194564715861
4.16220013466964
7.1324609400206
7.97911294237076
6.79155060972627
4.60167052603542
2.49209920820372
0.772520648273664
-0.764401668454028
-1.95619177268394
-2.07808969958701
-0.622230818042311
1.96730739383717
4.4731909371964
5.8432989211458
5.9603827943294
5.3675841490667
4.21435233048217
1.81892995661349
-2.46647669499652
-8.21825323015313
-14.0304320946351
-18.4192934507144
-20.4395047655064
-19.7153572856498
-16.3112083421844
-10.714130828171
-3.93740903048144
2.38835983761819
6.35631306396483
6.81859383826674
4.38303102748072
1.14791503994485
-0.867846515391264
-1.13151861640166
-0.513509685391855
0.0417435131591927
0.5994559090323
1.89112174203378
4.02667008107961
5.95414546090946
6.42618826631953
5.2909816757552
3.64012891714964
2.81970926579082
3.35741034120065
4.68126288381202
5.82824471898262
6.4433342871444
6.88450600789084
7.32481144653681
7.25845515784409
6.20122053590665
4.43600068023034
2.68788045796799
1.39816495318236
0.643132410669472
0.513296036370591
1.29732185476189
3.34313076755085
6.70790213519166
10.7675853740632
14.2316388150637
15.8216926557203
15.133004310651
12.9203459490745
10.5595274905736
9.07063150456767
8.44342082662019
7.88245063782076
6.71033534830294
4.82079132527921
2.22304833463818
-1.34955600981341
-5.99885965960021
-11.1690471374396
-15.9903644170345
-19.9263880492082
-22.8394423333274
-24.6314214069995
-25.0871697484245
-24.0744262190542
-21.8806049906532
-19.3424065562528
-17.4404633224152
-16.5409674269842
-16.0356041703443
-14.8385902508021
-12.3186042683882
-8.78983450400191
-5.05931776967902
-1.51438970777353
2.07360980978827
5.71406406386377
8.65980187396099
10.193301824813
10.573287329319
10.5817902333767
10.3547224020027
9.24204235129452
6.74785551356551
3.25493538171421
-0.0647302582201903
-1.90146678222516
-1.68410256974832
-0.0705603775395516
1.60341403878806
2.46288816614787
2.52319622761202
2.11308540169571
1.29119158141434
-0.118331102248236
-2.1772095925293
-4.4273354764745
-5.58989498952876
-3.98735313490842
1.14250740704919
8.63248775946473
15.9185331041092
20.7400810788711
22.5010048134601
22.2950648564363
21.8220403744836
22.1982455625703
23.4865801384411
24.9529684581048
25.607845859003
24.7798491512447
22.4675092633827
19.0657203053305
14.7124766973792
9.25143284884104
3.00036841184379
-2.90207328286858
-7.3421792429835
-10.2611668072876
-12.5788255087967
-15.177789580385
-18.0744070093824
-20.5030669902178
-21.7588323564575
-21.9906645595384
-22.1744743037913
-23.3536736587049
-25.9510269523472
-29.6165767597593
-33.3880641827123
-35.9713450437127
-36.2594154984143
-33.90799507818
-29.4060656688213
-23.5462343174059
-16.9070710532064
-9.84229677260175
-2.83401681810101
3.2991161703349
7.75283138852967
10.4236503499702
12.030540352984
13.3216215094402
14.3670884624009
14.8312467910968
14.5873968189701
13.7490945902766
12.4286155299225
10.8234929019095
9.32418525930325
8.29594736363052
7.92099008265916
8.28481607917412
9.27819353590545
10.3357516738291
10.6508733330846
9.87811003733484
8.45934136897189
7.10097308669783
5.99858475132996
4.71138845206357
2.84536009169408
0.752311036074726
-0.626012578573502
-0.645433079322255
0.409196472874493
1.5913163352883
2.12126072957831
1.9868738020679
1.81506167792193
2.15058471899495
2.87894690034399
3.47538492161273
3.77612516620531
4.20740706757988
5.17783656894932
6.57691702138794
7.97612209474084
8.9365106195141
9.00575603307265
7.89203693935047
5.93908627115318
4.21397591092749
3.90799681529589
5.48638165287916
8.09578890382578
9.79391938346877
8.91559752445517
5.53230920611453
1.31253581770744
-2.08480173882235
-4.13599726011035
-5.18349588440326
-5.78345835578902
-6.52125770311205
-7.98084398474246
-10.5188613560276
-13.9901854892137
-17.6047200721601
-20.130729781025
-20.6137475001621
-19.12987675083
-16.7533193883529
-14.6908972533008
-13.3556981664652
-12.1028880891467
-9.90215499563774
-6.59964375072067
-3.62618958393223
-3.11749058440459
-6.01506695912262
-11.012765033124
-15.362308461927
-16.6857039928757
-14.3206053562536
-9.42768845017535
-3.95313911798872
0.716745786274804
4.2842610367374
7.01010862517906
9.02946920677137
10.2020210455524
10.2560685142802
8.97926350415586
6.61407916928591
4.27029095787625
3.75027967437947
6.61149619676983
12.9935662341874
21.0437349267275
27.6295517628548
30.1903644872309
28.3839792218966
24.1087590719612
19.9311991283778
17.2521744016069
15.5168357438159
12.9527193523312
8.26474763100216
1.83281982398937
-4.65726945904955
-9.59412118140249
-12.4469969408975
-13.8495608169385
-15.1024739323105
-17.4210562857466
-21.1733862068602
-25.5042342755187
-28.57457972382
-28.3377067619929
-23.6522041814559
-15.1955350795874
-5.26771041855488
3.73245534931386
10.889587405744
16.8782816337499
22.5849298007381
27.6628534840525
30.3982334711385
29.1378131005286
24.0158145463015
17.0510668475738
10.3323449995847
4.45612444979837
-1.03041446424074
-6.31098183555969
-11.1093822348019
-15.4623880727035
-19.9013609213591
-24.666027033191
-28.9712761023267
-31.2422733313867
-30.2771366746655
-26.347372412652
-21.0616305130844
-16.0284883495438
-11.7306136781954
-7.60902808289637
-2.86453234296918
2.87767495442557
9.23274186697489
15.0593567814131
18.9681534829769
20.1832406698936
19.1697617824838
17.4678665019667
16.6632550978171
17.2107126920857
18.1988880164882
18.265457653796
16.6034602490492
13.1467859646535
8.26229008907931
2.57163358430893
-3.21220422854983
-8.53307222778811
-12.8199272436172
-14.9906036643832
-13.7471472950957
-8.88660407712618
-2.09195207694142
3.96702106156055
7.38209626339063
7.97699253112554
6.84098008999306
5.03379049312136
2.75464525676963
-0.185869979119808
-3.32871073063316
-5.51584877885078
-5.99261697581756
-5.17778318405188
-4.16665690709445
-3.72940561723225
-3.91042351473316
-4.34230652359657
-4.68668764511076
-4.77473680930499
-4.5779385368431
-4.35773876851557
-4.74896333940571
-6.12148590060133
-7.65630829741455
-7.66487250071778
-5.28948375141073
-1.51553582973783
1.83388997288031
3.70666848020685
4.18592620920002
3.88577652023274
3.57140348198586
3.98979220140409
5.36777139353608
7.01032979477401
7.71011408517032
6.6461442270763
3.91114182224054
0.369916965117992
-2.86679215711943
-4.93598830832221
-5.40366723182147
-4.2248263403789
-1.75001731258344
1.30942257752955
4.21906515903312
6.63382632750049
8.56465038759082
9.90197156559609
10.1065110426698
8.5659581459988
5.36549100406005
1.55350227426875
-1.63502808892249
-3.76316700777564
-5.10396431334245
-5.7710110601804
-5.60357327311403
-4.98131394467958
-4.9733230484247
-6.18357440170923
-7.79151103891743
-8.1508042260826
-6.31758672142483
-2.88590974319988
0.662908590649535
3.40319437708341
5.66330953826786
8.19015318037209
10.8204083801443
12.3481395233654
11.721004698535
9.06491312799787
5.48519334102723
2.12938264163949
-0.484830341953284
-2.45242043412515
-4.00122711718488
-5.16747394864171
-6.05268206171233
-7.15894571451012
-8.98184127599879
-11.2288333009983
-12.8626683505593
-13.0715116271645
-11.9962065349524
-10.4995447983146
-9.40079250960192
-8.91360642569491
-8.70888743525452
-8.47261575754483
-8.23254687506528
-7.98417441922341
-7.28136402249451
-5.63372740373345
-3.21148218701873
-0.719206788734158
1.49833136742513
3.97029491725691
7.60715570306306
12.6725049643546
18.1775868765096
22.3832046041712
24.1087975059739
23.5879768800428
22.0020494518942
20.3016424288518
18.581658707144
16.4156604817117
13.5175943889035
10.0314885588045
6.34657555491457
2.79504081928106
-0.412139464279108
-3.0362341263486
-4.83685383016792
-5.93017290507988
-7.00419451610432
-8.93662809088534
-12.13067790455
-16.2041577677484
-20.2140442423048
-23.2067552085393
-24.737753717943
-24.9336542613546
-24.0926458709269
-22.3969676043117
-19.9627209923694
-16.7747731820008
-12.4941713939803
-6.79379601702654
-0.120010276575513
6.20012799566533
10.8471847913497
13.4245822972136
14.5551505106825
15.2654220075075
16.2155355454609
17.4048921950914
18.6577333231685
20.2084381089589
22.409060252831
24.9210317459237
26.6966017924047
26.8854438999009
25.4324269460954
22.7192713724218
18.9725493957845
14.2569308837776
8.90566542457054
3.66966523356826
-0.742439680587571
-4.26463779727762
-7.45031560650305
-10.7312201501086
-13.8104285304727
-15.9478559709483
-16.7612129053816
-16.5762736267523
-16.0319555039978
-15.4740889788614
-14.7904991103615
-13.9020084862995
-13.3481963817904
-14.0166998564477
-16.0701932013943
-18.4727095626491
-19.9098950150563
-19.9606523359453
-19.0947648778672
-17.7536710467312
-15.7904835925532
-12.8162712644686
-8.9174146956291
-4.88610859290016
-1.59900954139297
0.837236731286339
3.11958722607544
5.87878937766625
9.00367600061297
11.8817932768332
14.037601784318
15.4122951071643
16.1963552174953
16.4771424559883
15.9677261632502
14.1328058818531
10.7710288916201
6.53293090057738
2.74861198211401
0.574909885021684
0.138702663217597
0.43310845415973
0.168061073387775
-1.13280217250258
-2.91797199967225
-4.45823362001443
-5.56874582600008
-6.33046074980726
-6.55729870735853
-5.96008173313828
-4.57162674563773
-2.63794940307435
-0.263753585333033
2.52925018656184
5.45594263306575
7.88705372726867
9.19739884152426
9.18195143952457
8.0383249168783
5.93907227443909
2.91830112162546
-0.581084176434987
-3.34639072204358
-4.04098466860025
-2.23548571406176
1.32372556684737
5.27762683115431
8.38403506382314
10.075390218745
10.6689971716204
10.9736283295943
11.5402145452657
12.2592944091295
12.5659960236295
11.9104881278156
10.105584967829
7.32026464846276
3.73497635949508
-0.693680937913646
-5.93311366257552
-11.3674344301471
-15.8485764493173
-18.4336568424916
-19.0908776754574
-18.7007296090794
-18.3704947119523
-18.6097474237856
-19.0196966395342
-18.7576697380414
-17.2898061614512
-14.6821784678967
-11.2812777677315
-7.20767403442726
-2.14524300889419
4.1791290255059
11.0262108354421
16.4653539410389
18.8309483627676
18.3184490029304
16.5568537009689
14.7084209533412
12.6308282556245
9.77929143205908
6.15813042860809
2.30905735545241
-1.01021682050278
-2.98351081721225
-3.03621709976959
-1.25719352867771
1.52143916040657
4.12441597008007
5.66690751286327
6.04684510189593
5.88004784042038
5.87583530367887
6.29831190269087
7.00292075843049
7.73295287207393
8.19916317300919
8.04812178879388
7.00001480742445
5.00633478683628
2.20366103394687
-1.16336677440245
-4.69984562147231
-7.9460028618533
-10.7212195167436
-13.3904608960635
-16.6933050575766
-21.129817464768
-26.2975636705889
-30.8745366607281
-33.498336957194
-33.6327704735012
-31.354858396407
-26.4946042625085
-18.5559090046771
-7.74701398864914
4.15001084887599
14.2910727702666
20.3971378447012
22.04037937665
20.4619718494206
17.3496570752177
14.0026837493384
11.400886695606
10.2495164772677
10.4492787898281
10.9005839420592
10.3436569402057
8.31204543060858
5.05854080329399
0.810938113241385
-4.47999902775902
-10.554433170097
-16.1887050603668
-19.4547554671406
-18.9928763075538
-15.144666195344
-9.66443504819283
-4.24924198018711
0.502994196091605
4.76826374625988
8.59785383957621
11.6448007068112
13.5992471062986
14.587336982416
15.0735835690203
15.482719860427
16.0015821181958
16.6208518024936
17.0702020804346
16.7199494120332
15.0320630402286
12.3524672770072
9.84061184340723
8.30540869201884
7.42539846956467
6.31188225165894
4.45038577678909
1.90371057737157
-0.941062993835806
-3.48365608494477
-5.04785352425368
-5.24406392319285
-4.24018044685945
-2.69870101603512
-1.4509226488839
-1.05771745434557
-1.60103152702342
-2.97821514902452
-5.24072315688717
-8.36053324760354
-11.7965997555978
-14.6395550656157
-16.170000834368
-16.1113503146748
-14.4920057417574
-11.4970069483744
-7.40740064635125
-2.57859680403716
2.46091642310713
6.90770303431552
9.89346017574469
10.9372413914737
10.2335202794916
8.63002576047223
7.2852326017135
6.90522819480382
7.04735045311107
6.47354583732095
4.39315898067929
1.086020284639
-2.75260076547952
-6.85783329359363
-11.391386849334
-16.2854985801736
-20.6364372149064
-22.7198291320181
-20.9064176160481
-14.9274609905485
-6.31116598310125
2.40990452861795
8.88642898269562
11.6783004363439
10.4070679050444
5.56258368903702
-1.75480858956508
-9.94000693929075
-17.0731155211161
-21.5519611875138
-22.7373649895238
-20.8437524089756
-16.3511065374403
-9.94130126547957
-2.98553101849494
2.53168023348169
5.16371802721001
5.1221360246166
3.91224969806342
2.72960760324169
1.59533499108722
0.381710275330563
0.145535884748087
2.45341271734593
7.2595916441891
12.3360829981467
15.2781592180556
15.567939918373
14.4245232715082
13.2943218218971
12.9057082708776
13.2849070614447
14.1187306314067
15.0244123903858
15.5126195898291
14.8503519858127
12.4174867882479
8.41925683300844
3.96298800972615
0.321112272687265
-1.62431486250483
-1.36298598544955
1.16652153625846
5.27592890612952
9.71871258441537
13.4172933237683
15.8603510870617
16.8057941793307
15.9050830798999
12.9004790393289
8.25164325158144
3.3030510804061
-0.616931514636659
-3.35009839500764
-5.8181328774268
-8.74113437660275
-11.9018233992167
-14.7573411586754
-17.1518815316131
-19.078818729415
-20.2546575149142
-20.4200067452791
-19.7913418361703
-18.8367908072383
-17.7697587445289
-16.4833165997261
-14.8462723033164
-12.9776368337181
-11.3151246128603
-10.2861419402202
-9.72277418515709
-8.76617397426755
-6.59468077582119
-3.18067702475553
0.790095254275864
4.63107657679588
8.15678592603316
11.5526589966195
14.9186650978874
18.0133866003741
20.3068936739977
21.0690628384357
19.5024006603081
15.2267599902714
8.85996407335556
1.90782693167709
-4.09446750426218
-8.32532677681654
-10.8170617572407
-12.214396008132
-13.2337696398243
-13.9744789180251
-13.8708783130306
-12.5554226332918
-10.4475239975585
-8.15183235605976
-5.61643224064279
-2.30583386649098
2.01733971587942
6.99085965622655
11.8335558233202
15.4645005176981
16.7319653886992
15.0842029953794
11.1842621157693
6.74361770005622
3.62201444551499
2.85094859351732
4.19561104499528
6.4358603607932
7.99111859438897
7.47460771078826
4.31185831517602
-0.585759653745821
-5.03386175951742
-7.19800101988475
-7.16802570803735
-6.63265045495332
-7.08376316471186
-8.62490484886453
-10.3259019987829
-11.282803732446
-11.2951282964234
-10.7973611283549
-10.3173511346277
-10.0338214411312
-9.75197919292401
-9.0918724570136
-7.69887365431299
-5.56383300041875
-3.23299566505344
-1.40521015709096
-0.109702614746395
1.55762650703592
4.63480263622859
9.16872545422668
13.9755265004442
17.6267453087506
19.6755076204075
20.8151217012428
21.8629392790824
22.8647329381992
23.3687684547421
23.246333345914
22.7488474738013
21.8343665461778
19.948844754643
16.5916020293217
11.7960497922639
6.04114157668447
-0.008263255138852
-5.65794595337525
-10.3965172765598
-14.1339691537035
-17.1510382901491
-19.674460775837
-21.4667116006274
-21.926407681976
-20.6586229667075
-17.8806261708141
-14.2948346363335
-10.7802864814144
-8.18090673960099
-6.96461696638689
-6.87263410134245
-7.1636476679024
-7.28095925450141
-6.96511866813132
-5.76705830243324
-3.06805052865743
1.08088441305972
5.39699837203275
7.9355812517196
7.38088588746999
4.04255459305707
-0.255567840337168
-3.49915665757772
-5.02187288170689
-5.78760073480828
-7.09473698682441
-9.07188452814561
-10.5033169552785
-10.034134107688
-7.48710557365103
-4.09502748905236
-1.5248282813835
-0.656159066006542
-1.19908238009804
-2.16176793904823
-2.34812677319445
-0.717599455152553
2.87027359683234
6.94109834067953
9.04201756444834
7.73872131735742
4.04444676641297
0.707211523483443
0.0130470137837446
2.15084570117341
5.47658219656722
8.17125283968887
9.59737698259257
10.257236868101
10.829170172147
11.3988990620667
11.3878802038569
10.0647615234938
7.26352525179184
3.66364267459099
0.294574271925829
-2.10682619837637
-3.1606228403653
-2.65426808589435
-0.705033358521582
2.01802477047756
4.53491382376088
6.01834464279607
6.04951387936226
4.7182476282027
2.60409275418425
0.446411954378161
-1.25438581107629
-2.19293222336514
-2.02460098727436
-0.631262861882715
1.41320011260966
3.14205010003451
4.08631959135743
4.50435833508063
4.58793524550194
3.76586651095187
1.15776890310473
-3.20907798638962
-7.87869574719781
-10.9698817373346
-11.6875665692905
-10.6294509644434
-8.79583425655474
-6.78744845825643
-4.91230862231418
-3.47684958812529
-2.77523052037559
-3.07451626018428
-4.50845116388341
-6.56027577990988
-7.81920348037236
-6.89269464081396
-3.71193188750348
0.392434059902234
3.94948763487052
6.4450779838553
8.15879255477695
9.13518129083996
8.59023431224794
5.6381593973327
0.696506414960211
-4.12946334395553
-6.35261119248016
-4.7761819452184
0.0181064633417701
6.28585038462887
11.8569404117912
14.7344312290589
13.8286177630262
9.55012377086036
3.62830845784173
-1.8935943396281
-5.75853150911641
-7.79638617044917
-8.27169555283146
-7.21592099208032
-4.60390364331508
-0.873491403566119
3.11869050025818
6.42516337836988
7.99211630616201
6.79141236720909
2.604330257549
-3.4670093532203
-9.69844039385744
-14.8628036617173
-18.4512806430779
-20.0917235029381
-19.2642307594076
-15.8461704757633
-10.896482546998
-6.53028041176962
-4.47863266555147
-4.71190157899542
-5.95381506539726
-7.53463883610942
-9.89625646352679
-12.8477726307325
-14.1744971523301
-11.1141785952283
-3.36010361922836
6.0328217274139
13.0752988011666
15.9762114990452
15.8245339229299
14.7100682601092
13.7705369350664
13.0008506504333
12.2696326206902
11.9881634345001
12.8580575554589
15.1787779759543
18.3027575729061
20.7027176245646
20.8937066801516
18.611371973389
15.0828061542741
12.0834943458274
10.7053645322681
10.7968728676494
11.2690337242568
10.8903305031902
8.93943406539982
5.31030133566466
0.349087565325462
-5.16982526300866
-10.1479147384102
-13.5695817865527
-14.7730051419254
-13.4276021035005
-9.83664076346598
-5.48566020514191
-2.62459578621173
-2.66976774956554
-5.07516004356115
-7.90495080938353
-9.36958229007891
-8.96848745920163
-7.66500774559879
-7.12306119733857
-8.45549505936307
-11.4372832712354
-14.855962399794
-17.5351184486311
-18.984654813167
-19.2463771730413
-18.3331744185041
-15.8852421501714
-11.4554938062056
-5.28673291533495
1.31390430982873
6.77465110806882
10.5624161938384
13.4448973691643
16.3580069947782
19.1604593367871
20.5357819793719
19.0579345847627
14.4339446050059
7.81513188892045
0.939519987404696
-4.97504087720696
-9.6201953807914
-13.3031803390063
-16.4637915234835
-19.1762803952008
-20.901774691995
-21.009580845183
-19.769301699466
-18.4708164489482
-18.0648132615889
-17.7223230772381
-15.2301322074948
-9.12136692108955
-0.206989177609277
9.29315062537365
17.8409322609914
25.2095191401499
31.2258640791203
34.9110716414201
35.3744668403673
32.9958881486715
29.2174808195932
25.4618944057797
22.5146817191338
20.4723785997685
18.7430073454406
16.3126937866244
12.561278338482
7.90677165223356
3.4226999392365
-0.197579281204744
-3.15290519033517
-5.96446153299994
-8.4532341235272
-9.48573985411872
-8.02949123326374
-4.52404274582036
-0.985059952220951
0.393215090025896
-1.25243621217585
-5.15319354385674
-9.80482564686758
-14.0738308212704
-17.5873339969236
-20.322489096685
-22.1247021369044
-22.7230820216671
-21.9595876334099
-19.8188139432191
-16.4928872648225
-12.6576634604602
-9.4110638809806
-7.54288420174514
-6.80317077793413
-5.96167985877438
-3.69929585411343
0.263196715488026
4.82907396299459
8.69871003594938
11.9688627221072
15.9236682606621
20.918042212402
25.1672503979257
26.2587368432743
23.5222871419373
18.4998636020864
13.4268126500015
9.57681773791125
6.7123888768847
3.73492329125561
-0.0729164446137728
-4.4066901977448
-8.63605661777495
-12.8965539394445
-18.0506962307289
-24.4927459458996
-31.1809231332261
-35.9768980874589
-37.1243440917065
-34.6092938114784
-30.0316035955251
-25.0466969155113
-20.0622053457958
-14.4265787660234
-7.48618390470922
0.640234005531435
8.83390445765786
15.3023498645241
18.6300119114804
18.912935404727
17.7450326513526
17.0080022151789
17.717197777271
19.6982277053411
21.8778283840757
22.9435822504086
22.2040122265131
20.0657781703091
17.6293438277948
15.7391146005902
14.3509354990741
12.7610815323623
10.4558157903468
7.69476323416697
5.15855951410814
3.14438970672423
1.4264395865513
-0.124730430719933
-1.236629121342
-1.68464265384396
-1.67318847228619
-1.58318868861546
-1.54202842054951
-1.28169384287776
-0.296976398864577
1.65848410743437
3.93831691413135
5.02555289495682
3.57641144477198
-0.442184289104392
-5.67689017286169
-10.3303133351008
-13.132370783709
-13.639630314879
-12.0157800369713
-8.81181060318285
-4.82215826823646
-0.696817205739816
3.47031539488317
7.85346403830925
12.1205937199577
15.3691985955272
16.8941954054345
16.4909802497684
13.9829984017805
9.21710298193797
2.76489242837559
-4.11340660195268
-10.6502708792491
-17.2502044151092
-24.6019950911846
-32.4175040886839
-39.3584563951129
-43.9993650893882
-45.6117666896399
-44.1900931933618
-40.1014931296546
-33.9013239069875
-26.3515784159835
-18.2588266122621
-10.110941226115
-2.15357130195026
4.93676236904577
9.85279724447744
11.6660095460538
10.981240586166
9.78161243097911
10.1242524841485
12.9631510403886
17.8974730225792
23.768883600703
29.466351057851
34.192575217072
37.1943048546506
37.7627585701363
35.7586169028308
31.8503303549869
27.0118393068978
21.958824471326
17.1311943957874
12.9246437451513
9.71105386785149
7.63514454219998
6.40147830737559
5.29670294449085
3.53729581875711
0.658248162518146
-3.34985234019316
-8.06414759223628
-12.7408040375362
-16.6606823023001
-19.5027283953851
-21.272054456606
-21.9728887333178
-21.7060091675713
-21.0506259560521
-20.8151252929113
-21.1361454797902
-21.1541024040171
-19.8797140517858
-17.2000668821208
-13.7607230714616
-9.90569550694229
-5.03190050042558
1.6575897684008
9.64835092243282
16.7410676541888
20.6633304172426
21.0259496130527
19.4259628121825
17.8276804864773
17.2244327717308
17.6201242994335
18.5524963318104
19.277480125155
18.8043757428115
16.3215192431853
11.8512735336921
6.37209236166763
1.08775555536157
-3.43124741844525
-7.34073099116274
-11.0355055095472
-14.8864279091841
-19.1997410699035
-23.8650709957618
-27.9924317097195
-30.2578590056737
-29.7013536551498
-26.2015939138066
-20.5617822474471
-14.3769822561827
-9.36880799473486
-6.31832945981862
-4.66825009825126
-3.29410797796796
-1.51608150814852
0.588217663087349
2.5055183938644
3.92784891397854
5.38681862148294
8.04995356670812
12.3830733451975
17.1223988077043
20.055777165216
19.8561296406093
16.9943885972293
13.1236564067261
9.88220294689811
8.08252759556564
7.58471397941834
7.68824541880032
7.67199431531049
7.1923645307776
6.39747444173839
5.62342032993836
4.85032340442968
3.61070503573944
1.61701085130468
-0.755829620760033
-2.87069658314354
-4.46611438028467
-5.63470051115908
-6.44058973223711
-6.85923807984864
-6.91893188425472
-6.69091689708895
-6.23631786682022
-5.57792965554223
-4.53534146871381
-2.63202973462269
0.501168452029555
4.47146986385291
8.04311479242922
9.91718516008333
9.67781293670084
8.00286947457455
5.92198151690175
3.80517883946911
1.13466013888574
-2.63981046114736
-7.17505305022529
-11.3591879386069
-14.1798086450052
-15.1469541808112
-13.9562048088734
-10.2288635798443
-4.01432100839667
3.41020728806735
9.66004386680596
12.6830276246947
12.1265771093458
9.033293509109
4.4526959794975
-1.0565166038468
-6.7213927692599
-11.2099931505241
-13.3232487524955
-12.7355047358675
-10.0901858693344
-6.71813431042406
-4.0847428807809
-2.96682853173315
-3.03672481856094
-3.38344309317316
-3.34854933177909
-2.84239305901584
-2.20545169841915
-1.99654353898702
-2.6800534190823
-4.21256115521244
-5.90748341592985
-6.79686598546581
-6.18703573285034
-4.00941561469379
-0.868449825194921
2.18639248859027
4.18581384141623
4.90226021487494
5.13818610680465
6.1587795625028
8.54066887600421
11.5780811333632
13.9925533014395
15.0703852653758
14.8549580325701
13.6106790289501
11.7373164300637
9.98710823561249
8.97208571213485
8.41236045181603
7.4828932954036
5.93840903181878
4.36046509903845
3.24005619324585
2.2725326012172
0.702262909015031
-1.86343745913281
-5.07106327386107
-8.160446403867
-10.5985868863861
-12.2573717886351
-12.9664124674392
-12.1966495181633
-9.4892384703194
-5.1993937018691
-0.695217756074888
2.3279393926209
3.020103357875
2.09573394480505
1.32477131427157
2.19085625110839
5.00866737086503
9.09058242529242
13.3169298099377
16.4938948101782
17.6850034196909
16.6649639327139
14.036758481788
10.7324921669371
7.35745734206718
3.96687591309239
0.395902527839054
-3.20498874031101
-6.26827816586807
-8.43753095306235
-10.1736067067752
-12.3606054485732
-15.2914479560967
-18.3264371463075
-20.5363611651016
-21.5044182678255
-21.653579604131
-21.9332365145146
-22.8883504194333
-23.8565512374575
-23.4533831791044
-21.1050295550952
-17.7857413544484
-14.97439601079
-13.073518584076
-11.0402846675812
-7.48389056304935
-2.04555949762868
4.2832624906878
10.186299888721
15.2615911177594
20.1390783460075
25.5150849082553
31.2531040678902
36.2303883371719
38.739692944072
37.2210397577752
31.1813321370635
21.7230248941739
11.0901832453675
1.51013550848644
-5.79145709934836
-10.8439354008971
-14.4319340488192
-17.2282294119664
-19.2970886757771
-20.3946807708984
-20.4918147950175
-19.6991623043974
-17.7938091898282
-14.2307127099042
-8.80357656153578
-2.09145294364346
5.00049922186016
12.0195268494124
18.8398625611236
24.6954586948502
28.0162488648647
27.7834956520214
24.6404709283388
20.08169372367
14.9286770738393
9.2674365984555
3.51120221416733
-1.35685311725563
-4.61309809165708
-6.33402296150296
-7.12859429434336
-7.62479404612261
-8.0383388662958
-7.96773956738294
-6.78961194514818
-4.49930315982733
-2.02844649467657
-0.479878688633294
-0.0279760066375347
0.223526359352002
1.07321591393835
1.95433179116211
1.24867499656695
-1.78184558084244
-5.64206899884041
-7.76047991723144
-7.08001162910951
-5.13513431201246
-4.50945616009106
-6.49354966870941
-10.2058418165672
-13.6743600406028
-15.6323206189713
-16.2884757993248
-16.4913453192637
-16.5708595969308
-16.2938090040513
-15.5120909919872
-14.2485782695105
-12.3525036601389
-9.65075128553995
-6.34483498451051
-2.74825719959995
1.38902640544575
6.89132349148666
14.2242576975339
22.4827077661569
29.4243780502279
32.8520511026991
32.2120765564909
28.8596974545285
24.9443854571537
22.1998672724396
21.2851440824297
21.470456835279
20.893353226796
17.6520380993059
10.9557668898505
1.45572543992615
-9.01026520376376
-17.9011242741772
-23.0596976844687
-24.1577983640009
-22.9849543352608
-21.9035586537905
-21.9886155678995
-22.6040203616269
-22.3583583524399
-20.2905133437287
-16.4492778882809
-11.5759250084594
-6.25761969333393
-0.576577341595836
5.25524360084797
10.2255117553588
12.9607150084295
12.9325809259988
11.018435914584
8.72764983900248
6.93486806459337
5.50983188031077
4.11055141608042
2.87480965593831
1.96824941134607
0.828248239093084
-1.45436657900656
-4.98448044076408
-8.75761069792579
-11.5033043128301
-12.5236062563466
-11.8954889142983
-10.31044697152
-8.67924636676458
-7.5300598497858
-6.63160081557468
-5.13601828333001
-2.01740997541401
3.35313300619098
10.541559657
17.8783429756728
23.3904435763197
26.1510117776435
26.5644520599499
25.400535328413
22.9862114285112
19.4765474620583
15.4804609586488
11.9360676701574
9.25151248658443
6.73105629951241
3.05714914525826
-2.56049775244806
-9.62148083446193
-16.439842676025
-20.8799369832379
-21.5057446923767
-18.7152203723173
-14.6941420677
-11.6331005530461
-9.83329698225344
-7.92269598786627
-4.93960192360042
-1.73874039293877
-0.0996989870709852
-0.647824570777109
-1.96598818474126
-1.96577582158654
-0.119133303973206
1.90055582778251
1.83324127058997
-1.20768165047177
-6.35995470362573
-11.9783204583106
-16.6190552782706
-19.4926382232573
-20.4604837833593
-19.6168844193015
-16.8119605332729
-11.789376145898
-4.9407753688549
2.30116787024786
8.24903715348733
12.4439733596126
16.2925691067226
21.7726135247301
29.1063029006097
35.8719852897817
38.8261852573732
36.620735126847
30.610597079468
23.3654116543263
16.8286493127626
11.649329502171
7.60947280735937
4.34648204831671
1.66899515049247
-0.688608037308297
-3.27488752182884
-6.54361480722072
-10.3280297731516
-13.9007066966406
-16.4394861356712
-17.3043602931761
-16.2046872233694
-13.5442036646012
-10.6033423299641
-9.15144243730592
-10.6571742111864
-15.4308933556802
-22.0801973117975
-27.9523906363654
-30.6581793281282
-29.4420803213563
-25.2188990238587
-19.6646234500143
-14.4247052031378
-10.6905612588907
-8.88467359769403
-8.50392198706245
-8.25032003512912
-6.38196219117194
-1.3516399108781
7.23357883606236
17.9362485735072
27.8961076105088
34.2300611649704
35.4879831407723
32.2960349460699
26.8271784443805
21.4070557086612
17.2683817754772
14.3166161820687
11.7207731548694
8.66705294373943
5.00910926325943
1.55790918962325
-0.474953378458006
-0.631453901573061
0.218110674011555
0.547635340446426
-0.574880074838057
-2.80036353210872
-4.91428048361459
-5.9448480686549
-5.8857865923013
-5.33546916954464
-4.63313978807347
-3.56566370053569
-1.76870375958538
0.829002708842665
3.85736077916064
6.63417998272502
8.54190061001166
9.34412516901024
9.06142213926797
7.69542077289152
5.3358268392191
2.36592875735336
-0.827790140795492
-4.25514061866999
-8.01141750612109
-11.6134506021182
-14.1352531243237
-15.1451270641738
-15.1622587317736
-15.0096619090018
-14.9137043651456
-14.3731963901217
-12.8151670822331
-10.2640569583942
-7.34863801686086
-4.7505866986338
-2.78688333038534
-1.45623188216027
-0.615752682819932
-0.0438639292276033
0.488511058247081
1.17460621544142
2.26330910323852
4.02905376337496
6.51979524077537
9.53687291043699
12.9152918354532
16.4369822473362
19.3600924567165
20.5815077321112
19.6623073453647
17.4427954741321
15.3312313744508
13.9611733041197
12.5041368800986
9.28082145980151
3.31291268371476
-4.50443718204981
-11.9098283559331
-17.1073163358996
-19.9981670353194
-21.5651022541336
-22.3147256226219
-21.6592962126547
-18.883380586791
-14.4204628474807
-9.76158268070608
-6.01061425385534
-2.93959180119786
0.169898475315906
3.10583424322641
4.78266893790539
4.65590049391202
3.49347290965964
2.61748649232002
2.74244642526649
3.64068817911699
4.65482571148673
5.28253595617219
5.1633471123403
3.70586574616019
0.365015717402952
-4.31333194892709
-8.39481093600031
-9.96584074817564
-8.81682635457857
-6.47353119933448
-4.77212293627858
-4.54622072510026
-5.21854738309755
-5.21016965953551
-2.99425763758207
1.73570931749478
7.74974798456011
13.1636382225294
16.6659455601835
17.94787122511
17.224789446901
14.9085224143747
12.0894986662588
10.7151960795811
12.1096262918077
15.0374918656966
16.1530532703527
13.0165819945675
6.26815931549689
-1.45768420955992
-8.03068076226842
-12.6474481658816
-14.9459417965987
-14.5620837593957
-11.7640800708858
-7.81519950255889
-4.23907447697245
-1.76238006671265
-0.0575186370804249
1.52491597160986
3.07260495036184
4.06625015265306
4.18609513512085
3.92254665477203
4.16291766206884
5.15664923434614
5.9966101830631
5.2798572816064
2.42830810237573
-1.66752071255548
-5.41096118628104
-7.78586944211795
-8.81042761332049
-9.11700160460281
-9.47050207409509
-10.3264959169547
-11.2769459337022
-11.1080954371696
-8.92164716887127
-5.1690516429671
-1.3901464563465
0.81433032233404
0.480396251586076
-2.37939760775424
-6.58847390185801
-10.3178720517114
-12.3777963052577
-13.0229535326103
-13.3338992868372
-14.0346300414123
-15.084274979775
-16.0593407013351
-16.4639782210344
-15.6599455649669
-12.8981279828618
-7.8088223170542
-0.838750835922296
7.13211540117206
15.5633862662983
24.0816847083103
31.4349674652339
35.4297639192018
34.5997967720823
29.7678151530933
23.6070459887069
18.706763542832
16.0522411422594
15.0112595938213
14.4138513127534
13.5028629300261
11.9534760551965
9.4379011921107
5.72149074637346
1.23790224049224
-2.78854423877226
-4.99879120977723
-4.79807930410973
-2.89154484448736
-0.969143555069411
-0.460729049374919
-1.38412588484569
-2.56049869727999
-2.87579970870735
-2.07433827598433
-0.551728357966624
1.08707649718526
2.1821575329647
2.07486221997369
0.223180974990597
-3.62896988610012
-9.18464599260439
-15.4919579366923
-21.4232175628986
-26.3130954622488
-29.8178965927572
-31.2714467539143
-29.8886369600572
-25.9390401610604
-21.2898884605704
-18.2664326788858
-17.7572761061687
-18.3802268693169
-17.6076178173294
-13.8967286091946
-7.72115890207405
-0.545585389839008
6.78449253451083
14.301420614509
21.9534072019095
29.0026588396257
34.500272419756
38.1559205686493
40.5898760545335
42.5602094679448
43.9026073703105
43.5358405143221
40.5882256008014
34.9988207827506
26.8907441046411
16.2590523384295
3.898488910264
-8.08055626717247
-17.5850675693525
-24.2930299530933
-29.5944041508104
-34.7934986594218
-39.5439154757709
-42.0123202239537
-40.6117852873376
-35.7263241378973
-29.655969403464
-24.6869431847796
-21.222889873417
-17.7035399021245
-12.0341127805191
-3.22345265733768
7.71660185698711
18.235683801625
26.0237509629696
30.6142263892677
33.1659336176456
34.7816465889594
35.2056059463966
32.9550157095274
26.5412617972706
15.8384263760132
2.52968212966558
-10.8533977719629
-22.3675750782613
-31.1654390651682
-37.0212182283791
-39.9115104820247
-40.0773262211826
-38.1758254080281
-35.2295550198335
-32.2543751146004
-29.4777422477173
-25.6499356625543
-18.4732653780002
-6.40555210768005
9.46007738465529
25.3324295649285
37.0219802713476
42.7599114899505
43.8309327407309
42.5282484789588
39.9048125151469
35.7167640798356
30.0233578157706
24.1121844295535
19.6989801925805
17.4391476316614
16.2854598584885
14.3211911227099
10.4103684389862
5.13557331566634
0.0995595402569064
-3.5338642803403
-5.69596512582352
-6.95455879302291
-7.78180444842573
-8.22691465794397
-8.14265426568928
-7.66905516512871
-7.26401416250909
-7.09815337872167
-6.83982041002924
-6.47749663028796
-6.93151494142959
-9.16461034969854
-12.8828187501912
-16.7444896323493
-19.7200975793928
-21.6412705406717
-22.4571878569373
-21.5862466202936
-18.3504916201673
-12.9334150729057
-6.69336580468305
-1.35967741879298
2.19782117679909
4.46346379238841
6.66524642015597
9.82393605303955
14.3298545284077
20.0321176083227
26.2260775577576
31.3969651870619
33.44145106405
30.9047811214561
24.3087003209747
15.8522252416383
7.40526991453074
-0.951629903065216
-10.1329619668293
-20.3233620046261
-30.6194125378524
-39.9303232036684
-47.4405272432064
-52.3776243768496
-54.0965344539686
-52.5091272937156
-48.0362025020109
-41.0876859200468
-31.8057625902414
-20.323158229276
-7.19584534526518
6.3859867605221
18.8631810629658
28.9449605016058
36.1102163045083
40.6749832994336
43.603031788671
46.0904111345591
48.7676963290667
50.9582933712265
50.8092758377717
46.3857559967759
37.0228764547093
24.1327926693377
10.8117803376318
0.201823203389822
-6.19279205652561
-8.79569924321635
-9.02481829606595
-8.4638735692628
-8.50240388973261
-9.79267577368334
-11.7499955640825
-13.1369056734762
-13.3899611500453
-12.8959433221151
-11.7857910223559
-9.20665094968235
-4.59915179515119
0.460091332379314
2.68678794373178
0.179692311286775
-5.09475916407055
-8.73563193562714
-8.07132608107246
-4.30030598615501
-0.332849696312389
2.56237678584759
5.21709856289736
8.2434552973779
10.3472066640667
9.32500921602353
4.34774654386639
-3.21531595258873
-11.2721562616665
-18.8621579101339
-26.2297927357361
-33.4893189642588
-39.8952749913607
-44.300829148337
-45.6207942805107
-42.8090993463359
-35.2007835899298
-23.4320386665588
-9.75196610308583
3.09456932513366
13.4641392845602
21.2357801912632
26.83788908656
30.4193746958965
32.2372521913648
33.2192477351761
34.2864173254059
35.2058325489641
34.8752399484315
32.8829330747477
30.1974434669372
28.1315711864604
27.0363809286608
26.0576365403417
23.7544310141037
18.9552089873124
11.4881251155672
2.37387660172143
-6.60413557289224
-13.5104734795455
-16.9584408045755
-17.0473282429403
-15.6637688114969
-15.0432626562057
-15.5929553523336
-15.4794836179051
-12.6174118316669
-6.88398123013425
-0.333179517897731
4.51646686984138
6.45875237734501
5.82523281827309
3.33951752362057
-0.748646391091376
-6.25352296445688
-12.2573937540818
-17.1871307018002
-19.6450952323569
-19.1439862913319
-16.4255921035801
-13.2999419847164
-11.7601176094338
-12.6552229536809
-15.0485210306184
-17.0331615909278
-17.2976539593687
-15.9195016623847
-13.7558649178219
-11.3494248334265
-8.68605886957134
-5.94074443913428
-3.9485971269412
-3.42153613562449
-3.74282667234895
-3.03338591266224
0.276213760608531
5.97456852341505
12.1722770800982
16.7648852837782
18.8134278470827
18.7159220959669
17.412672662555
15.7359996918265
14.3371138839089
13.5700144072949
13.1197651057214
12.2060268798547
10.5918112272794
9.0920060167507
8.68042235922894
9.33218663754066
10.1346280159727
10.4125295396725
10.4682952364412
11.2774810913309
13.5970502059235
17.2624993114611
21.0749069612749
23.1371196186685
21.4604386662978
14.9457613398369
4.38030557359732
-7.62587665179008
-18.0605614905039
-25.028930882965
-28.2472291843255
-28.7797159878592
-28.5000420723627
-29.1182610453642
-31.0889891863895
-33.4299492962634
-34.5399360365484
-32.9347080431686
-27.5318627255852
-18.1255614099948
-5.91983088760837
6.86377749206564
18.2472289962761
27.3329808043837
34.0402359641031
38.4310749939637
40.5347655319596
40.673168312703
39.5274246808068
37.5650440622511
34.5700282563426
30.111440905726
24.3632046812606
18.0246447681183
11.5182495960329
4.78037849941302
-2.16161873666675
-8.94273760364542
-15.3698290446394
-21.9282472223749
-29.6752349932616
-39.4992720452469
-50.9840882692873
-61.7440921607306
-68.4093858145821
-68.9465664859983
-64.1224944154634
-56.5073678195454
-48.0439723914605
-38.6670376974968
-27.1855252600338
-13.2083721453515
2.1282771470804
17.3277504742756
31.7949341377978
45.2322922950774
56.0412611828787
61.4887605003351
60.1449488414989
53.7085914072566
45.7814227082193
38.8156993306524
32.5084164790399
25.161688416927
16.2531619756299
7.24330542696176
-0.0987281387327443
-5.4833066488812
-9.81025908044882
-13.6919272554934
-16.9887868773268
-19.4995322192875
-21.2883217566705
-22.2142177260552
-21.6355878946689
-18.8720113717703
-13.9678310004891
-7.95001248829195
-2.13221115287407
2.95915388684178
7.68411124891693
12.1415095851916
15.3650387520468
16.0845401451675
14.078397358576
10.4896849860561
6.91723789455904
4.22755437865926
2.01868794617436
-0.755154608021752
-4.39537483932933
-7.77601675837821
-9.34454004848535
-8.69733720332763
-6.80831498085402
-4.79320966590072
-2.84940307168759
-0.404395864543241
3.03642190679572
7.2571395770286
11.3405601636092
14.2415647509633
15.4308230791383
15.0600901772102
13.6315538000242
11.6073818116239
9.24102245751047
6.5811292008589
3.53355610325184
-0.0175216023352251
-3.93716456752748
-7.51755605072047
-9.5963528483247
-9.35443665196344
-7.05110793260702
-3.82667228758536
-0.978594590161711
0.308765088542146
-1.02361474991795
-5.32794508101811
-11.4966727441618
-17.2245358989946
-20.3276314406597
-19.9625823266114
-16.8538669890562
-12.5449591474967
-8.40166387323682
-5.30873327135267
-4.11292795805668
-5.5900485479222
-9.27022379747001
-12.674013758124
-12.8336875556258
-9.03076493133056
-3.50772800150287
0.878597109446707
3.29477571926077
4.89523364719244
6.61110612430146
7.7928237835063
7.38622276813874
5.8899598182311
5.16585727106618
6.08387527092255
7.20439858425702
6.412761876029
3.32063454635863
-0.561628068408378
-3.53233106236595
-4.79821804178866
-4.17135597808749
-1.68575931380149
2.02740277336018
5.43395027492808
6.90638727060394
6.21957938834089
5.05430700957749
5.60015791739629
8.50171331974272
12.2296705240551
14.3900007025599
13.5941887165929
10.2723228924462
5.89899449234539
1.55547507021025
-2.46305129062046
-5.52257257783456
-5.88464820568699
-2.09212457852053
4.83184370981095
11.3834980895663
14.2195282346505
12.6667528255699
8.75029347837294
5.21765944745503
3.55037322484703
3.36933913891645
3.31599995286141
2.33163377849601
0.108654130822139
-3.29643980493253
-7.71827086029497
-12.6455275884175
-17.0322509113032
-19.5307257456725
-19.0913013290614
-15.7381929827114
-10.869287799441
-6.34947950238459
-3.06288546901408
-0.650261727006992
1.35179810835449
2.78032836350443
3.4935319866126
4.03478104314411
5.03057092475893
6.27161415261201
7.07922617839383
7.5815765985447
8.90596113480188
11.5890800714089
14.2199670876604
14.5359995429549
12.0010642872072
8.5780963856354
6.5590359895173
6.10736106978227
5.40249486084982
2.94126857862229
-0.845958259078797
-4.40584298808736
-7.19423221536954
-10.5911787692934
-16.4542552227435
-24.9351027168942
-34.1156425822276
-41.7170440676603
-46.5376158971163
-48.0572961361709
-45.4992059496046
-38.1702171604025
-26.6507453553256
-13.0777969924892
-0.0291798534526006
10.811893010703
19.0324196513003
24.9691081222043
29.1371233880663
31.9679395869937
33.5466759494054
33.4258984499077
31.0936291542801
26.8550289671423
21.9799075813213
17.8281281593942
14.9900047176262
13.1291877058812
11.2457048613512
8.25844764873044
3.99571415166726
-0.246736324890625
-2.60260985124915
-2.32028270926698
-0.409514647007108
1.34682485143662
1.77993338142913
0.777322571128353
-1.24971586144598
-3.94180991340051
-6.97358936738752
-9.74399373833535
-11.4346225687262
-11.5131124404241
-10.1511944575396
-8.18604133881778
-6.70541842325882
-6.4261988507972
-7.1556069879924
-7.95586541474565
-8.14210212978077
-7.98374029561329
-8.08158597121843
-8.27246953030857
-7.70215838867771
-6.0057926991173
-3.93895065233406
-2.54384606458243
-1.77299843171607
-0.226654993505014
3.40076374762505
8.57931599072263
13.08087001724
15.1066740515574
14.9075381233744
14.0835377302193
13.8375356563221
14.3242864374046
15.133694329828
15.6420042958227
14.9389031032734
12.0142909155404
6.507913705014
-0.570018430117032
-7.12730466857249
-11.4531909558066
-13.4294963831219
-13.9658709613184
-13.395426025347
-11.08129469716
-6.71740444852264
-1.34131340041959
3.40723205325729
6.82014006708697
9.69855586953265
13.5053693768909
18.867162956661
24.610983260999
28.2760044914157
27.831890158763
23.0297371127984
15.2435484272947
6.31897428760222
-2.41392177509959
-10.4221483121866
-17.6213342560763
-23.9071130898349
-29.2502524570291
-34.2455713857352
-40.0201963931881
-47.0108659128481
-53.7496797066908
-57.1289025452676
-54.2589757523999
-44.6206135984425
-30.8425173875251
-17.2963843673077
-7.441957191224
-1.99157358029155
0.88736300709188
3.95226241562762
9.18556274114957
16.7895000222276
25.1183519000266
31.6201990904188
34.4301255000057
33.6047247936134
30.9817481105312
28.7279901624706
27.8656220549502
28.0079926077202
28.226946105971
27.9672254751825
27.1834485910198
25.8302168493462
23.4609219607972
19.4965334883115
13.9094173998148
7.42495802105961
0.787832457662267
-6.04163687939777
-13.5351197558098
-21.4679478646964
-28.7022910304522
-34.2022843243472
-37.674899261975
-39.0660558651252
-38.1149300752281
-34.7093355255523
-29.0893795637463
-21.3555108223803
-11.2831739765236
0.895275916523898
13.6879361953689
24.7078321666614
32.1004180940513
35.7440838658668
36.9408801725825
36.7982642157351
35.1798312840374
31.4565815256343
25.7267938324544
18.6736020768901
10.6828517945662
1.9667101926363
-6.58112349629072
-13.4321191664645
-17.4860850050275
-18.7618610164619
-18.0599574974297
-16.2135375155761
-13.6414454456348
-10.4247572620108
-6.73289843483527
-3.08251630343221
-0.0552861155475633
2.1462707938718
3.7026908463481
4.83999779468345
5.60750323162578
5.84323011758102
5.27520802915003
3.84372715323638
2.02855073167756
0.736927025125352
0.705777776851061
1.80854876566912
2.85111984624085
2.38880244228142
0.106674471772911
-2.91039545284023
-5.67259308861343
-8.6136259234633
-12.8963260110782
-18.8815361549495
-25.9313192959229
-33.1736931832002
-39.527502102294
-43.2647754047205
-42.6293885434803
-37.2394842801417
-28.4792831591948
-18.3982713693758
-8.5278293670829
0.309617063465129
7.77065032937115
14.1358714450857
20.274607545355
26.6312024269059
32.1688654016819
34.9462420233183
33.9454924793348
29.944946923449
24.5886675910999
19.1591960624358
14.3915306338101
10.8537714953834
9.02124881921739
9.12145136591382
11.0440714774621
14.2017550320781
17.4565683100462
19.4742826745423
19.3176225833272
16.7818902686288
12.4258662254051
7.36272804637155
2.65494051851105
-1.37633492036688
-5.18008660664975
-9.33894387373767
-14.0470396597567
-19.0213068886242
-23.549625755454
-26.6347826495814
-27.3907186968527
-25.4940968362433
-21.4160010897073
-16.3239610373713
-11.4617326984564
-7.23054596478309
-3.02839480801099
1.77371921576337
7.10226587140811
12.6620487146671
18.2965413094103
23.0557033927869
24.5750110055447
20.6990333962659
11.9694453525829
1.81759137911976
-6.03475105338916
-10.1860630511193
-11.7265909081627
-12.3973206808801
-12.9525673252481
-13.1616208720888
-12.8449096692008
-12.3395190344034
-11.886512667769
-11.0122251144302
-8.83000876178769
-4.88691616026868
0.244712260173682
5.00064511005151
7.63813195914446
7.57393715220428
6.122645723007
5.63339125482229
7.62096970695902
11.6010049659947
15.5722777806958
17.5263542170292
16.6418372685645
13.3735814318755
8.81258697431431
4.20271571452465
0.752163890362783
-0.864752164534482
-1.26264515011165
-2.2842156011662
-5.59968392824023
-11.0763886598148
-16.5674187154893
-19.4869459416418
-18.7679614495212
-15.3392630974452
-10.8178264366641
-6.14286529577847
-1.73994886605068
1.50981558242663
2.39866157682018
0.758826608414263
-1.82148035328885
-3.111019257611
-2.09769093958854
0.244304440741728
1.92444426974959
1.71285777759771
0.0764128171525178
-1.58309417283907
-2.38038847101311
-2.3512516510429
-1.62627935444061
0.226189637137962
3.82575104474874
9.12395959030126
14.9766303895984
19.5629770718567
21.4465236810593
20.4550528739613
17.5777394864072
14.0641796411497
10.6336359836271
7.29610367166306
3.67830104231684
-0.417434757226463
-4.70409554393399
-8.76351861922559
-12.5347784743595
-15.9771949245603
-18.2675008791494
-18.0213255908264
-14.795601147214
-10.1463843354316
-6.71996175401724
-6.05606352606945
-7.28054688113109
-7.98693850854325
-6.37547610484407
-2.60297303183548
1.6300851889155
4.50463260960904
5.2627492972693
4.48326611834659
3.45817453865348
3.19196203533726
3.86857008825643
5.15197418800657
6.70833790676407
8.31678153376958
9.82541268130914
11.2548131234191
12.6359399872946
13.5328491616339
13.1083654990997
10.9289022658506
7.40328759979508
3.27699466615506
-0.964164579466747
-5.07703584438714
-8.80517483919209
-11.7795190145235
-13.4810323463899
-13.3736540985706
-11.3876094586377
-8.24838541588021
-5.00761377291073
-2.12457470296957
0.853135625881362
4.50505511697172
8.29558698736647
10.2790130774717
8.56444640948416
3.34285637438519
-2.8700519290318
-7.29991437727657
-9.08947843077097
-9.44522693337975
-10.0578047631033
-11.5378378260015
-13.0439309814544
-13.2582363740021
-11.9654122262678
-10.6156427216395
-10.7908210838642
-12.0256586776004
-11.8605543072512
-8.54154397615455
-3.26259697812875
0.817936873126628
1.68444752477171
0.204574932888028
-1.10375542624927
-0.411258825416317
2.56947904975004
7.37519644115926
13.5367086316622
20.520981380253
27.5552455498295
33.714185744125
37.9670905652353
39.2924651480466
37.1706549796976
31.9860534523336
24.7632550117394
16.6424109842085
8.6352004549382
1.34604110958015
-5.45052856661456
-12.5187264119421
-19.946042206934
-26.4406529274035
-30.2691306722758
-30.8418754440464
-29.1579159237105
-26.8293945861092
-24.9255542387565
