-24.2704146153376
-17.9036895607879
-5.99137751841134
2.53066513874877
7.86058905331297
14.6857308593419
19.9601955368533
18.695190191482
13.3324447759783
6.19863071692462
-1.64885451029758
-5.0025722374505
-3.72050857260912
-2.5506391697183
-0.0234170963499267
4.52942728344695
6.34194811890545
5.45952060238603
6.10984711796753
7.74029360704247
5.86819537006172
-0.745837710517313
-7.04019445748944
-7.7996946397065
-5.94126518159457
-5.37241246339026
-1.13394335925547
8.132478945935
13.1090354509877
11.0050950447231
7.52309596535681
3.01302680536776
-3.3792660318985
-9.45797893535083
-15.4096557622545
-18.9141086879392
-14.9861024677877
-6.7290925070859
-2.60749207797388
-3.74414929026625
-3.76246398634622
-0.960519640325955
-0.85600702375138
-3.41999886909944
-1.41831296489218
4.38087363977673
5.77674511760177
3.66927924033802
4.52345601864701
5.56777664297345
2.47622271987955
0.180906683565004
3.09305343650799
9.72795817826846
16.0503655201463
14.3689439694253
2.85748197270805
-7.07125028925547
-6.33641395014962
0.836748852805618
6.26721596772428
7.88506049609247
8.33485227382311
7.3649084953
1.95805520440796
-4.74182959652726
-5.82376336383866
-4.5375921811591
-8.97318321543115
-14.3523294527626
-11.5403866869618
-2.82587334416109
5.47282075305642
9.71634475766242
7.86418860564868
2.78650425135905
-1.834550376075
-7.16132475071807
-13.0086618876553
-14.0133875695871
-6.72458718996096
3.81150569818119
9.23445247560771
8.73542972779232
7.69502709755589
6.85492319589511
3.44690309104742
1.5338511144632
7.01914703121241
14.9435839484426
16.8570246250927
12.3773161084368
3.34010543186486
-7.98076257246792
-15.4932860129506
-17.3201144602007
-16.4454017070782
-12.6183779667017
-6.31403828378066
-2.17662356997327
-1.3962117645656
0.818798367992716
6.97168936120054
10.9593446854222
6.03262767391657
-1.71794515926897
-0.0364604281166477
9.89988062419501
16.6828980430345
15.4721304768467
8.54334548437238
0.840511329419428
-1.75556754422295
-1.46916552678167
-7.27370006860156
-17.854113920731
-23.0972672307557
-22.5937016377707
-24.5534726027919
-29.2446598034921
-27.1208058725498
-13.4733308971849
4.06869740408979
15.4867581044059
18.7187488694908
17.167406840633
13.730986271131
10.3181369551087
7.6168205297083
3.83929391633438
-1.28831010106825
-4.7671986960599
-6.24540285561215
-5.68442789546777
0.809479306380343
10.8398278124302
15.3816489206548
14.2404806850999
14.2661280628945
14.4706436252438
8.84504940243865
-0.948822197127051
-7.82722324825398
-10.4403037184606
-13.0297935158305
-14.4897749642805
-9.09008534883564
-0.705665377094183
1.79870971076519
1.39522174051791
4.64354185948781
9.10064230436343
12.1663186867387
13.2849854330254
7.98172944302737
-2.94616401037609
-10.1521603660235
-10.5160549403003
-9.90397838229122
-9.83059983546597
-6.68101996341735
-3.36503791771442
-6.04714566625664
-10.5867895987381
-7.18249430106279
2.5685003216445
8.34967181153956
9.11079719926256
10.2845584584301
10.334223222186
7.57743082503108
6.29322980272154
8.1079328162084
12.7048506951767
20.3818115511378
24.1764946479042
16.1991518593331
2.55099886740103
-5.04858605397141
-5.78162568636618
-5.53586429696013
-5.82871550960271
-5.9696015554599
-9.22821395040599
-18.831034222169
-29.9259740102538
-34.6243339473088
-33.7728011507363
-31.10702408277
-22.2017621691129
-4.53448150612519
13.88626786565
24.6706843987774
23.6316998392494
11.321084707074
-1.79482450808849
-5.03064112295926
-1.31807906038925
0.574064962992471
0.235450049445246
3.11739877776737
8.69379138225654
10.4868186627113
8.36144489849686
9.27355926523162
12.8422091729717
11.3979502485133
5.36829726030419
1.27365061952266
-0.209903148501351
-0.656657809017164
0.0930252112322711
0.0567378099528596
-0.876915951823906
0.351141237619792
2.70317065617747
4.35435758975217
7.40988573094929
11.0224363385576
10.1028579083397
3.74421606991035
-2.34125504077997
-3.37943073826582
-2.00010040402236
-3.50880265549369
-6.70697410887926
-7.93907939392736
-11.267737122727
-19.6485513648662
-24.9402777229483
-22.8377601638972
-19.4936091586472
-15.9976439155851
-9.05336265884891
-2.6577128488705
-2.2268804854184
-6.05026460125152
-9.05319433511165
-7.30969836058153
1.63787247935637
15.4780283875551
25.0324366192025
23.4745708814344
15.8701347249801
11.8248732026275
12.1001319538273
11.590543392848
10.5298002026458
10.8790344906664
8.72950030046144
1.92760761281281
-5.43709328478475
-11.3959330387543
-15.2889859136296
-13.9149714626023
-8.25850094533038
-2.0871819052424
5.35808393463774
14.4867594098224
19.2277475016086
13.5461158591096
2.68791310915442
-1.66223866603529
0.264122001188644
-1.15454640177622
-5.6186854983936
-7.23963301856888
-8.58396004855853
-11.2202034303904
-9.88977091577771
-6.35073186836944
-7.08828583335898
-9.56297810775373
-9.86465505826844
-9.81065502843746
-7.70707612442311
-1.67184284361146
1.49226874541642
-1.92523805706182
-3.04402813002756
4.0417328040455
10.8342569616825
9.16159495780672
4.5899980452147
6.1565405405794
11.0161795770931
10.8720917592784
7.57689777448336
6.17407316641777
4.7247600936857
3.52354695079247
5.46982035169954
8.38372624517448
11.1678144698513
14.4096486077966
14.1187866213459
9.11905509838889
5.15132062399759
4.23739810299258
0.934740244851079
-6.9770716181427
-12.1177134805808
-8.69163237649836
-2.59207241336111
-0.540933125186629
1.23752999660146
6.20537099752878
7.66315532334201
2.9347666557963
0.587744604415158
3.12845942298884
4.09347975489949
2.20842873038806
-0.539203582337113
-3.9437819085941
-5.40019880240943
-3.51368165416669
-2.89479388003219
-7.67214480106639
-14.205682514548
-15.865223555334
-13.6989396426811
-12.9090707729127
-11.7351971919166
-7.63239894466898
-7.07029994904892
-14.3755629585784
-20.6622450866324
-17.4025663039189
-8.65367765795092
0.249353352055318
8.51640823209527
13.3356822888637
14.2533051957824
13.2128243218791
6.36681800398036
-7.8109310607201
-19.9250045761729
-20.8922556688139
-13.9284351212531
-8.14983931750315
-3.99264353737881
4.66526644233433
15.2520819898847
18.1479950547042
13.18131556967
9.19756076499223
9.63814178617265
12.111540941777
14.7053261573762
14.4080843220986
10.6162840614636
7.98426285370662
7.33673231079832
6.15392312742901
5.68599704923066
5.01133236411324
-0.189909779578993
-8.19963985330658
-11.2419944491425
-5.93828323427987
1.18092974205146
2.52449096042377
0.272044508337524
-0.665716664705351
-5.55320906946795
-20.4151496607088
-35.6473824321467
-36.6112930136964
-21.3873729320111
2.4842061094668
23.3928658462151
29.9750708246223
24.6127714502822
18.7404092850938
12.7448968109274
-0.331721687205023
-18.1587152433098
-29.9191522381514
-29.157999883145
-19.0077034802675
-4.81738031901302
9.57976761268285
17.7315226700969
15.0520897276995
6.82406875141669
0.117970870278474
-6.04128127184607
-10.67496040862
-6.63065452633338
4.31982186622134
12.7250389364057
15.266740726179
11.4185630699557
2.79320794389792
-1.49912010581134
2.66334566884972
7.23716010196515
7.10134195470759
6.837517335216
8.06322863246131
4.68696541559263
-4.43480043096244
-10.2910745286888
-5.88763352597531
3.5655421495008
8.75423626242412
9.34656351070356
8.77299960795719
6.00032343115247
1.58576579514759
-1.68845634382542
-3.01007465960287
-0.85250956699719
2.84254735186406
1.33473015912806
-3.78270110032061
-2.70056512944574
5.66090940157415
10.6769915562815
6.14451711042014
0.0392433150064247
1.80594777987068
6.29599505353562
1.9507975837283
-9.06138687979341
-15.5383611440398
-16.6298107111751
-16.4301732507394
-12.1565524685418
-4.09662484726962
0.639238998289337
-1.37876447546264
-7.28821754217666
-9.65923063412474
-1.76803953715328
12.4249710436667
20.6475906865458
16.6413082549095
7.37247419623666
2.55420776430856
0.494641674823905
-5.45691346636473
-13.1416826734562
-17.0925791821002
-18.8294953482873
-20.4916352535493
-17.2533592076476
-7.56000014211019
0.804159094902959
3.48257448059868
2.21710328123828
-1.79590164511519
-3.36156145470343
2.32385349877964
9.54041271599567
12.6588267476482
14.5661397130513
16.0689225108938
12.2869379858456
2.93597521788305
-3.57321403627023
-1.58173567773205
2.1822632162946
-0.457137974657206
-6.14590546883289
-8.59529847466728
-8.20446091559137
-4.47536273017273
4.18509245699515
11.4151571442908
11.2064942397681
5.81907968939978
-1.67455362264894
-6.43488663005428
-1.15931259824162
11.5304104188674
18.4343044358883
12.7340614631676
3.42640925438741
1.46812700578307
3.52852731947893
2.00882093913667
0.493095218535069
4.29033420754631
8.8027343465546
8.97864003344287
7.66904758201414
7.28786362759281
5.869822442648
4.19615141057222
3.37671118577762
1.56454192686359
-0.0156933367643565
-1.09658628756269
-5.33652077033173
-11.559348484153
-16.2287389074641
-21.5534843848134
-30.7388435048925
-41.0509470100845
-46.3102928077424
-43.5800050196722
-36.3457299142387
-29.6520369091474
-21.4586134052178
-6.30820411156091
12.8335286342365
28.0494685361136
36.0454201958418
36.3165801444527
31.4033044892407
26.1252334872574
19.4182866820022
9.40030755630364
0.882748864583423
-2.81866739785609
-3.92777949122716
-3.66235335445691
-0.288191245895565
4.56222688275075
4.16874296829228
-1.98619497950256
-4.2458856220533
1.57231532537456
7.7150890745015
9.74622627426488
11.7398246503863
13.7144876049482
11.1979239342797
5.46111627240118
-0.305119722228414
-6.06725824980963
-8.57842485501516
-5.18835665006429
-0.892278840039928
1.27986725478529
4.57132125540573
8.11741360872522
6.51484899667569
1.31990449705367
0.850816558108494
5.03913187922067
2.97965894603756
-7.49289820645722
-13.5046421714411
-8.23792856228828
0.130048908656932
4.6034672840439
4.49009879637341
-2.12940180743256
-12.2538793821255
-16.4907844875759
-13.4142531789191
-8.30898394251795
-2.47780031646231
1.86300573290297
-1.10985697916868
-11.0463394174304
-18.2410776654729
-14.1681770022548
-2.3092856983474
7.48101531435833
12.2784122162697
13.5318053402652
9.04754770831356
-1.14266828838911
-10.8054399210521
-17.3202685598676
-24.0696700911904
-30.4093716497156
-31.9139473867628
-25.6726167488605
-11.1315550641422
3.18602616760972
5.08307551288403
-1.45105359411317
-1.13495932763937
9.18834089479941
19.092654496799
21.4634376921244
19.9724177032069
21.5746269526723
26.7821254621092
31.4412811272902
34.5196646032558
33.9932500913132
23.4761413072278
5.01863627077345
-10.4376399596116
-19.6054022875776
-25.0259708029127
-25.4102386524728
-20.7609015754893
-12.7654119806994
-1.44340675879284
8.69987268878923
11.848403707464
11.4762877949214
13.699114006323
14.5880502619095
5.98008454785021
-10.271346021887
-22.6014103585711
-22.2805726562871
-10.1204122002999
7.99280195723943
25.6017522098243
35.1743535466685
32.5544793008098
22.1566932746026
9.40409700095679
-3.46420116836663
-11.2421645393715
-11.0723988015301
-7.66701363671538
-3.12192901474084
4.36612635848424
10.4528544986052
7.31524150077477
-4.01297870444243
-11.9981257653232
-8.29211394032049
0.628343227746328
3.10084695358136
0.747087804923727
3.29910593143559
9.15680522583263
9.89267984466261
4.95980031461765
-1.80249532425214
-6.59907892137272
-7.16276538468564
-6.56586643548423
-6.56206263796721
-4.8663665433489
-3.05519355190655
-4.40804823188087
-6.66639564045136
-4.92024529471819
-0.17074978189151
0.986074627129129
-1.8932430666064
-1.76179734504043
1.71127536243278
0.616617349071426
-6.26375962895305
-10.9058929043527
-9.38741252835079
-5.15637594549669
-1.46959373832056
-1.12210946607993
-4.53242223984008
-5.46395472417117
-0.698876574113299
4.42389323221879
6.61585639832325
8.19613114100354
9.88902854411193
8.86489553629256
4.85299962343159
2.452159791234
1.99071630626512
-3.2560381484773
-12.5596996150019
-15.6505633404563
-11.9066953655936
-10.8304136264829
-13.2312135893467
-13.892980450821
-13.3098369249602
-9.81860357420165
0.599534586929454
11.5484436788013
15.4729274600687
16.0479826611617
16.6630214143191
13.0697580953951
4.1470047603519
-1.80758977323836
1.34301345996693
6.01878802573076
3.00263053928837
-2.9067845552164
-4.22945638145838
-5.07475506369948
-10.5420499050554
-17.6158745422433
-25.1938118484955
-34.7924334649879
-39.5846712654779
-31.1422638301118
-11.8499949601808
8.06296841132066
18.1893936357017
16.4601286431079
12.1090690966365
13.1931215396343
16.0923944166096
13.2153388545325
6.43054832589954
5.93344836004182
14.5727355515857
21.4927358277359
17.9248890976349
8.34172614886452
-0.904665618997064
-7.33474537231869
-5.9396993809786
3.53584031608709
11.2317668280516
11.6697637391326
8.15615504468369
4.08773731200153
3.57835052648163
9.23153616924998
15.378648589144
14.8610596813591
9.02041353640816
3.95953065826251
0.616781607729788
-4.20765128517177
-7.52039668919674
-1.96295497463511
10.4952848642156
18.9152387864285
18.1929154042203
12.8502996492822
7.16940233551332
2.08766131367777
-2.05435290360217
-7.82532563539504
-17.061611428077
-27.2461672582889
-39.916890940458
-57.2815902161416
-68.2764117003033
-57.3410740608471
-26.4819224181904
4.72392815971664
19.9247751849917
18.527154672458
9.53267890314905
0.831348647893324
-2.61499774173771
1.5340786403769
7.82446040881281
7.81130263931714
2.56175461160859
-1.92950848880072
-4.76528623466095
-6.17525994822365
-5.91948914548928
-4.76133175025351
-0.0779711640003728
8.94849713010706
14.4201920809174
10.3732819283491
3.40030313609649
3.6975289309531
10.7268046831567
15.3502870318634
14.028707671663
12.170469473965
12.2732048827731
10.7211457723209
8.24233051143339
8.6331086148797
9.54058138558491
7.90110829559993
5.4126273060131
3.21241898749386
3.37794387459784
9.22490830126034
16.8447904155534
19.7586598176902
18.5399930989147
14.3316194023733
3.56263398294031
-13.7007887511061
-28.4657206740405
-30.2544595275814
-19.0633053186735
-5.86075145812401
2.15430394878921
7.18386039847324
8.52762590294405
2.84309117147215
-3.70115404102571
-3.83564584357958
-0.312647000600261
3.58540663768182
7.54201245943641
8.7617456207822
6.98629572115843
5.23776980796684
2.02202718251388
-5.02592847047849
-11.780587174639
-13.7955798346597
-14.1979290959948
-18.3247482420231
-23.3234026324355
-20.5301292293291
-10.65615598372
-5.91047708288752
-11.7168285119178
-20.1007239483543
-22.8330261927931
-17.5564644640109
-6.79042633027477
1.42633842049652
3.0486098652781
3.78033832778872
6.62699627582671
8.93629923372427
11.8515015494784
16.4185332488987
16.7826347049425
8.25277932777034
-3.54702628199029
-8.02524781860729
-3.11297009474635
3.32647660427291
8.01547253592543
14.521339876126
18.6192248221128
12.4410211328989
0.667287305200537
-7.1423431566913
-8.38241377594577
-2.4281139681126
7.4785794695467
12.6345744383861
11.6346982823802
8.94912621797932
3.03785876264419
-7.65696503568449
-15.8216740723797
-13.8845166715018
-5.86768585756869
-1.99664898231842
-3.9636487909522
-4.64635456348644
-1.70596859824018
0.261100719175881
0.680842554623118
2.18362468274269
3.21696553876403
3.26429294616989
5.69788641475439
10.0414927972697
12.8535167932843
12.9571312329619
9.09746451616098
2.38523138207639
-0.276206561934045
5.28915070848031
12.6906006554316
11.7595737053677
2.91223624004339
-2.64561353358676
-0.785496791376591
0.601263048457626
-1.38731902072806
-1.36810234559408
0.766315131374895
1.65822693515259
2.4197638041472
3.25255998295222
3.47890608982265
6.84931419690801
11.9237804269034
9.69890445314897
-0.439151645248779
-11.2483293167072
-20.8542556759458
-29.2866581698994
-31.2444388203568
-23.717451664761
-13.92573857445
-11.7473123253296
-18.2407512537048
-26.3687261451351
-30.7926002691837
-31.8411870695007
-29.9091705329648
-24.4348933610059
-17.0277953055285
-7.54657508752785
4.61916285079924
13.9767718423629
16.0645188804413
11.8781463369795
0.912841040768374
-13.1742253345665
-18.1855508554183
-9.20067878573103
3.9574870326225
11.9250346087926
17.4881581933184
26.5968301332066
33.9384142645613
29.2674601638483
17.3717756990398
12.3680329310432
15.045145322875
18.408751155116
22.832644672214
28.1701995719299
30.8326304183765
32.109463258738
30.6806231338447
20.1001894121752
3.68179011403296
-8.24048690963791
-14.3216961510272
-19.0145668879491
-19.9679052829473
-12.1750131508496
-1.04667424118051
3.54271295988928
3.67445389776912
8.0566894794464
15.4133339133555
18.6703941631992
18.793317963936
19.242254034248
17.1034016024715
12.2019334794425
8.98110674049793
5.87451918860644
0.718747866739983
-2.42699259004671
-3.63551461785575
-7.4682809874798
-11.3591914964946
-9.18686572050153
-2.77548485338905
0.665813710434023
0.387106707625174
2.12632754192187
4.45119507358263
-1.75835952460095
-15.3106048098583
-23.8642194142143
-24.2358748162564
-23.9720729047515
-26.1341799463708
-28.5282732189288
-27.9630491181358
-21.2626781398352
-12.4060033525767
-7.72952390081113
-4.47873333788825
-1.13195561207414
-4.70241581042904
-16.14031930324
-25.1378051801519
-23.5485520801892
-15.450195004284
-10.280333537095
-8.76053504561056
-5.02948675105466
0.390969252933032
3.23289087393667
5.65621872796992
10.8860281585264
15.053181664365
14.6373042389962
11.6855013843548
7.63661075001194
3.95119065515484
3.23763559704568
3.79273760402201
2.95383178012134
3.01604074243659
6.84727033641463
10.8358698003398
8.69617605903857
2.81356922960465
1.64726721758245
6.30801667876523
10.9017304270504
13.9196034299507
17.2169310311737
16.5475425093538
8.84818845937753
1.80258180597922
1.8078767190888
6.4489550390652
12.2168598269549
14.0636983762151
8.23018925054924
1.51427936332609
0.486626910398813
0.528660229851483
-2.72084451635938
-5.42675266325734
-3.61600858092844
-1.26872498995929
-4.6401080462149
-11.3534224922265
-14.9153236879427
-15.4009824205654
-15.5222101158697
-13.2921744106317
-7.79904142064068
-3.75785651368961
-3.37426720601222
-4.90058741773592
-8.05828579062948
-10.101417232214
-7.73266488781482
-3.949647729321
-1.15428848790039
2.05215675927609
3.77468483599116
0.463743307160596
-6.14075669120774
-8.98742800074365
-3.47008848674154
5.17325635356402
8.58674099832449
8.31101457106269
9.90246258413292
10.3163283960339
6.61958459250968
3.66947190724786
3.23872890128889
3.30901052123603
5.19760954569269
7.94181180824108
7.82244060469537
6.47413047984557
6.73609788397294
5.64695467717329
0.86195930607518
-2.9544589289573
-1.07216806066728
2.94450432302941
3.26775110924301
2.36429325787437
5.27476919269237
8.86101856026886
8.55301466970148
6.69071928044433
4.70762149418694
-0.590703982231622
-9.09726635969401
-17.1565713128649
-20.9396002378512
-15.8069953141773
-4.19065395544962
2.53700805132223
1.95077743977094
3.42043370283683
8.37849050989409
8.28933177892624
1.71487349422626
-2.99185323559456
-2.14649250658532
-2.36565873851248
-7.43447978517397
-9.93400669033947
-5.13111452700405
0.258540797481839
3.59721822073344
10.2890981151551
17.7647966010614
18.6071958617286
13.1850486241335
3.7500679958985
-7.84646736521714
-14.0158757258198
-10.8833937918248
-5.38617373068619
-2.52773154140632
0.360623841622683
3.35955000122581
0.325386186781462
-10.441452006643
-19.3944182670175
-18.307400398279
-13.472736399693
-14.5949315812848
-18.5666194327104
-17.193176769467
-10.7018722511346
-2.69441299308668
5.27164813697088
11.2751880743261
16.2105747633491
21.1088910239598
21.4561630022111
15.8602548685111
10.4445884113252
9.67257502971024
11.8112077611792
12.8903069502407
12.4517696084108
13.523647275277
15.5011648674228
14.4927093237829
11.3102408352666
8.60962819602617
4.55490544206724
-0.24370310029398
-0.111753696585072
4.41373890227378
7.19682777328841
6.55497407411629
2.9080789594932
-2.17550923485854
-3.90894153651702
-3.11928270673312
-6.74221026233507
-15.4861643430399
-21.6724057425362
-18.8415276566696
-10.208395610371
-5.58007888834026
-8.82091994387238
-14.9894047395037
-20.5422392388499
-25.719485488457
-28.1290688118155
-24.9676596165787
-16.0962778640482
-1.79777569134436
12.0526283571938
16.0855111647729
11.0487975396383
3.28398395789975
-5.8791878515782
-14.2590790870693
-14.9761354816462
-3.86891273478672
12.5880522411381
22.1467816816207
21.7638405487248
17.6045980928881
12.011093840928
2.87662072176929
-8.50707465358444
-17.6230809118859
-20.302287233128
-13.6653106592228
-0.987365001814205
6.67915066081415
5.05639825086164
2.64503920678282
2.69504486870229
0.10830963762196
-3.73176447904291
-5.56409064228764
-9.28405391996953
-16.9920222592064
-22.8736958300466
-22.2124824661403
-18.2743241098446
-13.9136898795187
-5.57548867218268
6.10570681627845
12.6871539086722
11.98575449619
11.1774594012773
11.9501374469337
9.10807201632654
3.96556279689816
1.48468865507415
1.81121436265291
5.49858098237605
11.5711304861101
13.8350263492332
12.4160607413762
14.8674155519319
21.902470050883
25.3695852858199
20.5454305231764
13.6970373188457
12.6454870237882
13.6416112988186
9.25293384939144
3.50639343262091
3.52108487874677
6.06635651893064
6.36292595357222
5.46232851114671
3.71156854137176
2.12944176657492
3.259271346631
3.60292477850972
0.12463099709415
-1.85729762110708
-0.259838081195228
-0.565887764464826
-3.75624213419066
-4.04416478083841
0.542036690237384
3.72554832791431
0.208539536877724
-6.77386007220901
-11.1999456366274
-11.8615830723865
-10.7494503516522
-8.15686983693257
-4.35247845573435
-0.69064372532853
3.55707964467274
7.8440399850514
9.71282903373366
9.35395887352646
5.62765958804493
-2.41730356746491
-8.84908991032902
-9.71305241192669
-10.3717737914426
-15.3964204294174
-19.8954602416727
-17.2161881245934
-13.8031560656036
-24.8467959749415
-48.214029236987
-59.9998559865754
-46.8179652008587
-21.5185546207043
0.853700795578299
16.5197817998562
22.8467160630643
20.8242674800813
17.0253212227315
11.9143345110051
4.48683643072023
0.807284078109121
2.51708014576015
2.95552253060624
1.10798285553558
4.20691576867676
12.9144759788349
17.0541276116762
11.9408487422026
5.58895981499556
4.09702380811513
4.10828287021554
3.46808386603176
5.06405897662189
7.21253503118055
5.28499046999448
1.00894186808144
-3.47736836153106
-8.02018886678788
-6.99681669862595
1.94470447411231
11.5181003900736
17.8083097154807
23.2163571905008
27.1196979080609
25.9997340907232
19.6196051732369
12.4549756268799
7.86015873548441
2.74659008747214
-5.10696967467705
-10.1467213561409
-9.62769788541629
-8.61476319097613
-7.83305590102596
-5.39971079275595
-6.41619326599368
-11.4215613271111
-12.4103117985911
-9.42894102237122
-7.1745944327165
-3.34834633799452
1.7100613045194
2.3705463270256
-0.26841826178103
1.41247625300936
8.75056563019896
12.246971208387
5.66215671426016
-4.28455392253278
-11.57665031244
-19.4498747377578
-27.5193423864719
-28.1408991741662
-20.4345938750504
-10.8540613068399
-2.20849764501172
3.55713787026372
5.18430971617758
8.06092988070653
13.6320235501806
16.0922713696174
15.5677474429577
15.532131493247
13.4292991443852
5.6717094978019
-4.04799712314969
-6.60723204670022
-0.596226007776757
3.00852061766231
-1.50511198721566
-4.84922734916493
-0.560429999648489
4.99352486191515
7.84726166902608
11.3421750662451
14.7722507419981
16.2659233575132
16.9801300302763
14.3745426115126
8.66482867101777
6.306077504933
5.62389013938119
-2.44352580474999
-18.2972684622387
-31.5559081406618
-34.295559503231
-29.8249663946302
-23.2826618849109
-12.660873477523
0.297957643189244
5.01008523491966
-2.07239323658998
-12.0618011877074
-17.148247624958
-15.1337085711824
-6.62017583778031
1.33861006920848
3.17753745660367
5.34829082413039
12.3895707235782
18.8833113570577
23.5920662973541
29.544163796333
32.5533579631528
25.8142733459446
11.2718777863046
-0.372134500120623
-1.60375168747482
3.04830974499842
6.23502919604664
8.92707735766497
13.0286281283556
14.2650660487634
10.9292395547535
7.18682053213558
5.27510904419868
4.8390531356074
3.80427463168169
-2.05137089824863
-9.72896333616342
-9.62497603784325
-2.1651704357428
2.90736415396883
2.73731779884929
1.49250290013883
-1.60234909964931
-10.8462867550143
-21.4357968461609
-22.3580318200241
-13.9411980707374
-7.71677976015081
-8.33148118495488
-10.4392610907822
-11.0214525891972
-10.7370872773538
-9.58749503497692
-9.7998996456596
-11.6210743284511
-10.5102299487477
-9.31781443030082
-16.606440897531
-29.819614402189
-38.4715980535903
-39.4391518589498
-36.1690622389068
-28.3118299683959
-12.1600531184711
9.19092519935982
25.9134586055471
34.7692021885381
40.9824537902434
44.2370563862238
38.898353150247
28.8069057653291
22.0154470101766
16.001976404606
6.50533423492895
-1.9157732240253
-3.09718133974696
5.13332879322175
18.2479566479359
24.723770219675
17.7952496575706
4.30296420761231
-4.50352591036784
-7.52338301100014
-12.5181548103681
-20.441136009064
-22.5986428409685
-16.9714442892455
-12.0127282417705
-10.605929956141
-7.9488798830177
-4.79282314556856
-4.41872727565983
-4.94897002798194
-7.49409149312778
-13.9104473581365
-17.7402303068417
-15.8045681032595
-12.8458059134855
-8.76385094446819
-0.482991572681106
8.26909482004982
11.3101621241093
10.0259712140148
12.13476494978
19.2730067406643
23.6530356858299
21.2537799776268
17.1673847686575
14.1267518951876
9.81098778130541
5.29248601130712
1.86089393849645
-2.83015870421492
-6.38851841138964
-4.69619163344764
-1.47262902603856
0.309495233855948
3.20167200292296
5.19491412563726
1.82251169541992
-4.01346969200748
-6.13342326723309
-5.58650198445106
-8.55611053630876
-13.5051980369908
-12.6273050196701
-7.60820384411334
-7.02162404393469
-9.73288768054992
-8.97091547028116
-6.03778104574078
-3.75416640935437
0.772521801779138
6.43772322596127
8.83931376462073
9.0907405143994
7.72797980900838
3.35756560460875
0.714347506759542
4.42494776542688
9.5518172978825
8.67564334774123
3.14238285449766
0.928841019421777
4.36602679328203
6.83330270191744
4.95584939117965
2.73443175420566
0.0643560329175995
-6.52875193920791
-12.5401139516131
-11.7585427877541
-6.82904561688874
-1.58231844577593
3.96420815053435
8.51827969064363
12.9791601071103
19.8063190785676
23.6730953085993
17.746029287348
6.35565120928087
-0.232425723268074
-0.0086091213334134
-0.607691967449444
-6.39049580188755
-12.9852258023843
-17.5627351745545
-22.7784481263561
-29.0725028777061
-35.3738386066518
-43.7340076403401
-51.7183249697108
-49.9386027423829
-35.746295070725
-15.8098997833592
2.98580623304891
14.3731322360017
17.2593772487321
19.5564211971491
25.2677137557553
27.3333041761489
20.7600056533635
12.7174966264175
12.8988054990203
19.9161120886631
24.2056219365521
22.5406843044824
21.0088916256788
21.9956186359337
20.9807767025368
18.0672088781687
17.326659692858
18.4292845794791
21.0027276889576
23.9539272385333
19.5048413407973
5.63718941508195
-6.68331346464697
-10.3198571631542
-10.2469440091464
-10.8100332195004
-9.30661292169636
-5.99871033447983
-7.69522003187804
-15.7796343168114
-22.7687091521247
-25.0419390947924
-25.8522557641684
-25.0427949521525
-20.2164944616614
-14.3789255959156
-10.0343879246393
-5.24882268437159
-1.16534562215054
-0.120049994001443
-1.31407924674826
-6.1524613066573
-14.4465594708633
-17.8881119514422
-9.7291649865201
4.80857411596994
14.4235474872474
15.8343932112685
15.4664263214449
16.2268094596934
14.1460378826103
10.004485074289
8.8379253931343
8.44587705798179
5.22867578882407
4.1769273102065
8.53747404376905
12.9697366534147
13.8558304035183
11.825385651295
7.93126518648094
6.78319882164392
10.9188495020554
12.4997992190667
4.80277863152741
-6.01984330599342
-10.4074616387542
-8.92844155805038
-9.59873985632362
-13.9479309852753
-14.6609531869452
-9.77044023365321
-6.06752128535393
-5.45031744919248
-4.01560681428302
-2.59732359654401
-2.89132281751932
-2.61852648982881
-2.8034187427217
-5.07692205543292
-6.10566364048858
-6.13859907376556
-8.35039790576245
-9.45001163626784
-5.40305156734091
0.616114240692403
3.47140025178504
3.45134693903868
3.54784023487551
1.61869047452147
-5.89433949736447
-13.2631867696844
-11.5782643666076
-3.05899543101367
4.90221116254422
12.450184080926
20.8297058307633
26.7530353286562
30.0868833410483
31.0909761271954
26.6772220781707
19.1816996026048
12.6150708715313
3.51060525668293
-10.0063371409742
-20.3913050566416
-21.2684062812137
-17.8943848321396
-19.2755611993742
-24.4059431687429
-25.8113667185825
-23.4234820868308
-22.5173415006459
-21.7046322716329
-16.6946968624955
-9.9405968177948
-5.28495359599164
-2.24642484398948
-0.815976486866527
0.0462343567231762
3.87773827993787
8.07887049857462
7.86473132760695
6.9973004966457
10.878236514109
17.3929083896591
20.9306356896649
20.3265638513494
20.3530643642138
22.9787582620509
22.0969333571525
14.7026767620301
6.73953655173593
1.32045793109823
-2.85432885753658
-3.24750115839421
0.995771997535214
6.02096596499595
9.89698146858481
10.0184892535779
4.82249784868194
1.68507335480975
4.77329386115364
4.26455655304826
-6.35496885339656
-17.9017173358945
-21.2254937193819
-20.6942561276377
-23.3050706593051
-26.0373755826875
-22.5242016047736
-14.6077048235958
-9.01848750240911
-6.86965959135074
-5.19175396585272
-3.9704303215538
-3.55938905772058
-3.34267164086906
-4.4591433758646
-4.5523575156603
0.172948221938943
5.13428846943507
5.11686644877658
3.63262794990308
4.64420274591562
6.00500094553137
5.78860309565636
8.58969055489935
17.875523896978
26.3229894535212
25.1707351945543
17.7257446617137
12.1959083864497
8.51638338310758
4.35907664195214
3.52364899836867
6.86881065934405
10.4487472845621
14.6417977597769
18.019841045237
15.6554429837573
11.934035469204
12.9539472935498
11.9729598281158
1.25544488657625
-13.851770029559
-24.255341911467
-29.9882148614096
-35.6021618751574
-40.0944594502971
-39.1668515114315
-34.1269482086161
-30.6713006194131
-29.2465513849773
-25.8435262128372
-20.3175603557753
-14.5151370585991
-9.12575886960635
-5.53341032566342
-2.14531821406743
3.061388705847
6.41620612622124
7.28558156585896
11.0457705280537
18.3109778813793
23.1194668187355
21.6047216275636
18.6817392934829
21.5007189944747
26.7922406894049
26.229114989358
21.9232358105034
21.6802703685345
24.2498224643079
24.7810268163468
25.5913854184449
29.006555313974
32.1825119389331
34.0043637646088
34.1714290681197
31.2055212171189
28.2110308218112
27.6647584321486
23.7219964046176
11.1037232883761
-4.93184203693649
-15.139481699589
-19.7784711951106
-26.1831300401817
-33.5382263200754
-33.7245046928349
-27.2878040860654
-22.5112202370242
-20.5248483586434
-17.6602625178631
-14.2449425617484
-9.59598230089967
-3.69632801554772
-2.20332983148924
-4.73786855291242
-4.61730685934503
-2.71980029536425
-1.44995825789982
2.87174518316763
10.7262860471224
16.8205262159779
18.112799971458
17.8061272285161
20.2787061342515
23.1423702633385
20.3523226450039
13.0785182291095
7.41862355115586
3.77074166652682
0.206981183821546
-1.45781419781674
-1.53805200155393
-1.79131618038296
-0.278476282816527
0.744378666974801
-5.01838162924247
-14.75466341369
-21.7687489928367
-29.3096581355758
-43.960158930001
-62.8146996639305
-78.1103727201065
-89.0047392191496
-97.8503255755888
-100.78327229456
-94.8676327345579
-86.8055826773464
-83.4130401730141
-82.4539122033388
-80.1244567761849
-77.2480344344004
-74.0495860883416
-69.8200802719983
-66.1076530810644
-61.8689914864174
-54.5686915992949
-46.0498148691762
-37.378735295034
-26.2504395747861
-14.6554267366088
-10.1426749171384
-14.4987366415045
-16.3729446136942
-3.66024677148825
21.9323527839487
52.0376669994134
82.6062313562888
107.683970756682
117.297058389149
112.965742951974
109.263414692608
112.370117244111
116.181786696867
116.239906672271
110.462382765618
100.427552734818
94.3766898019494
93.7406831085154
87.8990051257486
69.9098796448938
46.9468653737571
31.7448766247188
26.0569603603155
21.781660813674
18.1208400719592
19.5857580436798
21.3752519789981
15.3450383454693
3.50819991539187
-7.41566061351119
-15.8762970797306
-21.8005780342247
-25.4042818041226
-30.1988764799681
-37.2100642842838
-45.3107093724338
-54.4057660735122
-57.6272366136936
-45.0100526240258
-18.6134022159226
8.12698573676306
24.6597300397214
32.6344629280234
39.2363678051775
44.8338076859322
46.7941507586159
50.1999518067806
61.0255939955139
75.4489466403082
87.7034671974147
97.6276708298725
104.433830248467
107.561402120355
111.378953137457
117.369852932753
121.851203734507
122.399697214237
115.720080508894
97.827983060612
71.314797154533
45.0618294504112
25.2466296291399
9.15947145334906
-8.07818812302861
-25.0666210869751
-40.7709701237407
-62.5263065904343
-96.5089121165201
-137.205131447039
-176.070270732798
-208.665151373094
-229.390074486985
-238.007829357671
-243.750005811696
-247.137826649648
-238.19943872863
-216.507489820766
-189.605594387818
-158.33415523596
-118.784700463342
-73.5205597081547
-33.2029058088193
-3.48764128761124
19.1718158051451
34.6296993991518
40.8318033210964
45.8439756383747
58.8673843413718
76.9221558027044
92.4549072103263
103.715033863624
112.011129287535
118.760380846404
123.174321650699
118.541851963888
101.827014094896
82.7061394882657
69.2311141852062
53.5651897844378
23.7061398396696
-18.2096693025867
-60.5899115828146
-98.093243676463
-128.668376082805
-145.154269115365
-144.629105797966
-136.250000664129
-129.312981000342
-122.37177149468
-111.766643132755
-97.9411248905795
-77.8347746306109
-49.8618183141788
-21.8762369362685
1.34524737228942
20.7860896263441
34.4531672889082
45.8868862258813
65.8297633740408
94.6714011391846
118.622697206201
127.636037115737
127.746708850792
128.88835477698
127.841412743277
116.278626984957
99.222816375401
89.2401819828668
89.919489387078
99.7341560378315
118.289723338239
139.659769008331
156.920771595503
169.229477303869
173.616600039599
168.344669510121
160.813257758
152.865952052052
134.731961278607
102.665254799101
64.751731371422
25.7808625287214
-19.3458564825511
-69.4618810701829
-109.183955808521
-129.474143159406
-139.417628349513
-148.146562683735
-154.866211914647
-160.969003554877
-170.20178226119
-177.45254114545
-175.846019938044
-167.497421107052
-158.648856693174
-155.912426736552
-161.489007723432
-165.210497593545
-155.389463907117
-134.054406586833
-111.572845546337
-93.3344146862974
-77.255308117215
-64.8142490050158
-65.4834759788764
-81.1897770020207
-98.7703771805064
-107.032714099992
-107.407952997388
-102.447584672863
-90.7073718530564
-73.8443954412892
-51.3176354195249
-17.3781164898389
24.0084705094754
60.3143420427357
88.0556717158081
109.929531589471
122.344065437875
119.549928704573
105.096149543931
88.9559044955503
73.8833125832118
58.785506082447
50.5332823050587
54.4379625657437
63.6167815207165
72.8006493319979
90.7343333001731
127.034436300824
178.404162618123
232.180483956786
271.218440656759
283.077847782876
270.835116178206
245.23020271409
217.25799032209
202.430962871453
210.867598981528
232.956790502349
249.025852513983
250.146080571268
242.215634032655
231.508778682113
214.608586017314
187.370964553586
154.438948588122
120.656702104339
82.8217217728507
39.3074876141203
-4.70866834774761
-46.1025696199569
-82.7695108018321
-110.759535138794
-132.562849083341
-153.526309605945
-174.060461114219
-196.012938506668
-224.539725471397
-260.55093524524
-298.637533627465
-335.131299613394
-374.72565414823
-420.86761662084
-464.913875586565
-495.084824047852
-508.865357915279
-508.626774373304
-494.195807229355
-467.647295086976
-436.784430167545
-409.015567342275
-386.094050402634
-361.835115555742
-330.189253780219
-298.934215602838
-277.379199000633
-256.37902593268
-221.619202603496
-175.096120319327
-130.987335426842
-96.5195931960566
-62.3175213806582
-12.1680266248309
64.2640703815056
166.833678633214
280.854606760101
381.754430834005
455.269676612687
507.923719945657
549.749396499416
579.406616903292
595.232014951137
599.788430403403
589.398822541023
559.85666161428
514.955311479865
458.922030176217
393.672354012562
325.380821986719
264.108548386261
215.783104304777
180.654738073757
162.09577312248
166.191094515922
187.383010321499
208.383967682775
219.562759585032
224.679418797973
225.384236209633
215.822775404705
192.973615674475
160.907875988451
130.609150774421
113.952887054021
104.967041692331
80.4052132110669
28.845539642876
-37.4153954533909
-100.699898692253
-153.484027826259
-195.142338586077
-222.645600044853
-232.239154645069
-229.215044601411
-223.423861947358
-214.943310317933
-198.50200754337
-175.928302666413
-153.386493854823
-137.899301575041
-136.652672476863
-149.779596106874
-175.291368625026
-216.984277460237
-268.758647581928
-307.624115013395
-315.763313696043
-294.679635805658
-255.775306781479
-206.913423663898
-157.199323843681
-130.893377173189
-148.460837982678
-195.799543164066
-241.560184356711
-268.921864591233
-272.891931680093
-254.976614676368
-228.928915085743
-208.988487838692
-196.036792973737
-191.288181412248
-204.309409162245
-233.10379557278
-261.856059421749
-281.975446539943
-293.846783893386
-294.139433071397
-277.30710848144
-245.797643833586
-206.637599532049
-161.471419596206
-112.787102056379
-71.0417057835434
-38.3911330677692
2.29978778611096
61.731697672333
125.042787053399
179.001899824476
231.858043287087
286.84836397604
324.589032125527
328.813051855831
314.894563661935
318.528648758604
356.287091368901
421.495948168122
517.896233839879
649.5583444567
779.273558047813
847.567003695346
836.314074012861
787.454775940697
755.416354903344
749.119175516831
729.068803882401
662.046604643925
561.474858121531
466.120859572106
398.423854843742
352.120972628949
305.558409063819
240.473308650217
150.905460487409
40.6409367264214
-78.5077732535851
-191.182730981716
-288.134089365729
-367.670492069311
-433.868518773039
-496.290877249855
-561.329895701215
-626.798810001497
-685.468306680264
-724.600071787019
-735.232505213452
-733.102737569805
-750.168138547022
-799.689679487362
-872.139523972373
-953.580403733687
-1019.60095554679
-1038.08387159598
-1004.2627311556
-952.33808381602
-925.729360726843
-938.985271020868
-955.947121712128
-908.766157554579
-749.03135354785
-474.529731735265
-119.175858249429
252.530088217466
559.09734348443
752.389520038968
851.001830203479
909.73093569741
963.557419386361
1009.77385339453
1040.86820231662
1065.58725695785
1086.14717093243
1091.68400097729
1081.43587500394
1065.28753115799
1052.4985594938
1052.22283837166
1059.70822422568
1044.90737770947
982.6069917694
885.334185840433
783.450313808474
679.128825460375
544.67393336776
368.264552024104
171.089189957159
-27.0888886502124
-223.979346150349
-412.262058681905
-576.211777473509
-708.840301295661
-814.391233234618
-908.78452011022
-1003.0897781871
-1069.14865091239
-1066.98326614856
-1006.94061641167
-930.955560354889
-850.96034548836
-755.047235807077
-650.451455050108
-544.888041441249
-403.355735525364
-192.500863530427
47.6412874539708
246.971547398356
395.774166032016
528.676971060723
648.745731179973
721.903859985469
725.88833530935
671.771949889642
592.390565719558
520.140538116568
463.194850877059
404.231913112261
323.830679530986
214.241855322842
75.9408207937506
-81.3637233690286
-235.383536189778
-363.315474363792
-458.249943142381
-523.190075317316
-551.977398881334
-537.554033768282
-499.283017624727
-468.161378364991
-446.360019681623
-423.927774342824
-423.687900049766
-481.877140233669
-594.293977559944
-707.996601482384
-760.893874684816
-729.592777744015
-637.406993224137
-519.837213364043
-403.469943247998
-307.904525889861
-244.423363766272
-212.57063996086
-197.617739820997
-173.913205100813
-116.936830516004
-17.1079050257673
106.321049726114
212.690990470775
281.508163940076
335.726920705808
403.40279663229
474.928346241409
524.005976685153
548.39608596087
566.584088929789
591.069962457444
615.554792051666
624.366461198832
609.233297350805
569.52019166928
506.459849299817
434.295821567575
385.719878228242
387.176753808268
435.759800666117
501.890453540846
545.174515618106
540.931393125329
500.052081110321
456.516350509066
440.229134136111
454.976256029645
466.905658816983
428.202846662262
323.960823612095
183.064355359529
41.8623412521358
-89.0141533503884
-210.723331154532
-301.570766003829
-328.96815394187
-291.075666060757
-216.673713156746
-139.352201528923
-94.4689205307236
-108.799193069563
-168.701017792805
-232.177173272211
-280.325434370781
-318.676471809513
-342.481059822425
-343.579232133152
-332.297745642209
-328.251416762566
-343.027320648336
-373.722905576805
-410.312595442235
-451.271091547708
-501.168373844047
-548.261951710013
-558.546325418001
-510.567087375463
-429.45701087591
-357.253742083184
-300.353238469036
-243.648463217759
-194.901470849985
-170.317127473113
-158.184126215745
-137.435672612349
-113.023283635581
-105.846601333746
-126.259465051376
-167.538766077851
-209.359349837671
-222.929765141898
-176.383923066012
-46.116525434501
164.629830760525
413.545109503324
627.825325811038
750.380695418034
788.654929567554
794.980454237939
804.407007677641
812.706200716063
798.532600207291
747.691319012477
664.487893766937
565.127156010624
457.230666172428
337.80814531897
211.72625928755
87.0081399423462
-39.0623581185113
-161.552960445057
-257.668963081427
-315.880777922423
-355.153122083979
-403.854332409518
-466.644853761059
-519.078449605277
-538.800929178179
-536.273488445888
-544.614252158302
-578.150849802263
-606.047062869699
-574.338288832231
-466.773854519607
-340.799095607442
-274.73269169316
-281.53494301811
-305.766813759833
-290.481814184528
-223.892488809824
-137.746333700433
-71.7883096881271
-36.9310561318886
-11.2392253117356
29.5069930812097
81.1282352666269
121.382418001226
142.709803597041
151.683131748485
150.721175299998
153.791939625997
205.582629802909
348.888455164254
573.134953634439
808.117034163219
974.349603313491
1043.79421422571
1042.32516568772
998.201094333308
918.426916755124
810.326091408776
687.079876373002
553.183875387677
409.417514982957
262.813513867784
121.886530880331
-8.95866925523178
-131.043002941321
-245.873981613242
-345.316312017265
-422.275462493461
-490.852427904627
-569.776517304895
-652.966124173623
-725.212077089583
-782.375592105957
-805.857400220284
-756.372673643744
-628.285019027669
-476.730617358576
-363.238906439102
-302.331731633109
-279.424952158297
-289.860578550618
-338.33957129388
-419.369408906676
-512.962308795455
-592.67417156446
-637.565515145734
-638.403486974537
-591.545279898378
-503.94436961452
-407.03727251287
-335.135883231555
-291.377917416246
-257.698664629711
-213.247453894458
-120.343631476594
66.2877052428512
337.53021135858
602.783521667961
765.328473506193
810.460221710519
787.316094158295
735.787110288829
671.109179214838
609.740652749089
573.324127739283
572.579022581915
598.286959055969
626.405062264933
628.444482588745
585.826624392368
508.791503849694
443.60648795813
456.781233783997
594.683449502143
833.432543299659
1076.61572791251
1227.19168622768
1255.96629056285
1191.86316452282
1071.8290155779
920.256679711329
752.953327519942
568.953068645353
344.34166767697
56.279248998108
-287.580890121737
-648.687137142768
-977.774746200957
-1236.55186813347
-1411.67856415995
-1507.49728046753
-1529.30289946743
-1490.83343212087
-1425.26929201711
-1364.17161214229
-1318.80646864795
-1284.86930765237
-1237.58555802969
-1130.56041319077
-937.667159272571
-698.785063830309
-493.573698597901
-366.195654932427
-298.517225942751
-247.362861442107
-187.345878590186
-122.680629804906
-65.386244859203
-15.4966153996008
33.8132255382647
91.0424131912631
166.968660535714
266.79387484364
376.902840881809
471.706118248179
556.191019649057
668.09580770284
796.272112296937
856.155378458205
791.443895752714
642.214056650302
479.979280934357
323.777064698423
155.8331061955
-19.6731257475062
-176.292070978167
-300.401989471787
-403.717683752133
-512.300380877482
-645.46913126723
-800.575319469209
-955.025254633458
-1076.62430299695
-1135.86464228027
-1117.04721475689
-1019.20288906082
-852.302901745251
-645.624172318286
-451.179238433157
-297.039606572424
-113.170305644906
242.651565216635
812.4027814269
1441.02930967943
1934.22287971608
2241.34799972578
2420.77514358717
2523.02859445648
2568.09502362056
2571.234811782
2542.34886298747
2482.88437743225
2398.66773710186
2293.2636328395
2153.11459893721
1967.6262491249
1748.64803074383
1508.91198998917
1244.48413120728
948.974491649893
622.784113213894
266.367219675014
-115.556939180533
-500.944255736461
-860.350132131618
-1179.9409021214
-1459.23112228065
-1701.03137576883
-1916.08971975011
-2115.84846016175
-2296.25045044601
-2444.30266833418
-2554.4334419153
-2620.22912733327
-2617.21332957779
-2513.93093821994
-2298.2513517933
-1997.7254167003
-1685.94870652838
-1441.52914377561
-1281.49013309866
-1160.31347654447
-1031.45935977168
-881.859384090127
-720.685390203906
-560.432003970657
-410.480575382778
-279.363721606312
-168.768123957423
-68.6117807279962
24.1579909372531
92.348948905393
121.219313075014
114.639313962309
81.3903283706336
36.1174487986284
10.7509722120119
32.1856610323311
94.7611260080185
173.997138088441
258.883089907736
362.96248499846
509.389303923385
699.591381641663
891.037350791454
1024.97453224979
1083.12821162071
1093.71861036748
1081.94372748235
1046.92924890274
989.691967039896
923.913661733216
849.841000972434
754.187322387032
637.05600244134
508.589180201566
374.153649536843
244.29157141136
133.111050215295
40.2444015556376
-39.2329074251882
-96.934753949741
-126.832153720328
-146.438187707757
-180.60482321154
-226.01245010802
-247.922173460542
-214.892288492712
-128.300767768898
-16.762752562078
90.3068146469019
174.760504304501
227.235107856418
249.675829552275
254.460128790982
260.596517605634
292.596099844422
368.665629056812
488.484784221407
633.232402976074
771.189435302558
872.440451579102
928.243726203326
958.498117792085
991.548853028618
1019.74848864938
991.388102957152
872.05422547439
688.785557944215
493.039163781479
313.04896089659
150.613025596317
-9.04242072331277
-177.892743797894
-341.569484563312
-479.005386631949
-591.015764075143
-674.723095681807
-704.172417928303
-680.064146627404
-663.358990128456
-711.019762673825
-807.765480838675
-901.924097014539
-977.250445989625
-1060.63166231374
-1181.09398836546
-1327.90024965691
-1438.73536996707
-1439.34355540215
-1308.7489755199
-1101.68149393887
-900.125484787127
-756.297401894677
-676.957625236462
-629.226994887545
-566.908557006694
-467.638210865694
-335.29296658345
-183.887441319581
-37.0246855546204
78.8359681872409
157.36334476257
224.40692203339
315.978919371351
441.664371993523
579.679998948153
701.28594303102
785.541644441645
821.880852686125
815.830103791474
789.966057645489
783.800146097028
851.480429673627
1009.67143984859
1178.2694082738
1245.71797023194
1188.92534023333
1065.74226419818
927.736892394881
786.936198069199
630.398379996021
444.28705923079
234.382297475196
24.5916710738717
-159.274700389779
-302.62088738332
-407.314068329148
-481.783301522927
-527.489536321137
-546.148907741192
-555.532163966279
-584.189780246675
-646.56963136928
-721.621622958274
-761.424195360031
-733.847567505264
-645.772598766231
-518.974450393269
-371.159078755196
-221.43516586947
-89.9893548387536
12.1399427063285
88.2477375320007
144.578777071332
180.033956338081
199.390875667545
220.275168782501
252.301642918692
284.496447509183
303.588683095571
312.216241152325
317.446358147535
313.827810664985
290.394918797142
242.816843869744
174.095825668402
95.1477734028067
27.1451481640027
-6.2084584008712
0.602413807967325
25.0523180619971
41.0997923891676
42.7910312149314
29.7189658456828
-4.99212487086437
-59.5693982734521
-123.139678535104
-194.01762136877
-275.67477637955
-357.626716093641
-418.09497226455
-441.447592132935
-428.245963623267
-390.465311057549
-335.778343061843
-267.216098944434
-200.133657564494
-159.648635041641
-157.847654415951
-186.40557927556
-232.280275945967
-291.576825900353
-362.961570947678
-439.488671303041
-518.102669281825
-596.396679047552
-645.246137356463
-609.192534130284
-455.49684521635
-215.592595741135
34.5119803645317
236.160133713965
383.243113660714
491.289002125007
555.631602255992
565.832397460733
534.542182516588
485.774981294294
435.310144138367
390.507674073523
355.548414848493
341.89590824968
368.101877623733
427.091192009515
473.653872543361
473.835413005077
442.317991561023
411.823254223303
389.905075130358
359.439533403966
310.456577425711
255.726401219001
208.578496843314
163.689307819513
112.750565627235
60.6074027448284
15.2982946454134
-23.0659854233991
-48.1403496492051
-34.8941825529694
25.7366921847398
96.8939193841582
137.358863508289
143.938234202233
139.572851281916
157.066328561124
216.210181277178
283.932689765843
292.346096654651
215.195608863386
89.2062436786127
-35.5977568469605
-122.473127699253
-147.926010522859
-117.912386007715
-61.8878498438728
-4.00575496540615
39.706459325246
56.9567036442178
45.6212403032892
15.3911134913427
-18.2698079433246
-55.4040566373156
-122.494838714491
-235.87964892442
-363.763954336823
-445.266070525241
-440.99619194175
-362.970582855341
-264.31244948836
-193.429871914332
-154.058318550754
-125.355331211392
-108.335433617372
-124.665462771469
-184.56785765622
-271.392156534236
-351.377582135213
-401.17802086843
-425.266575574138
-447.193702837551
-489.441478124925
-551.862675175797
-607.913028553234
-633.947809753197
-631.800807029956
-612.574763283738
-576.501510808219
-512.380831243789
-401.741779814902
-235.353101508732
-39.2672935033725
135.537175808803
254.659197841502
312.445215760052
316.374544391871
282.494168228003
231.463894994532
175.698151813489
125.356638504708
107.263957396965
149.213879055051
237.727255104016
324.708821592846
385.439276628699
435.642055149418
494.237056072225
565.274136398171
643.930917212487
710.739520423975
737.585323828692
718.260816223722
677.558447912817
645.507509108031
629.140464279445
605.851558249971
546.145961959358
442.247167474259
311.507366705392
178.140936615024
57.3401142838995
-40.4621130942381
-99.9830090779187
-116.677619548221
-119.391209695383
-151.473128032981
-225.386043359178
-315.22211906592
-393.116513446735
-453.221947824484
-500.524456646943
-536.764103509235
-561.789320542771
-580.062100805778
-601.396363813158
-629.58323650656
-650.307957793778
-634.205802336843
-558.173728260014
-436.98029640666
-325.789641856882
-272.48645779689
-277.551445147756
-306.545000912287
-323.234910623467
-308.32488580845
-261.251064702957
-195.735632158211
-134.832795677202
-99.5484029565817
-94.2899932479277
-100.327292246037
-85.6157706360919
-30.9619323608594
48.1991113163596
108.804761144663
117.148291194402
87.6869659612189
84.0720629151086
171.597971266484
359.96155128388
591.687941400466
787.806098996869
899.963640126653
923.65024852693
885.850538166101
827.425487927741
779.881540141917
748.670528137422
718.426356648082
669.272021259599
584.502917243421
456.112145711078
292.979805362982
120.174085567262
-22.7417178348883
-89.9983369479836
-66.8024405460235
2.18169957474922
44.7581942429804
20.296593097394
-59.318292993894
-155.715536909692
-238.917280045656
-297.715581616963
-332.285973463063
-352.785445175745
-375.96243019218
-409.592335395906
-448.553342907775
-482.482864269633
-495.428089195658
-472.43337350887
-413.074330740284
-332.177433741653
-252.266720642638
-191.186529505776
-150.208196521817
-119.417739874619
-88.8934144574319
-44.4679820236947
25.9847850678062
112.20313217114
199.40515549964
290.532922152018
375.743754288134
416.946327360203
384.82831070123
287.182240792153
165.447876804661
68.8139920692861
19.0154868084351
4.39073864766047
2.04217158064567
-6.43507791958642
-25.8804894713558
-46.8900115251145
-59.0592432955107
-61.4233718718099
-62.4682835462953
-69.5332320584204
-80.3487858402678
-97.3736070612162
-134.857801303661
-189.215429552627
-231.105803303337
-250.185768369472
-267.573188365695
-292.526254022369
-308.939759162609
-297.720871723384
-251.037906149423
-188.723444759258
-153.779398148248
-165.569219308232
-202.281241132185
-240.492166362462
-277.547205126276
-315.479239528848
-355.981167518468
-406.438955204912
-461.904141764566
-482.265127897809
-416.445692828477
-257.887567852511
-46.3588024565684
180.751631456834
389.127153995072
526.38442484405
568.595588189691
554.333365662793
527.932739140094
497.437023555898
463.767430627467
439.761570523605
433.757238973367
438.957984472496
443.847629897062
449.469253572706
464.952136734073
485.385554162363
492.53222747179
476.548028128338
445.053469243265
414.912650086788
388.86335769322
339.735513020893
240.877654868723
102.446798020738
-43.2264240823996
-171.916364390863
-275.689902494245
-361.414264596859
-440.286852125998
-510.753273422958
-559.775030418813
-581.29869928504
-579.450769402641
-557.024457576999
-522.512359083257
-501.622106185837
-514.247258493428
-544.749643097381
-555.651074248566
-523.893521262875
-451.964781377153
-353.537216321645
-235.484301442296
-92.7217427133989
76.6016632410194
253.634993843922
404.843740295676
509.589602238604
572.545400934985
602.643717426392
597.197006312458
556.725782575243
499.519745306379
443.46599255563
377.391337494463
278.644870226327
162.247971882891
75.8747958482886
44.1602634573989
52.8045838245199
76.8421100655201
95.2313874481131
96.7005791866353
84.4674232755129
57.3305728211476
-5.45821284220841
-125.429150359263
-299.895142383036
-494.41792331641
-654.229230638219
-738.169065520302
-750.07830037377
-720.401394502345
-658.130186222691
-547.717531351321
-389.106220810968
-216.917261628345
-80.9332107671979
-10.6259298836987
4.59172273999719
-1.61307506940466
-3.04369288360196
8.25372421270025
31.1596775137847
70.7249568122202
138.516258488917
228.898842660274
304.559225850679
319.919219544125
268.620961382
210.113088542462
226.670670292803
335.89825548293
463.359534855159
517.359826829331
471.177426925857
362.850752539189
247.000176683287
171.778766476032
182.069445693439
296.47170821081
470.995361696923
627.829292304022
722.845146917844
759.31258760693
760.648837522789
749.256698147276
732.563569548595
701.7147993354
642.494230409536
547.750370998078
424.64011817507
285.228739284776
132.918764330233
-35.0155139863538
-216.59422176587
-393.219748171475
-532.598384913426
-624.970596850487
-702.116194642837
-793.844116745334
-889.690635888462
-959.282591665162
-988.287405582224
-995.744739018785
-1017.83602063807
-1052.18390110009
-1035.59935709122
-918.722281730819
-738.229422992523
-574.780033169764
-472.329864780217
-421.178398788805
-386.053765627537
-341.426730404592
-292.219797286837
-257.362985730382
-234.304755494491
-184.788311859892
-68.7897699635961
94.3389567891189
232.142369387859
303.077419204594
322.964159396307
309.747921216456
263.241965344244
190.83765323386
112.944498787416
55.2371393793248
36.8150200361437
45.7425558007316
46.1001334037825
19.4058654918826
-19.4988893293131
-35.4137393330256
11.7919699781851
143.610745414094
342.201702952209
558.373485743621
735.855883807361
836.335954907859
863.388169821537
853.510325462498
827.713479380333
767.182489203585
650.624092542162
497.704928106038
356.108880451822
255.387929198241
187.9191897247
134.357796655357
96.7605389798287
92.3001785121354
118.422048871529
148.706044254754
164.821119048059
165.163811433577
142.073123897796
75.081652008063
-56.7432704842101
-263.208739962081
-527.054383765468
-800.12586676187
-1027.80866413466
-1163.62956270145
-1163.8323252506
-1017.22200032389
-785.893911969542
-558.642301022547
-369.586578006724
-200.917781996755
-23.9331869503659
181.421913042193
397.90449159436
564.12997757146
636.514937340635
639.51971117896
619.083214083184
581.970582439396
519.559846918861
452.940876974744
417.237198447821
417.009393183774
419.629086718808
392.544172942433
330.154727607274
243.327805224234
139.736943849083
16.452298275682
-126.716637774173
-268.221621927083
-384.653644333615
-488.205753582764
-611.166177415094
-752.641807940144
-867.269660763334
-916.582498373354
-910.857283050585
-887.086001965509
-872.715466476471
-873.929209995905
-866.776454761575
-810.9180237676
-695.843767123215
-551.755288963517
-405.847765861213
-250.052657311899
-49.4597114281403
222.002556549654
543.644056966757
858.179522486198
1111.84319765771
1264.08219278511
1293.8494763932
1215.30384592088
1065.31607906699
886.059296176905
723.091808071149
612.294100419417
560.633586290574
546.978693132697
542.265617474351
535.418898815408
543.173959257803
576.296942943787
596.292553500323
541.909090513226
403.139023394508
239.064546680157
121.763218152045
67.3492891165204
15.4966710427007
-106.398506754429
-298.112753217906
-487.000951901505
-601.76426678754
-634.144236510704
-637.330730256464
-659.718857573322
-684.534383213132
-656.914164134293
-561.327753905139
-437.999157549946
-330.026289976542
-247.091921545728
-176.968797340219
-117.12172859281
-86.0628345974895
-91.1280579673689
-107.692997263801
-113.607678578705
-118.521265960744
-147.392118190111
-215.553166591261
-320.691508314753
-444.81093265737
-566.597007766946
-678.244935482607
-775.482375777973
-836.413037559123
-841.640380653295
-795.427714941755
-694.640383954239
-515.998567841758
-265.565707848879
3.21740220029406
245.675819200697
453.705403186064
615.255067049746
702.946457352391
714.651181773445
685.024636065053
655.806056349722
646.46991764274
646.471970066164
645.273883384422
660.346639986506
703.362071861113
743.810684616162
739.875097271618
676.412433661727
563.328122424027
425.173033132093
286.03195372334
152.371095731264
21.8402290887176
-98.472983994021
-199.948640624702
-295.337776477489
-420.043607319758
-594.858020938104
-788.086083992606
-941.014327777834
-1031.27679960771
-1074.02805528863
-1054.41728277407
-902.976403082628
-584.309383645331
-191.956816139935
117.902288798585
288.050964346905
384.591618917391
465.487077565414
506.090266841354
467.765991476099
368.926165160482
268.305285775383
215.796272764407
218.143926460354
238.669593149792
233.393998624908
185.872059170902
112.872191321501
36.6991883610333
-45.9947351146961
-144.718430321581
-235.665634618541
-285.229354736515
-300.196841820194
-306.122131197174
-288.712886641646
-204.34622580227
-46.0840050032769
127.824653254383
234.224341101213
234.727690025922
165.187119819193
95.6335895757143
81.0667694468275
144.984799243957
267.001287054877
386.977837535086
458.196459222442
491.88011613598
531.702041348139
595.458478333794
649.957754341174
649.327386722276
594.426751925223
523.997517672712
456.10104215447
383.08065614768
307.085907125709
235.120166230138
152.716998354053
37.0303788844251
-111.442712958999
-274.403933688173
-433.833236662111
-558.676750098661
-608.76799838041
-582.88201972415
-534.805896189637
-516.77466138099
-519.300280718491
-494.576801550449
-432.626278776044
-360.520270771661
-273.94270196346
-143.507921453112
17.434826548177
147.961672974571
200.431543929422
182.116947011381
136.266009466435
98.901252450176
78.7420644514636
64.5737205518624
46.5006028559927
24.2688119753953
-3.54987068251431
-35.660439707857
-57.4618846542258
-54.047107327686
-29.1596495353864
-13.797252199097
-60.2766278437245
-204.594799536766
-421.64304376873
-635.925887160526
-780.825090846234
-835.054445548329
-813.667262772621
-741.7064201018
-644.231757713992
-560.979426093147
-532.489600649343
-538.613247564238
-490.361250530887
-335.212110959762
-132.670893492132
32.8032315236439
156.132394916962
268.059404560183
365.728259357184
451.505828705212
561.444998094424
696.913441386039
803.225900910045
847.334241476415
845.7437479693
819.355089122622
779.012625049723
735.191441581613
688.477909514422
629.367404444753
555.341279155043
477.615070738677
412.694467906347
361.534559419869
299.772782738696
209.742467882091
118.082817822394
76.6708430933058
99.1815557629543
134.394863924767
115.031071744862
18.5676248699383
-126.210559379394
-272.932885357386
-390.77198945674
-480.348079914032
-564.905342105063
-659.024531460343
-746.60681734259
-793.042538536898
-773.861070240476
-695.427904752742
-595.328981460855
-513.564763092961
-459.737321910326
-413.007579763119
-346.693065027136
-252.570243637526
-152.32353994638
-85.5053825711448
-65.6217188111209
-36.9378361287643
79.8608674687656
275.642770312406
450.563175262625
536.639043652958
554.411016233044
547.862595430482
531.809915600129
515.932917103501
516.316868195866
521.165351175574
494.148371852067
420.781729400064
326.385475266826
251.301089310813
211.047792677763
184.925882249149
148.956812343082
96.2921951256659
28.7041624947905
-39.5771758887598
-83.168423187452
-92.0475622083902
-82.4444725086922
-76.1351424125916
-88.6497238105685
-132.557224838482
-197.424065564137
-236.209349973596
-212.716059433126
-155.90694996438
-131.228376928324
-159.324071520055
-197.304358193536
-206.377305128915
-207.332851197061
-243.537242985488
-300.599368456624
-316.059451422697
-277.526702256319
-243.828694523719
-257.552430935145
-293.131499918805
-298.968198741297
-261.809280660316
-218.497344774527
-212.686582793574
-257.53878952324
-333.974025273348
-403.253729764176
-424.889250022021
-381.733476152132
-296.722967387775
-214.293381411242
-153.862852548228
-88.1787754586088
25.5928380749416
196.0742829855
385.339877411563
550.545746909376
689.486250338022
831.268317816954
986.068179764457
1118.33546735408
1169.61827574605
1105.0989963196
943.52069438211
743.111525953759
561.484324886616
434.454627938932
369.682421506084
333.555034834061
265.402855251195
128.613361214274
-51.2570190351896
-194.139912388389
-228.562563161486
-168.514840481462
-107.591488118587
-126.443441172189
-230.238400508786
-382.098734972075
-567.307759430152
-787.787647064813
-998.190970694419
-1101.29878318774
-1033.55283121868
-827.003766738933
-572.79736729839
-354.746606906748
-223.072773078763
-183.91239758632
-197.457301091388
-213.997852640554
-215.427172617696
-207.061229954187
-184.120480308528
-140.903646030699
-103.099996358257
-106.149948988036
-151.511738936714
-215.835125650874
-271.088645225283
-276.77014646535
-198.034981087097
-45.1012009478331
140.057935950224
332.648247199404
523.976673485469
686.803282845052
782.897167063254
796.872377475091
751.888111619666
698.832354405446
670.405306137518
642.042921909391
571.633707599671
469.478741596142
378.230004061475
298.637565539053
197.04625292718
72.7505158162837
-38.67170676321
-122.449575163049
-205.487080630551
-321.818389901529
-478.566432454288
-646.804384530434
-769.442785195667
-796.517950821691
-722.674771865743
-574.043028845625
-383.012329455385
-200.943860689572
-87.5941485564385
-51.603220301156
-37.2569190364428
17.1927242118571
139.886566803557
320.434642278362
504.438316342127
623.766863613564
656.02291854875
630.903942295889
581.91608214641
517.827601916621
438.629033210792
357.273328760564
297.796749744004
275.623420220709
273.352381392952
244.986163522609
168.266588817328
69.9834381160078
-31.3602561393591
-166.105223775818
-352.616896734931
-529.217244282467
-605.370735170391
-582.010445533809
-557.578151247523
-598.999785584536
-672.563723058657
-703.117598144302
-643.006520249799
-491.663753278115
-284.626197232869
-68.8397007734987
115.044924073615
237.446789842861
289.507668275611
290.628024622432
272.206770455739
256.546502900099
250.540163951229
247.105127712221
234.54009074455
199.260479745597
117.743057079304
-23.0790056982133
-193.404736861099
-336.238125798696
-409.834992690846
-413.561885305006
-392.793647967576
-402.166980836699
-451.555704326562
-508.016457719803
-526.643624504338
-458.715904567273
-289.904694582739
-86.761065951758
57.9581742124413
120.374468012973
147.718641786157
199.658466784579
312.834208269735
492.420023194579
706.336974438127
888.644071582639
981.443659861335
981.527978155619
923.824131592374
833.894073310444
716.43609233503
569.099359320806
393.432762800751
204.813716033917
34.2403211034479
-97.1430837340594
-204.522773915325
-322.163584103299
-467.025093012492
-623.559774427166
-751.573143990769
-816.717586571219
-814.942211435387
-762.002521920174
-671.790839835093
-540.954544244287
-352.707463627475
-110.899830388546
144.498651965395
363.08806790042
505.563905347524
557.630826357753
542.297612651734
495.60145023273
431.797633557325
352.652565219794
267.655061892261
193.089394302091
151.300807067961
158.109231651455
197.266637064819
220.279562377906
173.160267421989
31.435614163967
-175.531729857203
-378.397328938571
-510.980368383494
-542.211092799131
-482.370858426798
-377.414823810621
-285.80796003896
-234.070666413968
-205.481162411698
-181.272712071366
-162.293947914237
-147.828382839817
-117.694337153314
-42.4283417694782
81.6722101280375
216.460433269283
318.938568751103
379.855378584643
410.39156054704
409.193222294921
364.18063723049
277.557041322158
169.301569641128
55.8732657613891
-64.3291130751606
-200.583505080841
-350.186146505695
-490.240469497336
-593.350104450219
-662.622494768527
-729.917890782338
-798.637460360392
-826.962821390168
-787.064188243359
-697.605632390509
-586.677390464162
-455.006204516963
-288.122218716356
-93.9845479429821
94.0237306639219
261.23743424197
429.257300718836
615.528258808759
805.458860079481
968.960769012742
1086.0864251077
1160.98122723257
1208.2353457728
1222.53849818667
1187.74608653812
1111.86746139006
1015.19336798363
898.940747261948
756.506264278755
591.431784897247
408.544032270746
208.910523971331
0.234521214346067
-200.620181181694
-378.972064094287
-524.209852249614
-623.29207560484
-674.603578263183
-702.951961260043
-735.79051420928
-769.582779992917
-775.086230951631
-724.279450770729
-603.937564093394
-427.851601812546
-246.971800577063
-117.214195843729
-50.9417909469369
-21.010338024392
0.23424611558451
19.7747016097085
26.3531600746482
5.6967490323703
-46.699154551639
-127.053525069086
-228.077453246168
-334.697279732037
-417.542630127775
-443.107027976018
-403.152813742621
-328.025365360386
-257.647645004221
-210.237098643243
-189.666823982552
-195.585877344465
-211.306236389799
-209.512455677677
-179.006468832106
-137.093465109188
-120.71338935018
-151.470107708269
-197.976342328745
-202.67268518341
-154.901605845828
-99.937053540232
-70.405563560251
-50.4748146538002
-18.1873599842845
16.058346697278
32.5181109714389
32.9435626095033
28.9535560192437
25.5083683755891
30.4069291182811
55.6725959740965
105.071507351755
178.268170765299
269.851711255299
356.509078158182
419.812023399912
480.488699112687
573.996122647266
700.390353626594
832.893551009468
953.306279959008
1040.82166209522
1058.97102028233
987.549073806202
846.960173992214
681.815026932376
537.529378505413
447.944111066116
418.071272030738
419.866480161974
424.226490210216
418.885525637107
385.674692126182
297.110898984946
140.993374569687
-69.6245205697508
-303.061361204071
-527.542411962642
-728.520753691382
-910.490879215945
-1078.06052108994
-1193.48058254016
-1189.95126020847
-1063.56607918691
-892.948528801578
-748.841691896048
-634.943485021239
-521.137060164056
-397.378666287051
-276.918443435912
-172.898745163198
-92.8170622974542
-35.0429603561122
15.6745040960348
76.6660491350736
148.253885099125
208.420164932259
240.933518508511
262.514702237188
294.315589859427
323.878844126886
325.520282813357
298.332736722658
262.880993571728
234.43899110516
208.801193616802
169.515516599692
110.661070501628
46.2771004326247
-10.4051695110509
-60.1051071582849
-112.165498198741
-189.526638798831
-315.296319768743
-473.083238807109
-606.545919782219
-660.569345944965
-613.196525643811
-484.754893585715
-325.972588772265
-189.871411673155
-99.0751636084517
-33.6311323141378
34.3721203526521
99.436926026461
142.868294038238
176.509386164293
222.771955029255
269.333997881861
283.909110966642
257.009539459536
213.127499485002
191.19209629993
205.638609659923
227.446035920463
218.824895667577
175.159668893917
122.383041903238
80.7084039380436
44.8023607837891
8.3916920926493
-18.2239128133433
-36.177689195853
-67.8379860672479
-119.853479185663
-172.024566377593
-208.385190552952
-226.670059492267
-224.532724267683
-199.526186566872
-147.393210341507
-56.3075696430083
77.817491299717
237.131660564246
393.766541581652
523.093674740811
601.371448910606
611.14422855754
564.221458084
498.583214724544
430.793680073962
341.479613148371
229.170189998085
130.143219118066
64.1243390795846
18.0964667109044
-3.90529253388917
19.5433823049584
70.3148438184835
93.6676853163299
60.2804547450555
-11.6790992299691
-86.9004858232753
-141.22906835236
-161.413357388256
-141.011904919136
-97.7236238324454
-81.8523610743383
-137.294631489813
-243.898463693225
-322.963268366996
-318.797070049775
-253.029140914437
-187.151822932091
-160.810938141089
-177.348289970999
-215.964072212268
-240.964640679275
-226.687502040273
-186.216750373273
-158.094868280238
-171.239772972249
-227.031541722825
-287.004617884215
-286.795230073795
-192.293641294805
-31.7605932463392
134.270544726057
261.162391453558
334.482431392813
351.596017418545
315.594286712742
247.394019793148
177.002409675566
119.97619666607
76.2180991461563
38.5154098609547
-11.6331433989182
-96.0240961756993
-213.794567375819
-336.384252818513
-430.186883266826
-481.524511303621
-509.709683954171
-547.668069854875
-592.989026048276
-594.658910480563
-512.640404130274
-372.664904316108
-230.360172964921
-101.554680879243
35.7124634123836
192.604910021698
359.102477386488
525.003602144062
679.32408315406
798.550428017978
862.997293315108
877.582133715219
860.146820943412
822.501294426837
766.606797865322
686.794104017969
579.70837320072
451.776272397791
313.878061788828
178.556264948767
53.4196303683554
-73.0870321264878
-221.386817808543
-387.394811023162
-533.870570180025
-626.936927321137
-672.510222225211
-700.844355355208
-725.711952909576
-738.069129356429
-725.938556515817
-676.70247992232
-571.826899237945
-406.891169356612
-210.623466069595
-25.660429195961
119.237960138856
219.253948621512
294.069259534505
367.142085879619
439.696519341
497.254091191189
531.04560079674
543.664109688031
540.922289216166
525.192268515836
501.021041030075
477.098124395217
448.020651637695
389.505216658008
289.287687934418
161.605036535418
26.4425205598673
-98.7069149838968
-202.241605587631
-294.26643437066
-394.935636426898
-506.47920777639
-614.791243866279
-706.545644769361
-775.177689744932
-816.819404432619
-820.018346353634
-761.021585701698
-624.829153694941
-437.407696033933
-257.645197159984
-118.342543153681
7.80494172437792
158.126261163856
318.857957552273
450.330439679085
548.690519146619
634.513246124409
702.746914841994
730.459832288524
710.836466875435
653.179559132241
571.031382904741
475.254952305672
362.258260764663
215.237865097329
34.4456758833169
-145.611151662039
-286.478836584108
-372.474391998261
-402.393279714364
-394.438002910319
-404.279704515961
-490.035771745978
-639.530088986782
-771.021987311878
-816.344911128091
-762.017403985499
-623.357724449887
-426.034429246719
-199.157399054699
32.3954419342289
244.212761504404
413.528995272358
531.942416716005
610.137335372605
663.218538616779
690.512967572722
680.313069054142
635.424471415513
579.248200150217
530.19468245311
479.672905300231
402.151565351936
275.887468104052
94.9111415740167
-118.529302397455
-318.766485564791
-468.433642455453
-553.146624310458
-569.166749005304
-524.327407754153
-449.688457636535
-383.931717803498
-331.907153605026
-255.855008129207
-130.463859906004
13.482682138187
122.60705629232
177.868879063138
203.285666101313
230.428649369917
266.426259834059
292.849534526426
282.994771425715
221.225200600301
120.559253319427
21.9616398334457
-35.1721570024554
-36.2519187232335
11.1893885201674
82.7463991319543
150.169630232798
202.612191664227
243.84893143316
274.910294099404
289.643468778454
278.615221899145
238.811512818693
187.079808116773
152.940088312232
144.82783207302
131.080009335329
65.20835802448
-66.5888610897245
-216.440606422587
-307.912415780258
-317.419181023606
-295.699411890143
-296.245408975081
-322.917501346577
-351.774336463005
-364.696008250213
-357.705948386904
-341.046240644591
-332.673190114678
-337.861038767442
-340.770525642272
-325.130536071328
-293.17572069053
-254.850899939887
-202.107156572113
-111.883012531487
15.1806378801617
133.670662961266
178.550745336459
126.13992213604
43.4448052951714
32.5030891237024
113.834539919909
220.851368593289
290.961602721202
304.694855556908
268.7308575657
210.59646973391
169.105261403741
159.845936471823
163.733855497899
155.321047428875
121.468431093318
59.7665763892501
-20.8902917453006
-99.1716996678263
-149.78748155186
-160.761703196982
-140.114859971995
-112.12010361203
-110.769546233991
-149.235263022611
-198.207104687862
-225.134651045773
-234.585779355495
-243.739393725263
-246.454507112566
-227.701349716019
-194.7430246152
-168.771298487374
-155.444457636818
-148.438254210632
-148.705108975163
-144.730040614628
-93.9674116172398
27.391402213709
182.076073891115
319.834904448047
429.974773205172
523.862094898285
602.900500389727
654.663776493118
666.56270506259
643.976015539141
613.34250730071
600.167115315303
604.242372519237
604.842710227829
589.310591673754
555.994096778289
487.819286577538
351.917426281276
134.36938042579
-136.151162209358
-398.705363410634
-591.241094649375
-680.371193860902
-673.859290566793
-611.555749113314
-543.056115314096
-500.377216871236
-476.527995882711
-442.134701754406
-390.04917321322
-342.278302918755
-319.448924117403
-325.367745080402
-348.395575376222
-364.006330431088
-347.774203987569
-296.175080307141
-230.370790469044
-174.946827063016
-138.270681493793
-116.614729055471
-105.557382076224
-94.6897709833915
-63.0986176050699
-0.691415468697805
79.3018134821672
163.284222165491
248.014119915107
328.466459801012
403.346700421213
475.685257546635
528.963050396823
530.39734469685
472.03992258039
390.787281982034
339.881326522737
347.524465307743
405.0089916085
480.382999963546
532.310244726118
528.841119322886
465.995082744628
360.808665800908
234.384720170787
109.112399204497
4.99608358130948
-76.857677169273
-162.277210614694
-285.117438879624
-449.425335541828
-604.372471624292
-679.644414828116
-659.634839189264
-594.931981175372
-538.736226331594
-502.458777045169
-467.7678991949
-417.170937346246
-350.972550425181
-281.793631887321
-221.269014128984
-175.140234021456
-137.965063634035
-90.3467942880191
-18.8105285347926
66.8105004659607
147.904878839175
208.690882037326
236.074616746064
233.318943747573
217.918987567287
198.714478151723
175.079259483609
147.627592910092
117.227581982082
84.7669995903173
53.5926868294253
24.8653144741379
-12.4136131922788
-76.1461446685813
-160.838868302197
-227.924725972819
-251.380401488019
-253.677084320873
-267.933662588969
-290.653594284038
-296.580933082492
-271.10714991667
-215.811035082636
-140.031945863114
-48.6196410789618
59.3485878047834
179.882974727943
303.881706267958
420.425293277558
516.963979820372
590.871179650538
651.346868831962
699.087614805911
722.890072007639
716.961904754278
683.846497978791
628.85005734393
558.379830727132
467.719293229946
336.283091473966
155.777077728317
-47.2297057341555
-230.887616912869
-370.280352440929
-469.703250505403
-556.895321030231
-658.986227515096
-764.519370249612
-821.661317090519
-797.990111100737
-717.86893464141
-619.596616625123
-514.236763158697
-402.173122426501
-289.770318315168
-180.180857113439
-72.7151217476169
31.3870461440086
134.449401174953
238.035332263309
328.191102996717
389.083853442799
422.545856321758
432.265252577659
418.383110573275
396.358586398347
385.108651638379
382.654080949595
376.638895282171
362.56028327348
335.852411823185
278.998547190007
173.717586702469
32.8114383101963
-91.6624596533039
-155.607522508827
-174.872245618426
-208.409272169165
-287.901132650187
-372.298826279683
-389.648890130561
-332.189664763964
-269.111874240818
-250.614817334131
-254.681771688403
-239.640870537157
-194.230059331868
-123.619158582119
-31.9241930560551
64.6366834642328
139.77495300036
186.097267176559
221.87986132474
261.4727689652
294.594858527116
301.816136135692
277.833368115231
237.094373650597
203.412688531392
184.953846696196
163.829089631632
126.033126863499
80.7721470624743
39.0972825592275
1.65113083810516
-33.5069935926263
-73.8190288373037
-133.235221180988
-214.074896426972
-292.494970625654
-329.37132597186
-301.952941911522
-228.01565330824
-151.850449785416
-110.4635358736
-119.139175459027
-168.377496932586
-222.689884144783
-242.498494110823
-216.212541097783
-165.079172951234
-125.196783199301
-122.079478921858
-143.080506200122
-141.770871474076
-87.2789056426429
0.162100241399067
76.7775087314771
123.644367502846
149.379279510133
164.20826639151
172.610124795752
178.134209932578
182.282750669344
182.027090954453
172.357232016274
150.636955623209
117.934215792812
77.9593684942754
32.9943233231276
-15.518174834995
-56.5359647979067
-75.7046676137159
-75.6510588708809
-66.9742581742578
-48.7811863571181
-19.6247805548861
7.64082325008394
19.2069807830427
18.8436195226106
16.9798537287326
12.7196760776202
6.88526407067473
16.4366818863021
52.7104844519477
97.5669170614557
124.090518257449
132.853660505749
142.395327092233
158.07254112582
175.994252949026
192.240842095168
191.175934950193
153.49585239859
85.7818850271244
24.8915771371091
5.40010486753737
30.33947194857
75.1741395072141
104.173983288297
85.681239727371
13.3249128910172
-87.7063005606946
-182.239701389643
-247.476275987053
-278.463448530384
-285.563515105385
-286.671816381205
-289.356933302001
-280.687315727698
-245.713788948766
-190.425419746481
-139.749387217869
-117.638055500977
-124.202564559
-129.695224112645
-100.959635078982
-36.3667587016728
34.3461271171007
84.6258193524063
115.804316646539
147.042085354329
188.929589636561
234.591051016031
271.622232232095
292.051568806757
294.652015679736
282.461170966616
257.513509564707
223.75621919065
187.737761347475
144.05713137497
76.9957851699048
-16.8495519757637
-124.199112529343
-220.604347543623
-271.838142466647
-256.921812185044
-195.725122136431
-132.80636471179
-90.0554150322503
-50.2039906007388
7.84311650558421
73.925294278623
120.489195455274
138.250629470533
140.745024132806
146.336883403861
167.449084895597
199.152189211016
218.075305997085
210.795809882256
189.855742977311
169.580040747525
144.426463432632
98.2066462778014
25.4079729346415
-57.6339538308148
-121.799515619377
-149.734033506597
-154.843195077888
-172.088910500095
-221.538799875306
-285.649942643575
-335.454922928503
-363.525508116951
-366.929989755557
-325.773178653578
-234.726255692907
-128.416541777819
-48.6748144948072
-8.73875165137771
3.71449910510471
4.87614639612316
-0.937823260193581
-13.4967991359676
-19.8236244344338
-5.30694231483067
21.7509967861499
35.3576623675912
20.5707817830982
-13.4445000487717
-47.5020681375215
-70.8430468688772
-82.6980339443618
-79.8776639919896
-55.0359011891003
-14.8163112639762
17.0200401898192
27.8276753563524
32.1799697109343
51.0121186296336
83.7961304329701
108.67036318581
112.524870808151
110.114465038467
123.985953859972
158.285861122866
202.329201845835
247.930285092653
290.007604379581
315.27342228635
302.905125660253
242.129940733851
147.944312107705
58.0661354280166
12.9693395496395
24.9527827233957
61.2764754064475
76.7956484654714
60.1677996009823
29.6391229977911
2.82039165187218
-16.8025876859575
-43.5872446154323
-94.9753530569208
-161.86864242192
-209.456813690793
-210.74459022209
-168.681800437808
-112.34191737725
-80.4471485135847
-96.5167232786052
-147.089579755121
-185.68056999654
-170.401851662377
-108.854053850498
-51.7860871776479
-34.3023087707916
-48.1070858522638
-67.6375975424511
-72.6987398840906
-56.3968791150964
-28.1370808151594
1.41587782160339
31.3437265282009
56.8975250048489
62.2593771199752
38.1415714651879
-2.73090908266402
-35.7140940960323
-46.1195214026401
-36.1018708837484
-14.4235352320998
9.47740521617976
23.2704884706179
21.2699186050612
13.1691702929391
8.91997969740131
9.66750205934971
14.6570096235525
11.61392559407
-23.1808969426497
-91.8561299099547
-163.396772025045
-203.46342798959
-200.228680196918
-161.370093061672
-101.338379520864
-37.4355961473194
18.7821311008313
73.3305223170864
135.670653391463
193.011590845286
219.154950206648
208.683800710377
186.155094680955
181.937131873499
205.776792565317
241.776285327858
271.040945115049
293.541488093128
311.489279969989
304.677909908713
247.305110828297
140.139916291576
12.1047799130105
-103.897319148488
-188.25293228268
-233.693365129711
-243.83666477799
-231.937810989701
-208.009191765214
-169.649764794646
-114.88521355124
-59.0639173109484
-23.9922537559383
-18.5962955966026
-44.3331603460695
-93.8753614649339
-135.840954047404
-134.098657616609
-82.1593526548985
-5.36329304268126
57.2459643174964
76.8749167531439
56.1884080715448
22.5769319235854
-7.02480680643918
-46.4106934197592
-112.944270822902
-190.014598478295
-232.917927261467
-210.434000321826
-132.767958688623
-36.0209410171251
52.3827829953598
125.669055068785
185.362248569221
229.805676727867
259.469198647872
284.198143397238
309.87021925249
326.858964026705
323.149337382547
295.262684632317
244.850310065232
178.902474257773
109.796729667662
45.9494717377205
-14.7952992032329
-78.9494098145643
-145.440144653027
-199.370170793409
-220.14866935483
-199.833376493549
-148.919725872352
-85.9367063514785
-28.6216782082113
13.4308553326793
40.3791433291294
51.4768626545164
44.8013437413429
25.5274401077549
-4.17090464850823
-52.1122094661521
-115.342913169911
-167.219431099417
-183.172371524476
-170.715423260772
-155.872021411713
-146.731199363094
-131.97512257761
-110.035642118871
-97.0623107188538
-106.972709365377
-136.572411290497
-163.508948307593
-160.637717747072
-128.857251924886
-99.2515577681991
-91.7782220165475
-100.315375900388
-112.872498559737
-117.938608634174
-107.254792646846
-89.3708714064248
-84.3425065192725
-98.352853529225
-116.596873133055
-122.963486606213
-111.843542434209
-82.1315140378871
-39.5355818700035
-3.69341702030234
7.79176253028905
5.45768326477006
18.6192774855308
56.2819064379433
97.8575994587943
118.30669198625
106.919678551252
78.4904718619729
69.7843027971291
103.291313094492
161.87651935929
215.266227880966
252.384285814015
273.48274340588
278.802528139446
280.513243564014
299.219693460838
337.708306695843
376.306923120682
398.726012154346
406.436324922337
406.468310071036
406.024151944881
411.215998578743
406.757500429673
357.967653644862
244.808153790943
71.9432858707681
-131.124750083252
-304.315248815149
-393.384653992365
-393.419993348812
-333.890774933718
-245.724638036981
-155.684328101751
-86.85098137343
-52.6419329372175
-53.9628481634942
-79.4256842307804
-115.287994782955
-159.402596041075
-209.583977441062
-247.594246039457
-257.351895187079
-244.842417011852
-229.152581994825
-223.597512617328
-221.340756824164
-200.300454187776
-150.559151415745
-87.4422985725515
-36.8726563233736
-17.1984128210992
-27.6063397949833
-48.5859891027455
-58.5671874712934
-50.7204719730562
-33.0247940074561
-17.4074032712928
-12.7463335959232
-22.2622489589388
-42.9457156542931
-68.207033334623
-90.9496692142777
-106.892182347021
-113.262011015368
-104.967640258847
-82.5348245455428
-56.1685163071142
-31.8609155201541
-8.13185392764685
13.4853301230789
31.6447007474532
52.5917126514312
82.9679777881302
119.079832026355
149.767627352892
172.287740449128
197.523924152953
233.71373446649
274.196643431877
304.795850844853
314.058547772148
297.496110539366
261.844740253899
219.225263895524
173.881677056259
128.121471802806
92.1550635552802
70.2985261808676
52.688073241445
30.2046926447962
2.50012180243941
-26.8531293634329
-50.0622754039946
-55.8868615103211
-43.4873817330099
-32.1575347693749
-43.8535935366778
-76.2016165419631
-104.755707556656
-110.25645593166
-91.4471908237078
-57.6305525675291
-21.8991427466071
8.49252929949704
37.7848599988952
64.6091464119371
72.6478876241931
51.081954007497
8.80778030965267
-37.8100315716171
-83.9589336195846
-137.840757568914
-200.665981978679
-256.609298171243
-290.204628577671
-299.389610081011
-287.256521261223
-256.031674178647
-213.04619542938
-172.218486398761
-148.095377558583
-150.81721266427
-178.651052299194
-214.604760756016
-237.140769459295
-233.990259872824
-208.060630503048
-174.609801264802
-150.844740816091
-141.288768739458
-131.854993493448
-108.702186181752
-78.4670724303456
-54.6066419200348
-37.3458161392808
-18.717410161346
10.1626514128362
59.2994814640508
132.101222660941
221.006220125936
321.510826873448
439.254134193793
571.984415095189
702.748734758703
816.726807426194
907.058320583121
974.692396590374
1030.94265975518
1076.75540122126
1081.10890987703
1005.50075341491
848.575234800659
646.299503977106
428.791281520988
191.976275402857
-88.9795947408587
-412.141784552727
-714.181635344685
-918.319164746206
-1009.07705933497
-1019.36550034948
-973.209934988632
-877.335023306062
-744.532090144483
-599.65908174956
-465.825629608257
-356.32944958913
-277.621088864881
-227.060934248298
-190.149689597389
-151.918603839009
-111.997162405101
-81.7423836472686
-65.658000694242
-55.0842346248622
-43.4327998366655
-34.2243167936405
-28.6198140020018
-20.51415379289
-10.5780573918624
-8.76676831091415
-18.985045160092
-35.2678305308328
-47.2831725558624
-44.3493661223274
-26.6822117689044
-7.68662064245198
0.804462475567479
-2.7001415776445
-12.5851910097835
-20.9741406095462
-19.2423171315136
-1.82677535894221
28.1179701715636
64.0158509571989
103.999924418027
146.037627924425
181.538434390694
203.498103055819
218.373156015741
235.437194125729
247.013733620028
239.673103553548
213.911175964439
176.281173312658
132.071449639179
89.7866212694573
56.2327342726154
32.3953548674196
19.8332716351091
23.3577655119412
41.785668484797
61.9080221563704
71.5037605740901
70.4856821179417
60.771900596517
38.1947085002677
2.80099323565706
-34.6863352507729
-64.551351665673
-87.8438127211223
-111.056274833859
-137.263489660678
-160.709573921768
-170.734606384593
-165.948090867987
-155.706822863237
-146.754888638934
-141.100684351786
-142.681429826781
-154.035981668999
-167.08395307874
-167.175328368222
-151.966610969489
-133.977512472094
-118.179804829479
-95.093698235459
-61.0423056762548
-26.6131832237614
-1.06818718841512
16.2027554439023
28.6284748072449
39.4712830593704
50.8010744639479
61.5668493621506
75.2145444456161
101.035549849934
140.89395923488
186.929355670506
231.350715404682
265.995874763385
277.254456400987
255.692416948002
209.370215680876
154.203116184226
95.0056903888637
31.5761496872939
-25.0266789576105
-60.9635937054851
-79.2563401227165
-95.337306780125
-113.834384064979
-122.017132495505
-104.590317264238
-58.745134105783
0.515405529894926
52.6056908005885
90.1705339859825
120.495482308161
152.538610846265
182.701899071512
193.298884348195
171.93129617203
130.863983988603
99.7660380901432
92.8371794400247
86.0450308724909
40.2403153995691
-51.182652479241
-151.642010016125
-221.242759864743
-249.522241192519
-247.564829331609
-232.945197302215
-223.20831442194
-223.822093154118
-221.216204862834
-190.195689176321
-113.702500459846
-6.33480824212624
94.0479031378647
165.25408514152
213.659128749527
250.736755035047
273.836032890481
272.2827096842
248.364297339774
223.835832730308
215.432584007895
208.910605058378
173.110836733309
94.8787630123762
-12.5027325853447
-120.917896443212
-204.564645133327
-258.981826551865
-295.201424629764
-316.933471156192
-318.278337871581
-301.648250557123
-283.487336262013
-271.526482454642
-248.987924670152
-197.285068132059
-121.709343813761
-41.2385865869875
32.3188140646161
90.6065079173672
123.12263271931
133.402699399028
140.858872449517
155.750707300551
171.477232434311
180.121892008628
183.030150990381
187.568888899913
191.490545925241
179.491690185281
145.637844889752
103.166932839741
60.8862602227799
6.61456910138712
-65.8654765252872
-127.277320495534
-136.719257441118
-87.0988043887137
-11.8900297582794
47.834524001147
74.3870055318007
74.7057518509894
65.8181359848741
61.5046894460166
64.3926385352107
68.8790237785303
61.579715939182
23.3472805413951
-44.5219011992812
-108.712823173728
-138.770653673002
-134.935669020854
-117.685991549287
-111.079901728171
-130.298760861188
-165.858412128811
-184.84526775949
-160.160207279099
-99.143588684929
-40.3000483219734
-18.6232287974325
-33.5832287260262
-56.2280570399202
-63.5042895952817
-53.8132115245819
-36.8382842165161
-21.2473509440365
-7.25693607765689
9.82852401888156
27.2695353273344
34.8410740413334
29.4709191374955
22.5313600995585
26.3546661747313
40.0512018400066
55.2995000170087
66.438791484161
71.8812518692542
73.0242376978551
71.6536777585098
65.5621142230173
47.982920797759
16.8547189255227
-19.3516304613819
-51.4304262021746
-73.3215404314946
-79.4024998328055
-73.1984984474359
-68.3641245611695
-73.8443659353404
-85.037838993934
-90.0264571710068
-81.5807831220956
-61.130418474612
-36.8723021223411
-21.0920303250424
-19.1156079393756
-18.205489684436
1.37856399733196
40.6588628499712
80.7584390252151
108.879441087767
124.477644853649
125.815024949912
114.032437549569
97.6842758124538
84.7184472847812
82.0566676849634
94.1523382018328
117.808884092849
147.604443377837
180.337380563305
207.042320596569
210.322990648098
181.477740274702
132.650729438204
81.4168486592835
34.3528060813855
-6.50788549819502
-36.9098454158182
-59.5841498011283
-85.2760167109201
-116.19638385956
-142.662001152595
-158.53465495787
-164.597065602281
-163.081189055152
-159.368484482468
-156.571257600062
-149.39738864862
-133.246171991041
-110.878966313053
-85.6081906445065
-55.894295785078
-21.3789388103991
8.34216747312041
17.1349248407343
0.961326240597233
-21.8731028155771
-31.4710050467685
-28.0572415587205
-21.8690931336213
-15.395157552823
0.521150564500382
37.0934102834164
87.2715611820876
126.692327131934
142.337642546259
140.983084835943
131.831457033054
119.825648554436
109.47027263791
99.5837855730192
78.864285351019
39.6112428141995
-9.79769457441829
-52.9512511753273
-75.0226267455746
-67.4278643301758
-35.8613850432665
3.13340911290166
37.5116142600075
65.1933380891701
87.2256226737319
104.078455887432
121.027361615795
144.899646359292
173.644315063458
201.351992057708
222.667044036441
227.545637928754
207.66029191788
162.652291603117
95.6334685500208
17.5246379664236
-50.4404917060439
-98.1297025976245
-143.065545014983
-210.046300002628
-296.481339279798
-366.235283563853
-384.730045225415
-355.064124374814
-305.843906572214
-256.119702087332
-211.951709944632
-177.515487856335
-150.217221111564
-121.49751399208
-89.416625677395
-59.5780550894755
-35.3679986569978
-14.258896341014
6.63990619868375
27.1185825059613
47.1618138913608
65.45232607365
74.2100844866866
67.503153069427
52.3876652347917
37.9066649439689
22.1253964604602
3.24346103564931
-13.2063962625434
-25.7964329692355
-37.0235461713963
-44.4976300322058
-42.878957069596
-26.8867690102137
3.59952945047275
38.3678098846948
67.0526183985374
91.9736727311205
122.891672002186
160.026890540509
189.934508129396
201.126322405813
195.379209285072
179.47042356607
154.310309758468
119.642739145137
80.9279320388058
45.1624449103588
19.6040131425544
10.5183394136452
14.708162452084
26.5449831118791
50.1687614214276
83.3053025983167
100.043275049067
73.339227640657
14.2255334568911
-31.6109118588427
-38.5093484279294
-30.3286973595659
-39.9477020291776
-63.3644200756999
-72.6886288983566
-59.5431197210569
-43.4844615018288
-41.9432672618746
-50.4471660463641
-52.0882464637565
-39.8434876184702
-26.5898382435953
-27.0587723166788
-40.1212501321865
-56.2911559881776
-66.1398874333359
-62.0354962922628
-47.8967065698368
-40.1723749173682
-47.3365598293816
-59.0380895337545
-62.4592223805917
-56.4492057425015
-46.0462075114668
-33.5930810976459
-22.1605521147087
-21.9602359580364
-38.0197869154749
-58.1477778638962
-69.891517577785
-74.5824096587395
-75.9957715511478
-74.2257716857938
-67.9948030124493
-53.3602463526129
-30.9822734894738
-12.0613471676122
-6.96006842531931
-11.3423311236694
-9.87637448890992
5.86629527107758
31.2878504013918
58.2515490523961
79.3406721356733
87.7004128955041
82.9407143560526
73.1289959205172
63.9123018265791
55.1676601047506
53.3994794204244
67.6228196611343
91.1491896828049
106.684300093525
101.054894270327
69.3714582658639
23.5032455362778
-9.67368096635893
-16.2000662220992
-11.2669521330489
-14.8404385783054
-24.3008177402875
-26.3535184472279
-22.2601614109963
-23.3426389721328
-28.5077355410668
-23.4490894132813
-1.95511045436147
28.7861615109817
59.8574003702295
80.5249449480997
80.6348873836498
64.8279167432091
47.6522001501929
34.8618685067093
18.2746660272486
-17.3823162788682
-77.596904648075
-144.186291070768
-188.926281180834
-199.070949156002
-180.410770997053
-140.425009180862
-82.730004313151
-20.5008413007735
21.3486928664772
28.9764257475774
15.2297945889983
0.619581979289156
-12.9183651324871
-34.6147480801415
-61.369165179189
-75.2102376458349
-58.7006254354025
-13.2126484777303
39.7050366581924
83.4144935033506
123.062978946497
169.42043613617
216.472574063341
247.28891073706
257.493143799021
255.529076712365
243.889830674754
218.617082301834
183.435456779343
151.030267901504
131.749008572155
126.865123900983
127.667336474329
122.467455864929
112.901037091344
105.586482592663
81.834950626498
9.54910178928139
-110.759320071779
-237.841432436778
-326.084984470409
-359.24077951243
-348.977920467938
-307.425878166569
-237.37927245577
-151.197703600405
-77.3432555676648
-39.2864213258984
-38.2148485599036
-57.0892405959342
-75.2775746630412
-81.8329334499006
-77.5293413144191
-67.1657139460438
-56.0596217564646
-47.971972755931
-40.2943526141899
-29.1533986995789
-18.5375277333303
-16.5417305652509
-26.0539560648792
-44.6689992919362
-69.1106932168889
-90.357019631525
-90.6064261644007
-60.835552392154
-15.6007574005874
23.5208093942493
51.8898702510384
76.3142060095119
95.4791730040544
103.05955303494
98.9713713684293
84.3452321129806
59.448695692166
28.5722549742319
-1.53599542648971
-19.9346902425889
-13.6147671999277
16.8178434428839
55.3874133392962
88.605034202615
111.962303075168
119.809808756296
103.001624192767
63.9411782925226
26.4427810274429
15.7575513345153
29.5573980541578
43.7857352312809
43.7517171317421
34.6397320678694
26.3447996185413
19.7461649844682
6.57307886561595
-21.5023620025611
-63.3856388096989
-106.937504243275
-134.43081318459
-132.691995971178
-105.029373113162
-70.4997180533852
-46.0799338335755
-31.1484603805604
-12.4754844216271
14.7455855467837
36.1405838147984
35.3073820860906
17.7556526157369
7.24790408785034
20.5831153356201
55.6088784670826
94.3860154628605
109.936032233657
86.2453641495016
32.4993068175115
-31.1086849294918
-87.5833028786108
-124.348922876594
-138.847745525226
-140.88878858725
-139.727273643052
-130.409057528415
-100.529376151276
-49.452225576833
10.3453299733678
67.728884007057
116.838563600752
153.507211684672
178.950780962458
200.397608897668
219.283999472409
229.888960840949
234.133639029955
238.612244870707
238.663919753253
222.866905620237
187.480830628929
139.095365788056
86.1465048117811
30.6880305109532
-27.1779815530213
-80.4232218051426
-117.076945800482
-128.94575607517
-119.774313781997
-106.820731285841
-105.693015721846
-113.109917989836
-118.051753712693
-123.58934118285
-139.057985366324
-163.05974337067
-187.413349883696
-201.316632237711
-194.035951670459
-169.905270412005
-148.054131409573
-140.464540510268
-144.18909418669
-151.320981701302
-153.662314954486
-140.348340756424
-102.61265300008
-45.8675670683065
10.9249146377302
51.7146658294852
73.2642467900779
79.6613354984673
75.0330740757156
61.8455152460021
38.6536308900443
2.33650710271462
-42.2080128353119
-83.0341508588953
-110.640064396231
-120.707033632209
-115.99540918399
-104.723929520698
-92.8966657608132
-84.1080370327438
-84.2344626661918
-95.9777677494021
-106.946119340794
-97.2929273359107
-63.7410811535987
-18.7508658939033
35.9127027652357
117.125929920537
233.350769965292
362.742187089067
475.148438309654
560.732838622287
620.700696375546
650.490931064729
642.946798180474
597.439328227405
527.914845477688
459.879890010535
412.667720940223
392.733218626042
396.374542507963
393.20397913283
315.883825147299
109.478969181138
-194.743887834651
-486.587748626264
-672.261939558982
-738.065011536841
-718.503332285327
-642.635399218168
-530.229528258674
-406.561512464993
-297.582498376441
-222.725147400906
-187.589280824296
-175.816464641049
-165.008340537441
-147.568639066292
-125.675390167825
-101.282522346648
-77.7520395203806
-63.4403196023983
-67.0055986537778
-86.188402466616
-107.403223010184
-116.916344516357
-106.797218564032
-76.222027371066
-35.0622481982303
0.907806123053942
26.1686918438889
46.5276981493301
61.6242498338275
63.3799164831061
50.1146028152391
30.0527400682416
15.8817734412647
16.0877968346611
27.477786890864
40.2587325768478
48.4866348361707
53.4041569547215
59.7292912643246
69.9217373638861
84.3725157060035
102.539361707872
116.639405186566
113.995102478466
94.2629192514895
71.5479336169564
54.1969279317277
39.9122934490087
28.3677498044437
18.5528428032952
6.21247943511466
-5.19734792124135
-9.13688043089424
-7.62331582945826
-4.89452849637533
1.38705940233557
13.8366445854631
23.3093291932456
15.6719535416803
-6.63714927827918
-25.8154043891667
-33.0462320279429
-35.7675163272398
-39.747144145428
-38.7817614037787
-24.0543194028378
6.81342820587994
45.9362577647702
77.2960953926599
92.8757407327445
99.4937544820188
104.274351217725
109.221757672507
116.44395967822
126.510735782725
137.709318892171
146.87587808419
147.953690695932
133.691217932254
100.199381765139
52.6700196100634
4.45870225650335
-35.2110647914975
-66.800158429705
-90.4377857706903
-101.287583321848
-99.5492843029826
-93.9300097766354
-92.3484529719003
-97.1550877612395
-103.428639152909
-99.5564942664471
-79.2735358322561
-48.8434310510889
-22.4239723157924
-17.8402222255139
-45.4078651663437
-92.3200211077889
-126.779808811856
-127.190269478972
-108.223500395789
-105.296949724205
-127.552048069773
-144.45739012196
-128.284461667233
-87.9605803191092
-49.7982320019287
-29.8819001616152
-30.2445782222649
-37.8241822274668
-34.1799344356056
-15.5973735509371
12.3246482432754
46.8373307661404
76.6083211004155
81.2603152830404
58.5428336414315
34.2209042892259
30.6975262295798
38.9232724017505
37.0352747649609
22.2209441127166
6.24445931614242
-4.86395920764895
-10.0235976216725
-5.31443849533699
10.0096188848189
28.0169638366259
41.1289430884228
52.4170828057827
72.3958549927429
102.357637198239
126.071883051644
133.440708235802
139.999117387435
163.392520052303
198.572225521905
226.460592915897
234.818246225468
230.280808655769
227.626946155734
225.333221665344
205.305407035296
156.455086005944
81.8457475243705
-13.7909175625305
-126.823818177142
-242.847378399051
-328.856226953504
-350.361002125875
-305.289614402816
-226.064224112847
-143.861547462883
-72.7274806044345
-21.7465529776758
3.93895838089794
8.03396693935574
-5.78954428355637
-41.5402641126723
-97.6226348479754
-150.931236828687
-172.502222378834
-157.033907125793
-121.569291883875
-79.3833756624693
-31.6748951598187
17.535423134219
58.5197403388106
84.8994062189474
91.9162536393682
78.9080943954266
55.7588259051794
34.645414435814
25.4138908202185
36.8863477670649
67.9893047268789
104.64308066934
130.648912526585
140.872719815751
145.877400683251
156.54209196769
162.294706765758
136.367878206229
66.7011318432009
-27.3118490311785
-108.756696071153
-144.805064195613
-124.465075480794
-66.9597432945624
-5.36865745223719
34.9310741022011
42.2651860789328
24.8746637047189
4.94448207027475
-11.4909316173386
-40.8545753244197
-90.832114064753
-144.894706487884
-177.9530872811
-172.785844331632
-126.364354153441
-52.1886603281258
20.4347106339255
59.3748864291808
55.5791347762319
30.7587273159254
12.215990880201
9.57837353224396
12.940208621977
5.27572514221815
-16.3664861244916
-39.4113352534385
-56.3093731251219
-65.9329371255692
-65.1638033638391
-57.2085918397271
-52.9586122816145
-54.9232485278038
-52.5226219620253
-38.9124506860181
-23.2003322394285
-20.2151937487965
-31.7110318979597
-43.2884723286036
-41.9754545421502
-26.2708293055802
0.539663379683693
27.4713012674742
36.1531625812778
21.8867444508108
-1.97199470643859
-21.0986209036812
-25.4085207552692
-14.2934873511276
-5.34457032996888
-16.8084344928025
-42.1217199268122
-56.6948842248125
-45.910152703117
-16.1546752589982
20.0195375127249
55.9955501873957
85.737520125574
104.426540104297
117.281329043462
130.15358394783
136.194489432064
127.053779256225
105.435474756087
79.1124872832085
56.7528754757065
46.2823776897953
48.3854232548401
59.7767936489884
81.2996893529781
113.546222529029
145.029767389505
152.307316590913
122.587709039415
73.8907811446877
40.463064963748
38.6019880373917
51.9835883889533
49.4357228514086
17.2250916006637
-24.7593028318056
-44.313419895183
-35.9191442675703
-22.6463184342217
-19.5850006825774
-23.0791471922368
-30.2588959845539
-38.8234049264396
-40.4624813385295
-35.2651095983881
-37.9382726339377
-58.8982076609373
-87.2553041508532
-104.623030174618
-115.648709399529
-142.536087691108
-185.440901398818
-216.329032177126
-214.277437281415
-185.627230758054
-154.687551723466
-141.553630996126
-138.802757662513
-122.152949567383
-89.0023795746181
-56.9573654277995
-31.5244892578672
-6.31654378874912
18.9221309048352
37.4436933968814
42.90084739302
36.0863846622315
28.0940069804014
33.3437730758733
58.5862635679396
100.360871003994
150.420529596887
201.494804227885
245.323665302341
262.529686735811
231.707121824862
165.553788489633
113.750082825191
111.764406057767
152.608123729402
212.64588155462
274.52940038842
317.091988876206
309.93927549657
247.686020707353
172.675849392338
128.976144943507
107.888599975769
64.7938574446327
-23.550975798811
-139.733911059756
-254.35077254215
-354.149543517597
-439.939379875917
-507.021772502028
-539.583552777581
-526.507146908051
-474.701659774987
-405.601477494735
-339.278173411673
-278.920274644259
-215.733641801708
-147.859093107886
-81.8900074982585
-19.1329004198237
46.632181692266
116.475701283355
177.776431279344
214.093142414419
220.742170632999
207.601289394058
193.731416927149
197.346144255783
215.937136656486
224.069620144417
212.969728905426
207.788430443221
213.124638973977
178.349681796544
58.3322938804921
-117.389116769166
-267.407168750898
-333.156435393476
-314.365653309533
-249.999002052338
-179.164122481487
-111.23337338543
-31.3104270575163
63.7993387223478
153.165764576168
220.608938331739
271.908185629222
315.397620708798
346.426889286613
356.56341652566
339.884095960554
291.460761619025
214.147795616789
121.807739822889
33.7562655698833
-29.050728963611
-54.2771570926747
-47.873919608778
-26.8160660689395
-9.93151055298475
-10.9304367408478
-30.109890030968
-55.3287578127649
-69.7010765910561
-70.3988878906092
-84.0578288622076
-134.737354792475
-198.496471275914
-227.578009140101
-216.106656205074
-200.862165865733
-199.381305754236
-189.923832128878
-150.770576212388
-88.2391707514401
-32.1296465355699
-11.3743566522823
-24.3132911709242
-41.1252964354044
-38.9832206890768
-20.3692719972257
3.94939225182198
33.9530689399222
74.3039745741064
119.955996529549
156.769201052218
172.938391168674
164.244629827362
131.142076374562
81.8111535195611
34.0490381983154
3.40538663773452
-6.63534101100128
-6.47837188651286
-17.191194528052
-55.1945061746302
-120.487558638498
-197.976510937224
-261.313235555397
-287.783406238506
-275.742503812401
-239.469519656176
-192.805342042447
-142.407220004344
-90.6615459800368
-40.9324345610089
2.04787864122152
37.372498036105
68.9665988723315
101.435899641783
140.870617654127
190.391968676537
230.326233936221
218.070788098558
132.777094093133
12.7247309654806
-70.2489703024703
-72.7445307015526
-12.3886379257039
57.1835038294412
94.364629727955
89.1557548289334
52.384501382089
5.35698227552763
-22.972441056709
-8.4972381675926
45.3337577527329
106.252807744846
147.370441267488
171.941220207928
190.536713453627
195.165002504286
179.759556015786
161.467164784974
154.165669791375
142.561780592391
104.146628877613
41.2087528728425
-24.6279648871076
-77.2681074191702
-106.099218010528
-95.8295648002335
-44.1746037542567
25.8177370391649
91.57517609254
147.92153910217
188.623748515117
195.682831889878
155.044705689318
72.3287561202785
-26.0902434360581
-111.39654763076
-174.542419706299
-217.818137748029
-238.60066507385
-240.109237544782
-233.53554007922
-220.749023460095
-195.408419369155
-155.753786163006
-107.209515625826
-57.8755198773257
-14.2220628864304
17.7926473768393
36.8209140655165
54.8906808753385
82.0955893204119
97.0690270327062
58.3321814717181
-43.2422550752006
-163.129994261691
-244.971209164052
-269.685077311915
-254.553694818517
-218.001475186757
-162.519431262808
-90.5572146190568
-19.1628125351903
30.4132027917363
47.3784695634855
36.1328662756036
16.2511135380519
11.469289683275
31.3601955546616
66.363096532505
100.161278578357
119.106035855437
112.456595226849
79.5253398255935
37.4763795917545
6.65579319844717
-15.8054681297313
-49.691587163221
-90.6269305813511
-104.981184383231
-78.083790924473
-31.7949549296894
9.58983497618955
35.9569556745765
40.7338389302739
25.1027205047797
10.5626179518011
24.5546675591059
69.25374695416
120.793231518641
163.383329105804
208.495609802021
272.956061760507
350.921664429676
417.035673042076
445.321276172594
426.447763692849
385.881358427927
370.266858889407
393.833136029022
410.379889206032
348.616159157033
177.317777967433
-63.4859885086432
-301.406482425288
-489.347280329918
-614.900207139972
-676.123183493588
-668.38343064857
-600.001146390608
-515.615258865814
-471.395492990759
-474.112485127357
-478.886603498542
-449.84056966702
-387.067998112666
-303.999510605191
-214.864267050238
-133.545728377336
-64.5149810649728
-6.15667269753166
40.6806794121095
81.1431136426897
130.364544459381
199.089082122435
284.135521901368
374.051670648175
454.205901409348
509.673879499364
534.182452593714
530.967267791803
506.038892711618
472.74795195921
452.072128824877
450.896514759602
443.103147210072
388.97410169468
275.398880274229
117.799621173257
-58.3315682189101
-209.189759641129
-287.167194594121
-286.595494511395
-240.343548545404
-173.460266195343
-89.4677744414311
0.412014764227316
59.209496451627
52.1734704665759
-11.8670947808174
-84.3924648357135
-124.887755902785
-130.928587414893
-128.465101459224
-152.692465451293
-230.251039350137
-358.61841127954
-496.21812232808
-581.917166319496
-580.623150632952
-510.927963422796
-417.411092183185
-325.568857765053
-237.086143005824
-152.7088192183
-81.2878797983642
-30.802740383858
0.124492564528303
18.969782796546
33.6271624356487
52.892522782813
82.2791804887931
120.523065257839
168.977508528612
232.15597773668
299.319355521309
339.664979777927
326.82219390662
264.318563039691
187.215950640412
135.099331551356
113.116084408583
97.1980501475409
84.4760559095058
102.231400430656
162.250788117627
234.117750251556
266.723747117127
228.631295592391
128.841462507344
7.4520573277303
-82.5526529266493
-90.7233276520708
2.61302313343379
159.631865159744
304.719991606454
372.646711826291
344.857714363561
271.241590800347
238.353050418705
281.048367213898
348.504705998692
363.300535843467
282.117983423386
110.190974806915
-110.931450549588
-329.611933316964
-504.855743653411
-602.656764826548
-594.762815915508
-486.549608795042
-336.802418079606
-223.804662547682
-183.573530084086
-195.675952263278
-229.667257340769
-271.836373313431
-304.069150720014
-299.862170393574
-251.157241655357
-177.996087385127
-109.294789976008
-57.0868804160993
-13.0726359072232
24.7755016555917
35.700935116854
1.61506922186523
-55.613075873986
-81.6591883328014
-45.8262824991326
26.4670864033186
90.4703500341937
132.946015898852
170.427233027626
217.522292206008
279.309242328595
351.156067981923
405.860249786712
407.740661027973
350.844579439982
269.750328153503
207.285032428161
166.476604820638
110.753611242234
24.3817330096946
-65.2487222966645
-137.167431674048
-201.096463373565
-260.686796161376
-293.111087541135
-280.877892078362
-238.789727257328
-198.777493366036
-182.455041614194
-190.341213919751
-208.226168137339
-220.173617093185
-220.756670236107
-221.236123403084
-235.074867366527
-256.05943946875
-266.819537284153
-259.670576861232
-234.720935235722
-196.143497070023
-156.073518452191
-124.878917581859
-100.329704067768
-76.3898915453599
-56.8678610735308
-51.8772637172179
-59.2113940551413
-58.0306734792261
-32.3424282227822
10.7422597350213
68.7669257821318
167.872456120442
323.074177136356
506.525413087259
682.08928531981
825.944820736188
902.318367968211
874.687019335621
761.208879041475
640.369631847275
579.611020616347
585.719703226238
629.802125323253
667.186750241987
620.356769025268
412.395934169374
67.1330896935175
-259.410149219317
-410.057997823527
-385.539029345967
-316.269010385649
-285.892350317171
-265.159659934677
-221.621567322518
-195.269596291515
-245.928290978
-394.859740382535
-610.783986598863
-815.99420506644
-928.899751803265
-908.856323525983
-765.285666360835
-555.26252465689
-363.164260796629
-249.780997958104
-212.72059983955
-195.297126010008
-137.360182171454
-27.4577390292945
95.1188025640236
187.045911322724
231.702804286727
227.380236509802
180.288387328143
116.858406774256
71.5617096811738
54.7053163250442
48.6280793899367
32.7718076092345
2.31047978559482
-33.4218493326427
-61.655875457819
-73.724625945461
-65.7288293838853
-37.2743389767451
8.03717046850247
66.3737353577089
136.198325523535
205.841459545799
245.164244070739
229.875216589617
172.942604719957
116.834073190456
105.322255601126
176.251290976899
349.292897979029
592.388577340726
823.236565123815
960.94339924039
967.489756617504
841.762600803691
604.637277863644
323.720113181027
116.455167340135
53.8709494129059
72.3900247274442
42.0347098809238
-89.7566698850794
-272.962003796762
-457.48188102042
-654.307696315056
-873.971181312611
-1051.08668159986
-1083.51809216427
-949.676336231271
-739.228136786053
-552.241892889191
-415.596305983543
-310.121212281767
-230.825444271103
-192.014659352298
-192.211129191422
-204.414192321718
-203.007124009445
-178.929527689247
-129.372728188079
-55.3985653342307
31.20016959161
115.319739934341
191.732616087624
265.282631287685
342.067927987038
420.820212566187
487.13299593275
521.861585347258
522.896601033625
509.211449389311
499.520552600286
492.273104722593
462.68279785058
383.985809427074
259.987816900733
123.651082328453
-3.84476297401262
-137.117612918484
-294.616354447745
-441.77565727069
-495.434845496442
-415.606217003538
-256.556270803344
-89.8868595604028
63.6121348837357
192.873621648378
262.090642486148
253.585230060464
203.529113300907
169.398863469222
174.802170728218
202.128048032651
221.763600056573
208.183504363577
143.467293337304
24.4061807173352
-125.481773313446
-253.183444752591
-306.980160744738
-280.931798613205
-218.22521995392
-170.854537964466
-165.682362117744
-195.287034586752
-222.765995978893
-213.564009916033
-174.606586288182
-138.546379899725
-117.764363463727
-106.484346792352
-109.334000411625
-132.578663591808
-159.029497625077
-162.056945161093
-145.006680349921
-140.760006892942
-166.033500853035
-199.523640064734
-207.367972726714
-172.675130464698
-104.075756655747
-25.6072416135296
38.7376497361743
68.8841673258295
52.4807245875614
8.51354123267068
-2.80077739862748
67.7374658792732
195.502970011683
302.043213644137
330.491935376471
286.250932786212
223.011967744846
195.14003730581
210.116942961805
231.418204332069
229.295705306538
213.297097652668
209.475880621387
217.14646852276
204.328574370218
151.363715479703
86.9983567075055
71.5476013576171
143.639768974768
279.596107847148
408.35476200378
472.549583448621
460.704378588754
378.512190771386
231.206813138297
50.8625710172774
-102.335521868848
-192.884890967096
-248.210065082178
-331.254013737915
-477.567415148422
-660.389657551304
-807.392720878132
-847.419421982882
-761.542883658872
-602.508553118997
-448.385575152776
-335.288673365729
-251.777298224878
-180.742858353038
-119.080901522212
-69.3802720674561
-26.5293148353209
29.1749141380147
109.988867610917
190.414677103635
228.752305976638
218.327636341988
186.717337484246
150.610368806905
102.924548822314
40.8294720563678
-21.5876408339738
-68.742448883446
-89.6046238178698
-72.712336890438
-18.5472549172337
43.2781473392127
63.1724601273457
5.54789855172529
-108.953873710581
-186.490732847193
-122.929315493552
87.5326140086642
341.397947496651
541.990990633352
685.379895669894
816.764668059753
948.432053730098
1054.13321818338
1108.43924141165
1090.92173868808
985.151092985621
800.766652728267
559.387094648178
262.626269414572
-80.3308624019877
-416.083000466604
-676.074992531105
-814.162745526009
-824.619556339716
-774.000181711716
-762.298771818632
-802.427677818027
-809.307255819743
-728.064230198142
-599.738094644009
-488.85408909972
-408.23507054235
-338.486781979845
-270.806085076255
-201.504552597737
-128.507631239935
-76.2309892665275
-85.0099134440752
-157.113718120297
-237.760077750097
-264.823322114289
-225.094585978259
-153.68598267692
-93.9516881617991
-64.2250312635554
-50.4586841143433
-23.2489552066831
39.907379482352
141.737766438581
263.558498045184
378.804947440985
474.061603975544
550.032411238627
595.993773570104
588.366599553225
534.715115560242
485.677024070545
472.956189101551
461.117606286645
391.792946292189
260.288455266017
125.018463653705
47.9934444383981
25.4942024594549
-8.7484559555304
-73.6915407214543
-88.0035701350011
0.869738410201758
115.683029815132
153.831883291686
112.356633341935
47.9068617216395
-27.4298113112256
-157.846378257865
-368.187279989729
-603.435571172076
-759.460469544588
-776.624058087655
-684.007565960613
-553.911715176563
-439.666457558065
-352.313469415548
-279.018796365655
-219.528255449735
-187.64732108267
-178.237306238694
-167.424516794777
-142.9948879887
-107.167163314351
-61.1031621550957
1.08371953615466
95.6204185598436
237.273531540297
410.392740491073
564.368241747075
635.092772708463
566.585075739471
352.943929453574
84.0165428186859
-87.5592705044711
-62.161710288801
126.393209281019
360.714884431956
550.573089451111
649.098412983704
588.352861128512
315.939755251219
-75.1078054067438
-370.221583531842
-440.412246172164
-337.889128246153
-175.701269554654
-15.3318784113425
125.964772285509
238.839315052934
307.040708835495
310.461205646684
246.507842502751
143.030446633164
37.9759199565155
-43.715974112194
-92.7979842598922
-122.3554355803
-161.70589154961
-215.440103938089
-252.033007098507
-245.185205725607
-200.494135456899
-145.401671613482
-100.183540638322
-51.7183392532494
28.380440043419
137.726881947495
239.388500385312
298.833361485109
298.911780990192
229.008491325093
90.9799541997094
-79.1444500017735
-214.115973397652
-264.980971844
-249.412108691831
-229.11663187769
-242.198371345295
-274.352457662707
-288.046813650463
-269.540928999332
-250.63443663401
-276.911633626638
-348.733259606958
-414.864004946355
-432.03854418466
-399.742162928835
-336.120343971237
-259.364153362998
-192.236594416433
-154.580125153956
-141.722198093796
-117.533298954923
-44.0455384716615
79.1560751509562
216.462529961491
330.749948813605
406.392154176414
446.870201897694
453.021178355573
410.026665307446
312.239792950903
184.792065753411
61.5192088811398
-36.4943241936673
-94.1777369537459
-99.2537200841964
-49.7621023415309
40.8427582290374
146.009693003005
245.507650842803
334.505773097297
397.477832126318
416.283999798036
424.040125635823
485.406434434576
609.677350061882
727.881835587812
746.057590452125
620.386449359631
404.798167166608
196.312708630971
34.607312226756
-94.2817455730125
-187.781825611973
-220.669002080177
-181.269944378203
-98.9930069095659
-63.0736850047844
-166.31272635487
-395.81928279619
-637.931248447024
-788.4100094921
-814.3397853008
-754.336861400722
-688.983818356439
-669.735578793232
-669.728668613027
-622.806755493074
-500.123638500674
-332.769275680257
-165.927813099069
-14.6026102283539
130.645533298946
271.787637194099
386.726647359185
451.466572654975
478.169829554493
508.331652850583
563.266978422163
629.111458604835
686.785018821722
730.897903004761
765.041441498218
767.555372666251
667.558671309067
420.043546803437
95.3842460262127
-179.772059045783
-360.25758162113
-499.769625195567
-632.317987216941
-709.612683289889
-691.475945796419
-626.079076329349
-585.15501907739
-570.993691504467
-530.241036880122
-430.298438523965
-296.585484762583
-177.584244604948
-86.4057686650727
0.81637213513592
93.7392627615933
173.662647238853
222.854423929475
219.330486988055
127.578244289158
-44.2455255820137
-209.836861889492
-280.445929130021
-250.601919651763
-190.017852165876
-179.913991822206
-256.734341654965
-379.680887136465
-449.430423762737
-386.947995553525
-198.296741435507
42.6619917980517
268.844647158242
471.292795334254
669.719481625309
847.145690005022
944.346495097017
910.608791686158
734.618324119254
441.105113242431
81.9734700757759
-272.81259455026
-544.61968544141
-664.066045982715
-611.588345597798
-440.302684978844
-226.949461890346
-14.0251553236421
169.969928293157
295.146697198893
387.009421648751
520.037134858508
701.055211340322
825.22850671128
793.021683105639
621.379111494625
398.890093505773
185.668516059694
4.29209174443289
-127.328607187724
-208.622843754728
-269.203142415546
-325.193791562594
-348.753738183891
-315.095049370015
-242.547922316492
-174.745270241406
-166.98495928696
-259.411165990609
-410.466015856621
-499.291983619669
-436.895415592842
-246.568447455076
-24.000941237429
152.822281348642
271.22486255059
357.611467416777
423.02864722532
475.143344956999
566.249927505225
738.270458014325
922.270689393847
988.70993279843
900.541108387173
731.999231475911
535.37107966428
284.592225793512
-31.8290961907807
-360.750403161596
-653.135550829225
-896.071273386265
-1069.58894973522
-1144.38629851591
-1111.9799697476
-991.545237565082
-844.288929606123
-755.466123602266
-746.93570295642
-750.05315011101
-692.901390464512
-565.767725378214
-400.444631369146
-230.507267482197
-78.3324375616502
44.112298370698
138.391898759299
217.138476118911
286.211628815826
326.524934695061
301.523143497196
198.480508508788
60.2650670745876
-47.2012700807336
-101.718837447075
-137.260695118478
-183.096521790776
-212.685775397037
-175.727692336579
-65.9655100080441
72.1892233482857
198.038264267183
315.08413717187
450.952775825043
603.372594224646
728.804805420387
788.065545931198
775.878108123782
708.313239769922
609.884011813471
503.465956203285
399.480971283325
314.652981272867
272.223206531171
241.700938182802
140.250068962409
-62.2174770637971
-291.163474298339
-425.443720873319
-379.838689727921
-157.970443794088
142.638061720831
378.691998379854
453.328579947843
391.957204135944
298.386184230137
215.086649073932
74.8779429895678
-172.460673928032
-447.694664451082
-620.636755814051
-651.575406343017
-606.623082242107
-570.342355535487
-560.728044504687
-520.763201622136
-410.349010878934
-294.112521412531
-279.427653218321
-366.877190496601
-443.728210408284
-426.340501086007
-320.698481214688
-163.075866731483
14.8332138294226
176.768390414738
289.068557318084
346.028958376049
375.331870614367
408.066520679507
454.46429766019
515.55657292714
592.137410682337
666.643300699012
705.985489775108
698.657933736026
657.463689065104
575.94095345971
413.692797923415
142.705067675585
-195.440550602024
-499.370181328272
-692.682617987262
-774.397853843509
-777.423952047176
-723.046893687311
-621.604762904929
-482.930154198125
-325.899950686762
-180.477306710237
-85.2689058706324
-90.6940438683821
-210.645053508443
-347.585595398139
-353.949398725209
-200.243444648564
1.52061029961155
149.300147821417
239.064064676751
305.110773644075
360.104419060866
414.027278241782
493.489274182628
605.064068282616
697.758384553003
697.293660476679
588.942281833555
431.317882179681
266.970175978061
65.5150357569215
-211.124217539158
-516.203420892335
-731.653757807808
-783.362341738801
-704.664967643466
-568.367857277031
-411.657985214645
-241.79728642031
-62.0903039863749
112.246261073618
243.79381917718
297.552925907522
286.723218492413
275.34620331978
319.657784199422
417.120094730249
529.665753065048
628.801144377734
679.246412531095
617.252726372612
412.014176567804
127.135844282799
-139.991479423403
-358.549497808531
-553.695491491664
-730.230134728447
-858.827704786559
-916.064303232752
-896.703892736158
-802.388150368765
-660.978617343215
-531.246788205514
-443.071580423485
-371.503822689175
-293.614716323197
-223.123718374619
-179.926783763769
-154.849738897295
-112.837037026257
-31.2961182612599
79.3438802725222
206.395375807108
353.900726792413
510.093604403506
635.332986751399
699.401685495731
704.171611190791
677.966425469569
664.137511690408
696.376780457248
771.114870140282
827.945631618919
765.666278093392
542.200633097618
250.221826731984
19.0213918098416
-117.363609981287
-185.158818720752
-179.051591010273
-86.6250507109064
52.2665719819788
