2.10549986338003
-0.649356415658358
-6.98746781265521
-10.6034435885729
-10.6780798019984
-11.0743399740151
-11.7539090802922
-12.525318620101
-12.3846761940511
-9.23230090523051
-7.61865055956607
-10.6720308851381
-10.7887193594347
-2.642400264888
6.35656708675906
6.89748519724888
2.19009290982216
2.64764119310139
8.80693304728824
11.1228206237481
6.87252349225108
4.12677276546869
4.8900625536441
2.49888982572199
-1.8177231737246
-2.20612291398748
0.0507988885962455
2.28158860538778
2.60395288359598
-0.717884913916403
-3.94395914201785
-3.7819486951595
-4.48415137049282
-9.73380433702351
-14.1039458525247
-10.0840706998412
-0.948371339183509
3.80032884517718
4.0658300798495
7.41124545114017
13.533079863885
14.0094040733541
7.99308437622603
2.99320721643089
0.809565403283574
-0.584313304464548
-0.281080991214404
0.303701598542598
0.394441219516178
2.47858345614982
3.38157654553409
-1.13362511857816
-5.64807702745633
-3.79000803315849
0.717698223616179
1.97258239755805
1.53302842384968
2.5959237309372
2.76491872433817
-2.22613253020853
-9.81001307081359
-11.0514169784756
-4.54038727635465
1.84509012116726
5.63730080534047
9.00535276899942
10.303494300881
8.8398211761459
5.97763401863154
1.74086911839576
-1.65608378893526
-1.6007938543839
-0.517971514909324
-1.30126010382185
-1.63956082378404
0.97746568965914
2.68374724886828
-1.14347883213371
-7.2416420715206
-8.96202164360722
-6.23741794657235
-4.38919481662651
-4.24530897147836
-2.21904403297313
0.734200069219737
1.03342165050753
-1.4566815991376
-4.77630732163535
-5.35476298796297
-1.90362897519209
-0.0290102970092795
-2.79562520514315
-3.72192476647781
1.63927357225674
6.60379063206175
3.79291831184776
-2.88389192468623
-5.25617799420763
-3.76880788167712
-4.12768695199799
-5.08564620453117
-1.1404966169385
3.65086783502225
2.2430769948356
0.0370639525118954
2.98984339441481
6.41212243045792
7.31245165942282
6.98282940760223
5.2406599929682
3.97479457080873
4.8978822454761
3.68709016168197
-3.16284161490553
-9.50175757947046
-7.49989022109636
-0.799787907339316
1.22705623997902
-1.6601012969762
-2.10433142749827
1.16125703922382
1.86347710779857
-0.687359335559941
-0.254298639396064
3.31134184838801
5.21433404201255
4.59095178775074
2.24780833465787
0.728639562591559
3.09946725119607
5.04992479534008
1.59509344139538
-1.32453877210472
3.26253733456112
8.81638026275922
5.57412311015838
-1.63520861259588
-1.74637718157421
3.0176452074077
1.73923276210896
-5.20835063846884
-7.86759427267112
-5.23163901043473
-3.23443077782001
-2.34988343671003
-1.57398161357123
-1.27006187923371
-0.264479658804536
-1.07719107265059
-5.97841578428093
-7.71588131478171
-1.70793797477201
3.22082696523259
-0.232858108562747
-5.45855802458613
-4.1534727865567
-0.568160737315902
-2.19720908760599
-5.63165796836209
-3.9228542256272
0.581329113796528
1.63305112115354
0.47305587816269
0.847670245872026
1.8971566721704
3.55525278401561
5.43512100628743
3.94868559933959
1.46113888400049
3.35363243489884
6.09161723317209
5.41141524842986
5.78841067342297
10.1565726539457
12.9062843551298
9.97709007346224
6.08396753077675
5.91851230637182
6.19366538888051
2.18562121030419
-3.16169073933059
-3.89646164506997
-2.88632165641855
-6.24876673024415
-10.7120345114898
-11.2306833996108
-8.83935935172817
-5.76888609847377
-5.80574026518542
-10.5937004515955
-12.7380806478323
-7.56932035285291
-3.07260253085493
-5.62623517135149
-8.42867578309274
-3.97889930724075
2.79479433325465
3.79838702756731
0.919351771965719
0.307937939387519
0.983216489685369
-1.25081912118871
-3.9621581174142
-3.40248718341378
-2.0142077779587
-1.37856793979341
-0.273294974917907
0.91123660630907
3.46490018192932
6.84659452866414
6.15724729298568
3.37953639811335
5.56615733426844
11.1402870367068
11.9133213431051
5.47398532769422
-1.56217382536386
-2.57935546381722
0.679415309771117
1.79435387662805
0.885571398810094
3.08555314839092
4.55323429971314
-0.970138256297215
-6.91408122351294
-5.94508065803852
-1.92743802875554
-0.39013003608643
-2.24485806890328
-4.32069255396314
-2.45495924398536
1.71443037507526
2.15557211230419
-2.66959550529924
-6.43888247148662
-3.75261515526436
0.686954714564549
0.0598751014374353
-3.12509808638407
-1.95897310700825
2.45784332148483
2.92107453947032
0.58088935282522
1.62074316722514
4.17188524359879
5.15195099673547
5.69615289563099
6.49085350233562
10.5274094879507
18.1200474263754
21.2585458616534
16.8795241036484
11.9821918162698
10.4132696067467
7.70077093726128
0.321980296044744
-7.6541876890242
-11.0604094675729
-11.4737434104694
-12.5177294327949
-11.7906443666244
-6.2802692935669
-1.58939526607124
-2.86166383214946
-5.74793545724069
-7.43620639651749
-9.6302645292697
-10.8511126851301
-11.2890577795703
-13.0627204206346
-11.8473793533787
-4.02400620910577
3.41179270876034
3.01578829756461
-0.663388652989695
0.0788766891081736
2.49617466462613
0.546963567430163
-3.04662665167858
-2.97351436613403
-1.76852933547569
-4.1065612559569
-6.09642047660703
-2.54524322652533
2.90652025272872
5.35609968145652
3.21726697419551
-2.82811524119013
-5.74580838110143
-1.18836479245334
3.41716641248611
2.81398737238262
2.44863614744408
6.34599274885759
9.60766689961598
7.23075276813067
3.52374450393921
4.99772224590502
8.12420533384791
6.39405614619471
4.24781994130078
8.31693944353174
13.0640236282774
11.7227299430578
7.84807785310256
4.91221830642843
2.33121139161104
0.91400040150263
-0.700953127753412
-3.62939536738238
-3.28643802656285
1.28692339712577
3.0147812070642
-1.26865258260751
-4.78250541656252
-2.3446818670273
-0.239392517652444
-5.1705989375695
-11.279099195663
-9.57689782216342
-2.88733100592302
0.248275007169625
-0.207071325120156
-0.532953836857476
-1.15282343323623
-1.35431408728906
-1.18038286886272
-3.06280536486289
-3.97586668772544
-1.8368798784357
-2.28693344778159
-6.06696850405706
-5.41309725122313
0.933486689071731
4.2776888714231
0.827871884007491
-2.67511065117162
-1.30202291392437
0.489404849832031
-2.02252602674082
-4.70476599078069
-2.74804196799436
-0.410377899820093
-0.989338853508725
-0.374885426235898
1.67583940957073
2.04996065284042
1.73810943800924
0.659339848057784
-1.54523512323263
-1.54774340316393
-0.0956311581787126
-2.07508289660727
-6.02114225879977
-5.33078674256864
0.804133684249694
5.18524849496883
2.70336736580163
-2.38219607889764
-3.53174276030001
-1.76073763179937
-1.2666592889437
-0.650950379629937
1.11304478731204
0.795156816599509
-0.0335678686773613
1.12346318379968
1.21654616048408
0.703848313722902
1.73590625421426
1.19455239443094
-0.363613630963163
1.99950725446414
6.24798695494011
5.86795130818484
0.774396576499865
-2.35305368308518
0.370990738144171
3.83961619940964
2.07501202332313
-0.994767833494893
0.527586486972144
3.43972600577274
4.84177923155531
6.89853161170906
6.87260323959928
3.0606552521337
0.947099339899826
0.751032287372777
-1.28158031951219
-2.7263363594957
-1.67572591705165
-1.54275151574853
-3.86269189586345
-5.37165179147135
-4.42176855076004
-4.54459967722746
-6.97886944489064
-6.9208426726725
-2.55128918399742
0.86479204752088
0.68964118503907
1.57305939137653
4.55412228258484
4.40293793285396
1.20786855646979
-0.940249817757848
-0.638418975801021
2.77263611630504
6.03865859508121
4.33624701524955
1.45358591983595
3.46416106154929
7.0377361637155
5.520909992494
0.486389481898155
-1.21449152958734
1.3872344640567
2.59853386748143
-0.0880169259791573
-2.03372972905518
-0.439323578298948
0.475176844011286
-0.789968896004807
-0.604514585268801
-0.253544154614849
-2.54645706574697
-5.01996783559287
-6.01618471542526
-5.60991599444164
-3.37038359738591
-2.18617793282116
-5.79425563995649
-11.2819356583885
-10.6205906574275
-2.6787896268358
2.98691765299204
0.537071314184896
-3.87848438154347
-3.68843046286818
-1.65985634088466
-1.92687494404556
-1.30044934009548
1.86967991259891
2.99516160331213
1.30511815517208
-0.816250584582501
-1.73751793822001
1.94200125178492
7.78085948740745
7.90254117920147
4.6814961925394
7.42851727683479
15.0182960664871
17.5859932236348
12.0004480352606
5.94649888912059
6.26724185963662
8.99190676447843
7.02626749310924
2.65000731283834
1.41505412703831
1.28793850205896
-0.590314236602732
-2.62195236998515
-4.99178547761622
-7.36037440775736
-7.57050293974174
-8.66115326803235
-12.5639360753496
-13.716556413057
-10.5869388279465
-9.83328407861674
-13.2782778084884
-13.822554557537
-8.47760225837469
-4.33214811403756
-6.19939935524832
-8.15261932033451
-4.52305867090347
-0.0319068104596466
0.314463749000996
0.349850159306038
2.48736354026847
4.03282455735454
5.67598056127249
6.87655084611593
4.79993279805246
3.01847967703912
3.90984350469427
4.00204277406115
4.22558094367155
8.08380649288706
12.3651152598838
11.124530300085
5.70755354015793
3.55624215480943
7.12759544780879
10.0892173630957
7.50015240055809
3.55364461013443
2.50187014093792
1.56016925813137
0.574563700587845
2.31122416949479
3.31689423106718
1.85122546369412
0.887391000743794
-1.55774671012756
-6.51772986093205
-8.82724189124666
-7.49446171111114
-7.57645160274453
-10.2148841911929
-10.6473579466168
-7.85708066123447
-7.63640951319174
-11.0790659154893
-11.3558816946602
-7.57892711456207
-6.71943741231935
-8.72374489039859
-6.99928331109609
-2.62070904973149
-1.21204726194065
-1.89826030475895
-1.84763040699747
-0.475539560734238
2.87461085783354
5.46812120800393
4.2466552340286
3.06008582420941
6.48998462893301
11.5676014157455
11.4093035503057
5.28154657564173
0.21957965173394
0.271908697690878
1.22975052117776
-0.106896718318694
0.0378435590326198
3.37280056552804
5.15161181206404
4.8247977646675
6.58216995982818
9.2534502760778
9.91256978233696
8.14373563272675
3.141434193697
-1.72760999775008
-0.922384686739265
2.43084972040349
0.730492573292203
-4.82217274975823
-5.81816471035707
-0.942616717677303
1.61421613921655
-1.85648172733752
-5.21388275277788
-4.09600949719845
-1.93882824327599
-0.913884676216391
1.09812841738725
2.23581852642463
-0.168979141818676
-2.14970134281212
-1.07569039712693
1.38674027065705
4.84470314857284
6.06474342762368
1.60091659335002
-2.60004018775947
0.305210362043422
5.851907136277
5.74478157223932
1.01826688964087
-0.128664157280341
4.40359915478154
6.99103949501454
3.19211316026107
-0.540847180756489
0.425198417467896
1.10364469398724
-0.881359380682232
-1.7874877808834
-1.3476685070299
-1.18628857402656
-1.3682356579153
-3.4922512954313
-6.69071077295755
-6.87745996181528
-5.40197465211603
-7.3671950972345
-11.3141848468123
-11.2281424270073
-7.11569994203612
-4.38401617937024
-5.30449943212948
-6.68654299250768
-5.91426358349906
-6.33303037678568
-9.37100811416764
-8.97579029077331
-3.76241925752083
0.84862142906109
3.42972791446675
4.7936869347217
5.6631543334099
7.63695631129898
7.48573423042836
2.39261460238694
-1.06611818968541
2.88712136709601
9.34039780321255
11.5453305071814
10.4674462947981
10.8468730963354
12.8406625803843
11.5926032568279
6.62342502435472
4.91924107777508
7.85693120383712
7.76789445237592
3.41475905634856
0.700494043687452
0.0723380964905041
-0.389697159912363
-1.20796854293537
-4.73393558785749
-8.9782711333419
-8.46461164996643
-5.87147507567384
-7.49169093582394
-10.5063265410631
-8.11195232436756
-2.07909357835574
-0.0836123480195227
-3.17295420889445
-4.13166425684042
-0.545519865299054
0.677987562867939
-2.61058674106622
-4.28515975074604
-3.08371120064044
-1.96346942913746
-0.500664512253156
0.849458934778585
1.32033906564753
2.0335755419075
1.0206826552134
-1.91539030675907
-1.36913247005741
4.2748777875841
9.24949285462198
8.03775712537337
2.73147930877728
0.622872322993301
3.40884329825097
4.36602477716497
0.750145699072175
-0.735822535349923
2.27821612447263
4.23913509996499
4.4711628827688
4.7011883355341
2.67115648296525
0.312585020267692
0.563849870969501
-0.484693569735591
-4.04822774175683
-6.0336912078698
-7.19742633691287
-11.142603907527
-14.9681106537783
-12.8787305597694
-6.9033563171831
-4.54365638598746
-7.01465953959244
-8.55263647429556
-6.80794544331042
-5.33998630051659
-4.83711802356502
-2.93976166816234
-1.76170274217494
-2.76221577866221
-2.83102229124313
-2.28995148335487
-2.26662907836415
-0.302708534150168
2.04414345478699
2.06738963054921
3.72415255566222
9.91349644896064
15.00084971022
12.6315177369761
6.35036771774898
4.99052064119447
8.76715146735702
9.93231912017619
7.32861416134528
7.64360393849468
10.9040054475582
10.9887591884939
8.74445039821379
7.52234956206916
5.44096418438053
1.40830605820541
-3.50592650890403
-7.37480518246402
-6.57123396627938
-2.63402880970618
-3.04038488662654
-9.49510151235708
-14.0516066393744
-10.6765756971635
-4.91119449333011
-4.94074309391392
-8.87861181476472
-9.85590317951439
-8.11806893404996
-9.1694452359677
-12.0466653504835
-10.9015270674322
-5.98413340788566
-0.221513229351081
5.64012810552712
8.21179602592359
6.69630852800029
6.68316810118587
8.81259822971418
8.82542358123205
8.2625297783334
10.6353052553284
13.5365381067124
13.0679833659884
10.678535762368
11.5236404209899
16.2999890636137
18.1415887682521
13.5172334547891
8.140417243987
4.88319876597533
1.70065439846165
0.412545940299379
1.08097623810058
0.397614081356341
-0.402401101373066
-1.73307951309111
-7.22326587900536
-12.8387216095831
-13.4638245249446
-13.8260230714373
-18.1748687738693
-20.8559886603972
-17.0628210794773
-12.0675716636193
-11.7158504902584
-13.1075644760333
-10.8450057954271
-6.80180341895823
-6.49281263818143
-7.86026071830351
-5.66282418982119
-2.05871485586586
-0.697095755695604
-1.39604919578455
-3.3230746179971
-2.48053225647203
3.80518866646272
8.38545446171975
6.22815307609533
5.06631395712667
11.1044327849869
17.4268268259372
15.8366346988045
10.5957519049057
10.7666136868011
14.7053020320607
13.7623424358461
8.65963796309611
8.26811359189787
11.9186311206173
11.3694282224047
7.40519149739925
4.57668390707184
1.43006691789983
-2.49639873431477
-5.9695770643101
-9.34685092362352
-10.2402874575198
-7.88694495519664
-8.12195468592882
-13.884760566447
-18.7329483084793
-16.1070935592224
-10.4038531378977
-10.7213371653984
-15.7110305360867
-15.8189309017367
-9.81372634147607
-5.73563946756419
-5.2932359842714
-3.91209598476366
-2.12293352106675
-1.2716820540043
0.196285512661943
1.07988586567279
1.80833410074343
5.35637695690031
8.5379464529919
7.75785672689566
7.73219844062482
12.714969123236
17.8852605864499
17.0595054307048
13.0839716416711
12.8104381514256
14.8232438858917
12.2569208035487
7.18885994797111
7.55074562098364
10.7798055671218
10.1377624283525
8.33725435819803
7.73245610165072
5.35436741711017
2.10856070885604
-1.23985708524126
-6.92475349528378
-11.8801782491849
-12.0483411582388
-11.0853466171911
-13.6629710189426
-16.2049741646124
-12.898221666905
-7.51332027744466
-8.33119787090769
-14.0218498196887
-15.9833555382008
-12.7790528192419
-11.0320291767748
-12.1017935891988
-11.5351495707133
-8.84281776301093
-5.55703491444071
-2.36737589143969
-0.471514656409891
2.13338058557122
7.04825211091116
10.0261634444618
9.73800660776075
11.6326654028017
17.2165394252279
20.3093326234365
17.4860052083307
14.6481503281705
17.8333431831524
22.2678982350613
19.2150163018505
11.9284533367004
10.7076187073205
13.9130313246014
13.8380854204426
11.4712269133935
8.13558464299019
2.43760652162066
-2.67284492718001
-7.59080735000081
-15.3655442324962
-20.8962004621908
-20.0673883765418
-19.1800977405611
-23.3960668790283
-27.1387274896458
-23.6349137736998
-17.2719217494709
-16.8921135199097
-21.5402004919126
-23.1654668137962
-19.7394885532547
-16.0033495100028
-13.0222690696261
-8.82329180971559
-4.9938275226422
-2.24969194916459
0.436980386712068
2.83058058746891
7.21728315906588
14.1824710969061
17.735137714746
15.7007814821444
15.0639650695689
20.6930629140338
27.1892775620426
27.1929101162376
22.6921030221623
20.5388867579454
20.2478656679828
16.1392792079681
9.78375097975947
7.6246605521579
8.48606111954217
8.33551751014934
8.46535210420857
7.6729236410625
2.70454064698274
-3.66400132595602
-9.05964879075817
-14.3879331983952
-17.509445551546
-17.1661016704155
-17.3872022386558
-20.3473689288289
-22.1634517733675
-20.5739876218949
-19.2910357573304
-20.695788515438
-21.3434449118388
-17.0732391887331
-9.9210250542777
-6.00568327583725
-5.50295180504847
-4.39110141087371
-2.61399578813786
-0.438405934925049
2.05379739812371
2.86733788350596
4.0539342075777
7.03354876086835
7.60186810213791
7.10442711341337
12.1043610848146
20.5440400153777
24.0917738983859
21.4148215421793
18.4514429337508
18.3140159261051
17.8255803202858
14.340587735211
11.9119656695063
14.960873339072
18.7929630049262
17.4933170311911
13.6962335823897
10.0034211231074
5.74683041909907
2.03637025326475
-2.85749156700338
-10.4853097456013
-15.3402177588047
-14.9521342565794
-15.4411811062335
-19.763064248395
-22.3250357108101
-19.0029005090575
-14.4473788435182
-14.9130195380376
-18.6346681426533
-19.1367821901888
-15.9721564619292
-13.6719120297201
-11.8813924493729
-8.66556533999361
-5.99581267433947
-3.50382592247105
-0.471795294205323
1.05834877403533
3.00104889969227
6.4068903244671
7.51209214208447
8.09562031892969
13.4429749861472
20.904142776533
23.8516105827699
22.2141093283884
21.6757433887384
25.2911006812844
28.5282639700742
24.5729985387877
16.3700100829858
13.4930496297698
15.5293322684877
15.8809339750847
14.9949049988427
13.7307596974874
9.63676609665691
3.30590317336655
-4.81782559379522
-13.2651712828637
-16.5741132160119
-16.0572787997578
-19.4920045143375
-26.2796962095697
-27.4463211338243
-19.9843319567732
-12.6661530223332
-13.9671462558477
-20.2635613944084
-23.5110724996562
-23.7239874601731
-24.3047335105098
-22.4441595715796
-16.1283467035062
-10.2928523645045
-7.28717870229225
-5.77142376281662
-5.1774746571774
-2.09575212730748
3.67221278446562
6.00149471821118
5.38187391218842
8.64037856375078
16.0432028229414
20.9929642793638
19.9174403028196
16.9911461508462
17.0126347515729
17.7260585455162
15.5330600229084
14.3001528561868
18.7484802533809
24.474206364848
26.4495599214319
26.1844705191231
23.5265571788031
18.2343199379452
13.1916411009373
6.8226890161799
-0.655042312870945
-2.56501677646237
-0.279044305906244
-2.7397827720077
-9.84888808869795
-12.2757297563061
-7.74798242878827
-6.92417953202669
-16.5891960527786
-28.7410980006638
-35.8250795242976
-41.959516484489
-50.3784547161212
-55.3648551872269
-54.0250894556688
-50.5063947933754
-46.9662329258053
-44.5367372950444
-45.0582214165842
-45.6129175639117
-44.4163599318808
-45.5099414217856
-47.7795908241476
-43.3068891551505
-31.1666333984126
-20.6822592126093
-17.7897034027758
-17.2554923751141
-14.0783584730467
-12.4188244271354
-14.8229583880343
-14.6324919265817
-8.40830064507703
-1.60508435245973
6.38692492522179
22.4659410007395
42.7187580552944
58.8887141350988
72.0646803569048
83.0934650816909
88.0542636142154
87.8540924025289
85.6955226710859
79.5793455795055
68.4166630552484
57.9530677755846
52.0872992454741
46.8304427745549
39.827158951032
34.6072318388745
31.061707063096
24.0874756758549
13.7401555201286
5.82729418467141
1.94750443861771
1.07527095034559
6.11869507083691
16.4526992820974
27.1814459262245
37.791975054017
47.0199397043264
51.2465333378817
53.8689160320344
61.6446746698046
74.4014486996676
86.2822275571109
93.8288501015465
99.1688107844016
103.305388036546
99.8201675066422
83.7601806465252
62.7840371735544
46.876394156351
34.6522681324326
21.7482481162313
8.41665531740211
-5.52209355447184
-18.773178069191
-29.8273183473501
-42.7752247524703
-56.849938185833
-63.4846483718844
-64.1456289290514
-70.4434991111808
-84.4697266931293
-96.9925053765142
-104.75510203816
-114.945911837808
-129.53608423403
-139.232688846822
-138.987711467566
-135.60754973105
-134.706273670419
-134.193783329641
-133.11908900247
-133.284289592618
-133.822815125402
-133.291364764876
-129.965654080016
-121.6227077693
-112.75317735741
-109.18927831267
-105.729547571721
-95.3122435378063
-83.147986263385
-78.6450055017149
-79.3271246453138
-73.8753970106663
-60.7870927268519
-52.3860974799759
-55.9372655926084
-62.7277559426625
-63.6396368847136
-60.6766411692963
-53.571484701762
-36.2815871243035
-10.3890442634851
18.2216589362868
45.5480059834319
66.5191576902611
80.7182701638872
92.5056502172908
102.850332688434
111.042671165846
118.329474534852
126.086899777698
132.719223088468
134.394585307165
131.586906959155
129.170783592668
126.512756121298
117.188937595379
102.124058725465
89.7764296439184
81.0777478703753
70.0403611685138
55.2421039882884
37.6455452548175
21.260152117845
19.2561022909828
41.1703367708182
79.6677798679351
118.612875630466
145.531554253435
154.945789465788
147.274918436534
130.702926943528
118.681950136093
117.73249276794
123.635802630305
131.56170456506
139.573248851692
142.075909712014
134.841486815645
126.72559214241
127.822685582141
132.385716765595
131.249474278235
124.787812848612
115.314048381302
103.852209440664
90.4319542121545
70.2772814633128
39.3658726155628
3.60527257771461
-27.9653780034502
-58.7121191181072
-100.812171145133
-155.527194978636
-209.168902701606
-249.88121712654
-280.161655714205
-307.951415704495
-332.610440462226
-348.922909327054
-354.432872821268
-347.64189036823
-329.505185570613
-301.243377442109
-261.314510290655
-213.930628780411
-167.056181842903
-120.651911737682
-71.3699130302967
-23.1801898817665
15.4561828990833
43.2781739051919
68.5547932611789
95.8724809295792
118.528937465431
131.074835425399
140.455336091483
153.79354550288
167.19407832966
176.535757422616
181.085426833051
176.983119842105
165.061729441713
151.699491927759
137.548368920212
121.507232606531
105.371784219359
88.8878450557659
72.4352984624944
58.9392424412796
47.3772285664732
32.2489992360459
10.3077785753305
-17.0922446935157
-46.0381063953491
-71.6877641975072
-90.4285147075811
-100.41512940325
-102.46145904864
-102.852731470301
-106.3802127483
-109.356604949606
-108.827031717184
-106.036439657474
-100.807304310782
-95.6637921288488
-94.197500443055
-91.3267186107142
-78.8311538927263
-58.2962610077658
-39.31532551253
-26.7351734967026
-16.1939411398177
-3.59159803473885
7.4252043659314
13.466305289613
19.5998461313461
29.7650352108229
40.1277029740071
48.5413571361721
53.7631527715512
50.109634466345
38.2069947969191
25.6208498620505
15.1695836962127
7.89103372779357
5.5919437820906
4.61788939637282
1.67039143507107
2.38023071855607
12.0120472104126
23.8422668293019
26.8206629352731
19.8734877815281
10.1997648564956
0.445511703240015
-12.0227145048492
-23.3399592463101
-25.5653580029791
-20.3528728553012
-13.5206215817976
-4.08761947147105
9.95426865299141
28.991610823429
51.4754705002815
68.3241802490601
73.045823197002
73.3999449145617
79.4330349779944
88.1455039233131
88.4372052742014
77.8924762420898
66.1047168490722
59.5353125642816
52.6290298365683
40.9171306282934
31.6739422161971
29.0462829863672
25.564311520568
17.755850726496
8.8671258460835
-1.64711100083687
-16.5291941425535
-38.5474639217452
-67.6668631176443
-93.7338400961654
-108.321721881295
-120.153707703566
-140.850014327369
-166.222596003893
-185.225631470097
-196.04421483737
-198.986768805626
-184.892381195571
-150.454867314325
-114.655376585727
-99.8001628318849
-103.269704445764
-105.028621058967
-95.2937855972962
-76.0607634978185
-49.8745391968581
-24.0809180611482
-8.66258690138984
-6.29654967887454
-12.982220702731
-19.4214275791133
-13.5368624192409
10.0839465349489
46.8042600834663
88.5726325037237
128.933155103528
161.514097652811
180.458932431749
188.380580170107
199.542221333091
222.352197643549
243.558409483884
248.220986221031
239.937063330842
224.064238725398
198.688315629562
167.952767971139
136.44821985314
100.651300642444
61.0809557118142
22.6358398923459
-16.4032677971023
-52.3249249236068
-62.1696750272044
-27.7427766521475
33.7685787705792
86.7201932224611
116.327124566738
132.424376174851
144.524901576113
151.004260995955
150.183984551124
146.066320628053
142.232070017606
140.906901680959
140.301303315268
131.832770640935
112.791022966871
88.6742090869363
58.8711365504423
20.4028132188067
-20.6432834554017
-55.7465409508271
-84.1189047175959
-110.354400949594
-134.837763512248
-150.337846649296
-152.510406606968
-150.922650711839
-158.164207018565
-173.80205365036
-194.605932422986
-224.153316962169
-259.573471971676
-289.600486826781
-308.897687585575
-321.903319011561
-334.236425528925
-342.168956893121
-334.873895984276
-310.859951114679
-282.878544321885
-262.636425593716
-247.205841011535
-225.931674298891
-199.021868127423
-177.551462848396
-164.120426222559
-147.789942382133
-119.786136491671
-79.9372835534597
-27.079017256296
36.5000083378611
94.1269670511449
129.256018754244
139.379821954988
128.804652786532
107.720223207602
95.305947643862
110.382807849371
156.429668087584
213.885770888326
256.273154819222
275.15500891203
281.633419041707
294.008209314737
325.888117192568
369.761426409999
395.534086909395
382.867128467909
344.059773483631
298.648641540536
248.700387512489
189.609271165873
120.659570992937
47.2508035093352
-14.6597534767708
-46.2928348048864
-39.6646188739398
0.241761720421568
59.4349178544756
116.361088543835
145.918015571436
136.144560182464
98.4081405856958
48.8165021339731
-8.15976596854745
-69.7888306927745
-125.466949503548
-166.935438719523
-199.340649127813
-231.81142755658
-267.436348691663
-305.446507100253
-335.039948673792
-338.713180138024
-316.478891958636
-285.953331328848
-259.630339304802
-237.238714585835
-208.812793067147
-161.901729703087
-95.1398413352254
-24.1488002517572
30.8910719142015
64.2109655311545
87.086949679475
111.571393249776
136.330208179399
155.463160069248
173.44901824016
190.363119111416
187.149947478801
148.444978382106
83.3491139207396
20.6213500422107
-9.13594826311296
-1.59964511046659
20.8962409118336
40.3856319857376
44.5047779117386
16.6302070099538
-39.1702741604135
-86.6668971898931
-94.4254284683549
-68.3050049737673
-33.2656813911675
3.31407599382792
48.8919725087416
94.4531117919166
117.096396044065
114.88714287791
113.028596917094
135.798551297367
182.396847152902
223.776428646483
229.702439800161
203.380359958201
170.951008365821
143.007319609193
111.173467177861
70.3254380889807
22.0271784825913
-33.4095780237574
-93.9798313295905
-153.596605726953
-209.534193234092
-265.949002910234
-328.842397044813
-395.637127172685
-448.062283866996
-465.35289904957
-444.162598770502
-399.885330813785
-356.773589041449
-332.783735340549
-323.060150048865
-308.981739444331
-288.493016253256
-282.624246182873
-302.434269277254
-321.116876298329
-302.832853713888
-251.630729918667
-203.019505608216
-174.670658162817
-140.474247590498
-47.6206361793615
129.933159787676
348.013714135012
524.920082963248
615.405934789556
627.469809394745
592.380948474733
550.291198377806
531.869963884209
534.760302920722
536.243796660088
515.220567643863
461.029701907676
390.563795591791
342.978951928264
333.034731032465
332.721743571551
315.156443818349
289.092724896268
275.125827584376
274.618253318311
277.381831001045
276.622502621094
263.143244404076
222.125258328945
145.300007833442
42.5576030092791
-57.4104070965035
-125.485192859723
-164.326246022902
-208.462679810861
-275.112667721402
-339.261796875802
-371.921719818284
-371.452027641834
-349.158369658123
-307.705828421871
-242.971610941805
-166.232959270294
-107.804570159568
-85.3718692082773
-90.0430404028508
-108.701278161922
-133.329538456221
-152.273226683137
-155.479324089048
-142.834429844088
-121.575612682988
-102.703612317853
-94.2969040735616
-97.7996065443332
-116.58327428834
-153.123876581632
-195.112754645324
-228.005302648202
-255.382846781673
-286.791997291087
-320.201920454239
-349.300828204947
-373.978004840266
-395.619849378349
-410.037641899504
-407.601216974515
-384.269665474435
-355.274321020597
-331.459097743645
-286.592424134892
-196.070777584919
-85.3924425224109
6.40499988362322
77.0210590812016
148.624211939726
238.448177809523
350.962049574716
473.216331371124
577.824275431695
649.601730290744
695.727645503805
720.550992783824
720.988280859519
709.803260599481
708.606459357628
712.007114516689
692.437147627378
648.742483375415
606.915083202689
572.086943187814
523.898165479888
448.188381179463
353.585832549567
267.896422828984
209.395390021033
162.382347749778
95.1202915258794
-9.88356770035077
-147.955203366049
-298.602961580154
-436.096791570941
-542.237445505368
-615.064908158153
-669.718174416986
-727.874616788853
-796.22101475063
-860.676262559433
-906.65206050235
-928.283624542777
-922.001222148714
-887.432227408742
-821.84277724107
-720.150205108189
-600.669545953687
-497.938049823419
-406.188858523033
-273.058015588271
-70.717919015427
165.647086475263
379.321703597456
536.218142415961
627.161277139846
656.263034901215
635.827433286398
583.206841939078
513.774913688405
437.643164926235
360.459349300265
279.124465263695
188.566537513426
97.6348448503229
20.5486862666754
-38.2589075966543
-78.7240233522435
-105.725438067561
-136.214047329978
-184.075079346677
-242.445046023687
-297.680117412532
-351.197122472554
-407.402015982608
-453.754551012839
-484.140664118727
-523.372232004439
-581.499599348666
-610.635897203026
-561.69463700785
-440.71628303488
-264.635968868325
-33.3945425423631
221.132518166598
439.334229050893
602.765819852557
742.407952857199
884.158061505713
1017.90915494131
1113.69420441974
1153.26305127177
1146.11600531401
1117.27489905558
1078.2470886654
1018.84201065201
931.440933309251
825.508414671815
715.00478922989
609.75074609626
518.332674965102
440.427873457603
354.986569998174
235.210273623126
74.2377869204837
-114.4527835928
-302.775890976768
-456.545257687838
-569.305194151944
-673.685674991051
-799.360864891103
-943.571406847848
-1090.93564858235
-1233.31317210797
-1357.13384437822
-1437.91881011046
-1464.03840457313
-1440.71009985895
-1361.89190161444
-1213.54872212931
-1017.75091470509
-829.974973928327
-676.012116809977
-536.183103820845
-384.281995989709
-198.265167251349
30.6238134239137
269.650545972734
464.567411491122
589.745253486906
656.266544846706
685.52286537581
693.39360002431
696.992960222717
715.092290370722
751.352426938975
791.667005749731
818.138869766236
814.311834722656
772.125964327472
716.53491141632
701.480455947256
743.25916855994
786.278670620376
770.605716225127
689.650620307405
568.101144983858
437.168805165208
330.126200422827
262.202354782847
218.037776277577
176.200906482437
129.782662722281
69.4358148952245
-20.5427276958697
-132.358723720042
-235.902865593755
-320.617516942686
-403.405605239417
-487.404990985128
-549.693841685932
-578.620984600216
-582.568477640333
-559.895338641871
-498.859887430928
-403.124203230441
-300.820189697219
-232.051123010581
-218.671930951183
-250.012901211062
-305.161850887571
-368.471903302602
-425.434631381762
-465.367394155407
-479.326016944614
-451.441215743468
-373.997642170644
-269.436956860458
-180.673604229574
-138.160190305437
-135.466901119288
-137.315651888112
-111.362300551951
-49.2229104809368
32.7776353588851
109.971161338503
175.654183245968
238.400824938296
292.185385583093
320.355539161849
324.577448482903
318.082433269724
301.529084705674
270.95164429612
232.844575591347
189.67242471589
130.674517363204
54.8574223595775
-15.8690060167196
-61.0086431256964
-90.5777099891638
-131.67676954625
-185.77778476755
-235.372530689424
-289.810732587405
-372.990281620101
-478.384283707587
-574.084200025279
-630.261851682793
-634.500346424361
-603.689387011082
-571.661550566958
-554.492745527427
-537.149646090395
-489.763291159859
-394.432270195711
-264.061032433547
-128.353094268734
1.04647668747511
136.622534761031
286.572839791131
432.695623754412
539.771281208759
588.334593886714
592.23353463946
579.509333838564
570.850374094412
575.880587393901
596.992377747733
640.088900865485
714.549142910796
814.220496858802
910.740968912339
976.379162724901
1009.07553172645
1020.15768191752
1004.06526361343
946.128726152705
856.291596741588
770.239977382449
712.848931579605
679.097053637423
652.18174263978
614.012607730152
545.34903806005
443.705740566771
327.662606745063
213.270307909982
96.6597350671452
-43.3796457573524
-219.71478680087
-411.815483411206
-578.304730489787
-691.097803585034
-755.86499446128
-799.325456958541
-839.033194866273
-880.920563357135
-935.641612503452
-1013.04962570419
-1106.02232964749
-1193.43571325394
-1255.74381903888
-1277.63305797038
-1249.60323670418
-1184.68862407554
-1112.73190667689
-1054.03593032973
-1016.96063294339
-997.933655764843
-974.128833215077
-925.928411427874
-862.188095634372
-799.269208357403
-719.297867305962
-566.419618415418
-292.932231911156
90.8499670296645
513.158535648107
883.451850373231
1140.3509142116
1275.45759624957
1322.91927735214
1323.74839286515
1304.67960962161
1280.95541456945
1252.53770846822
1210.82782889066
1164.14426327595
1126.8005662983
1088.28005193534
1029.42241588323
953.445126545879
874.200633259993
790.920224253045
693.452434891086
577.74325035611
442.448758005281
282.553883181375
97.0389617570965
-101.36015521688
-294.21012400065
-478.072202504279
-663.797044672603
-850.490884700863
-1009.65546516484
-1102.15998399721
-1121.30939190257
-1109.29604202482
-1111.70781184527
-1134.8559187331
-1150.1560452108
-1108.50762767332
-966.809099218141
-736.620701990299
-489.187072904988
-290.434647283404
-152.136098719607
-48.2064239961876
50.9533024339773
154.635600882937
247.863018687939
315.55640862175
354.896642876727
364.393221898437
348.442991501197
322.084619369784
297.395410244407
278.618451448479
264.262563123475
247.716949021183
226.40817491394
208.54296961572
200.660278686943
191.575938083333
161.462635314555
106.098418493156
50.777566621558
42.779757094805
111.804383248501
228.755660466983
326.657800180745
373.59473996403
399.713979078124
439.644325515917
486.319739030157
517.656324865649
521.50998298141
486.399895583456
413.55914651803
334.890161225902
288.263225193073
280.74314358177
289.736461106616
290.592679814567
268.928138220989
217.244375494138
138.443872344671
51.7257518040375
-19.1475815286483
-69.9049242751375
-115.438540627847
-168.416594392307
-238.931434538399
-338.734044248248
-466.425126834489
-609.949033469561
-755.955930013032
-873.342526219111
-920.242437555879
-888.460586112707
-816.839853338946
-755.250978135585
-726.890758315538
-721.314670550373
-710.310646551859
-670.294459013066
-600.81949399523
-521.202958476295
-440.67109154983
-336.126763036548
-176.084295572251
32.0984597003177
238.685620831045
395.69766900681
489.762103108862
536.99819563447
559.301073898199
577.010817675887
615.127193226816
684.262305938181
758.77039551729
796.37797170677
775.838945080676
710.90524929677
629.494987992946
545.703209193901
459.569224005066
371.432507585843
283.044202957248
189.921753447936
83.8333600180889
-30.9596999482717
-130.779794460418
-191.957545130392
-219.356121987156
-248.097156591211
-307.729391306769
-395.885341122612
-490.618017990521
-570.04099489157
-620.719138383467
-634.957972590501
-611.83722586715
-574.776508560706
-556.694312507367
-549.124980824126
-508.815354050282
-417.519014370912
-289.711379051363
-140.209051370185
8.12129697864424
120.347220059198
198.158528344591
287.626073167487
410.58139224099
534.460031477231
615.053335150861
638.089948399719
627.998959022906
624.393866250691
642.179026015598
657.453484754683
636.041505056095
572.640692288486
494.395899156611
427.283756991441
370.627100671912
307.753163657387
233.817292856179
165.771534126448
123.949776065379
108.112580723208
99.4217311308473
87.3074305550559
78.6345508976859
74.774066601671
65.4952216013669
50.4801593638276
38.3423724920617
25.5562386627994
-1.09086386630745
-44.8622763793743
-101.31544297035
-177.497805376948
-283.73227004223
-406.38911303961
-513.909396201663
-588.169897600482
-630.10756452085
-643.630652504417
-633.316097608738
-598.996926420858
-524.553447854785
-405.771271620661
-273.622629182664
-158.04268046303
-66.3938411564791
-3.62743322711158
27.6560011660805
34.0512170263541
19.6531597671655
-13.264043108387
-51.4831081385071
-78.2203189079607
-93.1021127966268
-110.487381408058
-139.801436230859
-176.065862989778
-210.007738867597
-246.100489283527
-301.194305817665
-384.532966939544
-486.836651927413
-576.569816377676
-607.812822571052
-551.952048806999
-419.848902362175
-252.18342737588
-95.4042368542977
21.2388716445417
95.1338441436663
141.993964979896
178.273545584991
209.710600773823
235.485956872299
255.616553379195
272.37579858801
288.55290931321
306.124174880414
330.462245200405
370.305761494729
425.892675425861
482.348909860498
517.709105763243
518.964468990776
494.443268104696
466.70541906355
451.912906014453
447.339684084166
437.174930844103
410.817123774011
374.694706310778
346.373458568575
333.177019115613
317.95466914931
278.204183998234
213.176533728051
145.555669153041
105.683627427809
108.057782354323
137.825753290708
166.268417601065
172.679351765515
151.347438215841
107.354231016654
43.8273836001757
-41.1659517062482
-140.1206779802
-233.302293399471
-309.765271708648
-380.141842006831
-452.263309176996
-506.05707841732
-520.5316387914
-511.247556664405
-509.377686384378
-518.263652063531
-523.054283735565
-529.742545927714
-560.518427332743
-618.601325082109
-673.828809263378
-678.282648719749
-609.008671974853
-492.230458532203
-361.715641465907
-220.381571807172
-68.1818940831412
72.2767084416905
180.655692255824
258.929187454271
319.113738993937
373.729882793171
431.911935235842
487.873117618081
524.619666618814
535.531033238556
532.975767127105
535.894646459538
551.298921195684
569.40469349264
575.173683723807
559.129122922988
523.13419342322
472.242042557426
395.511145648255
278.22563926595
130.678860378404
-22.3557839257531
-165.721129727059
-294.978186945925
-412.735409441237
-523.725826395128
-622.940306588575
-697.440731183445
-742.528004216881
-757.30871169703
-733.848547250864
-677.029427975031
-612.746123961252
-558.447106055433
-511.201828062527
-468.805163957682
-433.870244322497
-391.03285905849
-308.31544499581
-168.727765883939
19.3048960134982
236.002381415423
449.63813660738
613.606977004083
698.583253593777
724.259981928153
734.071029495003
744.06011434834
736.44334065586
699.592369906471
653.673728081145
625.204653347185
609.468416870401
585.100443158192
551.417435965771
517.831021131237
479.690562400662
423.323284102507
335.246859256325
217.767980016266
101.640711675371
17.287783448456
-36.2570917078141
-68.4098187883929
-70.2667524258447
-42.0990146819118
-17.5548180376686
-30.0327896112669
-77.3125448737178
-139.125587096663
-215.581662138494
-327.620802557422
-475.638606594243
-611.694313570273
-667.095868995972
-615.777457626914
-503.37445102962
-399.044958392898
-334.744830252911
-305.919046612799
-294.407091929249
-267.00884318247
-186.723404963499
-52.1270150719831
87.2870002700052
170.692224117311
179.342957304188
142.433786812366
97.3445844113978
55.1855442237206
2.67536639812308
-67.317488003354
-139.700391924796
-194.594165711384
-222.587848066592
-224.627033762544
-213.045153564777
-207.190587938705
-211.449916564144
-202.665573805482
-161.935175800437
-107.3507024748
-65.6147635131712
-31.0665385525828
12.8299382764101
55.303503299833
77.863763791324
84.9330963139635
84.7159840207269
71.9631815413216
49.6121033444431
37.9355622859638
51.2749930753916
81.9322059092837
111.066508808442
124.878451393025
119.617659369498
103.582938915381
86.6726187018176
59.4130560487307
3.42058815435964
-78.5293507954227
-163.419878700236
-227.392760783603
-256.657056854672
-252.482102995961
-227.546207630157
-193.322999295966
-147.935993323724
-80.0223594805441
5.64183215471973
73.493956454763
85.363574861422
39.8658775428816
-36.0899644835086
-124.852676546977
-217.934925399869
-297.545441162713
-342.132586379826
-330.233249908349
-252.913957162683
-142.969403505273
-47.7951950912087
28.4106273727654
108.971634291679
199.172977201138
295.188551303309
407.547192158462
546.220264936022
691.268109586618
798.684379875722
845.889954918692
850.070088089815
823.056514223699
741.179143484868
586.290624722575
391.93015698057
227.257683261513
134.640650315698
93.0655674415197
56.9111058291682
11.0258287030183
-32.5590261542773
-66.7262716445982
-100.27402425472
-144.172283432477
-190.389952966983
-217.236281747424
-220.687537219103
-219.655516810733
-231.3537493752
-262.2811664882
-308.901555926336
-352.001771905712
-374.340727282809
-376.572298442727
-348.850557593114
-267.582682140149
-139.882177867835
-1.63667216927126
121.830392718666
216.784914245609
266.025258299842
266.209310146424
251.882239026784
264.573352884757
299.353669576786
320.386658590597
312.755323339897
285.930560104236
250.852103975054
213.498007899473
170.176873443476
102.785890642074
-0.421679900609432
-120.874338711637
-227.076234446817
-302.970901344309
-342.620103605071
-342.843290981683
-318.929325074952
-304.337176362312
-323.515709579199
-381.289582035337
-468.4774749319
-557.59085207832
-612.748731384506
-619.472329665112
-591.618365765217
-547.165732456374
-490.120980528596
-420.188981130252
-345.700942546516
-276.121674173872
-214.993878570703
-156.716783551944
-73.8662955068218
59.5247431918908
216.932095991785
336.963195710671
387.971197641934
384.159864778847
362.834764660801
357.180617801241
364.99052044134
344.334754935996
258.89491980436
123.959584980434
-4.19796030381405
-77.3938870642708
-85.9664958066847
-49.829828671019
9.40444829995313
83.3697929744737
166.292349943533
243.046594123694
299.959719282059
339.915022737016
367.731622566248
365.630260910121
316.07563566077
241.225114081835
180.026216965333
138.789995374835
90.8439093599086
11.7290774657158
-93.5193465172075
-194.094200988661
-260.609066011242
-270.507653162862
-200.114002562313
-62.0840533530853
72.5834745625934
152.397488002295
204.254365581133
268.040074352473
332.122745784021
364.705150194527
359.073018293317
329.070902037595
283.51568583314
219.388835974621
141.552707836656
73.9114265903445
35.2968031673409
11.3923324672195
-35.0766867097705
-123.053447013446
-230.72310749642
-322.050649755099
-384.225025235218
-420.479578245802
-426.211748858482
-404.953667391941
-385.792666414062
-398.184073170774
-441.52119657443
-482.767297330489
-487.114785638712
-455.923859369145
-416.7411349649
-376.712840276956
-308.754176901166
-194.5056799041
-65.4990615292608
35.3395139880954
116.375499558589
202.287161810035
264.412395411685
254.926225174975
188.383376352953
138.253243582522
164.934742259013
267.487987528181
391.414669500401
478.493863449498
512.741545234037
510.741520709392
486.990043010209
448.040869558866
396.853138402708
334.197946892747
263.832975878445
190.735051787851
125.333275968736
88.8919503377709
89.0702027574478
98.673252769736
85.2585474677999
46.1098673416025
-8.74598526026628
-77.9329804605929
-150.494510760714
-200.135411603201
-213.504922680831
-207.476044694403
-216.487254605132
-259.876952140861
-319.201278439566
-359.216171161864
-368.507819277376
-368.621579407754
-385.376312963538
-416.263285511448
-433.325535363712
-419.466807994859
-385.010296181406
-349.856033762234
-331.353859429002
-337.673043872237
-357.866517857548
-379.022563952101
-409.037369377277
-456.135708660056
-492.240161475763
-454.553496760289
-303.423791514781
-85.4357416151798
101.684744322748
216.228418975683
297.547447750461
391.553687307834
497.335429021837
583.825013897134
629.618673052443
636.531205886349
615.773664005543
582.004999420804
557.624189869813
554.073766841628
557.382080841375
561.338278438386
584.900578166033
628.530635801861
662.245478639146
677.717263848313
698.069379639903
721.471876755043
694.377591034882
560.152736169183
322.586771521913
43.9260829536991
-202.784113310254
-353.167877349753
-366.303616698858
-271.962438362352
-166.593927058987
-123.98532748891
-144.601684240391
-197.357225739339
-262.894824937981
-330.905127724329
-383.128865565606
-400.127398535976
-394.521063951346
-410.015455210667
-468.079677669047
-546.582481107337
-614.639655684622
-652.336209057267
-642.331307294267
-576.773579841784
-469.908657781616
-344.649827178558
-214.493493023352
-87.8483774278314
20.5636149208033
95.3926900346384
140.384622616062
176.333340024678
213.214974994335
245.896467966751
269.414535312786
276.800014214103
264.110135733541
242.211372697932
223.73614259083
216.896212650894
233.753388186556
276.705059854126
328.347228087074
370.706072836791
394.436886567542
383.367966150114
311.339887588506
159.97542138765
-59.9077621500122
-292.321739113757
-454.638117170095
-499.151071175471
-455.596689303612
-402.98796387764
-398.409709736334
-434.277794387373
-468.646786699749
-487.942715643949
-517.968890094463
-578.088962771109
-649.89040408926
-695.799024345763
-695.904935775029
-658.455261120346
-603.251243835369
-547.63236739773
-505.217418662876
-478.890454132417
-436.006677256681
-313.04738624227
-81.5731289526676
208.364099242531
468.721786179511
639.24208866959
718.842979404425
748.030548440854
763.6165966586
777.266714239742
790.405435863163
807.625075267511
821.907304151319
809.676286246556
768.514492882059
729.721614417193
717.26378290684
725.488914862474
732.761023175894
720.189616864297
682.594832197141
620.058752575283
525.054873736571
391.195181819456
226.842349578876
47.8474776498545
-128.87324909343
-272.675663201589
-347.901679942441
-354.788387071328
-338.320819813957
-347.475576988515
-400.948324578765
-481.247829709127
-544.77145970203
-547.448660064003
-479.482533442297
-382.879334031814
-321.674681845051
-326.68842582556
-377.949122409644
-429.71231522185
-433.751328766421
-360.145476652587
-224.910449963512
-80.2735494334969
29.7632526167126
86.6082233347533
94.4459923660739
77.8206561361242
59.9613950287923
41.9888337866401
8.04223891308247
-54.236538172321
-140.335827782785
-239.722473179912
-350.345592092786
-469.755779556675
-569.631103285645
-586.205565462775
-469.048892991516
-252.632807391922
-37.0870013813901
113.407563617884
205.389236144427
256.125549560948
271.160116562396
284.898143792983
346.917683593637
448.208401303351
517.514144208852
511.751703907301
472.08014585003
463.784052098224
485.418931703055
478.120452230396
406.822950232955
289.624147833579
167.451356671596
77.322511925309
34.461245460023
16.7790797694627
-20.5219515888886
-102.949661933355
-214.343909936737
-311.338380777544
-355.666154997609
-344.249095245878
-317.171901351265
-332.503206622399
-415.840307990691
-528.870014792713
-604.971668968028
-615.554553124451
-585.027475224693
-549.547267587594
-523.179467742658
-498.266522989819
-453.216768161867
-357.588690973018
-188.578331696535
52.7592380461092
341.812335581797
629.279024781648
843.676566995656
935.197948204353
924.827203243317
876.852503265793
828.916844610812
782.354010883362
736.716382510437
691.673588207209
635.361813961611
562.339179154778
492.68531674792
452.421605201697
436.67829343432
416.133016109393
376.996216987512
325.329356120434
261.925022504683
176.327721019112
55.5021773966936
-110.178944166183
-316.747030934385
-532.329516591392
-703.436477450289
-793.54301708529
-814.291236217992
-805.792384472507
-790.261496183859
-761.617410470021
-715.568753461323
-660.990998476919
-599.674587238917
-516.365162484974
-393.565214797384
-242.254107489092
-112.335758167101
-52.4957183104654
-63.5838821125846
-99.6461973680418
-117.653289315189
-118.980429970168
-131.580784496472
-173.680804436845
-241.810827890689
-313.113581662536
-361.169116033379
-371.752779811771
-346.792645222661
-303.902463775774
-253.964838843662
-182.100563729387
-79.9061890423597
27.5403621834604
114.944672226178
197.519333700338
314.019721992926
463.094605328019
587.077323842465
639.159498516484
628.950624993833
589.020014940896
538.746759964607
489.467980307306
446.896488165769
406.854815293355
375.454993694731
372.397434730651
397.123299118963
419.871186492529
407.974803134329
352.855317069162
280.946813700394
224.584329760867
180.502538933309
122.072965350552
45.3325391814346
-26.2022822081274
-80.1579822789142
-126.318499020636
-164.248700431776
-179.7388598381
-186.099307837845
-225.293971946448
-304.632909935393
-373.217129859791
-384.870153538565
-345.101935912146
-289.751991731367
-253.151979183348
-246.497627917513
-249.481610012321
-233.063305858295
-186.65720545022
-124.489751817724
-72.2864173561944
-42.4407344056526
-29.1703888178715
-20.231281252007
12.2214067554675
103.720394767226
239.490530728905
345.182773175669
369.745185681402
332.077032512741
275.731543922905
219.63098487997
154.064056924575
69.6593322631426
-15.5515996048119
-72.3853435837107
-89.7218354729825
-71.180505461458
-31.3041940093593
-0.384514463357521
-2.04148117306947
-28.3047052991424
-57.9475758037705
-91.4670878374206
-149.555139365834
-244.99811170991
-363.505517174892
-462.625454431577
-497.452632530499
-453.984340264788
-354.130455001138
-236.06117172252
-130.006832499622
-49.5269046586309
1.12251916347973
22.3618076268156
12.3909102299679
-40.0216682553592
-142.247596918136
-275.219475006432
-388.304998676406
-425.773081145501
-373.597087677687
-268.421278363628
-149.701751966168
-29.9809180425287
85.9673333391137
190.156368168033
277.000927848639
331.929738059101
335.024165482938
291.013583119045
221.168012580367
140.977842668609
88.5356133585324
132.922769925731
307.147676185006
556.743448367884
781.061169154683
912.95553168979
942.04313775549
887.031782913484
778.245707267308
646.545779936926
506.237386885513
358.80274072821
211.814636175765
82.3619873926833
-12.5551599608924
-63.6215956979277
-79.6076168757009
-90.8833910876995
-123.310446013267
-174.25806543105
-219.620808383798
-224.446291473553
-172.928188730866
-108.710659130555
-96.2712562867204
-144.185072429538
-215.296498275981
-289.223760890686
-371.828108895738
-458.740176569956
-522.689336687419
-538.863772153233
-506.77658341694
-445.348425759743
-378.906048748494
-329.783452707312
-307.562087526633
-298.323014896982
-279.672265187473
-249.332140865586
-226.240001142899
-226.339078928056
-246.682187122073
-274.643759061197
-308.06519257335
-353.816456455982
-401.425870450214
-408.665386563412
-334.464083896781
-192.380685742327
-43.7213991925843
71.9857660943466
179.852581502605
333.370338084261
534.024048375752
708.981385796199
787.693355359457
772.148661766425
718.173840435547
673.824025875879
648.304438382552
630.233136269563
612.231768065616
589.550912543142
556.218258881767
510.111123575298
447.9754184234
351.403347064253
194.981966770308
-15.1888691185852
-229.770024218077
-400.767377253579
-513.15704575606
-561.723877403835
-538.795753895115
-470.373817803382
-419.61796227561
-421.233021198198
-444.681119229124
-434.046613187389
-369.707301103396
-292.819310810017
-252.977004837714
-239.06242152066
-201.410022894459
-120.903615229688
-17.5690479404173
84.3631469199283
170.295525617438
225.956244873478
237.576710420322
212.662294352015
189.971821721384
207.685181279516
264.321951022992
321.757852323558
330.292544997193
257.117387144898
125.406828580948
8.24391075170229
-46.8124959657504
-60.6621057533329
-75.1332942056515
-99.4909032949019
-121.84881911625
-146.449617691433
-200.251775596452
-307.223573427567
-456.589782618357
-592.851397497441
-651.083204938382
-609.371540910248
-490.404517631767
-322.798887050152
-138.130324599535
7.61822891938769
69.1470687442648
63.5228153106859
32.6745624372265
-16.1630926067326
-85.5550139878078
-154.577112461829
-207.774777856379
-253.013749500849
-288.388805788459
-281.945967277205
-196.786503797758
-22.4851611878422
213.090744211043
454.787230126802
654.502012815512
795.543972102111
881.464279568833
916.767235579238
900.376635101929
822.958107578585
669.903662601943
448.788235587349
224.841039853471
91.8108592558503
83.2567474395002
144.373915814188
193.950926071695
185.591235457916
120.735758215407
30.8646480768304
-44.0664420621653
-72.5248027474289
-48.8797155623247
-0.511333462279389
25.7648181553727
-14.3722462506642
-143.301376197466
-340.06899763488
-535.931889851719
-655.794702981046
-665.241215179875
-570.84037383941
-402.586875688421
-207.085711291761
-33.1692279261205
91.7634335389679
176.704677685523
247.019041095495
300.42407398794
309.551261012663
263.924460511397
174.140637252199
50.0691233864475
-97.0526790449582
-241.154936159773
-343.674560468287
-372.42464141356
-329.951362315999
-259.018709022437
-196.691146631116
-142.324963806023
-93.7934266855482
-79.9188323476278
-129.554984344088
-219.511921323556
-278.995394771943
-263.548841608509
-197.934383275903
-125.75518023062
-47.8984813590125
67.0634618826107
227.4969384486
400.186708545556
544.794192468667
636.161120264345
657.319700755635
603.473150044996
492.285934565897
355.87717750389
223.809680174334
117.971125703208
52.277158536203
20.3616047067997
-3.30976372880431
-41.8507591124679
-103.819071637148
-175.743589600394
-225.667452132357
-231.29505456996
-198.59950108352
-155.372371878344
-133.528467322046
-143.936509414793
-164.026933055432
-165.949970548835
-166.329091055056
-228.184061787592
-386.61838985228
-583.54655606235
-707.935325333996
-701.013182223213
-594.822197115058
-450.49118561861
-300.256044503995
-158.175143671317
-44.0595563822483
30.6732922645637
83.8203714645093
144.941997691391
220.514460118534
292.880014085781
346.612641916246
379.472220771701
394.258285612975
396.252907283793
396.475676586283
402.648659364361
409.49168458212
408.917572332
403.10466495072
401.743850095137
409.40198218675
417.937998755225
417.6351005904
405.75922210951
368.646494177581
278.054534796059
130.026519884181
-30.2265140960246
-146.769810275323
-208.540369974132
-248.095500347711
-296.388267851544
-356.419525724762
-414.091988361435
-460.267959238656
-494.051503943123
-513.851305607039
-516.802478079723
-498.214377002832
-452.984548188958
-389.795313447723
-334.998308070457
-306.617961801176
-287.299383388092
-242.077917631182
-164.527348107398
-84.3527485468106
-31.9917222832643
-14.8164723817315
-20.4628522418565
-24.0675506190549
7.49637358887723
103.02256010918
262.934927404203
447.474171497331
605.526222921727
714.290585223565
775.333186741896
792.356590470762
773.574150488141
725.825586092771
642.104004630856
525.060688530283
397.745058003946
277.325512418927
175.004511329253
102.089504582411
40.31971671715
-65.0983806720971
-254.088748707001
-490.100541069699
-663.051134494927
-690.563714641396
-609.733238391525
-521.106772023782
-466.860947481872
-420.621927479753
-357.653405431612
-275.103412809979
-178.325344231696
-84.5230122326244
-9.81258720979674
50.4998881651614
103.431643250711
136.905062961817
133.310197016853
91.429819321415
29.5159863993569
-27.8540207835662
-62.9095498952562
-71.4989042979828
-70.9761216297983
-97.0602290885685
-173.294149372046
-286.386456099687
-401.847035665679
-484.130160958174
-495.910776864957
-412.771649219427
-247.534539469079
-46.9201326644335
129.314102149756
238.912994619923
284.139885908457
299.001861344491
314.156282466177
343.300818101983
387.215360952953
433.032596298642
455.841964950799
433.552148604495
359.509560097393
247.740967684404
131.543948850904
43.8852318976078
0.835418595134123
6.89701276672181
52.0275659465067
98.6485623447029
101.094273295907
50.450831211774
-28.3225476753459
-132.046866868218
-270.89273513631
-398.763545895704
-439.989416552476
-382.127002838697
-268.566374260741
-126.964199159591
33.0312441463216
185.087035395197
299.38235425563
365.740217876607
387.953109243606
376.291120422935
341.371912188051
289.982160747679
229.113121095413
163.384593149229
88.1262460708396
-7.52943096076359
-122.916542777346
-228.549482955851
-286.936489111564
-289.832980385279
-245.745547223508
-152.922067811227
-29.387874560807
60.6655980388819
67.049450269518
17.7114465327828
-20.7476081223163
-14.5347290344443
35.39445490543
118.659449457898
210.312561704276
272.289080745865
286.478010614713
268.149560757254
239.696238529315
216.76572584381
213.451877888605
224.175812372046
213.076995933398
148.251456605091
26.8300682047472
-134.552513102132
-306.845286176833
-457.388439096039
-573.527523005605
-668.023970658024
-753.91255140699
-825.657813042726
-865.758833574397
-859.941693124927
-804.735151693775
-703.658176353257
-565.420786749478
-411.693925671021
-268.119044528779
-138.967064013792
-12.164697224825
114.14939973257
232.036167220165
334.974359160385
412.228777917265
449.527860854988
446.67898432334
428.653403210422
432.058798814133
474.454819171256
539.355130234159
593.47399853491
614.260931583734
603.800265753165
576.581782312513
534.762576315081
470.90863022626
389.576074381526
300.544712995239
196.211007698962
52.0053782304255
-147.178008126768
-369.001825754738
-540.019304688379
-618.46688339636
-623.094012626721
-569.371626839729
-439.985285492316
-243.905659273057
-43.8668067731064
105.254326748428
202.267776464841
265.894895686512
292.900139495488
270.998345590148
212.818671426935
150.08327419457
99.7702849419332
63.4195518912436
51.5124248739847
73.9915507405025
109.716600026724
110.56772062934
42.8375825624081
-72.6091024766361
-167.352091509884
-190.654701301468
-161.902040984471
-141.860261869633
-162.785196790682
-199.327490442291
-200.470866707444
-143.342484776603
-54.4756519130527
18.3864015538511
43.6870831188365
18.5061603328162
-39.5172095660153
-104.085002954564
-140.831521115049
-120.163664296234
-59.9351930261121
-23.3152284847599
-47.0818373786928
-109.553914284604
-175.91543473063
-238.460332934518
-303.076555386199
-346.975175333989
-312.488458212326
-173.492168130329
11.0785214296016
159.975189438098
261.556079662525
352.051229367068
439.897775933404
502.544691707284
530.124491684094
533.39079567115
516.311770704458
465.089281540221
371.663205970349
248.381459383839
111.707994315576
-24.4057960900769
-137.364196816079
-203.119174932043
-221.776124833648
-224.46013307777
-249.429445218234
-321.474328675179
-453.64427584702
-641.487886937256
-833.519571007224
-932.624842412544
-871.524482820202
-676.283844646403
-427.675460471025
-185.797148390972
31.2034743556673
222.402413810633
378.385667645826
485.842148701882
545.080390291897
563.960760668121
552.245703505897
530.644159668851
522.875200637452
542.42099709766
595.126810543989
674.631686238377
746.145560066032
752.615595281768
647.14489746605
418.604583664817
105.700772421656
-206.649187044073
-435.722645593889
-552.529447490969
-573.90842392488
-527.29771170435
-441.280154988847
-348.982798574116
-273.856157137833
-214.069486492529
-161.409081444231
-126.437773373346
-125.066196239265
-156.089767657486
-204.285871757067
-254.786174469296
-294.395478079027
-298.127683358838
-242.444755079776
-148.975261037069
-77.9203392354696
-61.865702210496
-80.3035190860963
-102.048613901814
-113.371085978353
-102.570144096584
-56.1211254455439
25.044923177581
124.767895526462
222.908147821129
306.896318239477
378.61685561619
440.594177129719
477.629697809142
463.431690386573
379.672029707785
230.941515747204
51.8828295362881
-109.241854665527
-218.407336168875
-267.091532097872
-282.563808673625
-325.045796933204
-431.116897318545
-572.049853814861
-697.187845683761
-780.665741864101
-811.879744362513
-782.36114648918
-690.562138851585
-539.105439151798
-324.940744563551
-43.9317328111695
288.217495414216
624.250003053828
903.67708717914
1092.11599093866
1199.32036219125
1251.17090692691
1255.9804258765
1209.04327106814
1123.23423906431
1039.6581297507
997.505358762986
1002.64083450353
1024.39887624546
1007.31712726961
901.886703746749
695.15008425797
405.756925638624
74.6850221185441
-239.552133201157
-498.098629857636
-709.319498791223
-901.03343480308
-1089.21481491803
-1266.12141727885
-1383.66251734629
-1378.68744309946
-1247.85420523531
-1061.32733943272
-894.509302048091
-780.381057792306
-713.52181330493
-669.633914206368
-626.662808140634
-576.12110340437
-518.228300256856
-454.376977468787
-384.395578291298
-301.32119503731
-189.352854971492
-45.5487963807627
98.5063560162226
200.945964260427
251.119825847782
269.260064852371
273.632672520747
265.324148224685
240.003429944183
199.581996746864
157.709292811625
131.710928983798
120.792695117171
115.451801151589
124.389684771501
156.605287882364
198.788726679395
238.855666695666
278.050052439482
306.155331627144
303.346554345859
271.935452848012
233.280161212735
201.047462725742
185.717968409966
206.356534503253
267.999944584139
339.172754868722
379.116532631428
383.113755351185
377.525133853225
380.744821736651
386.795409272686
370.288967762271
309.356769420005
218.631922092611
136.223463882157
72.3635927774859
-1.7936133186604
-114.882438628127
-257.905225752508
-384.831829278447
-449.388378753391
-443.0939348326
-398.924016015111
-357.38303197854
-332.086008943242
-310.085335145845
-278.171590049945
-243.008935366347
-220.477312340892
-211.996194962148
-207.986440434848
-205.645412278835
-203.564132296888
-179.311849557287
-92.1265454127098
70.2375527944183
257.915395962554
391.198363457962
421.459735855265
365.060473951172
286.215168514075
247.6163550147
278.971344394959
369.877104719772
472.735479599394
534.120874927219
541.672086347602
525.639746557188
511.406670644542
496.354992964677
467.710605868623
409.904192959727
307.14197297145
156.884259365511
-37.3638916762471
-271.775835256215
-515.296019039808
-704.13606442324
-792.575775456252
-800.298369251883
-784.163121535093
-768.822558916105
-740.483640918504
-695.613384781305
-649.565435249244
-609.003762712502
-572.797218957909
-545.441605914778
-522.742533325386
-484.614179157787
-417.548068647761
-323.087191636186
-212.286367914544
-110.633353578996
-42.5500375378733
-0.427067260239895
48.4036103869031
126.653857894258
230.004040981547
334.015820824692
413.767541372365
465.308634205171
505.683311063866
546.355754311324
574.60292877073
566.426935707098
513.936279700608
435.423685246455
351.564285240258
262.564205669507
162.620911044572
59.6837428501571
-28.5113924113717
-87.8417392444109
-113.931845149229
-100.312077428423
-35.5420765832218
65.434270338522
146.21642905032
149.858093979526
76.5002462890126
-8.85937303100754
-39.0460932834699
-8.89420554738429
37.7122910675493
80.0337010654565
151.147342609101
284.237285351024
465.754407315349
648.541323247537
773.382440993778
789.244211618474
680.8841848188
480.017129770012
262.872816552134
123.421674337862
103.402681250553
147.988360563702
157.247049092841
70.8345455136439
-108.456611753377
-338.769010946571
-555.073005238043
-684.57739575683
-694.504388872096
-636.279547293125
-602.533236869174
-623.931088324872
-647.354844412306
-617.480070250482
-541.948547544029
-475.483815209409
-450.041274131082
-431.105583661396
-364.292839101699
-247.46653841809
-127.548358391447
-42.3546896302263
10.6268222035299
52.7013958509654
93.6938395876558
132.555652251944
169.195461025687
206.178704376441
244.869368954469
272.595178579348
256.719367066569
176.688438104684
66.9372864636422
-3.42434373729293
-7.7492481086605
16.3799433508944
33.7185678913218
56.4898678371771
110.562870058348
189.076287557015
255.816126143234
284.305616861611
277.806410230745
254.721640212938
229.211723775756
203.603753628808
173.172780285095
133.57030637726
79.0090584136834
4.8179763294855
-79.543215900693
-154.979204263294
-216.522325529327
-275.549997977073
-339.958915703596
-408.492653381419
-467.88496417573
-486.716639944768
-441.432755703303
-345.812572694771
-235.317177402866
-140.485741823508
-78.7743876881709
-51.7443352930919
-48.335053387129
-53.6440538147353
-57.4103139016131
-62.0651196864528
-79.9491576592683
-109.965813920423
-120.07457409919
-76.6455129236819
9.69734441210851
95.7598973255715
162.939927113465
233.964334938821
328.585190934945
435.971777752913
537.217326527033
613.315327748526
636.365981743062
600.644551385004
545.05281672433
508.185717796914
479.553087228962
412.867024992036
278.755004241553
94.741694349674
-98.4773678920271
-268.276657775187
-388.317845165453
-444.128063923492
-455.986420462909
-462.503082170468
-474.890317608799
-470.212505670088
-420.197276862988
-314.475844545395
-173.118807710604
-34.9867312454894
74.9514293400963
151.620537298975
192.35983785831
200.192898469829
196.881163378734
214.13446727524
268.292903688744
343.013482179386
401.758729442277
419.595884772873
393.238792837335
326.126910603573
220.100985626316
78.6778443944553
-78.3946412986734
-205.463349378529
-268.414641094887
-287.191117436184
-306.824435139205
-341.997216103327
-370.056226295437
-364.697385252059
-331.266603530111
-304.820597021456
-307.630713644015
-323.111303279263
-320.790257628401
-288.240293208829
-224.862761293103
-129.441073137306
-13.6354867941907
93.9717710903555
168.902970882569
206.848104744492
224.392858634519
246.696390508193
289.185995951858
350.418542666765
415.21611994123
462.632791145966
475.734585724584
443.587808024612
367.814333034194
277.367256046393
213.795731363762
188.517987975556
174.100540719217
138.47491265835
73.1129213869085
2.52416398338562
-33.4071716386249
-28.9003613692451
-27.0866914359823
-70.1266189812149
-152.875418443179
-227.664926869133
-255.743542646937
-254.063088363037
-270.962717554781
-327.546050675168
-399.733186339007
-436.554454350719
-397.766635920038
-293.252097072957
-178.881471171027
-111.395231245911
-112.832479108322
-163.317745045906
-218.836236162286
-250.220024550049
-264.956035437946
-281.944764670801
-297.690238360703
-287.458453174025
-236.931217939907
-165.565091859305
-103.665657972481
-56.8744122149074
-16.8184451513876
11.2783319268299
14.1667455682693
-9.29634591680232
-44.0516010171718
-66.7711496170845
-57.933280104305
-15.8957230300463
42.3687830419989
99.7436050106149
151.856424568688
195.446763150713
215.204993378421
204.058145685943
190.992732443178
215.932787033536
278.353405132115
338.114665643311
359.105974058181
340.451932479488
316.630181329048
318.909831443014
330.522218712292
303.164042031072
217.850488398206
101.861944316514
-6.57112574707275
-77.6409670574233
-87.6662052767464
-34.0859995130664
54.6400939736389
142.587327634512
211.906778945687
262.029146713723
291.99053926463
292.350529950359
264.475397737069
241.270293237958
263.671424278525
327.926092157181
380.888191790495
380.852474241968
338.589251128437
288.539108438758
241.248623873491
175.401361430574
71.8897976986805
-55.5461539852236
-171.876198706613
-254.953524594227
-310.86482854656
-362.976429755533
-432.101298087494
-513.625643134769
-570.880381792231
-580.494535015027
-570.498116673243
-571.577161164804
-574.258169224321
-572.763671453333
-585.218629216019
-605.570049171854
-599.341187190851
-553.521562725522
-481.67981937537
-392.949479286579
-292.559930988008
-193.543001980778
-107.473340130878
-35.5846818433784
28.1981238782407
92.3697593903766
160.691828322677
222.62228572907
260.087046073893
270.941086869024
270.678477832012
269.33548730248
268.599815132323
274.244711600803
289.63903353616
312.307141979021
345.118865619464
385.89784295947
408.464376646014
385.384685919187
331.221627526139
291.539264463678
274.902102267083
232.594385139382
138.367406963282
44.8062437203881
14.1441166158499
36.7988225504207
58.3663860324866
44.5930622497731
-6.29284503158806
-78.9794374684826
-148.795929284921
-192.49045902525
-202.065275685801
-187.768537498446
-172.82695176301
-174.56321781188
-174.543478901084
-128.420812184545
-23.5817248058978
100.157878494228
197.593466966417
256.968386808282
289.346717230277
308.005121082023
325.395781551098
347.758903368862
361.541176822324
343.409283724338
288.979111362063
216.474565439541
148.993668059822
98.750759332491
56.1904239309444
-2.09609046140791
-88.0482830760782
-184.86530709869
-262.49015394651
-322.733216405407
-405.793960286505
-526.272735003207
-635.220151998366
-671.636840044181
-621.419778620437
-515.394639551624
-400.033286954521
-310.215099913634
-253.544476572677
-221.963124260547
-202.421167491384
-174.412453622666
-129.291851043355
-84.3405024973255
-55.4708921652516
-36.2436905238653
-14.849422174532
7.0475601792941
23.6188177717632
41.4547036038534
70.3475475044299
104.426882949518
126.177918240857
127.196459987651
121.245716255966
133.27391948671
171.318011928316
211.849410773435
219.288424535032
183.621361740426
130.941093333385
97.9965171010235
110.395951385974
168.097694098453
239.588885902991
294.648477634083
338.476022402434
394.473216239798
465.848036739526
527.910668249038
553.781300293824
537.690051323863
494.841616233123
446.794602197103
404.855348209544
363.553052651116
308.163332754191
227.142747982893
117.325749671474
-27.2525360336348
-218.893747900894
-440.194621994268
-622.387273289765
-703.679163655
-691.431358393392
-634.006943574028
-564.258379472814
-493.920952790837
-424.484861448701
-350.608318249931
-280.069820092969
-240.114566812617
-239.871637857157
-244.543953633491
-211.453147741864
-140.612256375471
-71.0325712837665
-36.4406999352301
-36.4610733922468
-46.6585668313946
-49.3172100946897
-41.6119236689193
-20.7625525679458
9.64719052906432
28.7988286296803
21.6148013966492
-2.48497317099789
-31.1908263986071
-71.8766762915888
-129.625130403632
-169.39276097669
-136.2902959941
-25.9604390580621
102.662431624222
202.458844937598
285.250476545161
378.720726917509
481.668115145288
573.621868559293
634.7590382899
656.998452828554
648.959241198893
619.048428088019
565.435231802657
495.659186404709
429.129418666946
374.353204946811
321.871402481785
254.562684906256
160.617420330121
43.9353758254822
-77.1013538046762
-186.354828141887
-286.778903232462
-396.350401038458
-525.084453638321
-655.440447557438
-746.891816007021
-758.420306168062
-670.566920305305
-507.353783268738
-337.749402211456
-232.444705227921
-214.329020762271
-249.799224569179
-283.369783543058
-284.511036399463
-258.606130786872
-219.673068426806
-172.556470976524
-121.39819183243
-77.1717612883924
-47.3029872353342
-26.91590060845
-7.48136956632007
12.4637693633682
26.270057725265
27.2084093909135
18.5484781409085
12.133983363795
19.8567552764994
46.0282459276196
81.7734734725614
118.17183070339
164.774646769834
231.444186752159
297.25378231
324.204892086394
304.184658497016
274.120573749653
273.126046819187
299.996675894969
326.244719280867
328.032630444819
290.642740036477
210.683623513968
112.82911700464
40.9035203943276
21.5337925096017
44.3940873856712
67.8563440405671
51.729300968928
-1.95611242297134
-60.8316628102131
-105.077769500622
-128.736499212435
-122.797475348391
-87.8874756425514
-47.7314757942185
-28.7989666095703
-36.3689766471869
-58.9845784340632
-83.2973472854361
-103.41181405252
-121.109363122768
-138.585364158547
-157.842589941551
-174.348458607314
-166.32784210223
-119.747530915574
-64.3682556015347
-56.4983779542444
-123.16112840648
-228.510965303866
-301.160547290305
-301.216616919012
-242.311489034889
-150.435863817466
-37.4194910438566
86.951729558484
207.193443135374
311.273966306768
397.664536143578
471.560601450947
535.633935826173
585.733736186026
611.830683185621
595.66937184035
523.457499684036
416.638315303607
320.224260576178
250.461152007787
188.401338012109
112.757518317239
5.47178599324241
-146.643263691274
-322.032046077586
-461.649302068249
-519.902385827882
-498.140794469254
-429.668692144061
-359.609552862807
-326.557763197089
-337.180131224025
-359.069598367524
-352.893605447292
-316.811775070872
-278.836586887979
-244.12413641662
-185.894504503291
-90.8498104856876
17.5446321496594
100.260853502113
132.635194802276
120.405882047126
94.8854844685796
87.0742338642697
100.420374706341
114.041487356672
109.273217467926
82.2810843593319
38.8903477329852
-11.0092934417806
-55.4459175680683
-85.7125054227074
-104.732228273409
-123.41095917308
-146.131896135707
-163.85958068995
-162.508240343448
-139.958401525811
-108.587885500744
-76.316500260752
-39.0448987743913
6.83279779497907
59.5995725418655
112.504844347382
148.350638170287
153.749195111977
145.989820089308
157.513114998475
192.320465250129
225.280679506302
236.979642279118
227.286367026943
199.036581442421
145.742238725682
73.1714924984552
20.1392670785429
23.6682989925961
71.5907999940292
112.727591376561
104.590499862422
46.276162787988
-27.3315198587641
-83.4497696760032
-117.198907764715
-137.509621337986
-146.081175566012
-143.78756431236
-142.019089660253
-145.204254260216
-133.260090818737
-84.5098007534828
-5.06729586293671
83.5770215322572
170.314602505697
248.615545334183
303.838242645386
321.735541342507
296.870279533896
236.6346462466
165.113895426222
106.566900139909
66.7017658927084
43.3667084323623
35.22736026766
28.4081917333811
0.563247890176284
-53.4721339019556
-118.378677135921
-179.88192243399
-235.813869494126
-284.790588847885
-312.709575472878
-308.881324200737
-291.715662075599
-290.750374638245
-314.288653901636
-348.750475751164
-365.738278387148
-334.55050814155
-252.410711086546
-151.939396880001
-71.319462455465
-29.0505322607525
-21.4637977318404
-29.6142294919849
-30.9473652147753
-15.1234313317447
9.19639778228631
30.4036810237936
56.0471655310865
103.801268890065
171.372769468246
241.964760042591
315.789260415899
398.51048601114
468.406994311691
491.611032155486
460.21661942983
401.128227236736
352.602092572767
331.031660079939
327.431540269677
330.577542099594
329.599738272342
303.714258678792
234.098309839699
123.761959622983
2.75650984805483
-83.0772798736411
-106.021255695225
-90.9187332402029
-91.4809082574434
-127.780686940716
-174.982773419042
-202.806747508553
-203.982979046692
-196.430277953249
-201.036391237822
-218.405863252904
-238.10448942666
-255.597039511677
-267.411881561699
-266.811971436672
-252.655859195106
-231.333936774882
-207.939454536962
-187.864258126072
-185.175349303264
-205.040377934942
-218.865239105057
-192.711711599245
-138.265428787206
-95.2151955495445
-73.575740372448
-55.0936602497596
-31.7382021358928
-6.80646920748106
19.1757441286794
45.8318376791319
72.3067038480408
97.8236570158357
119.431759121301
134.057968158838
138.469570980025
130.394870798443
113.336529318164
96.2514719847204
89.6305038653741
97.4147257455844
108.960293912607
109.525661038402
97.9336554343066
80.0262126937974
54.5354469631514
24.1312965573758
4.2266714247541
3.86523424079635
13.593297720946
14.3483087104465
-9.50618507038592
-52.0325755176399
-82.5264953560689
-77.4843499967816
-49.309467398278
-28.992316128696
-25.6201444750051
-21.7006145880165
-5.57260392204515
15.9396219341419
32.6876600063892
36.1898468003348
18.8794766513146
-10.1378566107696
-20.1595520539808
8.15185830324815
59.4321777780696
107.752608869912
140.208897598668
153.074185474875
146.976013608903
126.898233619883
103.922483924613
93.5560489229259
103.227055524501
122.422669162352
130.154258627765
115.091672427549
84.1840759374455
48.6528271092066
11.934825205151
-25.9058564209414
-62.4416843111982
-95.4462653521063
-125.725279674103
-152.645546648521
-172.415713169762
-185.773544457848
-196.252310031887
-199.365614915385
-185.7952890043
-151.813795191978
-107.069106817207
-79.7120104250512
-98.3344982408469
-158.60351402137
-220.446391691026
-241.447710398093
-209.043266106904
-144.682228354871
-80.0303921079595
-31.8161117861667
-0.201491219018209
23.8724017336288
54.0492719097787
91.5171385557417
117.586130799317
118.507125450502
104.681145540115
100.177696220095
117.371925402547
142.546040197658
158.312200663167
170.180856566363
188.496015577176
197.459504716757
163.233218308772
73.2038681325118
-43.2184833880691
-140.181136227858
-191.721936448091
-197.241258924588
-167.245657171322
-116.663137655618
-62.5404267250279
-12.1445098152514
40.8225713715863
102.357035948912
172.750959307709
247.353120265353
312.674751586201
358.719761117856
394.159974275652
432.495216905145
467.454187231017
474.144825499812
439.334415164856
376.699800061484
297.638363791149
190.301025832579
52.7604971453154
-82.3114601540721
-190.311489842003
-289.124423634254
-401.639788776761
-518.52362190096
-609.305095422743
-646.461169760208
-624.897191636609
-563.117061213816
-481.758048503283
-394.678826498384
-313.923558768753
-244.156725290809
-179.025304604637
-112.848745230559
-50.977868579232
-0.177396788737696
46.1838374166216
98.8324186914728
151.597668861168
187.931949766225
207.002144795955
219.188297196909
221.935387273256
208.276031772931
177.62959831651
120.696597818113
32.7725149831722
-56.7461738281105
-100.779775787511
-73.9673589181642
9.02273330639522
106.008056091128
183.887244821112
243.514208849793
303.175007055838
362.788944729401
395.51073845808
375.516181386595
303.397619330492
203.968208343775
109.563141178022
43.1231803664108
6.45693252950518
-15.6026678708127
-34.8692049626732
-51.7530979170868
-71.408684826539
-108.284725402925
-170.189061591089
-249.492041580977
-323.374818535883
-365.486112715818
-365.66059645678
-329.864992275888
-269.874610276818
-205.481794473833
-159.525203140692
-138.566807512199
-129.259266428933
-115.202118625939
-87.9911055046847
-47.7882958848255
-1.86492509258523
40.1160854089846
67.0876788888751
68.7970435116824
49.7422552332119
27.3785967082469
11.2649233846864
2.5683283802133
5.77350459200473
23.1002814139442
47.8995931782682
73.9418520714544
100.262804397801
121.962756883278
131.123494685104
129.282161240822
124.369081455633
113.56333398435
84.0979376629193
40.507861237553
12.5095673831945
18.2464057583521
40.3958648338455
49.4155348399734
30.6790620652353
-7.26486385973009
-37.9898412221584
-39.2864266375407
-12.053629445553
24.3482058982106
47.5481161254064
43.3706363253684
12.9755763817058
-25.423806942337
-51.517127505133
-64.7806175825486
-77.8092890925033
-86.7228606102623
-71.6096004069293
-29.8161009632113
20.1912517277541
69.6120088775604
121.244150038667
168.282889164736
201.706888737324
224.206993382209
239.374947881172
239.298808308079
207.272858748201
132.46484264127
25.5766075654358
-82.7609963665364
-162.703986026395
-206.138386237088
-224.824231867632
-227.410047270136
-209.895292625658
-174.422736151542
-140.858638661337
-125.720945531407
-123.752976769874
-123.289744480256
-122.74195852305
-124.72272531012
-130.60744415808
-138.962760478175
-144.862446944475
-147.42434695914
-148.389649789784
-141.760425926003
-117.200463041965
-72.5324242725228
-19.4073398069278
25.1931023834908
56.0213866691679
84.9046156731347
125.062957452033
177.218750913309
238.148519569169
306.230976306034
371.058800426052
413.721428921557
415.725743697064
370.06754797175
294.134074022218
215.611032223309
146.891746455555
86.603144664524
24.1256208578255
-58.6347998013653
-163.109197927744
-259.913933212567
-314.536900022607
-321.797228398647
-308.989642118598
-302.953445639316
-302.518018056722
-287.698437870714
-244.359292510701
-179.221687192984
-118.414183734436
-88.4091716369692
-89.7642833820462
-89.4082713575018
-47.7506582611798
46.4410000804184
167.715019214529
275.263964365828
348.362378024538
398.841512515852
444.633622928439
485.196424057143
506.493851286976
498.95597559625
471.773370793711
447.791785184222
430.395189214067
383.267100600412
258.323338884034
39.2115493546945
-234.167878510315
-475.728281162792
-610.272202315577
-628.626846564132
-576.127047313314
-501.206892660651
-423.698229547288
-336.806651214622
-235.03321914261
-136.728782296199
-68.4654966652722
-35.9415508169571
-23.1940194009518
-13.4681686991299
0.0134600211306644
19.5582597220764
45.8409475112088
71.4390338879669
81.3267729377593
66.8251393249236
31.7799477002513
-16.8342355621142
-70.8539476590979
-116.597802967033
-139.775298965749
-130.077291937445
-91.4510349226791
-51.483197942527
-36.9247856447969
-48.379238309455
-73.3650543275774
-97.5535178713294
-97.8733268546369
-57.1507441049111
8.43658999804658
60.9521612427021
83.0113159238215
93.4037648811907
116.625431873993
145.488758391883
152.768513290014
134.696469456233
114.836388305472
115.879751149636
143.041057135266
175.36987202243
178.64922214073
140.895357223606
78.4590678280754
12.7797174114435
-37.7467106330294
-58.357103146554
-50.705401315078
-33.0018399517076
-17.7359479354552
-2.18437884697702
15.4267029017689
20.0058715630225
-11.2649333623298
-75.9773144513492
-132.781434114015
-140.500584277431
-102.945349375361
-54.4123451317529
-11.0904864725115
36.7103376817685
87.4113309390762
115.829059868519
108.102950434141
82.3448404915902
63.2548227940132
54.3078791217157
43.1257129961714
24.0148227007829
4.3209587170363
-10.1766312107182
-25.9931576226874
-54.9442480419157
-99.2603330514432
-145.246259238643
-169.185940311492
-152.360989119171
-101.341677453687
-45.3563991862587
-5.08454448732018
21.2855351732356
47.1292722007524
87.1901714444643
142.265838732925
188.440290684069
198.524627671751
173.297019146489
137.545618294716
110.803041071014
96.8279668493464
89.3418436155581
70.7811144907667
22.2570455294692
-52.0556229588939
-123.875718801959
-168.773252723453
-184.685379811851
-179.082873263626
-154.639646281547
-116.939909445836
-77.5905276812925
-45.6327392322327
-24.7167993546187
-11.7256418543092
-0.365083656159678
8.57727147541125
9.37996713194412
2.20428975532159
-7.08979851608278
-16.7083415216517
-33.8917706808862
-63.1952889118287
-89.3522620691959
-90.1447372592523
-70.2134864315824
-57.2317619525535
-64.4112134604531
-79.7357252726075
-86.1417174827563
-79.3433195639844
-71.1516190517839
-74.2108034960629
-85.5210838877518
-94.7985109021153
-99.7207106864291
-101.899865913761
-97.9371384722834
-83.1732503471279
-57.8386346672612
-25.6272175202836
11.9572714764458
60.2217553712806
123.61942004042
192.923379180848
250.61946795742
286.875126651194
308.943883395931
336.199265007025
375.851985807893
411.463496193478
426.925634630933
421.83160914519
398.642846303051
357.076846572829
297.229943379865
214.708296313821
105.821678804021
-10.6655295875214
-92.7176928901782
-113.445684102209
-94.5000187486649
-89.7371818112665
-137.914525701191
-234.973117787703
-338.167939372762
-389.475360836399
-361.0400853511
-286.981126509771
-225.316835543856
-194.017263105896
-168.09809408742
-123.851281342806
-67.1704613940037
-27.4372566153076
-28.0014565636475
-59.3665074377996
-84.4985439659011
-75.2772416973151
-39.6171549831915
-5.60355110840406
10.0536563945198
6.25842213430257
-16.5866099857853
-57.1712591381353
-99.4557971487416
-113.899765596058
-82.0616531537354
-17.4931009562944
36.5207578010679
37.0374018525463
-19.0873442139174
-94.7098702358905
-152.614364612829
-179.709860237042
-178.809701462409
-158.783562104425
-132.945663236944
-111.10522464211
-89.2708955371935
-56.9068471773193
-12.525775637932
35.4233361737189
78.9069485874282
114.707978040667
140.81446188929
158.146986138582
174.749119331056
200.324297703231
241.370580196852
299.729852031756
366.508283428868
425.492670548736
460.431713685669
448.36777913661
372.111972786291
255.036834587315
149.803172919226
82.9222330200597
41.8110546856775
13.2467560178649
-2.87470053114331
-14.9729514166517
-43.1925570180449
-95.8035849063848
-155.10188480616
-197.343152485204
-216.787083897314
-218.825924765673
-209.377058830529
-198.005410168343
-193.454562781098
-196.857277861925
-204.413186461479
-213.226756810715
-222.952724648493
-228.595523292012
-219.116725688738
-189.330302232592
-143.510355066512
-90.4400185617249
-44.2650620624943
-17.6531829825098
-2.94510561101466
23.5755069527083
69.0385998827489
115.482319563428
144.861582516565
152.247788275603
140.867967725162
117.787886133377
89.2308560159747
58.7183734440148
29.9144224989854
6.33784411465354
-7.67787290343997
-6.99601055994411
5.49181054469871
12.8528784680728
-4.60010614466283
-46.5816301656248
-88.9403271142866
-108.273189528377
-101.466763459321
-79.7601426829072
-53.4919892054977
-28.8463644602472
-11.2323261432281
-0.71771533589894
7.9388412288617
19.0314608768124
37.7270582257405
65.9076851783936
94.8558463178678
115.222920597118
126.914613028162
136.262952779692
149.724349662913
167.407646188392
183.524598939317
192.266588534319
186.006576594703
152.372023115594
86.6416642245674
4.38603734381539
-64.9523939929983
-92.0437062392622
-70.3094998582905
-31.3302653069958
-8.94216202037093
-0.336562782691886
5.96641725697599
-5.0565920830877
-52.9909844274208
-126.930829978679
-189.822548570723
-211.62602148899
-193.500078160509
-164.305910899113
-155.515925412472
-174.690618215505
-202.373776686349
-213.584682623774
-196.36992526025
-151.89390889513
-89.0226030233084
-24.9244826068694
19.7777831298353
36.0540593452658
33.1086119126029
33.5110680656079
59.2518383836793
106.995634448541
148.664211402033
170.772902473243
191.50856386891
228.401345631696
271.797702989584
300.838957948808
307.401629265009
290.562452027659
245.722529434035
182.076451805153
135.315700088028
133.260640938277
153.129153016261
136.386687226414
48.4311704360717
-86.2519165980407
-208.670586700367
-282.963852092687
-321.40817751621
-345.96940553516
-348.779544567541
-313.582976445485
-255.350770514919
-209.833427659232
-191.100358535443
-182.277167269224
-165.025202735005
-135.487742799039
-93.682094165067
-38.5616293142129
23.5833719981343
79.5237465945792
123.193482409013
159.732477527887
196.865956854009
239.209518171797
280.238737862752
303.543048313366
302.300543128198
282.627619519606
250.908278926969
212.74276793215
169.673658963426
108.381786589631
9.44589353625713
-119.923144595858
-230.357799955484
-269.749948099719
-238.145897013096
-182.399359277361
-141.365581106869
-120.823770815761
-111.799360050659
-102.86425383064
-83.069953401765
-54.1379903412873
-28.8864369706183
-15.8629984867467
-18.2843709900554
-31.4834703094413
-36.0286130647615
-21.3487673905242
-8.76840925156871
-20.9822537046601
-45.9197171959011
-57.997320061476
-54.9110641868612
-49.2670261112827
-41.6312602822514
-24.0744549261957
0.261176978235647
20.2813705471322
33.6237422048901
42.9851398466331
45.4789974747804
39.5718283880903
29.5481586526649
21.5160614037039
23.2138212594879
38.0777956680339
60.6178144536475
84.1096335923723
103.845423275998
114.316178986133
113.441509425521
106.111894471096
98.7203353559611
93.5873942243502
88.5025561010155
81.6010556693231
77.5896210335376
78.3856409832763
71.8258130399753
51.0438825409283
30.1225306468251
21.4896441827662
21.0400299907604
20.294755478382
12.0605981608181
-9.8705543852598
-43.3305069217418
-73.6679709651688
-82.4052353970367
-60.5238515304615
-13.8381027922095
39.2651567768632
76.4028063083682
86.3084811407834
73.720383148454
47.7776897622552
12.9450698424513
-28.3525151225297
-71.4538579451709
-112.444084391257
-147.555800118812
-167.023896116342
-164.234972667651
-146.582397344821
-127.050584894751
-116.970597267951
-123.175307592336
-140.039475987495
-153.951008848859
-159.254812779736
-161.731467549937
-167.964582342021
-177.2893113349
-183.968030856109
-182.920790390738
-170.979600221453
-145.706875723974
-109.775297037824
-72.5069543203498
-38.0839597772898
-3.535207789442
28.2936465453268
52.0161151903926
68.755619838154
79.24298103917
83.1960716223718
86.7295322273686
94.7417883357881
101.391351649016
99.3472936613324
91.0965489794618
82.9675130786407
77.4823722911965
79.1440008955538
96.4746966898462
130.503701038979
169.583685079593
201.893402262757
225.689733208542
241.857645093728
248.336615124088
244.746208551774
231.242900998615
209.393611293396
187.252854793977
175.222078930791
180.952241133858
200.825439257934
211.689776735455
194.021102415467
164.34491196855
161.240988528873
196.108050388697
225.731100940539
182.494384080133
45.9820699401836
-122.135357681831
-234.557239982903
-259.041014477715
-230.627394113942
-207.139228661943
-219.836213613348
-252.450282796784
-275.473875347129
-287.755155116658
-297.025709999154
-290.586771999948
-255.456583862849
-203.072652944067
-156.67747262133
-124.228947568154
-97.9470462784456
-80.581472656687
-88.7629753147705
-122.591353262605
-157.983961973243
-177.318341643916
-184.025087211285
-185.616757145091
-183.260166857579
-172.318487417532
-145.765535124671
-105.894275755644
-59.8167900911036
-5.15509273647927
55.8335523562601
106.187133145834
137.247227836428
158.551139264385
176.509309296669
181.197678993513
162.731817192063
135.451928814097
133.026959091178
172.771988725547
234.065003931992
274.797597548161
264.361161922265
211.427609505769
162.188910372815
151.780432087978
165.676930297257
171.593489649714
162.237212741054
144.112726045663
113.126146470164
56.7233075405655
-25.6278459646577
-106.191467324803
-146.568013384099
-134.173369751146
-86.0262759060157
-25.3707571514861
23.9204342926466
31.9587706219592
-17.0164420899148
-95.3518651487951
-146.492076942197
-138.659803727249
-89.5177846239438
-36.8392401664061
-5.82768945205647
-2.35041664208901
-13.2675742965325
-19.925633243439
-26.3650979651951
-53.6366382812385
-100.032617993127
-135.782244777752
-141.306368457994
-125.910561323042
-105.030174724082
-80.8878268341534
-52.45821379341
-27.9128184940646
-16.8747379445481
-17.3078209398418
-21.0805029289122
-25.9391624328728
-29.270964627335
-24.0016258188345
-9.48005753190795
9.33205103462237
28.152998762436
41.8058757891354
51.2601325845742
64.3957980131678
78.2031167518473
77.8752656638901
59.8899688160445
37.6935841027098
19.9295128873087
2.87434180935484
-11.3739925340112
-11.2269392532737
5.34815047804879
25.2787870775582
37.3258554655983
40.6585774553331
35.9705146069947
25.0790495113148
15.5673481606303
13.1005212199461
19.2786880245008
32.7562108451857
40.3476265197352
27.5583430538321
1.95652802508983
-18.4901537909398
-31.4957536384826
-43.9319924851284
-53.8191666234557
-54.7615348483332
-46.3056754076455
-29.6140379615939
-2.02849910571328
36.4209595033358
75.5503754689943
101.360457093617
110.750955800731
112.076616681376
110.22300358377
101.233472771711
80.9422512596135
51.4759175789592
19.6634104163621
-9.55821382077406
-34.1359289524355
-48.2374290959869
-46.0647021937482
-35.5749568289175
-35.8769362554428
-55.5977740616257
-81.7587785672075
-96.629006494325
-101.774369857115
-113.758890104096
-136.449335084036
-158.217537349764
-174.753099826203
-187.740314989613
-190.540090951496
-179.334897688636
-163.066021079182
-151.631608312318
-147.230682257009
-143.608301754151
-128.752317313844
-97.1400407932804
-58.7775494761082
-29.0801051970265
-11.8709161270506
2.09703563261882
22.3933008049932
49.9707550862106
80.6396636765938
111.576559512001
141.482732083097
173.64793188813
218.683710579799
282.01122619052
355.673095941652
424.948628906166
468.230679284575
465.194314487734
422.676247010701
368.792847590361
314.971797429603
251.942157319642
179.169251623512
106.99958412441
25.8421837765246
-96.4593864503251
-259.076170029795
-392.989415635515
-422.863098014495
-350.372826807793
-244.232462361144
-163.671567555353
-118.459537057944
-89.4049662219247
-59.1809154502539
-24.7534936930143
4.88074911726351
18.3173196259289
8.41923250349345
-25.1195218420208
-73.6238974236284
-122.462036962746
-156.641200814904
-166.36242711892
-153.816364019426
-127.669198883871
-90.2783859748079
-41.179047937885
14.4017031195074
66.3059381011767
103.245234626855
126.843387509565
158.677879839437
209.626765366546
255.942728324842
266.689559880625
235.205591143411
177.773841486618
114.220166242107
41.520606256897
-60.1006393548182
-172.027253568785
-226.335033983089
-184.003158532702
-84.6723718483605
8.00810224562997
75.493847047634
133.548923279795
174.877752807904
160.359981429705
71.4722637254106
-62.3567011708465
-196.049236170492
-298.642218792161
-355.158214592768
-368.164499842672
-355.225179423343
-332.863463327059
-302.072999695917
-253.116185453056
-186.932277529812
-120.37541923833
-65.3425449751398
-15.849026152504
40.1512023493867
103.953398814842
163.593707495684
205.814601982575
228.801791683813
239.618154461197
239.914305837921
221.570818001571
171.920382724185
76.2343503264684
-61.6422792289422
-188.277698618193
-231.74312807531
-178.863809137795
-82.2746245349808
5.13109678502459
66.4352094102441
107.019776357268
138.824147248994
172.312921511427
204.545856360168
220.711684497829
217.106494667908
208.515632220972
205.299278526474
207.313689255559
225.123736203227
269.325131715887
313.47798841427
308.076882297577
237.728866944057
135.983531228706
43.0449180927321
-25.3857906816127
-69.4483600882025
-97.4741150531513
-126.959644565932
-168.811721469069
-211.906879641326
-227.980996928932
-194.347523232678
-126.335820695823
-80.4925792434518
-104.453415991956
-189.513659165932
-285.868122583735
-349.126921363766
-357.938688927165
-310.077141865297
-225.33047061744
-137.016107250739
-66.3462270079866
-16.9859282746475
10.268080222624
12.8538093523971
-10.9455587712341
-59.8366999779318
-124.144971451278
-183.10938204988
-214.851605556595
-214.069530376502
-195.222361994945
-175.306402149228
-160.508191350708
-150.81390856963
-143.756336211453
-128.100444471576
-90.9715122220763
-35.5445654813993
25.6921618375376
88.8216493063761
155.259275384454
225.309960898764
297.317704883111
361.200628837721
404.298838674064
428.041999739406
445.172462342736
461.267155593391
468.047184807169
451.791521778333
402.0296747451
319.303038701696
223.061992347913
144.935046355837
100.362468944293
68.293721480214
17.7253843476371
-50.0263466886473
-110.969794229864
-160.902069419474
-222.826194756712
-312.903404760791
-407.794936133771
-455.740269357132
-424.182574939441
-323.872529146299
-187.442905808878
-44.0680006624692
79.3592104051648
154.353137149897
176.101141223155
184.27715097414
224.209143187269
286.168222789074
318.960465093492
307.186479341856
291.010135618519
299.080831400195
303.866829214497
260.134308482125
160.22838051062
32.1486974705159
-99.1389635651346
-220.900828086579
-313.462906145922
-355.098304540347
-348.360204899828
-318.238786511926
-282.384181139438
-243.665548230106
-207.751430362719
-183.590222139839
-170.906549508994
-163.003363109843
-159.599179692763
-170.209524351485
-198.982392085815
-235.556516796606
-268.233277324336
-282.607540613685
-254.544361599386
-180.083980855041
-91.3965372977367
-19.6572202117536
30.1019748368131
65.3242530362259
95.0004482416953
130.243227026619
179.037392404629
237.099186697649
289.127959986807
323.054621009565
339.575152478222
344.053317277583
335.39093447489
309.874732044397
272.407337452298
233.162732331885
190.219862135341
129.213073664262
51.3778000523616
-12.238289248662
-38.9353749814572
-55.4068310438253
-100.635991947743
-154.476094211877
-158.36611684013
-107.684209682199
-63.9162804013658
-70.9490771647989
-112.848760954005
-164.142750525262
-228.461191911625
-297.96294299765
-324.618476679335
-271.956504938378
-162.488068442683
-53.2679391982671
16.064331636734
49.5306002004195
77.4259988790496
115.520053509534
153.814115469941
180.320705557945
191.901868101393
186.106719025517
163.170155371889
127.959951822037
76.245735009722
-1.0765727835938
-88.3199115805181
-150.091508339449
-177.784671124889
-199.60270398052
-234.370798543066
-262.569230911663
-255.824990900363
-215.897675551345
-172.724043798327
-155.719256201177
-168.616770321187
-187.947013528063
-190.831578794021
-169.301934174158
-112.513063271645
-10.7254633019013
117.314796173342
232.56919170267
311.87903725556
360.54223693991
396.336409120253
431.666736123228
468.710961684403
505.740638449093
536.960382529619
546.942167399416
526.963138552278
485.133454549674
414.095141377776
280.594616180405
73.518700965461
-164.898358448785
-361.06317482801
-451.608883289386
-422.211846995999
-318.047680983369
-208.981792889221
-144.206204276744
-135.909913106343
-164.913455323382
-195.700885657903
-206.136329797939
-204.978310801785
-207.902234173292
-206.192216228827
-174.75112914955
-110.553130940239
-45.1542160811499
-2.35934567219939
34.4436039981513
87.6219030514256
144.207656485925
173.683092471638
165.875627232199
134.050738815033
96.7012105458561
67.9700980201595
49.9167600626954
29.1873817551279
-1.73685968274336
-25.4610712869715
-24.7461932258629
-17.015260495763
-37.181282358207
-95.8236631075813
-173.75864717226
-243.965141857724
-288.699632129854
-302.340718965314
-279.868089234034
-219.032263473195
-136.808903717114
-55.5936929257978
17.4046016451337
75.6343155444935
105.389900715091
108.677438882589
108.315305474946
116.471893819792
118.192710834238
101.366916568008
81.9830072733263
80.0732724411042
90.5932973385171
98.7644632684065
105.556335257743
120.374312579862
144.82814182343
165.226228156487
147.915011999573
70.5060788995595
-27.7190502873687
-73.009909941237
-48.6071830220633
-17.4128942602369
-41.250659351595
-108.087803944619
-157.210392961989
-153.523203286487
-115.225858056139
-86.8251680355464
-99.8764441846971
-145.65804934812
-179.976544228989
-164.863888627259
-106.488533883535
-40.1999034959343
12.2202917006639
50.4543923391877
79.6856378037892
104.895601234896
129.107265028264
156.436734239023
194.065954156335
239.235364001736
274.077101795759
285.077604564113
286.2113320819
315.944080328699
397.482323001287
498.562011512219
548.282076371187
508.299748155793
406.642630005369
279.730503066439
122.55936798776
-64.4431095020486
-226.131763625376
-305.574470209125
-324.0323142806
-360.478269232715
-456.359226331531
-573.871583815149
-646.93553056686
-646.26387618618
-587.418118284167
-498.804388831106
-400.685910608795
-305.070733995141
-220.389212381907
-152.900188490169
-106.062773679042
-75.9603847261751
-45.4748293407259
1.60392895770699
56.525132317322
92.444172920928
90.7514145010223
56.3165219689729
23.407761555123
30.9730520671028
70.3773217272594
84.5335438274438
33.7899466003437
-59.6062352170975
-138.887231655524
-167.718277351963
-147.5618584523
-102.043287213886
-66.4149065504757
-68.5675142220644
-97.6861152211601
-106.402208209356
-53.0411763187966
61.7011475734531
192.966728536248
283.42672652098
314.553538010841
332.872901984608
399.429703376272
510.777832734695
600.692556968559
620.411552884518
591.03468056068
562.1915651586
530.599755389727
438.967730718814
268.244443334824
85.5151155686202
-27.7136122317384
-64.0352921849028
-79.328680806862
-115.370204643705
-170.130091381149
-231.829352753129
-290.276558990477
-310.843303809176
-251.55716701375
-123.736466024402
-0.464528587885209
47.612953301201
20.8209928789844
-3.20121206072583
46.8205636761255
150.00288703929
225.404542502037
221.501416346514
138.817417079748
9.7368528917235
-111.835258146193
-183.643425543079
-218.843369790756
-265.642813794197
-342.975832960359
-425.883971458448
-490.611630501561
-540.05008309871
-572.733675205315
-560.655958940392
-480.489532013483
-344.501323770092
-197.208607306574
-93.2176365273667
-54.3151165047214
-44.5448265176863
-13.8658786799761
43.8234097861948
91.629275976927
98.5991091910254
80.1992283955392
82.5146956147963
126.689912768139
184.834749409972
216.431607415137
215.346171007128
211.091158854608
229.398594853295
259.765869320852
271.353319925267
262.435044278807
272.59929996571
337.22594064291
449.109675109747
562.649598711338
612.850329295416
543.44652293849
347.926117093118
75.8784033899674
-210.85385023312
-464.466138029752
-644.261076349687
-728.691980418177
-728.437623960712
-665.170644698896
-559.028568269207
-442.480195157051
-347.247273533666
-265.871356354344
-167.017437964144
-61.1554235232736
-3.50341078361176
-15.051271271393
-42.7622251738711
-15.7778268160622
87.2681019685516
236.670862190743
389.381681183768
515.737318065476
600.365168469125
624.827930944458
571.794361518855
463.912406265961
365.015435054234
312.356300830319
273.975415576179
198.433487752225
80.4553110605319
-52.8814615097564
-193.395128120164
-348.99543275792
-508.281560521581
-639.797954580029
-717.560744717668
-730.712196208269
-675.414867495341
-556.63194972071
-401.312452146906
-248.484405038616
-116.662739884267
-2.52530437896771
85.366284418971
126.123651219271
132.406646280982
169.312193274156
303.891998281363
532.014293677121
764.189426952129
893.335118365879
872.050198430443
741.794251083488
619.40761396555
609.642606849745
680.835390542561
683.819911523563
522.002853425821
245.779812255369
-28.0246897367249
-244.416783986826
-439.338550735657
-655.580165299774
-854.999779552011
-937.895908755663
-852.910473683755
-656.083669066492
-451.851260147439
-310.661713720726
-250.607589808189
-264.935180944264
-336.799258441275
-429.365080244109
-489.950107189347
-478.304303607108
-391.906745088247
-265.605950202806
-140.080903324593
-24.9469418278062
112.498011654631
320.274964721627
606.659664430799
919.876615940781
1193.68808332206
1377.26788548917
1414.74438312766
1265.83314723855
972.662154772284
648.596986700374
383.969347297737
196.37164832824
50.738515250132
-115.994460361239
-362.239559558848
-691.007399892016
-1031.18616945421
-1268.69008946566
-1309.15515384587
-1147.36586394526
-877.454142935439
-619.090848308255
-440.088791478149
-342.127593978523
-293.317894638821
-264.870015302329
-242.983213548653
-217.54985579785
-183.257413131674
-157.996257250926
-167.809962672452
-202.76081953879
-210.957409950154
-144.308341042205
-15.2011748730057
96.021880913683
119.561173296549
81.3774456830254
74.3533935889884
146.861432505037
261.861578490457
365.793795864191
445.475074953689
507.855860375114
550.881057603353
568.19921653345
550.022139078096
477.025984051534
350.725829271754
218.759159388825
125.811852675378
61.9161937966852
-2.17267363333228
-54.1969209908695
-55.0175960647877
-11.2254417934116
7.89231199636521
-48.8847828077009
-143.129130393697
-187.504666486886
-143.397930650321
-42.0919200101462
70.9352772724771
154.223496337958
146.406806008266
0.108540903165283
-231.55149325953
-391.156216213833
-348.968101781765
-119.065329233911
179.964847272276
440.199497907066
616.202315204888
697.921833269
677.437683640814
566.841744177821
424.308647316256
309.0696272378
212.204748858705
85.3437481095852
-68.6688309207698
-199.16788877447
-286.013345589755
-345.000246314384
-375.292926750888
-360.865486792207
-318.265918230823
-302.275661259637
-341.562909620917
-397.738120573163
-427.054123386868
-439.766386064025
-453.838260564144
-441.535276560329
-363.775850517477
-224.159150614936
-63.8500402194495
76.9334173400062
177.384442366649
233.438900942041
249.750131980044
225.066426650052
153.815782110534
62.209542996653
13.6921939842379
42.8998923518271
115.699159385477
174.948758907127
188.418285549825
152.839112412247
85.9195281401508
9.71693203688196
-62.3139422653741
-117.854058217392
-156.0968050043
-205.203598652411
-281.191508844132
-336.503742266299
-298.192566184529
-152.723861508143
38.0714906136823
192.927553277959
258.092340028738
223.583532179245
132.282985267065
59.5343568628277
49.7599880016204
77.45547772467
87.663559851474
60.2390317236966
11.7007876675374
-49.3562190195853
-132.571973817101
-228.748937523676
-287.701502591009
-252.50564695455
-110.965192046614
92.9318779441198
275.283058231275
344.378520630938
275.211369158503
160.397762899447
129.983607658546
222.597058699395
378.076019298123
509.49961297623
532.518409753256
399.159989966014
171.617575203244
7.00699186380698
-6.00462325522147
45.3076276503034
32.3450538624132
-31.0672803546667
-27.3226216975215
100.095397788582
282.605429611229
394.986123595435
366.430709586606
225.89681712447
34.5289373526387
-195.659109774165
-466.630116792671
-706.898353796266
-804.381287061803
-725.959304302822
-549.680163370914
-384.719509264396
-288.610843308848
-259.253845178024
-277.276748973446
-324.090054375096
-367.539755952985
-364.916915203626
-292.592397885838
-176.377848823509
-84.6749697371635
-61.9532063672586
-76.5313490283267
-62.7734683896602
6.12106384091244
103.881245809325
183.201085949661
224.905881292313
265.296093299319
347.110745384984
453.690624610988
527.974203729247
537.576191053964
494.45484480675
429.54595159829
370.37294466163
331.873510186809
302.99105851749
246.617907710899
134.780319548376
-27.5214493636798
-219.53227127244
-417.346204733382
-581.650563813425
-656.532758927679
-610.789368712542
-479.206599038897
-330.945641660534
-209.987824309917
-129.85975841638
-88.424063999303
-61.7150600128578
-13.7973167193656
66.3420712950537
150.840125971879
203.089456431184
214.20124103329
209.37475944036
213.999050490965
205.592336026355
127.950427790714
-20.9309908852935
-159.079533419994
-213.265938615608
-195.309625788921
-158.048149314535
-120.01374310297
-62.9812004939065
22.6363148204406
123.458661675151
230.555740680108
348.951248573305
471.758793431292
568.574573499846
604.285452871455
560.206744944037
448.580753071013
312.701531629305
200.527903627481
136.752439236913
118.886399046969
125.963564762967
124.208866777707
73.6084965164774
-48.2405496659841
-219.104393682355
-381.327527484618
-481.857221165554
-504.082856386789
-468.55021828388
-408.591081706141
-348.016665005631
-293.374553148756
-239.458518767884
-187.263144225836
-148.894448346839
-124.622634931852
-92.5894480521643
-31.2778162204693
60.2593952746292
161.168787202293
237.770157383656
259.614410222309
213.824466538625
113.308422256307
3.4767565106779
-54.8367664687103
-39.3107636204271
5.07216083610743
20.7502303372071
11.8980608420308
15.7202898400471
0.751274547984401
-116.57657036289
-321.683186149965
-465.619703393729
-427.777608708827
-245.390538801739
-50.215098622923
67.4651774793763
104.165040294432
101.980831008033
105.933475406779
142.434233996484
208.345361955395
279.685382506352
328.088510988269
317.151897203472
202.427809861521
-17.6256534090825
-251.260767939583
-375.969153148246
-364.177181573251
-288.661531551028
-202.593388245911
-90.9726647403375
42.1147498468422
130.64228088241
147.767627706657
166.977177863155
249.131921922068
341.787915681405
362.294092942124
317.987778708395
277.795190957871
264.434516784836
232.569993746959
141.914165771544
10.051637031669
-108.553604476188
-167.800384500991
-157.678122695449
-112.227888275723
-84.16949706772
-102.813404228214
-159.661048436423
-218.61476286325
-245.238497950194
-244.511035394984
-245.723095621091
-252.527142588707
-255.185142534349
-272.818451323535
-324.184299980833
-375.749924658154
-373.67268566104
-314.748582056812
-241.973196249353
-179.096052176013
-108.304719596102
-14.5302693110682
82.7744426526907
158.077892534664
215.037308099813
281.988316049364
384.262074587619
507.727740169666
592.390730008816
598.091130626889
568.26061238147
591.797873641351
690.91978832149
764.475885126351
684.693821752823
453.457208575289
215.723024416936
113.469285136596
156.985888054335
228.596281488473
182.085692466418
-44.1989633527141
-375.382365092007
-657.639404010728
-778.684299267747
-744.324353171381
-644.804492342648
-547.79469128503
-455.98215491537
-374.134733487639
-346.222863978312
-398.611290909468
-490.615576563671
-539.749791103139
-490.968722222566
-358.481396169939
-200.344466317045
-65.3967518995908
32.7384312437431
107.986767634613
176.578513950861
234.258186686004
267.590902014886
289.514597171403
333.875889588063
409.759182504974
491.284122499752
549.363324241304
571.282155312147
552.578518733749
486.894309248763
385.21099171003
290.002589616788
220.506392590919
124.000589149719
-58.1790872600957
-298.888148895896
-500.937156216384
-581.16363889166
-530.570875990572
-413.48501467158
-300.881453089759
-208.546927291755
-116.168990840904
-16.8075053483791
74.0619830798953
135.056446859928
153.830303869978
131.899382448972
78.9001043106167
11.6286000103734
-41.9093391614036
-57.968119057221
-47.7065961845093
-53.3859237756283
-98.842436091817
-158.655243572076
-188.343792086471
-173.439890241764
-138.578785422018
-114.569667910203
-103.415664645798
-75.5559641615667
-9.17261494158325
69.0937741644832
114.976160744102
139.362311368029
202.316950708055
337.042837068108
517.959130623812
682.080186902478
756.921336770376
708.418665081123
590.245250641599
496.857438094175
430.636792408008
277.759034486684
-39.702944835101
-448.412222690902
-783.31456635319
-913.410812691041
-828.204068298475
-651.224080858621
-535.334480450828
-511.968032385851
-486.386964951923
-383.305730974734
-230.827501108729
-106.515778130131
-60.6231318136587
-86.3424142128866
-136.526087807425
-166.694015903553
-158.906836408322
-113.298931079534
-33.363013646729
76.7164641699438
199.399899879638
288.592549094541
285.684000892412
179.161834035088
41.2460777218349
-25.5295691688476
19.2470261833297
128.636524661879
231.415063217461
296.673353071318
330.230925370109
342.303670146796
338.769916024667
324.074928145482
297.025204292978
243.570328040764
153.179688694878
60.7490115084954
33.2160582639256
82.8187693221259
138.171109968674
130.620475251511
72.8516166239082
23.9831323571006
4.01686302152583
-21.9625875223325
-84.8475122733717
-167.140078935057
-228.103100497179
-259.158713099712
-294.029488682184
-364.252032552825
-452.111868567259
-486.545301684654
-397.685790370579
-187.82918556926
62.2144138823772
260.859376340293
363.282754541134
367.533317470797
301.501349997774
234.548842320966
246.630644647249
344.336272554581
443.534260938829
464.704350958968
410.122210869418
317.186291075518
181.50285130329
-17.2122644663466
-242.200733586781
-414.610400758594
-502.118793359235
-551.099429414253
-608.480305899253
-642.717418932702
-586.502727326745
-440.242460629384
-278.434715453475
-156.405074409141
-70.0045684662074
-7.06185823494644
28.8075586465221
49.5010929157511
81.9497736020387
129.359047599326
168.593535787283
192.229976029771
222.028740342541
277.46908677837
357.99595371038
444.159367178637
497.37120665618
479.005945518111
374.313808118272
190.006129628648
-47.5400978736444
-282.798776277758
-445.188825265495
-483.86019365953
-400.869701076591
-269.415713844987
-196.225302357232
-237.153850966708
-359.438387772858
-481.504417271986
-535.36311135346
-509.378007483398
-439.777790677949
-360.060846757557
-276.228375725368
-180.701437794588
-67.0074287646556
58.1576628188821
173.277077789903
263.132221292903
334.334508606131
406.400493033703
497.401773401896
613.58372887944
737.391000860928
826.152712121533
838.602932681401
778.641951314802
709.125091518345
695.010511571706
721.32400287739
684.442710418263
475.374133977861
78.4546540562011
-398.629827480574
-793.431689209934
-992.102183825524
-979.857563155812
-837.392231495636
-694.408492985101
-627.975161338506
-594.346828005491
-499.30170828073
-317.657756474775
-99.808536541229
105.681084207094
283.467637510783
428.983281835892
535.976106960067
609.038750231239
670.130434166559
737.416618036928
800.018323266584
806.435432930454
676.175029745186
370.919270649731
-35.8661153876303
-415.633443612771
-695.981686466279
-867.943480885376
-931.172959704523
-887.910803240528
-767.032264223646
-617.232993274476
-473.488039049085
-346.47298185331
-244.281584212103
-179.091195528352
-150.322696936156
-139.865983025408
-121.431192429913
-70.3434267467509
22.1509070684383
139.850546620158
255.992227810745
353.787574575851
428.386277352956
481.141489800172
516.844491781262
536.351574311242
531.563480572471
487.956886724258
379.438195769101
177.404263273099
-91.9536141317606
-318.186926989806
-392.496538053356
-317.542760198098
-199.728233188989
-140.686677507076
-155.162745053544
-194.66501395065
-224.464048110899
-247.390735977066
-267.382667632526
-271.571393552445
-253.110727105072
-226.290257447297
-212.186586932656
-215.230654383414
-209.96549491898
-156.089030038896
-40.3370717624407
105.399853722723
238.559193518019
345.308607214203
438.454996944508
528.590448141364
606.610547911087
652.007168382198
656.296213025759
629.59974683086
571.590548533255
472.862135358335
372.158936994567
337.887522590439
359.935826981027
336.187727101891
188.022598127713
-48.782614153704
-255.443718063421
-345.592223215417
-331.691684390082
-283.213502653545
-275.78920466759
-374.342111169328
-581.332941953128
-794.205303877078
-884.294158859928
-819.4294175212
-665.385300350427
-496.79077966197
-349.209265943747
-229.968749619244
-137.750616046854
-73.3429934043805
-49.8537426922482
-82.3321175464674
-140.778943865445
-145.280513257449
-51.7105162301939
94.9959448405521
221.589570339013
287.908031452521
277.95449379685
194.650228910203
74.25764815528
-28.934292002409
-73.4057217998592
-46.4351883627757
42.134376859074
178.973461830598
342.351616433559
487.253160840039
571.915385672933
595.777958109564
592.514117747692
589.692743020485
580.700785562236
543.333272836337
484.34526780382
443.616790016838
443.875830912262
445.844397847587
366.623047138128
163.077083707408
-100.232902333499
-300.835453872768
-386.561894342841
-421.181305735988
-498.087163831708
-630.904706155274
-731.791166818096
-707.663079883137
-572.925107236702
-418.730780860893
-290.617790532042
-170.312374146589
-50.1219453630136
43.6867163560278
82.334120091293
53.0678885330279
-31.7787515027118
-125.090202602495
-166.435940924668
-131.607515996898
-58.7007506123559
-20.3099413429806
-64.0562867830524
-173.209426053039
-280.853990918307
-327.375000125375
-311.334809320964
-275.692848696362
-247.738942722263
-221.649728005162
-189.84052272479
-147.47497832668
-78.9179867440763
20.5636515885496
125.719007452494
207.500288885848
259.336597869675
288.356860481078
304.416339577282
324.259008514675
361.087957100954
400.900098065121
411.440456990411
382.761952471347
334.184784816853
273.865198714693
191.114616681514
99.4641406842951
41.2904449529156
47.3435627746507
118.269078242717
224.39771467139
315.425018486347
354.982087377506
340.05901994362
273.583879456137
145.039263191792
-41.9516794449573
-254.341166318142
-460.335559268377
-642.334130570035
-767.023233943716
-785.709433579677
-688.928213174164
-524.877355878157
-344.886045834316
-165.688710234358
6.58022335726578
147.092289101122
222.78857628633
235.555500052393
236.160097952723
267.442694942877
318.137145130466
358.952057898694
388.241958501451
410.61802277353
395.653279246721
295.935788691634
116.85162671024
-51.8883723496841
-108.743518181096
-45.7120246508657
42.8755077439152
52.0962430554451
-40.2879558073607
-155.591619744909
-194.812552053687
-145.680356277138
-78.7478961120299
-51.1165115478665
-69.1378124070759
-120.332572315943
-186.973340286294
-235.468163044384
-224.031673231075
-136.821064111728
3.42057802495673
168.55441642751
338.540117477544
472.880794172639
527.676229413491
515.066946064213
481.963621273885
421.856005591189
271.0321568616
16.5318392570048
-235.24919264518
-355.372620804999
-345.910867971518
-321.312618069146
-349.392925007853
-399.656409513768
-425.15153974681
-405.273884132949
-331.228859795371
-223.242708922061
-140.385899359891
-118.610005251345
-126.167771923536
-120.038794381739
-105.242744929565
-97.5588633513785
-77.5995914336991
-35.5054310076599
-10.4757258638915
-28.1623320839995
-54.2401247789701
-53.5053252837264
-35.2004885031185
-21.8259998708318
-19.9575417637875
-16.9332507554128
13.582818420707
78.900301971431
134.123476066263
121.842050215248
53.2379991846456
-2.57343950024685
-15.9100382290418
-20.2942721334476
-34.0011372164836
-28.0346362679658
5.56743835612838
16.683476660126
-33.2315911599124
-109.242786136013
-143.113049629011
-107.186805581563
-31.6313326571903
40.1945735835349
100.409910305182
170.226293737797
258.020316425819
344.712056593814
401.284482353503
406.417162095289
364.773106422797
320.311801911204
320.137897354211
351.74853976995
350.900937887125
279.779527832754
169.195695007916
84.7024092731559
68.0486226171756
98.5506083007373
104.78677735209
37.4827144405173
-69.5388847465917
-133.687213669348
-105.61825410471
-0.22217157525341
126.384353354444
205.290805147174
175.723480254855
13.6895932231313
-240.171440073298
-492.845337092807
-657.945246185841
-707.947915480612
-673.223294814214
-605.933654204501
-544.663427107033
-490.713848314462
-417.513790805602
-316.149149532138
-211.325183716088
-124.162978687162
-51.8934952368491
18.0892026724458
95.6430443707332
170.8155013732
210.029051446599
199.356346136508
180.212786285007
208.511831774328
285.089507402708
356.270050894221
380.786213126635
360.299294364203
301.583839582123
205.720949586607
110.728796115091
79.1892171139559
121.418948797426
183.732033853359
221.634434649143
243.840692401454
274.956646509263
289.242140971015
212.150073328687
21.3232092678504
-187.735233933394
-292.021463244866
-272.377476733923
-205.479865053912
-155.811942011386
-130.35325332754
-111.05721520022
-79.6161370790114
-23.8868924678252
49.4183597283089
111.849689006197
132.585671230621
95.2694673461588
1.60488511538888
-119.82134192182
-215.243173571715
-243.433443441122
-207.738250785353
-140.595516071381
-70.0992660335824
-9.67916369327956
25.9762559057494
15.0903306460688
-40.8271317349146
-99.8024921091334
-121.99306710264
-110.718088046863
-87.34408194596
-57.9689970416577
-28.3899569308478
-16.4423047458964
-31.9409716479807
-66.0944135818239
-106.134751348483
-144.936557785553
-169.413890601397
-160.725212524512
-125.25377620065
-100.59075677973
-112.879878359046
-151.423510920105
-184.161965772251
-175.913458320779
-103.66817511502
20.9273954890009
142.956635676379
199.25357021828
177.084439431328
124.903630846783
91.1270264654226
77.4090739818491
74.3206757880649
96.2925620794564
145.88415649689
195.741680460312
233.942308223497
281.304563152888
353.602222215381
434.947811151708
479.385101255239
431.22674522028
275.871981195691
80.2855312598001
-52.4340250330137
-86.6028095730017
-87.571717356701
-132.513504162506
-205.063781860651
-211.926521011421
-103.962916905043
52.9504877102196
136.009931130228
85.2744829037177
-31.3608250211629
-85.8566632184812
-19.5571685814315
120.528455722083
241.743190574997
272.915565567431
215.748154857077
140.886879184893
97.7579487014447
41.2707038473908
-101.372479915682
-295.028289688675
-399.496754488796
-330.098110287523
-150.142409661282
18.2361680513036
113.337726602118
147.080394213774
154.790194127405
158.126745072282
163.295895923363
171.145636311073
161.755072707364
89.2540899155036
-61.1771252937667
-229.874048638744
-343.059486394765
-396.716646299516
-439.853247578858
-491.493078224798
-515.032697062225
-475.487235023922
-385.705970813466
-283.288745804326
-194.96575525123
-140.339218471343
-133.692078167521
-156.21119800895
-159.170903564813
-115.892569863806
-42.7699363145146
30.9929559878639
86.0553243445511
119.825229756796
150.394123577518
199.788411810361
267.128728860342
325.652178216997
348.138631314978
329.139059497817
279.863558527459
219.326241550027
177.325140067661
173.940081172509
182.14454470262
148.060770044282
59.5374278210838
-37.4271804655002
-89.5901548399565
-86.0486691788097
-60.8756465569087
-48.8682597886058
-50.6737028856094
-51.0313182952192
-43.0793851124841
-23.7062519802138
7.56852136378955
43.7733067986529
76.6555034139108
100.210967839046
111.002180276155
110.834287213207
97.5618194383617
60.647972652881
4.80698858336833
-36.278303743724
-23.3077109821869
54.4878490654682
162.032223265105
242.85536330862
268.542262572147
247.133770495547
189.600341851149
97.4264985819022
-16.2634427197203
-115.696677489687
-174.63684281737
-211.666261475856
-263.585177751191
-336.043146103358
-399.215423978277
-417.744039583938
-385.347426325547
-329.002088925566
-273.505463974314
-222.309027259348
-179.594451124591
-164.510785062522
-185.122458629561
-217.852073912428
-230.402631975362
-209.399966696698
-165.106395761956
-121.818165632876
-92.8891108872137
-64.5762290601267
-15.1921741883331
57.3022853060836
126.238429465546
151.898812548183
124.257511711075
90.4233223741337
117.39800034705
227.309650033108
383.005961222227
530.806028090994
641.659572771941
710.176129038049
733.292632778686
714.093296082876
677.354646793182
650.359467718777
626.04965360026
551.755971337319
357.370274672758
30.3451319801805
-325.030412881329
-558.294348968521
-615.194326078749
-560.636146466077
-475.262291967358
-384.574285257385
-277.70907157747
-152.989021721656
-37.7049002898358
27.3923946052002
21.5219843376
-33.0258059109763
-85.7475439660945
-106.773316143689
-104.428768651636
-90.3076148464591
-70.6099523831928
-70.9593116074563
-117.664264782225
-198.145729857739
-271.839056352451
-308.598685782406
-297.258724630616
-234.168280832
-131.306396338273
-21.0836451285834
70.9674726787049
141.918620304151
193.660578138285
225.312560664075
249.395321102584
281.533769104646
288.273125787633
186.224963274445
-58.1361975430551
-360.006246233957
-583.776521992565
-652.711481243044
-581.579884854026
-433.577569921398
-266.29665149348
-110.252696187519
24.9973653496895
142.395097203856
252.259314957104
359.763915791048
451.596169438442
500.170485991207
485.898543603142
419.481889556564
334.324140646421
251.863679327703
174.429180715741
108.672246947454
69.1081059982153
64.007437659043
82.8160857774428
98.9677858282666
101.518515143699
100.539474395351
86.4540350134446
30.5625493880852
-62.1336448187515
-141.854270201838
-172.435843355617
-177.063422373295
-198.349443600884
-232.02944564995
-244.45176863025
-238.064028543048
-245.170053302002
-268.996350105184
-279.095092375753
-257.748374040908
-225.864019963677
-227.454852617143
-282.174333018078
-354.099357247795
-390.271531269228
-372.995054105511
-316.255120132993
-244.614226977722
-186.425702828087
-158.403052360203
-148.82059604202
-128.794739850163
-84.4213600146688
