0.170820427866652
0.241629033233581
0.283433567049878
0.241118755385254
0.127788836961101
0.0622677559803951
0.0447817016029437
-0.0422034411230576
-0.149943432111888
-0.112789126954162
0.0317089764586965
0.119566626184279
0.169467062938894
0.294834017854981
0.451497627052714
0.517495816399473
0.43845627137683
0.172936925183801
-0.262185710643667
-0.676108423194044
-0.891055206879678
-0.944737948803537
-0.885345756610007
-0.624779251128631
-0.218701913623756
0.0542540579610785
0.0808467684131441
0.0215848250573115
-0.0415193658681913
-0.181209436337532
-0.359845009977758
-0.450466388466864
-0.460481709940855
-0.456415208744801
-0.400930528216177
-0.27985618230279
-0.207380822259522
-0.237398804089835
-0.268468470125772
-0.230210525671494
-0.142395953534383
0.0208909697362528
0.273737805876533
0.487777731751157
0.56245067838068
0.589750220412221
0.659877999784591
0.716376546211395
0.723703210300799
0.71979677765976
0.666249337143297
0.504300593772227
0.302464199751746
0.131522861915262
-0.0569313745550239
-0.274986522569542
-0.444179948244538
-0.566261360668663
-0.690356959927769
-0.74832075119558
-0.691237497256059
-0.634509966363583
-0.616329739913977
-0.483540407927309
-0.229216389550946
-0.0781337056237557
-0.0785230672977937
-0.015131696650804
0.188709082945359
0.376983834183107
0.466389687304171
0.504671999989677
0.499811347243702
0.452809048196316
0.4302971729972
0.434284164437414
0.380947780187689
0.299752564352833
0.318451864283351
0.405464973930624
0.386552613015712
0.217116568224243
-0.0053236026862568
-0.219158238346751
-0.372167407143939
-0.375687530168051
-0.252464322322889
-0.131165620114607
-0.0374442107492187
0.0680647877109337
0.107017266355235
0.0087154690573575
-0.128797336100869
-0.235004951708985
-0.389444237652171
-0.575884914949199
-0.619834562541705
-0.484347130534324
-0.30949687653209
-0.142332299007503
0.0580974465497228
0.235778605771039
0.344644214308125
0.462868945523339
0.583828926442289
0.553404414253123
0.353000483627891
0.146302201360781
0.0052600588553313
-0.112019258109531
-0.171408966346908
-0.126862270987537
-0.0537810417868877
-0.01014217298774
0.0681223089981834
0.19867914930771
0.284520179220724
0.293650522042243
0.29183037406007
0.27950029323398
0.214487668774316
0.130793212821222
0.0114583059542155
-0.288469121389991
-0.753168800580728
-1.08197658085095
-1.07841881372431
-0.895671859161946
-0.749439821578026
-0.669079147179098
-0.585986640978712
-0.412636343795918
-0.0800874933079529
0.32017804727992
0.587599701481237
0.697366561782727
0.777600427989291
0.801392934162097
0.642157535751502
0.381337840524513
0.205278176809409
0.103149528021623
-0.029480500477358
-0.167316192539031
-0.258906321635644
-0.315976469537578
-0.287993884676499
-0.122826421151593
0.0523056518774295
0.092560864893231
0.07385071109874
0.118061843232898
0.167059228609477
0.149744996507654
0.14769845726625
0.209229456555497
0.226378149829109
0.138629067502116
0.0425110595709075
0.0131453406366759
0.0264431997627173
0.0790181347767055
0.184727365666176
0.294458091428164
0.370279193389552
0.41279678623986
0.342711913440172
0.0835714000020999
-0.224717701099562
-0.368858144212264
-0.361347477816545
-0.336027151135495
-0.295727636883738
-0.201276995302155
-0.101419668842589
0.0028342839928887
0.179897000591083
0.371587629254084
0.440711673093659
0.397759284459168
0.319581725074399
0.163130311689412
-0.0929982846142739
-0.311238105115978
-0.391862486026407
-0.390582021492614
-0.365232975181873
-0.343965360456059
-0.392535348084144
-0.474496279628419
-0.411592634441503
-0.196496773078368
-0.0912180847377371
-0.229869909477273
-0.407563632328792
-0.400261264727783
-0.209827829827224
0.0759924572827595
0.364578757683958
0.481923655495214
0.332107254900646
0.117564240458897
0.111199269980412
0.289689334102463
0.436296803750928
0.44556680917656
0.338003745612522
0.189644645518636
0.148393863360526
0.27822270116117
0.396229854232701
0.303368134185914
0.0551458485318376
-0.205521472783207
-0.460790122860414
-0.694740093173571
-0.833662018425022
-0.90280469108066
-0.955761500137004
-0.873698831546572
-0.539531258536584
-0.0939922739461767
0.250867435187475
0.443403720382965
0.448438195990179
0.194918788587292
-0.179297307425545
-0.371914055551098
-0.295868500285288
-0.128252255625951
-0.0057280918074089
0.0761635686243248
0.149739585461882
0.255414938744119
0.419155782017641
0.550315495414527
0.525620214529361
0.408633640976638
0.380598335455977
0.467616814919119
0.559263090609252
0.609632669430904
0.580992522141769
0.368572878627021
0.041516543581613
-0.0819214991548728
0.158068694463788
0.52857803396872
0.716648824169654
0.61462376653502
0.277072318175838
-0.130266569182417
-0.391436757612756
-0.457370425635198
-0.468408817841478
-0.469069636958272
-0.353844119247075
-0.127773889963314
0.0816319243689164
0.239231229466377
0.345556580519186
0.301919599531616
0.0934376198421202
-0.0980701842432961
-0.154303854999978
-0.143044187686428
-0.113447634145994
-0.075359623130855
-0.147980532277881
-0.401482795337527
-0.650564793189492
-0.691152854484146
-0.583787309188137
-0.48201969783788
-0.392996955910854
-0.289107205043515
-0.231458654443571
-0.23873389988612
-0.237255969255535
-0.211430708020512
-0.200082081755077
-0.149388536451996
0.020602425328763
0.260744236589352
0.459604425034822
0.53350052904336
0.388094225138178
0.0242663182831771
-0.319464158615464
-0.401514432730718
-0.275329673817764
-0.113317870507658
0.0569029872662736
0.20433583554459
0.176585530790309
-0.0407949668531379
-0.230673012800587
-0.247750799931561
-0.151722623815849
-0.0318834183426352
0.0403064759165509
-0.0183560299409161
-0.15505490351301
-0.179934050010512
-0.0513149702476437
0.0867639285739116
0.188464710302211
0.326653923122165
0.472090204389755
0.541289903163457
0.555998518028114
0.536996193190029
0.421825752782785
0.235081243540858
0.109515170382695
0.0539967405688843
-0.0459370150441917
-0.173627521226082
-0.203302054287911
-0.153571964260078
-0.137006064695102
-0.134548422502029
-0.0936798689184462
-0.101687438668241
-0.210299998316556
-0.298505242518596
-0.292156481037594
-0.25100101194782
-0.154385777875275
0.0775749230005381
0.34988865419815
0.49970764521882
0.556083983704406
0.625067495706284
0.675392256340156
0.634299371461953
0.493473939087563
0.236542479903226
-0.0985960084076711
-0.319628051044304
-0.305393150403419
-0.210667519253336
-0.220381734528771
-0.307285873809935
-0.386894409363711
-0.429395168351105
-0.342410759897419
-0.0545077724378007
0.287567862746055
0.473839831805638
0.479270371381427
0.360652165764595
0.12501532197813
-0.126041039273707
-0.181402191210997
-0.0062557506680522
0.183366488565799
0.214501274589252
0.110263445245958
-0.0526869553514074
-0.201453548274062
-0.222762884982841
-0.08197464987942
0.102855528527744
0.24724249648124
0.371153598152149
0.418187112408491
0.289123516727661
0.0705158427625457
-0.0688561377047285
-0.139723168140975
-0.227351996702591
-0.303181674085962
-0.358790704744651
-0.471873202410445
-0.598856081310396
-0.614315578833725
-0.599978245334916
-0.740139147397572
-0.971365176940594
-1.09191471696661
-1.09925041764621
-1.10094765830013
-1.07595813658153
-0.973760840634072
-0.83703641281872
-0.690242292559394
-0.524427623340143
-0.392541070769979
-0.304658397733324
-0.133526094445811
0.187233142756835
0.532151808406814
0.778162756912797
0.935809016499603
1.02575340215696
1.04320494427881
1.06327734242052
1.16058689280211
1.25335152319057
1.24295333721317
1.20958150190228
1.24965926941532
1.28504941011449
1.23877822648753
1.17839497366098
1.13020889985715
1.00887325782206
0.802116919235538
0.563286503686313
0.263174751079408
-0.0996201280399414
-0.384686447757351
-0.515621579067735
-0.583357793384874
-0.619974946949631
-0.556705338369432
-0.454563058698922
-0.460923963838071
-0.560977212341447
-0.647669032650842
-0.70251625400336
-0.6858299355971
-0.496830628562072
-0.211913052138965
-0.0574726331587068
-0.0735397189288146
-0.132846134130222
-0.240294322900956
-0.453807665741006
-0.625456733224125
-0.560706601978655
-0.311410148646865
-0.0738646419096791
0.0522394066464298
0.0661432644592753
0.0179629015012228
0.0295675363552053
0.158907672823718
0.244828269550208
0.108400839204723
-0.169292061864856
-0.399703508372257
-0.555562645030106
-0.665482607556158
-0.669019186570597
-0.568694087547595
-0.48903142985831
-0.492725541295537
-0.561609626886526
-0.702551528292667
-0.843384539392503
-0.789908836700845
-0.489846489308728
-0.117593404902298
0.211295732404122
0.519926135126474
0.745714453150937
0.769865545585164
0.641250150189039
0.496407353279806
0.390418617654712
0.401353424166078
0.630072865636264
0.939941593551629
1.03464970063576
0.884683015561922
0.729801548762874
0.671757577496102
0.615453259589371
0.539440517219067
0.512325778303259
0.526289101278646
0.519556578772482
0.454442403761216
0.281422170912891
-0.0118052366631112
-0.280090655636076
-0.337347324140294
-0.193423664619925
-0.0091526155095492
0.0998318254064033
0.0580363691593839
-0.184257897505373
-0.500285494698262
-0.662090366386621
-0.665468601438589
-0.69204372387021
-0.749647189872391
-0.69304985085827
-0.532810927075537
-0.391350225730815
-0.283336120086931
-0.203853060000106
-0.233840839790682
-0.370324902834172
-0.479060315931634
-0.486102163788085
-0.378243662606778
-0.0898242662459389
0.336420429301191
0.645586352114845
0.692746938152431
0.644662023883489
0.671129896649118
0.714626867920128
0.67597207662708
0.548523135978035
0.355731943227289
0.178449848588284
0.124345336641716
0.0993734628389418
-0.154850759206318
-0.646397111130799
-1.0361669718392
-1.0781997650237
-0.878463854576578
-0.644087816044538
-0.465940728195352
-0.387119790978666
-0.396135079254842
-0.341978292376181
-0.0986873024542655
0.240246692560515
0.496486365729881
0.58717091417238
0.492112287917725
0.275457551860999
0.143001166178306
0.2196265963812
0.360054201219036
0.407008944683437
0.421212777668751
0.455671709614003
0.409283705269015
0.27135893250448
0.181773662253611
0.165175357811291
0.132385915126931
0.117314742784302
0.190242299500373
0.250246698206385
0.181463376523782
0.0404224364882828
-0.0864419148221865
-0.170904005826853
-0.130828703240678
0.0754853204326399
0.268657524086602
0.248013049901854
0.078631522336887
-0.0482719636939564
-0.083598050118549
-0.0803723167643264
-0.0764597902861241
-0.132231434394649
-0.295456037795249
-0.480454625203518
-0.568907902410704
-0.598174399579201
-0.652156305358056
-0.682593325389083
-0.646275755734272
-0.625005944144903
-0.622563479263154
-0.509397470063504
-0.302269371723098
-0.177838397445245
-0.148164519885134
-0.0580853403834399
0.11992639774566
0.295427797959432
0.454416183592453
0.60118216221484
0.678163249231513
0.68461265163093
0.657526081701167
0.522974850831394
0.233058149306633
-0.0406140112888797
-0.124431122034375
-0.0800413236816115
-0.008115969147386
0.108003101507938
0.202197800671571
0.106295578377046
-0.169647680160042
-0.44655304627039
-0.639150531950428
-0.736004047980621
-0.664273522464673
-0.419628316660955
-0.1394768175104
0.10876843674539
0.374505356760835
0.591182898433358
0.593451622027438
0.412338587505397
0.260758760394212
0.218890063961186
0.202929064035143
0.183827298286913
0.185545716786341
0.18771406514986
0.221254344949244
0.365696195265742
0.54349702186386
0.577789026649943
0.473310811276237
0.353530278610353
0.203509984824635
-0.0314842971858033
-0.244548425750262
-0.309354633911078
-0.231852455245336
-0.0331615205693604
0.262430386393475
0.496585598620464
0.523474366452654
0.428790868440439
0.341317384808611
0.188090553607223
-0.133718490208996
-0.552182410074542
-0.923814555226686
-1.10865048877666
-0.954114104272262
-0.482070392057388
0.0026894571375181
0.229411780229451
0.214891025457859
0.0596341716979162
-0.220677494228871
-0.539705558001462
-0.723280357695104
-0.74239357123877
-0.713404964311075
-0.667708824961357
-0.562417540225637
-0.432811124311646
-0.280931724795203
0.0257537106361065
0.477275366970306
0.764124276892849
0.66455448569849
0.354696893174011
0.134336075328261
0.0865510541190381
0.109082540393144
0.0544449560841032
-0.154519161674369
-0.380668938884823
-0.38474418697529
-0.185830265129839
-0.0466837135008636
-0.0467197147626078
-0.0105100027560699
0.130217712099704
0.259858036588818
0.319365396596091
0.318168223601435
0.237395522355449
0.153362379895071
0.232042559235749
0.438644911181774
0.530830014842737
0.422908846787583
0.282884288683742
0.27857048743055
0.448304469464636
0.713999966901487
0.872708737929856
0.760611154821405
0.499009134085838
0.349714384271363
0.335997839285872
0.278077617769448
0.13848279699266
0.0181583792975712
-0.113964187865818
-0.380439422628173
-0.776196620036054
-1.22556552540948
-1.68488785302709
-2.01321078313885
-1.99909109145626
-1.64205665589107
-1.1353647944778
-0.568479157047162
0.0502300368261757
0.584018511898698
0.897288179892297
1.03696074110152
1.05434613846731
0.88780009771762
0.578806565032301
0.314892272358284
0.174193036984505
0.100518701208916
0.0944428406162118
0.163779982271549
0.209402469230707
0.174959874471524
0.125709397525646
0.0750012282369964
-0.0176726534704429
-0.0865406253777989
-0.0850534749653387
-0.161777923345526
-0.426088386646696
-0.710217719310856
-0.797692449716329
-0.682880415310303
-0.455808970438722
-0.169145014835927
0.0881716491671441
0.221081026783216
0.276014553907976
0.360503113037844
0.457393580575278
0.505302097657042
0.536435060531933
0.552393553848245
0.457101100489707
0.2600463421298
0.104628592589229
0.033911455871026
0.0107986211630053
0.112754355409813
0.375128614983892
0.579704940086544
0.52856201453533
0.344030645072883
0.243083714479158
0.251102281852261
0.300057773673329
0.341418036254532
0.296512872174733
0.147313292803726
0.0237891772670934
0.002759293694082
0.0171203668414736
0.0996379875727177
0.367810465596123
0.662376418501438
0.627606718136437
0.224921210494616
-0.224659484099331
-0.48253413064768
-0.545094878185985
-0.493279220851304
-0.469920889287329
-0.625013935558252
-0.899929028531401
-1.07547226752216
-1.10592257954038
-1.14734276712055
-1.25410239845243
-1.34714447762145
-1.44383703852981
-1.60311679023853
-1.71368092551251
-1.62466721923509
-1.36338636427942
-1.00628906743629
-0.547119922158484
-0.0535573590850227
0.309658092083018
0.509094754284422
0.648711516344225
0.767135427158102
0.846300897864445
0.908081235686441
0.949405050213084
0.971353201555033
1.12626478841954
1.56255226522197
2.12891278543986
2.50946179182713
2.56798730362393
2.33183910519354
1.84063501442452
1.22433688098703
0.697179412923328
0.351263496009638
0.176317764306211
0.215724433348302
0.415010702306157
0.487431384488558
0.238717661109437
-0.17427026922561
-0.530617543641769
-0.826516662934434
-1.10783581103719
-1.31485143792569
-1.42355756658724
-1.48744160637277
-1.48774875229628
-1.3794047745591
-1.25065584514647
-1.19313106918968
-1.11585458634347
-0.91519765055965
-0.655159207295927
-0.401984412672047
-0.135857537438949
0.0579207347224
0.0270973131308167
-0.157136695796461
-0.249410691174288
-0.146009748932481
0.0873235209085507
0.365131603588361
0.570919942457882
0.596869916325274
0.502101733763773
0.414228408627504
0.30480920669634
0.117392857119015
-0.0264709208542076
-0.0211944723325661
0.035490455718014
0.0697942103759299
0.174161586515018
0.381371783923465
0.587877930144065
0.725022852706611
0.724442506784038
0.437449049175285
-0.10723877498586
-0.547582361431107
-0.561170136328102
-0.21861603749941
0.189985565456527
0.463354612292234
0.528266276149655
0.402967472583586
0.208989182443462
0.065507270163751
-0.0275428584921814
-0.103198016815971
-0.157101721062468
-0.252660924415398
-0.460544998386511
-0.629596777135318
-0.532531485966406
-0.250981199286087
-0.0610353381470466
-0.0073250557740116
0.0496499716596393
0.127808913342437
0.204458993005708
0.371030765721684
0.625555579971086
0.768104007485054
0.679386555801312
0.439136603909512
0.126792605907381
-0.213496235283414
-0.46586952554373
-0.551467271080223
-0.51761060576191
-0.387047651094016
-0.16863102154188
-0.0546136215364506
-0.251621765321157
-0.616222993558945
-0.795616684435583
-0.652425914178955
-0.290340673019171
0.146646436133104
0.485337733233182
0.580305649231104
0.514062429488651
0.502153997603537
0.55825274352733
0.525696444062855
0.402309951172201
0.310449805573883
0.214602551912061
0.012343488485774
-0.189403663841856
-0.220101830825017
-0.147662928840811
-0.164430425667703
-0.317654311366728
-0.52327294150785
-0.677970798520309
-0.696406026421459
-0.593616337169533
-0.475197067875395
-0.346902348334079
-0.126671906996379
0.109266908948962
0.198572040037762
0.2147834899968
0.362951641571869
0.606180975480298
0.748473458758754
0.76480737358263
0.728630947152891
0.602743416954712
0.365168657501908
0.120192591315935
-0.0686984716547141
-0.214523841564262
-0.256872806105906
-0.132374918484829
0.0778930450817208
0.266419802412832
0.387632338562417
0.315868460305682
-0.0884525293513661
-0.667944948016188
-1.03828452214535
-1.04562608031721
-0.877620458865417
-0.728115078835453
-0.646993361034143
-0.668696928372024
-0.779367523284196
-0.815439584955858
-0.643071419575083
-0.337782653669703
-0.0445267304666188
0.15867690973326
0.222422579374991
0.204905819346455
0.329592406732336
0.68675283688219
1.02841463487557
1.12033398265055
1.06741965757677
1.06928304717547
1.12431985081255
1.13503814762829
1.0507707894891
0.855497510642331
0.631515663790918
0.545919625495506
0.588822160254896
0.536937801855108
0.320312965026857
0.126021294285121
0.052435984375073
-0.0032492250638095
-0.108670375456032
-0.27346949848281
-0.570516269649604
-0.981765757050909
-1.27063997002562
-1.24365868298339
-0.986012516628609
-0.721865317928713
-0.620848461130504
-0.756465217619856
-1.03429693549256
-1.18597731531904
-1.04561167049302
-0.758827156050505
-0.547309631735338
-0.441595636892969
-0.407323880091175
-0.465981349940224
-0.533298309387861
-0.444305928200652
-0.234765932763516
-0.0846668438930033
0.0031875494687722
0.14796984262115
0.320909268390703
0.421391193540051
0.466035364764876
0.511100553294376
0.591928601631596
0.794419378824965
1.12192522940262
1.35484733876927
1.34189863966465
1.27302818987882
1.37183733136836
1.55174145568476
1.62773120898026
1.59038476532258
1.49280045495953
1.345097899596
1.19393750139272
1.06713244689897
0.887335912992801
0.616341613815088
0.325254852151765
0.0149158798775284
-0.390749234936881
-0.817783606936197
-1.08361407288848
-1.18078755772152
-1.26150876694697
-1.38403569204365
-1.52072227390136
-1.70963213147129
-1.95205967660902
-2.11450609314691
-2.14340545205094
-2.16201329184775
-2.20619156452373
-2.14909064449644
-1.97646772582551
-1.83048604513071
-1.76840902375388
-1.74254681140054
-1.71354351968559
-1.56976187877503
-1.14830714026639
-0.498435675827932
0.139552831863243
0.684843791409119
1.24804787066088
1.84157851205952
2.36228985757552
2.7664666989
3.02261994333657
3.08050604329365
3.04620674747677
3.10932807030883
3.21452657023353
3.12312021794901
2.78693456605275
2.34175880240419
1.83948206330949
1.28441842143547
0.771870673014018
0.357355127609591
-0.0247367941751497
-0.378283376024147
-0.605882230835442
-0.723349833905136
-0.875595298768366
-1.10763603523214
-1.34525862758251
-1.57438088081104
-1.80945805894503
-1.9588933828927
-1.93933607477015
-1.82494036005159
-1.74851832138313
-1.7971281859316
-2.01416781412853
-2.28888048184423
-2.32885458743964
-1.98483386687746
-1.44882778667553
-0.946320220222063
-0.499087949716067
-0.130844997294164
0.0530779240618931
0.126992588113129
0.351100170680812
0.8465971197394
1.5206240756623
2.24349579112977
2.86758872663825
3.22228585077857
3.27255632404171
3.11462018332448
2.7791829456822
2.27083379296714
1.72367204833943
1.2463420710976
0.752958832989164
0.181979804773872
-0.319532448838077
-0.617967907470858
-0.785757789976976
-0.957566654937063
-1.18973243164455
-1.48260556803123
-1.74741859961984
-1.80452913285264
-1.61513511995309
-1.40898599128353
-1.3978782873336
-1.53828285931115
-1.73291593125737
-1.98976005541624
-2.22305202682415
-2.21631889127158
-1.91058479142888
-1.44020478494686
-0.884175420518348
-0.276362607695632
0.243953374846809
0.575747598191544
0.801323301858368
1.00589504540347
1.16445633910249
1.28246860709238
1.39258635418327
1.4413329166555
1.4439489573273
1.60979944542641
2.04362000608069
2.52378303926768
2.79111541387371
2.8132105586807
2.65133631840311
2.36003215195204
2.05660831762759
1.81589012605367
1.53449076028317
1.09358057308803
0.520293517914714
-0.133220144711701
-0.86270337097262
-1.58857944735773
-2.17503405386524
-2.59190141398482
-2.86796840636757
-2.95416296483025
-2.84664230048055
-2.72982279938577
-2.78227366721679
-2.98817740427286
-3.29176166759443
-3.68718595424527
-4.02721885637231
-4.05157789749281
-3.70081474984295
-3.13025712992017
-2.45574126008107
-1.75152981641972
-1.13028383771109
-0.563370142966706
0.15087461261688
1.05070673908667
1.91120424428335
2.56592521895987
3.02917480142973
3.30867548874217
3.40629696284117
3.44131077079499
3.53194425598732
3.68424212767885
3.91894807862009
4.26481965388199
4.56976051509648
4.60640084470508
4.36618189847169
4.01193917147557
3.6482637840404
3.32646821512187
3.08017960839621
2.81838982077227
2.41031022593845
1.92854677455522
1.54853499014035
1.21588121494104
0.694547427187843
-0.0924050123329021
-1.03312867741264
-2.03637484142504
-2.99568144448934
-3.68324978426735
-3.94910879115738
-3.89286687173587
-3.68809598360065
-3.44863693877223
-3.31275404035698
-3.35546539772855
-3.41343889103508
-3.28023972036067
-2.99630717712772
-2.72100844294003
-2.50025879937188
-2.33826672992077
-2.25780027763661
-2.17055707625506
-1.93717537729127
-1.59459987138633
-1.3021511038254
-1.11418870427203
-0.979086018865236
-0.830250543366415
-0.566728680235097
-0.112767231780625
0.489319893524832
1.19804681115667
2.02420292470309
2.78411319562083
3.09495254163269
2.83955940091374
2.33467829529995
1.87788573738692
1.442095639697
0.900566153990267
0.215850208233006
-0.653797899400785
-1.71923269897376
-2.76520595470987
-3.40482763277834
-3.33995510611955
-2.48899922735873
-1.05649079255015
0.39308415763722
1.22027644368246
1.2648274769195
0.922843026986328
0.659377879610227
0.690863095859548
1.03004113422698
1.50699527636339
1.83156246221466
1.85756072799309
1.66458865025668
1.34483259542324
0.977124425155148
0.770860225691018
0.891589380089149
1.21174148379381
1.52450343272515
1.82793456859888
2.14530852065044
2.33280632863842
2.28238579666967
2.04169538572436
1.65488087020022
1.20291114836082
0.967674497129569
1.21110103889978
1.85129136002639
2.58550568910691
3.17880858081621
3.49796663421869
3.49664510203395
3.26664902619742
2.89684309544366
2.27784067324873
1.24314860072937
-0.18100227559386
-1.86678058346624
-3.75912603855939
-5.7278074242706
-7.4362709631385
-8.56766139626945
-8.99115213959776
-8.638815647346
-7.54065559744725
-6.01645595370169
-4.48726475487503
-3.11123950954177
-1.86516553909252
-0.796357638338587
0.0815586074413447
0.888151748203481
1.62450078169776
2.05908316789915
1.99647525347755
1.45429567782455
0.614084933141595
-0.18266279100445
-0.559020550869892
-0.457154591618457
-0.172181597855275
0.0725078854980332
0.28580971665888
0.444305029498706
0.460967347023612
0.403466450386348
0.407237324428076
0.461456343828643
0.529232151051668
0.699108338096596
1.02987677905218
1.44669831604846
1.89218081658151
2.38086569058953
2.88758295751499
3.37106034097338
3.84780024984759
4.26290113380331
4.42565610559002
4.25496419032199
3.88932596874965
3.40033875254119
2.67997099734244
1.74769082466433
0.846360799761376
0.141327850663987
-0.367356408850289
-0.635315297119672
-0.567205104207092
-0.170225321808497
0.449516397754514
1.09427144268816
1.46528368577861
1.45576562956429
1.41577018834687
1.74848530091502
2.30586399571539
2.5163582086772
1.97907841495949
0.703445031203262
-0.969133064604816
-2.49132854274123
-3.47052904383601
-4.02263676864104
-4.52463705839709
-5.12038051539828
-5.74795961531941
-6.4023556725058
-7.04874172042037
-7.53891750257686
-7.8592534157846
-8.18511441252817
-8.53606019412449
-8.65682971068936
-8.31571985254414
-7.45548214301264
-6.0598664459344
-4.17174423319593
-2.03954127378223
-0.0021785433398626
1.74617390885654
3.16532799929874
4.30160056512674
5.27183559022358
6.09036224987137
6.5248378984867
6.37675025563288
5.81127947151921
5.17256599384772
4.64382466195951
4.26887892492518
4.06051394455657
3.95850466400616
3.92658619823799
4.09496778470904
4.56357027634441
5.20456387681116
5.89397615945533
6.64332243306482
7.25144855681007
7.22861446241247
6.35773018062947
4.98535400029207
3.59068474751373
2.39238059741653
1.39516017126679
0.47962610280161
-0.531156688054428
-1.67286549782706
-2.81330433061086
-3.89162760670506
-4.94167541755005
-5.86785402629681
-6.51725034212053
-6.97915967839505
-7.49410625700603
-8.07502710747823
-8.50163201553763
-8.63263158557727
-8.47099483652681
-8.03759163104793
-7.40967943147268
-6.74650141858563
-6.1271392920644
-5.49468824885561
-4.74070397670503
-3.66751978029486
-2.0388475977479
0.0880080688888777
2.28218988186857
4.15715816609766
5.60273504107935
6.54944317539858
6.88501890691642
6.67972679029599
6.20815207518585
5.78440784276995
5.73967241371276
6.28996545530276
7.21086398663416
7.95013249733348
8.1939472513281
7.99398953100955
7.3821851648311
6.32147905963468
4.98766851988833
3.68863331451218
2.57924861444421
1.69635483202742
1.05532180468883
0.522528370338273
-0.155903910969948
-1.05882111234612
-1.997852358423
-2.70501032363931
-2.94474151852485
-2.5885623785411
-1.8084977292367
-1.02197442811584
-0.418647790006651
0.27302933430196
1.40099152673171
3.00040839695901
4.80157930541795
6.27399332286953
6.69333774896906
5.56520321304561
2.99181276359481
-0.545063642112533
-4.48599281077316
-8.11154341545714
-10.639055780977
-11.7496730220059
-11.7602523209297
-11.1753291732907
-10.3676610280647
-9.63117991509696
-9.13069859975473
-8.79347994347149
-8.4876947384176
-8.19673810989333
-7.9111321234932
-7.5990154004822
-7.34325005751466
-7.24200688175191
-7.20492021736526
-7.07484395099796
-6.7982019439148
-6.27751857131116
-5.28223032935542
-3.6761818509246
-1.54893238751111
0.897405252619076
3.37017597744626
5.47420117428452
6.94440211999149
7.79648410066531
8.03256862302305
7.39488793292141
5.65909446974459
2.98071247407319
-0.172917610848967
-3.11527567895839
-4.93932955124439
-4.97048255398076
-3.41534475170669
-1.17752550187519
1.0375130985579
3.12669741258605
5.1957172999499
7.13418182662789
8.62745406898365
9.47621986091326
9.87843067597623
10.2299048358329
10.5202127450091
10.21200835045
8.94178644833411
7.04328342918062
5.20294620036574
3.9366307773035
3.47898488061994
3.75616586316428
4.3914153981805
5.06585051877141
5.80170505270667
6.66161248190302
7.46790928926383
8.08251012433164
8.6172310747112
9.1601191898948
9.64837777382315
10.1245607032223
10.7584379657206
11.5702246258414
12.4520717049941
13.4206383546143
14.5740688864115
15.9534234562845
17.6700228655193
19.8035552567485
21.8052412743352
22.37876923952
20.4542916529801
16.1950698455353
10.836869844708
5.59683481565549
0.706759116402186
-4.58670214998414
-10.9481886143442
-17.887752806966
-24.0598294617198
-28.5651282336334
-31.5532682807768
-33.6810846940034
-35.5268306271063
-37.4347620831872
-39.3508122712166
-40.7746741552699
-41.2130745955361
-40.6417695801792
-39.3981864932833
-37.8124087883491
-35.9795717248637
-33.6783032863802
-30.6006961682422
-26.8613455509399
-23.0606725413546
-19.6636346663274
-16.6069329898605
-13.6567998800284
-10.8167151249358
-8.25406251545784
-6.12330453218983
-4.54455916130636
-3.49159425313268
-2.63575710488978
-1.49852322791627
0.192304979499633
2.34440343127886
4.58670854006089
6.5149933064171
8.10435519761505
9.89931404641017
12.5482812674054
16.1949058215351
20.4886960623029
24.8970283605636
28.7334354851178
31.2763307693723
32.2924567896365
32.2737067161525
31.9691281778731
31.8475075078884
31.967997289352
32.0729418167827
31.8615889841977
31.3899471239771
31.0414876714045
31.0019427862997
31.0993871729375
31.2219865929173
31.4368380430915
31.6479016821962
31.6115005162035
31.3063423054396
30.8693188291599
30.1883635590364
28.8535563132254
26.4422677564389
22.7622003291577
18.0764744170523
13.2030553383872
9.11415448730956
6.27061564401172
4.41875597905669
2.95197580363495
1.32527059619397
-0.689720550159925
-2.87603405543957
-4.75181625126021
-6.00637210195002
-6.77193739026183
-7.75225122520666
-10.3814092749585
-16.3461963233656
-26.1021186785508
-37.8734180702024
-48.6741333241148
-56.3844688731686
-60.7786983684949
-63.0373343938484
-64.6492670244939
-66.4137153255621
-68.0178854867304
-68.4965094121025
-67.0968235805504
-63.7697394714102
-59.1538849559112
-54.157878377306
-49.1742440820844
-43.647150177756
-36.7834810863916
-28.5853715021391
-19.7782290919137
-10.9931071572122
-2.49670336820337
5.59832431952264
13.3340813527477
20.8336806072974
27.8918053969564
33.9154613590934
38.434571266628
41.3763009626384
42.8809640605873
43.3137081814914
43.3634760138054
43.4902692836227
43.2406509629111
41.7060007751361
38.713869003096
35.0539709759844
31.5351301736192
28.3572480440177
25.5210055946276
23.3853427110997
22.3812367818983
22.1337456321401
21.2511058754302
18.4390222068348
13.7900441147362
8.65662895474082
4.40074641327573
1.5806438004052
-0.042112354570324
-1.33349338435841
-3.38335252297221
-6.62513358066352
-10.3937292194808
-13.6459823003855
-15.8825262366406
-17.1851207995995
-17.7651741703813
-17.7502611856316
-17.1657681234131
-15.9896228063952
-14.2952987077399
-12.1970198471221
-9.60564266424023
-6.36767788750152
-2.73061256870706
0.707838824736866
3.62857869550707
6.26174402333505
8.96281221513402
11.7623315580501
14.3485363494688
16.3089019527139
17.4112004373829
17.7163868091318
17.2949656734838
15.9153703030895
13.3776918152635
10.119092254849
7.0564458825405
4.84215790018005
3.59981613237765
3.18146266609872
3.27743024173303
3.47175451779854
3.48569126299206
3.12244700806667
1.86566351192054
-0.986164021209594
-5.52190429562052
-10.8340363722644
-15.5628618930078
-18.740698358847
-20.3156805434913
-21.074656067178
-21.8710139571927
-22.8279372342204
-23.4958533299894
-23.6333865108596
-23.3970020127908
-22.8937459566204
-22.0213065367419
-20.7008362218843
-18.9641951788526
-16.908237143701
-14.7236643275055
-12.5863854229572
-10.3794814464105
-7.65466113661259
-3.94871932835378
0.884843901654708
6.52884309695358
12.2380822227229
17.12372390368
20.5460298524229
22.2292122382406
22.1620766921532
20.6959514388843
18.5891808820903
16.4869264427297
14.425673948063
12.2835567141539
10.5736019483147
10.248079750913
11.6476903584697
13.9180053406437
15.5474497939411
15.5599996358888
14.3513187145958
13.2287179058696
12.9107601009289
12.6871533766763
11.2587813922425
8.06525987697136
3.55696017705904
-1.42008375990472
-6.19888547265428
-10.5317718940058
-14.4413245592521
-17.7471727082191
-19.9741891855227
-21.0428722708484
-21.801154521659
-23.4535025219524
-26.454665910452
-30.0444530089574
-32.7704182714185
-33.5217616624175
-32.2948554590315
-30.0578500807755
-27.8809911670693
-26.2245249183396
-24.8560778128291
-23.0473354378998
-19.8721903661315
-14.8404264117888
-8.43688752338127
-1.71798360149993
4.6209976990361
10.4269150882841
15.5527560316179
19.7069121903706
22.7484637510189
24.7067587374975
25.6629610157144
25.9348313028857
26.1523259999325
26.863663712947
28.192025541119
29.9254522259769
31.7316885661978
33.3169475549595
34.6115657262011
35.7941714564307
37.0544900266446
38.4369068071843
39.8651965319534
41.0419507216063
41.2883689727927
39.6772559225731
35.4280126166959
28.4147772255761
19.6686833361458
11.2244940674097
4.88259227186459
0.998363988223839
-1.38303902947849
-3.6854895482519
-7.52297460265545
-14.4251687744862
-24.586413394813
-35.8949351470801
-45.0987573477485
-50.1723132711853
-51.2546320829404
-49.6198491212716
-46.3824161526576
-42.0762291384365
-36.8983185759759
-31.1408046674712
-25.3719561498251
-20.1359208390598
-15.632050203413
-11.8268912579393
-8.60101412718307
-5.6044095636427
-2.33384746927675
1.34513356282087
4.92344481290755
7.64854265803389
9.18021230866424
9.96060670533778
10.9311669656895
12.5432637974963
13.9703458210207
13.6639376389621
10.7029436897312
5.25997889158913
-1.95872361833297
-10.0257089253115
-17.680338095211
-23.6653462086161
-27.3996290005655
-29.138559394698
-29.5942762081213
-29.4880393321204
-29.106059549447
-27.9983195967209
-25.2785733605216
-20.4126947572924
-13.6938303869201
-6.03719301413939
1.50007033330984
8.11095524908294
13.4585874029566
17.5683686420587
20.4740533840259
22.1010298037284
22.4657826406846
21.7607912405348
20.3356214652615
18.856595446706
18.2829064517514
19.2956861687269
21.7564758744091
24.7775781927059
27.1248137621697
27.7043520003624
26.2594167126061
23.7822313434821
21.862254878992
21.4170304270374
22.0908702752563
22.7229642468399
22.2725359800542
20.5168776915583
18.0175661902925
15.3580579894379
12.5773626143938
9.52582988956176
6.43486713573504
3.74433426013629
1.55919227052287
-0.41831723120169
-2.50043516200469
-4.64710985122159
-6.37983251548829
-7.10057033586891
-6.64282130813722
-5.48624161825923
-4.43093268919498
-4.22103294964139
-5.39135248773334
-8.03587739431127
-11.6052965749504
-15.3709486413039
-19.274446734457
-23.8622027855108
-29.1080560514259
-33.7229066101599
-36.0760815791018
-35.7457429872149
-33.9140769374288
-32.1261673732765
-30.772935520373
-29.0794447331275
-26.5378959422363
-23.6815912429779
-21.0934508607142
-18.4010082633205
-14.9585967202433
-10.9402110263985
-6.94581075961276
-2.94873469192408
1.53959185694725
6.43533272460065
10.866918160932
14.0751664384427
16.2885870464263
18.6010434500057
21.9028278958513
25.9992734997678
30.0509132469222
33.7512537457999
37.4896445502786
41.2759850706754
44.1792653801831
45.2854411949024
44.9133558534926
44.3603917073686
44.2470311090093
43.2570737228613
38.8201148843901
29.3283563039365
15.8200605081637
1.54416889870448
-10.0455457011896
-17.0928270987153
-19.9614569305695
-20.7219024525514
-21.7067680150031
-23.9222192495222
-26.8264623422781
-29.6720074850265
-32.4704203476803
-35.3402414701619
-37.6216072843216
-38.3505538752274
-37.4682121338392
-36.2067744132471
-36.2107423174243
-38.0998180959118
-40.6655009394888
-41.6458850038953
-39.5334428484232
-34.5697000284415
-28.1125677666065
-21.4933838490426
-15.462276427473
-10.1439244564851
-5.24518181684347
-0.468520523478883
4.23664801773193
8.84543030548564
13.4547944913431
18.1080630111635
22.4140493023163
25.3828189676079
25.8423894074358
23.405712668811
19.1380537860096
14.988660242867
12.4352341672931
11.787295202495
12.5233099385453
13.7379732823215
14.4046957419855
14.0000211469644
13.0992054784047
12.917877541285
14.2182845178862
16.9279622744784
20.5232584915529
24.3197562472288
27.6459261615095
30.2211923404975
32.3401756302764
34.5824248489775
37.4897446474532
41.3582583134399
45.8024553502347
49.3616451718763
49.9019813365283
45.8183566512243
37.2317309230829
26.3573116495926
16.5514010383571
10.3559769083194
7.97926423074978
7.50219609171333
6.48222239404485
3.56733724246732
-0.968133073491942
-6.07108892613868
-11.3300409657687
-17.3466130118458
-24.6662219883169
-33.004421840512
-41.9193966288742
-51.4270612607794
-61.0735105005357
-68.935830284756
-72.6597487984219
-71.5444084475161
-67.0097117334131
-61.144168805132
-55.3325453895435
-50.1187560305029
-45.7584386775022
-42.5907697261781
-40.7916477092259
-39.7743932100184
-38.1776930511106
-34.7920957865688
-29.4122766954796
-22.7064334134685
-15.5424233624029
-8.56903949383562
-2.18780416929941
3.28445476647309
7.54554088371844
10.5732624050463
12.8292112423488
14.8058310965679
16.4725700073054
17.6082369474562
18.4570378552191
19.5028302362883
20.8903143253563
22.7116233200853
25.557709669928
30.0600517107059
35.9452078230077
41.9222229866527
46.3928961644888
48.2346618375245
47.3953889878882
45.0304563301282
42.6943084802064
41.003550090053
39.1447620416725
35.8240229013621
30.6205653495576
24.3894293052406
18.5075316607032
13.8338239532068
10.3502135492995
7.65856293019811
5.56758542562096
4.07097010601287
3.00948351572306
2.01323226580531
0.685331149352725
-1.19128273878395
-3.44904880175617
-5.67881102063842
-7.88948461486894
-10.7233151158936
-14.4515864051621
-17.9423600831929
-19.2084185582931
-16.9796453324348
-11.5006879872057
-4.06424639574889
3.88733996327744
11.3610248244521
17.8092243270554
22.7069099679091
25.456424033288
25.8092345088072
23.8761684880755
19.4620680868158
11.9965343269501
1.62358638508871
-9.99039450376061
-20.3886662918708
-27.8721045822337
-32.3747877218495
-35.0986353246373
-37.3833201466635
-39.7606378466137
-41.9276928057969
-43.4238366588325
-44.0897909136031
-43.9606177218679
-43.1146822769232
-41.6987147046758
-39.785276243273
-37.2116999194549
-33.8520012648103
-29.9267649386716
-25.7888327853002
-21.705421937796
-18.1424825552184
-15.7820581163003
-14.7022740055828
-13.754637198465
-11.2733370774354
-6.60169251339563
-0.899250558247946
3.74849855625239
6.35712649256125
8.18102639428873
11.4624965675141
17.0722837125316
23.744125648023
29.3969087045896
32.6579049273519
33.365372682599
32.3110433133306
30.5370408545524
28.598461521763
26.627675271075
25.041130385022
24.5692833558883
25.4017452528544
26.8257025661156
27.9619853718007
28.5638906458324
28.9912669379039
29.6410263841834
30.4671938633815
30.952640869919
30.5968381915051
29.4151050200159
27.7345172424778
25.5998038485546
22.8726172395453
19.9276610887171
17.6357629942739
16.3952034550916
15.5144113572776
13.772069224751
10.565248493834
6.54222309292054
3.01626119930014
0.5825714940917
-1.49303823126919
-4.29959339418429
-8.07468782187874
-12.2717006970139
-16.288658881808
-19.6338494827477
-21.8389883276752
-22.785787000155
-22.9174012676761
-22.8334167256449
-22.8501008807312
-23.0194658349379
-23.3630092569188
-24.1154967905981
-25.8740174100383
-29.3534052670175
-34.871769542272
-42.1173196270252
-50.203102618681
-57.7083328754564
-62.999667373836
-64.9983985657294
-63.5955049024317
-59.2229306054143
-52.4184478480197
-44.0187980272935
-35.1860467701273
-26.6510329722321
-18.1417623908467
-8.97790631419095
0.837578766067199
10.290020007696
18.0438304177574
23.4768912508939
27.15471097381
30.2846474805747
33.7864865229376
38.0060362969808
42.945118977231
48.2489479620075
53.2517804483958
57.6237507895624
61.6996721509379
65.599727062571
68.3489300358287
68.4401880826652
65.023312229754
58.2208541798179
48.7562151040711
37.7147096675768
26.3588579706841
15.8146317943668
6.87603909122763
-0.132857868359529
-5.5348824727661
-10.061443578387
-14.1656591573219
-17.7578293989591
-20.6850852006088
-23.1202345649246
-25.3184718702593
-27.2672588942806
-28.7805813443834
-29.8159615517448
-30.5226160365063
-30.9568202679157
-30.8742785080854
-29.9965337721341
-28.4980961563687
-26.9243427620885
-25.4842160406598
-23.8230143948182
-21.7002416409716
-19.3243952338923
-16.6946323533765
-13.299185366008
-8.94542409592157
-4.30156409037307
-0.260706577844808
2.58310805653056
3.58917279431807
2.10393002109681
-1.55299122142229
-5.62556957486125
-7.98017746587025
-7.62056800827895
-5.18663321507222
-2.14073050793731
0.586475463175316
3.25727891798004
6.64590456067
10.8711110071099
15.1076764337657
18.3149306844136
20.0981307475244
21.0012439972096
22.0055561669177
23.6227872549745
25.5827655099993
27.4384866677558
29.0330020639318
30.1552640160674
30.2974691773862
29.1751966501336
27.0435695218321
24.1360331059462
20.3212214377319
15.7373672944537
11.1708689960352
7.23650762226105
3.62836073941154
-0.329077184324732
-4.76351219991144
-9.24294378156928
-13.2951435381357
-16.5984537294998
-18.9251076377307
-20.2423408797277
-20.895015623534
-21.5684962536043
-22.9397550653006
-25.2758676570184
-28.379945053327
-31.8745835618196
-35.4021001456583
-38.6224116996885
-41.2002858550015
-42.6797649272438
-42.2740355140946
-39.2373687325921
-33.846534339179
-27.5899713761584
-21.8534844715692
-16.6465392238659
-10.9474995193812
-4.0157918719512
3.88374230976583
11.7719720319666
18.7439766461995
24.5821385599613
29.6333649948211
34.0836541380848
37.5849007032561
39.7489292810294
40.7720152595665
41.296134397114
41.6408559849396
41.2037209091862
38.7000533329702
33.3902825041419
26.3492782615971
20.1160638495195
16.6384957463312
15.7929768700068
16.0157327481504
15.6641898449873
13.4423736916806
8.46070739838461
0.835320059907479
-7.93451157342478
-15.6738516390972
-20.772956671773
-23.0309336732359
-23.6628794743643
-24.309572704474
-25.6466422120996
-27.005483438902
-27.4400156789461
-26.8787346905101
-26.112438045478
-25.900321719897
-26.1646246949865
-25.9989642081517
-24.5934119757515
-22.071290120836
-19.068361161636
-15.7064508587985
-11.6549768321711
-7.12947724499372
-3.0734030701954
-0.172566846950481
1.89444892856621
4.20090048484658
7.81490932960537
13.0527457397353
19.0984945762841
24.5238301907643
28.4361037209515
30.9218892864521
32.3478499439757
32.7537007478965
32.1222369408471
30.7629403817283
29.1757903954187
27.7524665274311
26.5747152473221
25.2410147894517
22.9786347287069
19.1877900475554
13.9480411111038
8.08866933529656
2.85640138690978
-0.776645174114287
-2.87541742054223
-4.61199356140027
-7.41881344873576
-12.0157177912934
-17.9826398807249
-23.9470457937618
-28.4744049118866
-31.2900412449041
-33.4826057936088
-36.1831862691633
-39.3533638238127
-42.1334361757172
-43.8879939640173
-44.4965928091508
-43.9713789645281
-42.2164938790826
-39.1301987426038
-34.8146759886227
-29.6222436139906
-23.8619500885559
-17.5107579130326
-10.5284459635597
-3.45824560566204
2.7311450146743
7.51803600067751
11.1755906666437
14.2889735114586
17.4176223531696
21.134152047606
25.7591324562264
31.0142765424254
36.36905770012
41.6377648854648
46.8953313907013
52.002544969779
56.5066868233129
59.8332243062
61.4591712196073
61.1646906763427
59.235663636244
56.3217292009947
53.1639238335705
50.3575891584676
47.8076526154181
44.2135979325969
37.7338694374803
27.6373169460296
15.0540331555328
1.99675027736412
-10.0026898887694
-20.3022844323083
-28.7479221045281
-35.292517650413
-40.1629166583752
-44.2870138150772
-48.9879208530164
-54.7230250032885
-60.3560328007085
-64.1988950090225
-65.6861359314185
-65.6865229630521
-65.3831141136615
-65.1989400176735
-64.5594470766545
-62.2968349586913
-57.4497563929402
-50.0290421586085
-41.0686952992827
-31.9646052976227
-23.7844022848572
-16.8941884748677
-10.9615930817751
-5.46598862427511
-0.230965367704669
4.82454553103226
10.2259846830841
16.5569918070577
23.5376292192975
30.0403462485515
34.9944973910579
37.9206160269067
38.8854394760063
38.4193803356561
37.233583799307
35.6613251233771
33.5991846342969
31.0770423974719
28.4650134835282
26.0614311587959
23.8868059965052
21.8853748043868
20.0287779340979
18.3527061493236
17.1220220734667
16.6880853106828
16.8802598034407
16.7421429781115
15.1834922992821
11.9148418190657
7.71568977674804
3.86873876110333
1.28279927900763
-0.0032797408140024
-0.508875856022313
-0.578912961838186
-0.174123403807315
0.661746031990441
1.5312449557054
2.01661462231018
2.09703870501014
2.30895264537033
3.61252391000477
6.6911241709128
10.9518834885334
14.4019559990584
14.812714288784
11.041188594304
3.50670749546808
-6.08477881105333
-15.5168564125476
-23.135477661313
-28.4470866238919
-31.7006565104569
-33.1755673189118
-33.1078435361028
-32.0189473954807
-30.6747724267126
-29.5550319505996
-28.3873642699319
-26.3976295769036
-23.2593483934551
-19.6351455091333
-16.4178009501436
-13.6037109041543
-10.3237561606129
-5.79095084910326
0.143118027810133
6.9936960775927
13.6707880634814
18.8415459942121
21.9484016959746
23.8461654671852
26.0272041877768
29.2386698822059
32.9742914114791
35.9856981642504
37.0688481440414
35.7180043977992
32.3133522435406
27.5007055454439
21.2809784573589
12.8455224086492
1.38552265113299
-12.7683977519909
-27.5260701130679
-39.7299839564977
-47.0484672537583
-49.4073142575828
-48.5198294510443
-46.3159322299552
-43.9739417040701
-41.8166363002406
-39.4529196802629
-36.130478055234
-31.2952900431955
-24.8666108919664
-17.1879194438878
-9.02305583639735
-1.34911390831715
5.28338196001238
11.0627116720259
16.4086682926043
21.4683995749629
26.2920300448384
31.1877212375539
36.7196020012839
43.4141245418149
51.2374270488038
59.0765200242193
64.9541848980353
67.1005743842621
64.8055933174301
58.357269416782
48.7412789067326
37.616371168972
26.9612012380802
18.1846913411054
11.5934763229303
6.60272294692261
2.08786836086052
-3.2353548141044
-10.0085281795482
-17.5272712945444
-24.1208263720021
-28.3976294740475
-30.1664520636809
-30.366634344005
-30.3034140425263
-30.9197355171205
-32.6200634526511
-35.4442752496401
-39.0908292870717
-42.9277774703691
-46.324060777703
-48.7863743161491
-49.517478996869
-47.4068574965158
-42.1113207092868
-34.7490785598869
-26.9220704467137
-19.4388918944768
-12.4825083689545
-6.50119016957744
-2.27954294956753
-0.291742690183706
-0.201959154224901
-0.749662128747253
-0.19107424369811
2.52768131741009
6.75242061720093
10.5871828159819
12.5842559908365
12.8810803376422
12.7625482903821
13.3901137403699
14.9990070448565
17.1211106150657
19.3410358539444
21.6462392921833
24.1751500159967
27.0384507789166
30.3253171065668
33.7000378657135
36.0096225488245
36.0139113652777
33.6496793194289
30.0638117690832
26.4433993668966
23.2726062014518
20.4926345242219
17.7994784626947
14.8853224527822
11.7373722158729
8.53556333238008
5.18146609889296
1.41554797907121
-2.39773508820152
-5.11284366606307
-5.84608470667173
-5.07902413718746
-4.49768537515469
-5.52644753836368
-7.87368877304461
-9.69916859831053
-9.46033390505353
-7.42810126315077
-5.16722791827984
-3.77891788295045
-2.93534329807963
-1.42520676878267
1.63394568083517
5.98914161026852
10.4193689530431
13.6857369464023
15.2726618648111
15.2043932954698
13.5433800490404
10.3109588111602
5.31598989152911
-2.36894571207653
-13.9794595005909
-29.2605164233274
-45.4784282174171
-58.8913944912433
-67.1279703214626
-70.1408487309448
-69.4646248874845
-66.7969588234199
-62.8372294955314
-57.1853124802301
-49.3715881264861
-39.8208396451842
-29.7093787442244
-20.1416558807204
-11.5896600503969
-3.93823945404475
2.94453409132768
8.66448532335705
12.7099288050179
15.5707824960096
18.852951004771
23.8569155931931
30.4796135082499
37.8270626696163
45.3837647461909
53.0747125700996
60.3703709756982
65.7824408826801
67.5497077908516
65.0280228319516
59.4054721745917
52.8004262041303
46.5354933111213
40.4395378616694
33.747251163208
26.1837222507845
17.9771955753774
9.31575836983639
0.317948498325382
-8.51967760717137
-16.2467592843276
-22.1347890874222
-26.3883623329908
-29.8032273166946
-32.600005442116
-34.1371264580372
-34.0834794439749
-33.2201341889095
-32.55732577535
-32.2026378997641
-31.5541559826215
-30.0225072475825
-27.1603816422416
-22.7473188038574
-17.2375374048689
-11.6525066802134
-6.68751623764225
-2.19903405080848
2.44734397126831
7.89433443346054
14.4787307971275
21.8393527702584
28.7086206637616
33.3103066729724
34.1960028486526
31.0378343901093
24.8466739090407
17.2489454438963
9.38715482805233
1.6631286009511
-5.5604746133221
-11.5448517385124
-15.6348150140815
-17.7724057795731
-18.4829915491499
-18.6771996578174
-19.3238930974027
-20.7411711787149
-22.1463905016781
-22.2610328073371
-20.3205935314321
-16.3813965802361
-11.0944084192893
-5.51683963693595
-0.681070564475522
3.16268053542901
6.7634471184821
11.1179004834174
16.5096858466091
22.1365518187101
26.4475040714687
27.9827231282308
26.2166334714502
21.7768683740142
16.0494046751508
10.6523871332357
6.8017414830388
4.56716071867992
2.80622315689475
0.182417355154952
-3.80014022842153
-8.73833913121691
-13.7892908702031
-18.0070240582891
-20.7255080620472
-21.9124810082603
-21.926312059389
-20.910433981988
-18.7499229788406
-15.6020871927268
-12.0915220777803
-8.92805862056876
-6.58372358716161
-5.25620119928226
-4.78048531547649
-4.56766222852544
-3.96240688386702
-2.81370695721283
-1.60958279118014
-0.938932406599529
-0.706215211396423
0.152682340643713
3.02815060743347
8.53021913370857
15.8484028915626
23.0094735069442
27.8632387039819
29.3422411511052
28.1056783916806
25.8156750820481
23.7547571428636
22.3258525216508
21.5244709873871
21.1576906913819
20.6623917311137
19.4289602830253
17.4208533644283
15.1114757835645
13.0000225810099
11.5188867688056
10.9764724314126
11.0633928121905
10.6784282800123
8.61380095152144
4.25316067277774
-2.42339054411861
-11.0038703742592
-20.4738105843028
-29.1474224341236
-35.2075569316514
-37.6227630875294
-36.7798146917524
-34.2774610372411
-31.8793986315489
-30.5058509274765
-30.2212143715971
-30.8333388378741
-31.9619705130871
-32.7084576178706
-32.008778698378
-29.5286391527366
-25.928496189027
-22.2706559054191
-19.2777171768333
-16.8743890941339
-14.232676799399
-10.445966664827
-5.23466631648983
1.03527255674268
7.65731125569597
13.5814507465882
17.5224534926814
18.7020315385013
17.6261709368201
16.0761246717155
16.2679711598196
19.5451711667833
25.321422982485
31.3588202283423
35.4267049600331
36.7376880520024
35.9576021617901
34.3491548016199
32.930866652124
31.8545842441903
30.3572838121698
27.6219310558516
23.6939460675223
19.2492858083693
14.6002641469886
9.41688748272146
3.47776736239348
-2.70519690972808
-8.19066324407025
-12.3919062730849
-15.4816009638323
-18.0327826027836
-20.2659634504672
-21.7601166424421
-21.9384981288647
-20.5754273732279
-17.7182836871957
-13.4788316413475
-8.14588583905401
-2.28732101585826
3.4083287070009
8.35307690397119
12.3183023451693
15.6517157563498
18.9889642208409
22.6064706293537
26.3613850634007
30.2012939230237
33.9906947584623
36.5357874903212
35.4437175515384
28.5767178175972
15.6845006693636
-1.34440656927128
-19.5523280292803
-36.224725743429
-49.5966485350263
-58.9062964070794
-64.3013010347791
-66.7512843612033
-67.5377612712118
-67.3821081929177
-66.1299424324602
-63.3993410619501
-59.3216815404671
-54.4872667629941
-49.3426772519616
-43.7486940160705
-36.9259640665708
-27.7924108218237
-15.7065341205339
-1.12677935533592
14.5095900501178
29.5339404556893
42.6885897414499
53.3754031683018
61.4476066574263
66.5065817939702
67.5422929191185
63.968701926377
57.1315833203529
50.0373760386784
45.0967754665928
42.287062517402
39.6081357949831
35.1980357232641
29.0403560463523
22.701888794896
17.4581356637883
12.9809103832335
8.08597080263299
2.32497469708168
-3.62073886686813
-8.71217324263225
-12.1930616775005
-13.8398808466942
-14.1477036041074
-14.0938782272634
-14.3153064969771
-14.5348071547322
-13.8889747436271
-11.7635242338526
-8.42327899814025
-4.99714933012194
-2.66956821804725
-1.63218648380443
-0.953019096479306
0.388266873881669
2.58932447426094
5.17353467487908
7.4753442857723
8.74593556604425
8.40409983533354
6.62883672174178
4.35651464203981
2.38511490012692
0.629370832664835
-1.69609548546563
-5.28793635298071
-10.1182030151109
-15.5635641331183
-21.1554660574996
-26.8403745915728
-32.2385055275391
-36.1661794216597
-37.4923959377756
-36.2369426331543
-33.428815152677
-30.108028744116
-26.6484027741164
-22.733176779117
-17.8723299999633
-12.1530302114913
-6.35761154402799
-1.17605413149061
3.3254935926389
7.27956101498644
10.6729959716047
13.8011794308349
17.4663796547892
22.0618111742457
26.5851099306016
29.0596620209822
28.196204734767
24.648136259538
20.5134833428627
17.4818585448209
15.5596166696766
13.7340866233098
11.5357695320631
9.41846510283093
7.80609713578857
6.45340804033629
4.79538013021578
2.47707463599318
-0.421743809361676
-3.37349422273873
-5.74419219601764
-7.31948128829378
-8.28828720300957
-8.73166199078073
-8.53315766806589
-7.80078118248319
-6.95250157167603
-6.29495804467082
-5.75420311863096
-5.06846689727953
-4.21754085710874
-3.69195845099193
-4.08280762755319
-5.08534928639042
-5.16763391781418
-2.69654866938255
2.65911489716407
9.76575855551629
16.8760023486131
22.4071502307341
25.2832343053735
24.9841381150231
21.5354148055731
15.7784756033064
9.6120824725307
5.18895118619146
3.25586707176176
2.61519843171126
1.67905568684775
0.221726471125994
-0.841920837509005
-1.02978329150269
-1.00360701261863
-1.74162462353422
-3.4280295904259
-5.35890214297262
-6.91962256608206
-8.4439740624788
-10.7379121946557
-13.7826929386352
-16.4942839431226
-17.9933643428477
-18.591108219801
-19.1846370151788
-20.0225228822706
-20.378846468877
-19.3506906374442
-16.8667031442413
-13.8266353201525
-11.0266104409524
-7.97563040466709
-3.25722999941208
3.6078781395611
10.9064690029491
15.7925709737071
16.8410342418114
15.4191226501255
14.1471687056298
14.0116717039059
13.6680205625494
11.8285832950981
9.37347631025902
8.27426949456028
9.03658826697449
10.1330419263224
9.75493957390985
7.46782322470729
4.27200304628858
1.55760156892981
-0.0413545466941646
-1.19025470400999
-3.40836466224233
-7.93122828915623
-14.7542904123224
-22.3968265457307
-28.4248162739787
-30.7356038946296
-29.0685654172909
-25.3239997250489
-21.9733466077074
-19.9034579759877
-17.7872425295108
-13.6188053088669
-7.00616551501696
0.096055974616195
5.20981273960579
7.83298639669404
9.7155406096993
12.7172560067014
16.9326996741806
20.9720808964029
23.6127080590656
25.0780044086377
26.8672584657923
30.0993416208685
33.8750893797325
35.7569719684114
34.132449122724
29.6607469394647
24.2785286712326
19.3241566580914
14.672203646463
9.10743378223307
1.53486591319152
-7.58577696572031
-15.9631221322599
-21.1347435693012
-22.5257493111693
-21.6469363822371
-20.4117324192644
-19.5618336770406
-18.5482481858222
-16.5140485895793
-13.2934490373197
-9.54754101695668
-6.001461413573
-2.79374785054374
0.254771750720941
3.05293232797727
5.27037601753018
6.79433667951489
7.9189046506238
9.11523097249216
10.5146034183167
11.396422659601
10.3704294780612
6.45604665234575
0.0271135602517211
-7.36844758589445
-13.9746976732854
-18.7028624666453
-21.4666314729695
-22.7513868520177
-22.7071876371605
-20.9521654939364
-17.5621304480057
-13.7466186477842
-10.9437412117556
-9.51521520263575
-8.77822133020712
-8.02797250332708
-7.0368452843154
-5.60556975880817
-3.0729247609241
1.23574981750723
6.83886989189898
11.7949739084209
14.281840410635
14.4848927983272
14.2826321137761
15.0166084630186
16.278350701719
17.0140741737306
16.9798850367668
16.6546271486326
16.3048073668876
15.7510624182984
15.0033807753467
14.7595389141995
15.8699231916976
18.0553174423138
19.4712489102062
18.1141181897289
13.6371215160312
7.43517155534974
1.1694020658156
-4.38239451121557
-9.33709637973551
-14.1470828834631
-18.9642721235617
-23.2633859509765
-26.1854809140407
-27.3390021045924
-27.0686757924014
-25.9463749699979
-24.2677402920862
-22.0673950664673
-19.4092353664632
-16.5419189734995
-13.7111843038346
-10.8400738740858
-7.61531988058602
-3.95647237715703
-0.0883259227119145
4.00229473256232
8.88064057948841
15.1496161419017
22.4987557861754
29.0516017445361
31.7448852717099
28.2272837133602
19.2185771026413
8.6675268044358
0.765900279024218
-3.13639600106089
-4.3649184762602
-4.52926022364286
-4.27671024249747
-3.79658672333085
-3.24102049620891
-2.5279730428651
-1.36591273082697
0.464596683337578
3.02904742022504
6.21134614935853
9.65644530101591
12.9405747270637
15.7545346187195
17.7962050129124
18.7442411000606
18.4443627453174
16.7081496190304
12.868042091496
6.16346071825326
-3.11821294062934
-13.2216331825133
-21.8295835041251
-27.3685900994659
-29.7215863217196
-29.9402125032354
-29.101199322092
-27.3526569789043
-24.275333751069
-20.0505268606971
-15.7928720486453
-12.6189043819029
-10.6846391299578
-9.21772386799904
-7.25903800681221
-4.29083552552313
-0.362491380489303
4.12953670732999
8.67215445158213
12.7513618848006
15.9484661255463
17.9420712095712
18.3444863899644
16.8889475315707
14.2223418989828
12.0403639186877
11.5192933321049
11.8010370903904
10.9607326837118
8.36676871204464
5.2125643685698
2.85499287293577
1.53981860580387
0.778483489110741
0.201355406146354
-0.174281332358316
-0.142838909645194
0.392206098046324
1.34292771749137
2.76046003068519
5.02511500802567
8.28375025669454
11.6987674740655
13.6079512366065
12.630500122952
8.79299272395335
3.79296812982569
-0.0403624495680722
-1.57402727438929
-1.8394583487389
-3.01366936261758
-6.44324706545391
-11.6875945247723
-17.125800252601
-21.1176152957929
-22.7544425943948
-21.966699236089
-19.1757073000997
-14.958565149797
-10.0670495709133
-5.40249980019116
-1.51096912162384
1.75426839709223
4.67498651761853
6.97642735993082
8.10971647945495
8.05925660944321
7.52930482374077
7.39558220648229
8.00194559873235
8.7466875642491
8.39569504776901
6.1307138263838
2.31382658512664
-1.89596644991141
-5.47304558290237
-7.97246483609119
-9.43691152583668
-10.1468343847998
-10.3644057631716
-10.338610003591
-10.5927803649995
-11.7120002726675
-13.3683599386867
-13.9469613328144
-11.850545851871
-7.2105899874643
-1.83618706591111
2.73891664881617
6.86253915130794
11.984977125246
18.2722277344998
23.5894855463104
25.3610811222063
23.2078311342187
19.2899867237659
16.2105296632556
15.0232838972458
15.0699736237965
15.0522179893643
14.086286477505
12.1167926897428
9.52958639953251
6.43925231044544
2.6365382862439
-1.75363984920519
-6.03988242201121
-9.55709617107008
-12.1622343329634
-14.0941650359576
-15.5977976492919
-16.6129340826856
-16.7020711901608
-15.5765614353444
-13.8173769527779
-12.6259452644847
-12.6400843675464
-13.3682043933106
-13.936690220913
-14.0448970190316
-14.052139367115
-14.321798086312
-14.5344626300843
-13.701738222799
-11.0936410976258
-7.10671971227932
-2.91011924963657
0.648680413221703
3.43665035748247
5.60148237197004
7.34556522649163
9.0700248639162
11.126401356905
13.2357978340305
14.5697162514075
14.6757322445843
14.1092933167375
13.8808188366696
14.282822639487
14.4639315960726
13.3746116550273
11.0924084010814
8.87755078427718
7.82352296144904
7.81271417068698
7.91232188435506
7.38064826584866
6.14858864670519
4.72592481583056
3.80605824452284
3.71533244586525
4.20582544943041
4.86640092967274
5.48408292020526
5.85157203927756
5.58596533895611
4.37072554714597
2.1318098011654
-1.02636931680703
-4.67969944067646
-7.92857077114061
-9.84948020734792
-10.2317602424723
-9.75719540170043
-9.54522925542492
-10.4928757423611
-12.7333292251519
-15.609952098705
-18.2605118266882
-20.0917158685114
-20.5898244880374
-19.0293384418668
-14.7841192311352
-7.98581600519595
0.130703389731188
7.49724380288642
12.1364915224554
13.3389419298867
12.0001870009013
9.55183764565792
6.6739733435342
3.27367160212032
-0.644068445991282
-4.58467272515249
-7.89048111305754
-10.1345009310819
-11.3077234625067
-11.7444228607608
-11.7206292451374
-11.1655573210779
-9.92820355701347
-8.11944270454237
-5.94621577561206
-3.4270801110579
-0.475384792298917
2.9417368380855
6.76559052778661
10.6556135630991
13.8915401814172
15.9080328210163
16.9728190288759
18.0223957437694
19.7835791876016
22.1122964658609
24.0029563238938
24.2080852285728
22.115666116948
18.0874996195529
12.8591596001775
6.84260716745101
0.222467280057598
-6.56799983690834
-12.7778278937788
-17.5707171664776
-20.2208056457928
-20.4601732639805
-18.8911106980361
-16.7546366770915
-15.0065849306992
-13.7141189306843
-12.3250529418985
-10.2411318985612
-7.17286952814249
-3.3116339479864
0.708586119265758
4.10744229301438
6.24967053520244
6.80349563551871
5.88929636769892
4.07485725111326
2.07301310571226
0.492984363186316
-0.181629973275537
0.214016875110157
1.23922166722561
2.18940638463915
2.90249053421801
3.8722542855592
5.4640635765488
7.35275357151079
8.77898915835549
9.09372112847655
8.11712218302761
6.26666421430428
4.36589731279969
3.17368794649622
2.95394983624276
3.28291844448274
3.19085110908238
1.7769595546259
-1.04934806755334
-4.49549612963574
-7.56557066504119
-9.63146046518352
-10.4266418209455
-9.94891396362953
-8.59939356125257
-7.15248662859498
-6.33421356218246
-6.41137792345406
-7.10301148382406
-7.80412684891114
-8.0860511320751
-8.09187533785708
-8.2343755269382
-8.53195919073062
-8.57828695955982
-8.05413333901837
-6.83355438736806
-4.75182653361465
-1.76394645203411
1.8175479559695
5.64243396943496
9.62139037806621
13.5188824250185
16.5780778992855
18.0519124877444
18.0299195791608
17.4631907109756
17.3573773722181
17.9616101510815
18.7063278546544
18.9356183451434
18.5527918678434
17.7576596578467
16.4327405562939
14.2820453638479
11.4724572703687
8.63367073678553
6.11306244491403
3.44732744336446
-0.344076453467297
-5.8749397806256
-12.6497052176666
-19.2698975667455
-24.5862107825929
-28.5730326393879
-31.9337816876092
-35.122189770229
-37.9776283164769
-39.8969618464401
-39.97613909724
-37.4093389717824
-32.2240348363572
-25.3628551855416
-17.8260425407708
-10.1170415740312
-2.60959463110327
4.11577046196227
9.52380598266183
13.3438412187869
15.4894039506916
16.1164638635367
15.7894428503596
15.3157369823958
15.3050356401286
15.8231281861005
16.3793278270504
16.4380461013759
16.1422550208808
16.2412350258589
17.0618738849178
17.9889300618066
18.3295860401384
18.2656133158332
18.5087376864682
19.2594425638551
19.8228428636615
19.149906649404
16.665520690474
12.7142088139106
8.301596575726
4.38525325102908
1.34381925341118
-1.07503139268081
-3.47037477019074
-6.25917515604409
-9.11030666166218
-11.034962829971
-11.3750936202727
-10.5846204319022
-9.76226239562272
-9.62298264817258
-10.1529228515815
-10.923853960871
-11.4439338490862
-11.4673059582205
-11.1516097649545
-10.7246906495706
-10.0655956230443
-8.94763599550571
-7.61618422506947
-6.77775563170265
-6.98569772841973
-8.10666971680737
-9.26109143606383
-9.34863244605134
-7.95688326333869
-5.79690871760869
-4.06332345784333
-3.43736370651573
-3.74684555921494
-4.23954929252661
-4.04325897294825
-2.76185100084509
-0.85654008293962
0.764348372948284
1.60790967373615
1.98665698920163
2.73107770065217
4.59138374338901
7.56084807771301
10.5652402798932
12.1118957765682
11.4798851532994
9.16168904372744
6.25981494534881
3.88377650496948
3.03618982431065
4.33722523434458
7.47116873347243
11.1855883876865
14.0340997250366
15.1024821608787
14.2762785704372
12.1388248179732
9.54752175886957
7.12788906497956
5.13531479451166
3.62804981327699
2.56065719734921
1.83515712734772
1.42483912426311
1.30485038418764
1.24416937314054
0.948017454642299
0.390858446232351
-0.303742383469035
-1.22236398232198
-2.58861848391101
-4.52108913322923
-7.16551200632854
-10.7770254467993
-15.3214587126307
-20.2008457938922
-24.5725774535479
-27.7475945340315
-29.2628816005408
-28.8821451641558
-26.6545644642091
-22.9262392397338
-18.3718190309711
-13.8914276960717
-9.97487059266288
-6.01480625808603
-0.81139679235727
5.85707827813286
12.5634011664566
17.4809306852682
19.9752076174426
20.6767708867911
20.3124266481391
18.8499940256723
15.8204955020402
11.3522465374052
6.62696068470792
3.05457197211036
1.17224736572101
0.643203423921614
0.992926050932332
1.8520437514993
2.77881307070491
3.41924471720447
3.74662409731505
3.86117231145536
3.77793352635738
3.59915449070676
3.62256440872155
4.12354035941733
5.15002717041348
6.43631748562478
7.41706134948836
7.63898657528076
7.33076727264259
7.21685077691655
7.63134839212552
8.15996491433749
8.2009513897156
7.51565600711066
6.2224715972766
4.6250561768912
3.13248340961955
2.10337199540591
1.62116300887418
1.39809030408829
0.88192803361082
-0.397858021525734
-2.3609609452528
-4.33664577150529
-5.7418190373319
-6.67282034377933
-7.56373161749925
-8.46603207254284
-8.98619492700655
-8.80029209685377
-8.06287027416138
-7.4443626509187
-7.68568712339551
-8.82537363780429
-10.0369231877373
-10.5705526079397
-10.5969575335325
-10.7665110379284
-11.2840371542273
-11.844217442593
-12.2040050309809
-12.4269028464006
-12.6631900216327
-12.8243347494168
-12.385097443395
-10.6043596737043
-7.17626610043747
-2.68567079809523
1.59092968543263
4.36271530041032
5.21873704312557
5.19417289321218
5.98544992155342
8.05348385354469
9.90190508265249
9.80964497593473
7.8782327708975
5.71057496687744
4.37382545336283
3.4232101603125
1.92484458997725
-0.128844636347202
-1.62930851405853
-1.38872720483715
0.751756395348124
3.85752202859014
6.81373842106834
9.01724226087578
10.2567737840079
10.5967083597135
10.7051352631748
11.6704035052757
13.8611587765533
16.1547703780651
16.7529775395926
14.8631307362329
11.4973830969626
8.56328810050667
7.12189726836472
6.61253184054456
5.8384415405477
4.37655116384766
2.68797003511763
1.22954606093154
0.0385191591357663
-1.03383077369343
-2.24326103112614
-3.98285995482974
-6.47100132935801
-9.48296864655845
-12.5949639081385
-15.5636207110545
-18.359990923716
-20.9230025076484
-22.9073957281934
-23.7359175121557
-23.110333622471
-21.4346164040653
-19.3670268905781
-16.8529192156361
-12.9498131712647
-6.84388026486048
1.03111379157352
8.84029555488143
14.2529253591654
15.9595780860539
14.8512551219225
13.5071791265441
13.9531734939584
15.8724037473407
17.1952285886957
16.2483980494422
13.1887774360458
9.65230842025167
7.25992051471968
6.36864292848825
6.13227860063811
5.59098071967505
4.45116060061099
2.95754904423454
1.50143448779824
0.364862939943478
-0.607479307010302
-2.08944855229541
-4.63100108331618
-7.94081902644991
-11.0228402572777
-12.8684890391614
-12.9474816980219
-11.455724021209
-9.34921530349403
-7.84157878514728
-7.57806284717272
-8.24111679843057
-8.84151923081551
-8.36276243827976
-6.4303344991257
-3.65364862771287
-1.27428910386199
-0.303163985154951
-0.874222790455036
-2.26623486393693
-3.43418203810231
-3.68926324853236
-3.09434215550083
-2.15030816822955
-1.06849190764578
0.397511676918897
2.40569824253801
4.74257848227779
7.14162147770984
9.44661904876984
11.4208971264937
12.7715900881996
13.3339495427454
13.0070397665323
11.7610927179395
9.92446929203556
8.08018472952889
6.45285499015703
4.77812536350926
2.88283864770605
0.939992830219073
-0.910396497597155
-2.71211612794101
-4.35640070590113
-5.41345263570016
-5.39117150254123
-4.13386799512278
-2.11072046228081
-0.265191119094365
0.718950581879294
1.04497590392379
1.51110018216131
2.56297837591369
3.66832883534088
3.63857199215579
1.79786150924366
-0.955811374814196
-2.58019910320391
-1.86477725255244
0.173757043980761
1.32441234279465
0.423862961291861
-1.92649210161
-4.60843107947587
-7.21176311830225
-9.94254841746877
-12.7545745613613
-14.7327654200209
-14.4562285365594
-11.366040980064
-6.79824633422621
-3.15757656583671
-1.87159795974177
-2.3468069208603
-2.75890676451363
-1.54129860350134
1.58085877750407
5.44397084652607
8.36246036677446
9.57246385998791
9.84500114547965
10.6285241127351
12.646812162331
15.2391963708486
16.877536066608
16.3461339912086
13.5311115962216
9.20800221898062
4.41186407227719
0.136586984120238
-2.91554519721048
-4.81243066960951
-6.34079129698575
-8.05458805528582
-9.57004674919383
-10.098677912259
-9.47120933161156
-8.37732484990125
-7.74301006064885
-8.00323429021264
-8.75121316398546
-8.91296542990139
-7.41852546098781
-3.92619900907196
0.891278256840045
5.50190038439611
8.06268729666106
7.4372987800438
4.07767583158753
-0.202175252376149
-3.40661952180662
-4.41281310981259
-3.40863751189517
-1.77143768565761
-1.22185339347561
-2.50759270337968
-4.71978793776132
-5.93501289891209
-4.67397995821868
-1.14831101395979
2.70736544108463
4.82092326832441
4.85493885234813
4.17245381791735
3.97167724414273
4.15605071328296
4.13391980824045
3.86402878585773
3.73077715976338
3.94880738322172
4.39506322371935
4.73969079043743
4.70708623988814
4.45778542745543
4.58554803854366
5.42641816791191
6.48777821546204
6.85210215964246
6.05718950504648
4.35892529866848
2.21764874575974
-0.312253320657038
-3.67941768025895
-8.19851206122219
-13.1485209063157
-16.7370906667117
-17.3560769531991
-14.9548319441374
-11.1596856275416
-8.10669250604055
-6.94714962162556
-7.10654164689449
-6.94163121312005
-5.24414348283623
-2.10487493652211
1.47632420262792
4.40425486740716
6.03249513335336
6.4934875292732
6.59500033851343
7.03888551930367
7.77876529995009
8.35997064917295
8.5909623097238
8.57584346259459
8.40384695961711
8.0967141177577
7.65383569737572
7.08029110347908
6.57119455838224
6.49035814728922
6.81759189972217
6.81481867457061
5.65887311115938
3.36383986312489
0.850862390440444
-0.830668504719394
-1.28097063810639
-0.953799109480739
-0.685059894558992
-0.860594836844147
-1.06532096486657
-0.729572264618785
0.0441182152489337
0.571282622606614
0.298330863874449
-0.844684462306533
-2.56056820224583
-4.3926722098486
-5.98966350881742
-7.30317260514689
-8.46330709349059
-9.59401511983009
-10.8495306816685
-12.3138985388045
-13.6917174263765
-14.4555360051442
-14.4468611403736
-13.9543013501692
-13.109803991015
-11.6171785579158
-9.19253152158956
-6.00769995011971
-2.68325464099767
0.0366461701058051
1.76352277326608
2.7246990056549
3.39928127960849
3.98792316706411
4.49458287903693
5.10472840720267
6.04914664826337
7.20650786071555
8.2229665528838
8.96669180363762
9.56672739376761
10.0470948184077
10.1823044735451
9.7410101037395
8.73644000109895
7.43700571881315
6.20516005556592
5.34526283724877
5.1146840470538
5.75017408202582
7.20593049238468
8.89596683919957
10.0254419921523
10.1483363736616
9.16791179036356
7.14765416493038
4.60558592211892
2.57528607435795
1.69294190801428
1.44030434476387
0.773051001928832
-0.767886248249486
-2.90421011031304
-5.20699004227927
-7.51430212168401
-10.0286516752622
-13.1515295021547
-17.0162289312733
-21.183024381645
-24.883077799056
-27.3189982267919
-27.6480459333221
-25.1778758554084
-20.014055814502
-13.3424018624598
-6.63491975808722
-0.312919302858621
6.65671605073747
15.3139384093775
24.6547131483376
31.6276345064324
33.7251507095394
31.2217192753762
26.4178158163141
21.2222921772767
16.1362936634525
11.0441522520042
5.93656233655125
0.856245405257002
-4.14329357741942
-8.82425720890689
-12.7894163969137
-15.6142367110307
-16.9524522974926
-16.8155211452433
-15.7327748856902
-14.3080493234196
-12.6530755261705
-10.4529689282136
-7.43404634955758
-3.70442076498242
0.0716469806269266
2.89343542805272
4.26073061656425
4.71496334046581
5.12640614022613
5.66589756126301
5.93520008461505
5.78339117850682
5.46107245740128
5.18074580365252
4.88900202056619
4.33511498592206
3.28394726172836
1.8318331573098
0.367395451097646
-0.997137455437711
-2.63107389220487
-4.67818077395696
-6.45120558385205
-6.94086534400864
-5.78856192817902
-3.50276019025141
-0.886418247071324
1.49102108402121
3.34951828021302
4.49050888853522
4.72803179111388
4.14473819535278
3.251097312378
2.50628976300253
1.72250371422467
0.378118385096169
-1.54552407773519
-3.51200595371665
-5.09602955939069
-6.24023965537155
-6.99908179826553
-7.37673421410499
-7.19882083746601
-6.00296339040386
-3.52063993259045
-0.407610021316577
2.05838750078976
3.18883559635521
3.40895639782
3.64751097623271
4.62211549211838
6.50351242474804
8.77887573483897
10.555076100984
11.2752991099954
11.0153781696979
10.1034610235239
8.79048613309274
7.24930461157991
5.53528506287647
3.56424479398621
1.34520803155092
-0.868059021637257
-2.79137341914689
-4.32041204988672
-5.48391162120326
-6.43048720871002
-7.45060841474321
-8.64202578441469
-9.52610807683642
-9.42122455157437
-8.30422379223684
-6.97239323820245
-6.24176587558571
-6.13523722901024
-5.88149887725263
-4.71351426029927
-2.70558956424319
-0.657355372507324
0.893831078660237
2.12697772426357
3.24358979233254
3.89096823728248
3.66078356040282
2.78075318817049
2.00751774658552
2.01923979993502
2.89378708999857
3.93739771704312
4.19924056029195
3.41107547628541
2.20130376466844
1.33056945569524
1.1546786022643
1.76128952907616
2.91454434455801
3.81341175707353
3.59768108554082
2.22190624854858
0.382944291052708
-1.36025165287867
-2.96717799479601
-4.50281822087825
-5.76815079455277
-6.42969651855143
-6.36127494804104
-5.82554580262138
-5.28165810933772
-4.8846637373868
-4.22418742194801
-2.69367132802922
-0.0069192768552995
3.66826865371081
7.68915378522663
10.9328408200955
12.3469424851939
11.78838082405
10.0098775217676
7.79168201959074
5.40905937591168
2.81046933249111
-0.0488365613989939
-2.9271949305134
-5.20772462456303
-6.39907414192837
-6.77099089142859
-7.0695033004155
-7.61362852740544
-8.09915347398054
-8.17197593187001
-7.76727336430965
-7.04772999385374
-6.32047643120277
-5.78179079063618
-5.18807383215904
-4.09101013344707
-2.40786406343433
-0.400001297339661
1.78495292554067
4.10498883302401
6.25714631139148
7.71345571832034
8.11341640228099
7.46220723894255
6.09694217298359
4.60836278622377
3.58543561585396
3.19540974081749
3.02836136278471
2.39814512244585
0.843909434341772
-1.42017423233514
-3.45769432083536
-4.34401809636198
-4.08788378842749
-3.48660264839175
-3.04558683191982
-2.50205915889801
-1.44240693957072
0.0879081062740314
1.67454456885986
2.91846343924344
3.66637819545686
3.96275684307573
3.80360240320843
3.13849687617616
2.27732233353859
1.92790684659443
2.48410401640053
3.62460504864163
4.88421892745478
6.1156120778623
7.1189249758662
7.45339600911266
7.00306546285246
6.258472884828
5.75877963335695
5.53015300356012
5.10013293714221
3.86253579326732
1.58957169306852
-1.23231136605897
-3.79162608056211
-5.79330798508969
-7.68415731224697
-10.0145998083176
-12.7951678981622
-15.3399801874456
-16.4348114365836
-15.0129052284984
-11.3496169141262
-7.47493547449337
-5.70263521073874
-6.56458309343726
-8.41520181693797
-8.97036693649043
-7.10632534660914
-3.4316643015718
0.585394088141391
3.90547912449379
6.25875713527808
7.54890266385935
7.66035082967569
6.96024746305292
6.25514786648839
5.94488125690953
5.70157542761094
5.11189858476458
4.19897518146974
3.29857542283817
2.77752918126453
2.76299466434356
2.87196491586695
2.38467387197595
0.84870018798987
-1.6159079480871
-4.45780760689726
-6.87192043058493
-8.15336912225651
-8.29291772104732
-7.99920059612802
-7.85611096838763
-7.70821679664399
-6.98281486462876
-5.21136135657626
-2.13598459821145
2.15563505618123
6.90198163099763
10.8480876486404
13.1078633827403
13.8368372463842
14.0533499090429
14.7681235816879
16.014955093759
16.6811363063261
15.608548893363
12.8506023755629
9.52880719817634
6.65609383731366
4.52691896411932
2.96802705318946
1.6312913832961
0.173977567602444
-1.46329003503106
-2.99934449018616
-4.07354736727193
-4.40844072795339
-3.95345242018079
-3.28032718526911
-3.58341209417817
-5.76002426373685
-9.54942492529195
-13.7725681581382
-17.1791461327812
-19.0524970403307
-19.4818698863044
-19.1956815829535
-18.8596662942209
-18.5814525197934
-18.1948733304047
-17.5961631565053
-16.4899186724791
-14.2245780640628
-10.301655142429
-4.88275601609819
1.34473481918523
7.51857597845626
12.7556281187754
16.3932897341221
18.3109991760111
18.8237017051329
18.2671674958609
16.8917102580587
15.010816723609
12.9918096448699
11.167691175997
9.77234455334388
8.77041084548161
7.85723420511604
6.86205601957172
5.95606886127079
5.28223973384902
4.71325952206016
4.1349415410014
3.57369986558035
2.9408100403373
2.06581443613619
1.02921721992394
0.123149641921519
-0.433265046729793
-0.505737888055093
-0.0594861504949713
0.614961265178697
1.03037356858511
0.982128185884339
0.570748043119403
-0.200569879569547
-1.50933605417799
-3.54035744562231
-6.44096932313161
-10.1131037836298
-13.859723275544
-16.6585893195327
-18.0057749961958
-18.1849034131194
-17.6753821346508
-16.670721283514
-15.1433791218908
-12.9611488123093
-9.96379032021155
-6.22353431714214
-2.04753322842158
2.46732804468259
7.39550748138846
12.2044869705861
15.6302015721867
16.8046284012219
16.1493774512567
14.9005925472762
14.0228475072175
13.5797438369401
12.8131549433965
10.8436534843095
7.52074884764313
3.56108837243959
-0.132523499497779
-3.08988483676655
-5.32899104851588
-7.10785901389097
-8.55687336353179
-9.40896644843542
-9.30106969313552
-8.35707666073103
-7.07213645108461
-5.64610446223596
-3.91412160884976
-1.8533584526492
0.350457525659873
2.62837648092309
4.96109827911998
7.08744679082097
8.5865500756727
9.14143843587618
8.6554944744663
7.41406345499458
6.1402846788697
5.39659569409539
4.80585407263199
3.3428674134759
0.545663526706598
-2.9386028894442
-6.0132988707521
-7.93936847011126
-8.53503299789002
-7.96334813593637
-6.45311226441288
-4.29186493096701
-2.15986957876295
-1.0601792832101
-1.39244979813906
-2.27476693859211
-2.24478331752465
-0.630524466179324
1.8096726530134
3.37712818320178
2.73051533207915
0.152194435709047
-2.65568168766154
-4.41343033293698
-5.48114117900625
-6.82691301738986
-8.43428523475591
-9.36903407433011
-8.95817027914837
-7.41522501809755
-5.64715845961934
-4.64186000847508
-4.63762896480671
-4.77052386927661
-3.82112257608983
-1.30418358618015
2.30062238768625
6.11752097752748
9.36910239707104
11.5003871341919
12.2487800382406
11.8272167425719
11.0160075121399
10.8195354852347
11.6428381828118
12.7308061640342
12.8019457048553
11.3866123297896
9.18830423677841
7.11398660460128
5.47561844204512
4.17960547283521
3.13064295266763
2.33884448901706
1.95243858827831
2.07706321213394
2.37350271814622
2.20129115377682
1.36839122723567
0.311758453504175
-0.589268820773772
-1.42101263598548
-2.44612922441035
-3.85869611556331
-5.73189879057053
-7.82262918111156
-9.64381062336145
-11.0308216796168
-12.3366644744307
-13.8883913129815
-15.5878520133693
-17.0503058573738
-17.7015295997691
-16.7784993479084
-13.7302610142509
-8.82123464245304
-3.26985664359396
1.25454489801483
3.5213394534018
3.55481790635584
2.64820790393157
2.31352527208159
3.14536592107618
4.72657364239611
6.27502183298933
7.05769555140831
6.56298303401824
4.79851900099968
2.31429456840579
-0.273450401813732
-2.59515022529912
-4.43673598343424
-5.76103878562043
-6.76127530460813
-7.49789134699771
-7.58651621981104
-6.50814785748494
-4.02703561119633
-0.238796024555805
4.35361392219686
8.73657982063204
11.8668280888493
13.4195661949675
13.8208609636467
13.639856600788
13.1337135577504
12.1456910254679
10.3556334505871
7.92857532291951
5.7774836653145
4.72117297549729
4.60381974057729
4.70171972143403
4.6106204716562
4.22755985353501
3.33262854873793
1.82824506912305
0.155013584302831
-0.982504747201652
-1.20406959707202
-0.650342070559328
0.149151517265181
0.564182043565601
0.354040317249276
-0.0956636563455934
-0.271705993376028
-0.144525139884762
-0.065016909637083
-0.329003069713801
-1.07513488220625
-2.31707058842997
-3.92123491274972
-5.78954216692577
-8.00931936741919
-10.5794935213823
-13.2109574289478
-15.6357194611701
-17.7819207653713
-19.4422864355725
-20.1673955911364
-19.6686435805442
-18.0103525278467
-15.3925522517483
-12.042431683856
-8.18556040738394
-3.8603677472537
0.97429155608979
5.91633362216757
10.0428729523263
12.5899782685787
13.5306365834888
13.4815837146067
13.1645464099814
12.7387678602943
11.5664472033454
9.0166482475552
5.57441723973343
2.65457592307762
1.1980545648118
0.917068868610332
0.96966172368486
0.848406228937443
0.534357809318888
0.304168377042857
0.525137718471595
1.30892668190166
2.37477061261355
3.44473517606766
4.53366852906778
5.66255032027225
6.62453461781597
7.21864371306815
7.45087066322353
7.45391723318302
7.36771897775014
7.15329503485292
6.44642625787175
4.93144890293386
2.92428899275904
1.20405805137883
0.277630820022086
0.13327408085026
0.473703674300674
0.788659515173562
0.562372438068271
-0.138672842915515
-0.633573177412791
-0.494874385621948
-0.0567761768098436
0.0943426422831909
-0.315865951433831
-1.24404656647689
-2.41407418976681
-3.30609986850053
-3.31209423075995
-2.01719333606157
0.450701483264608
3.02463448919372
3.89000783459184
1.71386656473963
-3.19563153176576
-9.24474089556223
-14.9212997386608
-19.5223112919583
-22.94020054079
-25.3274957539971
-26.8206095566141
-27.2641738578927
-26.4128264759133
-24.3805472481201
-21.3444746052919
-16.936592599171
-10.7698492910575
-3.57010693947114
3.01131066940473
7.7879482823055
10.7942248319078
12.9302266856362
15.282254585488
18.3006156925194
21.1057618924276
22.0404884922228
20.4145788342326
17.4279854240851
15.0707116928888
14.2959501032018
14.3607317408399
13.798084667557
11.9785612792509
9.66520552137973
8.0205646101505
7.39764167990045
7.29214224298318
7.00336914478239
5.99485036875183
4.06971377843156
1.62923654785991
-0.490775666807592
-1.68765575252321
-1.94096894991786
-1.55484422876382
-0.915347207632839
-0.439898696737589
-0.323774990929762
-0.329802168677968
-0.140799297996095
0.196724072902456
0.417689154999952
0.374924379399912
0.0334795946100364
-0.589317481592687
-1.39661131903635
-2.38040088041287
-3.69444654525085
-5.28579517782446
-6.73656364974032
-7.77929766516838
-8.66397573879131
-9.77858052806195
-11.168759398594
-12.4765884507342
-13.1086374252551
-12.6529905415554
-11.4109983023125
-10.1762681043623
-9.23278138312344
-8.02052907519915
-5.94272718589721
-2.95499340967782
0.638829847408415
4.27528950308444
7.0496234476707
8.26947157216134
8.13259001970907
7.38562063995948
6.4289900600162
5.1361949474238
3.3681749552157
1.3283160974515
-0.488831616467178
-1.57393670249273
-1.79920016841584
-1.56808839795986
-1.40047709532764
-1.48575678189224
-1.81424196407854
-2.41494469016182
-3.15118811046046
-3.6129894500906
-3.51755197999844
-2.97821196224238
-2.27938147243593
-1.63351390244318
-1.08073522349441
-0.373859022936464
0.850453752212045
2.59819861465653
4.47511815252164
6.16169510872781
7.56603909047853
8.57091312454062
9.08002310726291
9.22157618252819
9.13473292193418
8.77714924371713
8.23052322716669
7.81116964310279
7.60593005834639
7.30212590065051
6.64212781483356
5.67604019245631
4.56396302826239
3.45751905314177
2.44258196636195
1.36111442718563
-0.0449378647060987
-1.65565291193429
-2.9962883015898
-3.8381528027769
-4.37628028365643
-4.76424258429664
-4.92339835702194
-4.86061502795231
-4.74418170906323
-4.63018496595938
-4.43176316656412
-4.07637951030758
-3.48823491945907
-2.66756177058725
-1.93649654014924
-1.77050956565533
-2.30609691980315
-3.29936769385319
-4.44054352211548
-5.40814842985452
-5.90568467646931
-6.00503089580208
-6.20554907344204
-6.92501943882945
-8.1033299088173
-9.21313953559689
-9.37658387160296
-7.7970438766789
-4.57537596446848
-0.889361532856929
1.94585724078719
3.33636524631342
3.35696713576923
2.48732933849709
1.49080979625564
0.925414336351309
0.647691979199712
0.182204718795714
-0.525300123828036
-1.03650958143134
-0.86138538441687
0.30836552891761
2.54452987147225
5.58848552415296
8.89317386987747
11.7748753006836
13.466448165316
13.35137015933
11.5492615207197
9.07405168612366
7.03572236090381
5.8291153738138
5.22912452038844
4.83377493145688
4.2069543301335
3.05950647007382
1.51917529532689
-0.0398296942004092
-1.37632724013803
-2.37997862128904
-3.02237245109654
-3.59111907918775
-4.56925416416076
-6.02866204211617
-7.53486950496559
-8.75724961614386
-9.7240505124197
-10.4366271010322
-10.656169182771
-10.0974504315979
-8.63062737387434
-6.44975396688929
-4.11259068225943
-2.12002128719607
-0.443854749754644
1.3192703976512
3.53220153851187
6.36036761283838
9.48409060297624
11.7735409752687
11.9507775076286
9.92197107705575
6.92006461901456
4.16542525918586
1.97631920794009
0.271828638208164
-0.813648290721636
-1.1318095158096
-0.843210994414504
-0.320204007617785
0.0296214563985308
-0.0563097544055412
-0.437268700764584
-0.705049228978992
-0.72261429432202
-0.697492129878153
-0.717530327249505
-0.693831979490671
-0.752251528417482
-1.20366291604607
-2.11950626877077
-3.23974855399813
-4.23171352613822
-4.91405252240859
-5.36900814606899
-5.79127975435841
-6.0633437530855
-5.75761502727404
-4.81588272313297
-3.82071431401038
-3.28795724960105
-3.11683206318362
-2.94925087296684
-2.58033609265569
-1.87239190264761
-0.737258708640763
0.732462641926565
2.45232527821545
4.51126312572042
6.79527856768565
8.65572929477375
9.30622558910344
8.47131661598601
6.5525284383452
4.36248958892489
2.7096453504603
1.9285145343503
1.73755829815323
1.72133885743157
1.80185723556763
2.0338105205793
2.28063661102815
2.42071709552618
2.53626175651593
2.63014214669338
2.49231204959775
1.98756507098293
1.15927786530059
0.0702376064529838
-1.16059693342254
-2.29593466017193
-3.17640352910555
-3.78725434732546
-4.09244102424346
-4.12100066863526
-4.13452327937369
-4.323076166894
-4.51014809168748
-4.51228817746335
-4.48024052125835
-4.57128836216659
-4.68984248970404
-4.78375872652794
-4.95088382987662
-5.15097190609491
-5.25345575590462
-5.30701761595759
-5.31407772917099
-4.87703060372012
-3.46852636916792
-0.979500415121652
2.12043271451705
4.97844524240357
6.78765574914086
7.40047776803274
7.4757082113569
7.67936391491955
7.90343906793654
7.67663271680519
7.09416964594204
6.79636197949711
7.14262402685647
7.82104737646468
8.20711416519447
7.93935338744258
7.2777493689222
6.87154581312969
7.01156391618562
7.32713665561887
7.36459939040214
7.02172117969528
6.21002699992747
4.63637701496845
2.18140713099911
-0.957024315875086
-4.60978319166567
-8.6922388412322
-12.9277394222715
-16.905550614408
-20.3138624910764
-22.8504177473765
-24.1287450982221
-23.85713784769
-21.9062543217734
-18.2887399544513
-13.4209989853909
-8.22803076367777
-3.60624053367045
0.0984084074801973
3.00404376134406
5.50096126671324
8.18619662422596
11.3487469541111
14.28344949471
15.6476161734707
14.7571797433274
12.1817922615736
9.02829630906516
6.06659807514905
3.5248952380348
1.27931334790978
-0.779739456331866
-2.38281163026859
-3.10284015742516
-2.99321571808898
-2.5487136989366
-1.99234415263911
-1.12136733180737
0.135541448396941
1.48536866516184
2.5551741867489
3.11190344142819
3.20432267910631
3.29281259520122
3.92974095495619
5.14361999182415
6.37463950241916
6.98974496123213
6.6494562453147
5.4171191314682
3.80885394213276
2.49562815709514
1.75731777270231
1.42574382750414
1.26490145759315
1.05171936852358
0.492428406418318
-0.509895584657311
-1.68790802825074
-2.79807858057599
-3.91792014943785
-5.16665494843828
-6.42690906041331
-7.46167760030502
-8.02677734988193
-7.86748820870389
-6.9429526558808
-5.633719175925
-4.42173529291821
-3.4619378797196
-2.70126872751615
-2.12760612722057
-1.61241510220909
-0.857711549264584
0.218634454319806
1.33223856591735
2.16959339775756
2.60031240945966
2.63280621297499
2.43213898262912
2.19032441753685
1.79228265596319
0.934851750647834
-0.299628845176241
-1.37836213849483
-1.88007969769709
-1.7665387826465
-1.1966728585417
-0.434957743955989
0.234375503813848
0.775593594214228
1.33598635537059
1.83761885013768
2.04917861801663
2.03738076148955
2.05685884326179
2.09312830858156
1.9747766740439
1.74117951939615
1.48461946190754
1.07529766534597
0.398596192871186
-0.363616467166174
-0.935124041059848
-1.2150980195954
-1.22192795935446
-0.996946166984125
-0.609737078790938
-0.0844614940119022
0.555479438726085
1.02748577580699
0.946242412928528
0.485277232479627
0.432067044491962
1.31112356183733
2.84859601556145
4.40705276609234
5.49423618935941
5.83538445988879
5.43630646819819
4.66005562449206
3.99510280361947
3.73577887400196
3.84149178396157
3.88046825561855
3.23766902272438
1.69998911287112
-0.310878711541277
-2.28107031620541
-4.01703691840353
-5.36952229607895
-6.14763804617143
-6.59070260304117
-7.38966822492888
-8.98109133801084
-11.1448544819144
-13.2752743898574
-14.7521588925454
-15.2536064644772
-14.9887051515134
-14.3593735238476
-13.2318839899296
-10.9415772849503
-7.21041963254846
-2.69290701493166
1.56608559594037
4.97394870166946
7.70412160342667
10.4338088502548
13.6018426213839
16.5950143192019
17.9340962728242
16.6765593717487
13.4685893364672
10.0210508834519
7.78889268505185
7.12019796064749
7.22003205897253
6.8721230048337
5.48898134581646
3.44932492213245
1.42554904080747
-0.20914739466514
-1.25912694145377
-1.55856966031474
-1.16481018198986
-0.387632080371996
0.413554194505206
0.917795233921029
0.981275905822641
0.85486167694157
0.929911842456259
1.19638630578193
1.31711342090738
1.11130240781901
0.50551616080679
-0.741513123146797
-2.72349475134694
-4.99586044080193
-6.91074355254957
-8.17778366276375
-8.92589089680165
-9.47806880722512
-10.1249213309969
-10.7977379778823
-10.9761200064882
-10.2881510454003
-9.14107347249612
-8.28871949213276
-7.72540308823204
-6.40530448748038
-3.23839424946704
1.66583119503429
6.69808194461047
9.80766742574972
10.1081763058039
8.3991791470271
6.14417157795154
4.39957397215485
3.7315049816873
4.28078793153138
5.4560066075621
6.16405523305588
5.72089492761795
4.23273961857072
2.18561189748338
0.169593053921495
-1.18708842174374
-1.59657882850545
-1.34012389865025
-0.851077073659096
-0.358421659570178
-0.0324348045037056
0.0367358402217908
0.126863251719155
0.69132463720712
1.83346847456722
3.24249189177607
4.46622695248385
5.05344865213072
4.78970899359302
4.01424518751937
3.36512767956454
3.06983504711122
2.78687545009095
2.14856662374125
1.11007838257053
-0.188901983011886
-1.55617361087089
-2.81666251457077
-3.99603808232968
-5.24387078973177
-6.4578265431367
-7.36326473505851
-8.02456592700367
-8.77396363166508
-9.59106920805185
-10.046332228681
-9.85092670037752
-9.05245496431228
-7.74433045370735
-5.86311810295147
-3.25580203625616
-0.0056368917596149
3.1647600143423
5.20084268268835
5.88327943701763
6.29214478041675
7.53635561979174
9.3295006979525
10.2950399807374
9.42308297008659
6.98653987958519
4.31810890774137
2.73311980718877
2.38292027453299
2.29161586307067
1.70461002793315
0.998260205998937
1.01046158589021
1.95469836385851
3.29905674313082
4.32997353564587
4.60660903774934
4.18685994340764
3.57239914707033
3.19342150632978
2.91576778029289
2.26423746766768
0.986288062264712
-0.892755610092136
-3.33221026162338
-6.19208502741696
-9.0073323409108
-11.13366924112
-12.146704699519
-12.1548551992979
-11.771960324648
-11.5424877078247
-11.322463133482
-10.5682056902078
-9.19313429902906
-7.60402147549152
-5.93984730910949
-3.90317944502413
-1.36457196341321
1.33416091198235
3.59563185459218
4.87093420967248
5.1888873532603
5.57440424527327
7.22726562502501
9.96968529778686
12.2003974608246
12.6511679635637
11.5623240541102
9.99731940258977
8.65049979764527
7.53193249056572
6.36928023277438
5.05100394347469
3.73401323917499
2.57237497899248
1.47111811764309
0.280931325221325
-0.894514583399606
-1.84637721226124
-2.5809849293389
-3.20920373907156
-3.68578724938955
-3.92112564487556
-3.92511364813852
-3.67010388087781
-3.1509758308665
-2.65342458861965
-2.52114654316801
-2.66294843152941
-2.74168241137526
-2.71662405053077
-2.73286585271476
-2.67458679036617
-2.27900785231721
-1.56395467548137
-0.889905581296491
-0.704830259024107
-1.20997202201831
-2.0652783412466
-2.53545647004686
-2.09974532539591
-0.732977990060425
1.36042306568428
3.78364592914197
5.75532693381624
6.53902717570353
6.14489297296937
5.14959546768224
3.96180910037948
2.70920016470173
1.58862492680444
0.842042840165928
0.517689661045045
0.50509442716172
0.6352084771012
0.65873270202345
0.377765809338661
-0.146504934109589
-0.7298724945385
-1.35491962513289
-2.12856961651385
-3.12978200365686
-4.48845187058229
-6.30872428242454
-8.31868952885773
-9.95133835445202
-10.9078419675243
-11.3038763739934
-11.2737435176011
-10.7655360584874
-9.64040956712072
-7.81262657753896
-5.53739153458053
-3.46681162828576
-1.84181360138748
0.205147905349884
3.68345977901373
8.13244887175503
11.8482306976094
13.7191003788788
14.0530796040626
13.6017716734367
12.5340980628867
10.6133656413311
8.0071084823854
5.58192479368649
4.21302248361792
3.87974045921442
3.8316557329873
3.65600528914192
3.62342379519411
3.91788475702378
4.20980196317517
4.18384432377801
3.88583745409153
3.34494556916179
2.37838437070722
1.00370309475804
-0.315864819169757
-1.02070547804833
-0.917930960930394
-0.384740986668113
-0.224329287404801
-1.04377920848109
-2.64198897160546
-4.32036673804415
-5.73804701994445
-6.96871243281119
-7.88035484375226
-8.14134449710881
-7.76330837610688
-7.0470295789762
-6.10459370727643
-4.92133383853834
-3.72326295659483
-2.82749326062106
-2.14760752919204
-1.0887244236448
0.912624762819871
3.53604810924982
5.28991812524194
4.56407237587312
1.20201486408296
-3.32554149875766
-7.35024257159971
-10.1291455146607
-11.607594256784
-11.7772331904355
-10.5627577857741
-8.09063271495905
-4.95469221411111
-2.1801368938087
-0.663626509415391
-0.469530035466545
-0.727801464455316
-0.240551781106088
1.7096811613183
4.75849021361626
7.46425480352967
8.32591722348812
7.20072105621027
5.50485589000685
4.78633358365182
5.38811130497918
6.59253466281279
7.55471150797562
7.90953240425286
7.92513497817943
8.20807784573395
8.97386486617307
9.69506456211588
9.69520094937568
8.82830012715518
7.39745136299734
5.77575386196165
4.23230687630038
2.7447061686337
0.965358665570376
-1.26286247440931
-3.47552372743599
-4.99615543844595
-5.56153420067913
-5.33919787746514
-4.69173790067019
-4.06713264977764
-3.72747372271594
-3.54551009999214
-3.37101900454668
-3.38343722758247
-3.75298465627694
-4.29247590769187
-4.75791565060853
-5.12784422293248
-5.37747558581894
-5.40211358266486
-5.32914454063635
-5.47425559594945
-5.84273715145708
-6.04821961167491
-5.79846226342125
-5.13366744915055
-4.21242135640025
-3.16896415723952
-2.09356457121042
-0.92951016755148
0.467664724037266
2.07006704179103
3.64347209867804
4.91146063073246
5.60901069047686
5.6454909782452
5.38015555852865
5.33700196677363
5.49763795530152
5.32199650885045
4.52186111998555
3.32660903405489
2.0376326734297
0.843945625652101
-0.0219732816737904
-0.417853744967058
-0.456594876939216
-0.251492925226396
0.250515365679897
1.01796018968128
1.83158387717086
2.47392354499401
2.74430611706585
2.44461126808072
1.66582500059006
0.877242422042472
0.486083496305065
0.528505857711434
0.865076472676828
1.32475708218061
1.59010066575436
1.33067327345842
0.573735201977203
-0.318546923213543
-1.05742210645832
-1.59960945058329
-2.01811909274099
-2.4237286544063
-2.88549341136729
-3.33509165023811
-3.76249416225915
-4.42453182987772
-5.48243904026521
-6.57281789309772
-7.17149384601812
-7.22495823472103
-7.06420127010159
-6.90602550729151
-6.67867404895591
-6.06912782959636
-4.62817229716151
-2.14230061282771
1.04670765569156
4.26226091580568
6.84539621667952
8.2307572454656
8.23355346806143
7.49155383760334
7.02079354111258
7.08850740376953
7.05731196986493
6.41117367416533
5.33053433893665
4.19235084299882
3.04143702292186
1.69233147865451
0.11154833507269
-1.35011227860748
-2.14980738980241
-2.16539317940541
-2.01987943154539
-2.48034760734887
-3.5926775363271
-4.70653937514448
-5.24584469561929
-5.14696936889354
-4.67707200975986
-4.11251088334512
-3.47722960694953
-2.47240871525041
-0.86157203165913
1.12057550607403
3.03042525744721
4.68991630632562
6.06507220958484
7.01533543857364
7.55652880692602
7.99667125819292
8.45540801699324
8.60058018202054
8.07222590062642
6.81520691307306
4.95300986334237
2.73706293269349
0.598154479540513
-1.11465914675158
-2.42943841270974
-3.66392372103572
-5.19713938842072
-7.24239983271683
-9.5211154320614
-11.3311541760512
-12.2866565892113
-12.7182084610748
-13.0517559556561
-13.2151808068588
-12.9633975076961
-12.3360458717108
-11.4579254274225
-10.1785816646
-8.0986823478835
-4.80325599279468
-0.195035387206049
5.1050683945174
9.90017798441583
13.355910979603
15.6153009649843
17.1823521122977
18.0214975358221
17.599523839959
15.5266210324172
11.9681634949599
7.73968435661326
4.04259764671375
1.75870658301837
0.952347332742787
1.13919201659958
1.77174105375303
2.37118636452652
2.59536862106136
2.37205686084202
1.77945937253459
0.886297515814136
-0.119788516588823
-0.973533200606019
-1.71213240339705
-2.58309875134092
-3.42557930202848
-3.68045254922656
-3.12544970098976
-2.08579737491671
-0.937226272441642
0.112029644639432
0.87079480652174
1.2045253817766
1.03561498817854
0.0513020728834714
-2.28354518667224
-6.17144629810652
-11.1102157168814
-16.1066448540428
-20.0890884718608
-22.2852269243509
-22.5678905588838
-21.4130240571115
-19.3548347887386
-16.6651911754907
-13.5964898884302
-10.3734803575249
-6.6469167578548
-1.51142229776926
5.43725522877313
13.2317606055216
19.9185545418682
23.8088410889723
24.5550070338068
23.2021992128571
21.098637520453
18.7988126394507
16.1849827461937
13.2691304999879
10.3222836202446
7.48630475794323
4.84074829953324
2.64641601102326
1.06791061705581
-0.102244209776829
-1.13480008808092
-2.0637015064577
-2.82068759125652
-3.32569473159603
-3.44958393013152
-3.21716958466326
-2.92159429332899
-2.78209247841217
-2.72100536342357
-2.62387259848191
-2.47480089535873
-2.15433090525557
-1.51698413363164
-0.749352661633568
-0.271711713425514
-0.235070075557957
-0.426988208016795
-0.632076193492727
-0.789888639943527
-0.894181213597541
-0.966911160065876
-0.983293270078515
-0.756825498643276
-0.190639418277499
0.412501175509342
0.690148312041462
0.719793965932404
0.752715260743076
0.697897335062161
0.299498139434119
-0.441335014806172
-1.35472091909753
-2.33831546786654
-3.32869072661094
-4.31391441343742
-5.38401189747843
-6.49742543962769
-7.33591933336079
-7.62268778868221
-7.32001128612389
-6.38989590129388
-4.82677832673373
-3.07253446652012
-1.88327839773706
-1.59077909549331
-1.81780136845429
-1.94915606644552
-1.66433994005111
-1.09263770466511
-0.55545304873075
-0.0481609444186771
0.905508028781783
2.61102754898465
4.58547682728529
5.93837614703832
6.22668168920107
5.63915624536174
4.60756954117141
3.62867708739602
3.20754563923371
3.5403451165384
4.34908472263126
5.1639275257453
5.56202987978516
5.24001886564458
4.29136588123624
3.30641078507745
2.77596477856379
2.54835451458006
2.17015683939263
1.47689555126344
0.618767358739589
-0.173465017877984
-0.737587801715657
-1.21372057154378
-2.05551973251355
-3.42729890975287
-4.72676170949388
-5.07700185368125
-4.20545615509362
-2.69172639686336
-1.49281872143091
-1.12441493564236
-1.06048974915554
-0.219731938195843
1.66746308816598
3.63133702982766
4.71788274128288
5.09653846874877
5.51901639552767
6.19969028654018
6.66768225888494
6.41792342706381
5.41213804040271
4.08481675277029
2.95293372623041
2.16104543315162
1.52285181806801
1.01558877971478
0.847378811355921
0.940469972136268
0.872834210344793
0.483825757061875
-0.0328589212061967
-0.776524900760112
-2.31423406654456
-5.06873680641674
-8.88526194343126
-13.1293438346247
-16.9521674493177
-19.7069768349238
-21.3365220156422
-22.1255625981219
-22.0859395523869
-20.9656282783145
-18.7717294131049
-15.8423511674864
-12.4777328269126
-8.79422558637062
-4.72803639414169
0.0434673307165465
5.86385525341761
12.4906948464632
18.8122612056373
23.2231186149091
24.4091293789647
22.221657330483
17.9693207626357
13.5091135938506
9.93548901629483
7.34449503626289
5.55358857369481
4.4531529325716
3.80460980698261
3.32873731591547
3.02979659307065
3.03090938103655
3.1632094148433
3.06630102611833
2.58252414564101
1.82658981239636
1.076027287333
0.69558242802019
0.854638486921004
1.31053960754542
1.77917874291595
2.31963043463688
2.99121977160197
3.48052286591943
3.48758396695695
3.13145759559338
2.64501858307919
2.03301721017559
1.2594083877137
0.446066569336184
-0.234859129994797
-0.69105193189101
-1.06774644692155
-1.89371856947297
-3.69130106872667
-6.25111976985654
-8.67163087299564
-10.2083676829836
-10.7099128253871
-10.2743008350803
-8.92312473742942
-6.6579496029673
-3.67484035410278
-0.580048513189547
1.74743929359139
2.85082748274635
3.13048895366025
3.26146436801773
3.42268227321729
3.45240805296694
3.39487119536509
3.40700057909487
3.41821651190443
3.3074596134843
3.10785144389971
2.70119265914725
1.66971665430832
-0.315112165659744
-3.30834507078378
-7.25660504467803
-11.7774494002868
-15.8114441135938
-18.1043176043503
-18.1610653009431
-16.5232483438719
-14.2737775649249
-12.3591315243492
-11.005332101353
-9.59723294104124
-7.33751063103391
-3.98253327705632
0.255983635435831
5.2131179030579
10.7247773674396
16.1733108279758
20.3477090757045
21.873274825718
20.1152079430101
15.9611056514588
11.3817374592624
7.85546487020443
5.49013509262897
3.75287035733065
2.39713069384473
1.40696096285429
0.66469135630854
0.0665907864904971
-0.365719284733065
-0.656052999200883
-0.889620702284832
-1.05668970002294
-1.1472453596252
-1.30202098520582
-1.5991925164913
-1.84826307903096
-1.80569661123081
-1.36390468634923
-0.43438275524556
0.990013973983833
2.5932301389585
3.90368341125206
4.6669022291427
4.82225412622448
4.39666565722786
3.69241956432835
3.21341763823734
3.13329852732472
3.11529106283932
2.72719847274477
1.75609246503864
0.242233369879678
-1.46890766497436
-2.89486320609633
-3.85466534602439
-4.45595280840607
-4.62721880668434
-4.18302089014053
-3.35243859536907
-2.64537662643899
-2.18624297598666
-1.66853137878573
-0.887361591397483
0.0440850435732937
0.840947960359272
1.19210034233969
0.992550546607176
0.532069251123683
0.211027070053061
0.0815993924811951
-0.097443194603717
-0.480021963846582
-1.04858874110452
-1.69225114173777
-2.15465119118657
-2.27456270705878
-2.54437917373267
-3.96438375068156
-6.96030190302038
-10.7252092353518
-13.8033284861257
-15.1074233844861
-14.5016315375122
-12.7975775454285
-11.129092281459
-10.0704086304748
-9.3639778615246
-8.34892973529284
-6.32896682316417
-2.80335225748742
2.03648306826536
7.11378396888993
11.2306619439258
13.9283145694215
15.4029790383352
15.9967317705343
16.0458622426745
15.7910571290932
15.1690927917066
13.9637945354675
12.1742530525371
10.0015107787004
7.66963149367558
5.48834596164969
3.80214411322151
2.6898686880636
1.98448666561045
1.61751760518761
1.61761839867694
1.82852260750947
2.01072060883763
2.16671080431552
2.41684121225249
2.63558275244712
2.50627076504704
1.81844684614023
0.537548773364429
-1.18023393956398
-2.94739995757399
-4.43846497756514
-5.73501292917808
-7.08047281163874
-8.46909613944054
-9.79890282841869
-11.1106311795489
-12.3460017330305
-13.2459641581
-13.7255407105757
-13.885513144933
-13.4613522005622
-11.7559102546801
-8.3730819488664
-3.80609266618832
0.69892897026961
3.79128021298772
4.86240529301442
4.46601057210365
3.67208659308001
3.03132710713985
2.46954667457304
1.91549096474923
1.48230621638038
1.20407255983868
1.06496609667948
1.17263560002337
1.61629292761427
2.26845432813625
2.84271988932642
3.04185764748859
2.72338856529357
2.11609730228702
1.74915392332516
1.93528126961133
2.45464285098638
2.91811241195121
3.20270633222607
3.37419668439051
3.50976106269594
3.73889399599043
4.13915872956782
4.58753837062228
5.02016133807965
5.60354013861617
6.25156640837309
6.35013612859518
5.47130176107454
4.06484659596286
3.03770907148933
2.8543069418996
3.18857823197421
3.20276575278877
2.21861267977038
0.428566701544398
-1.1890864080548
-1.89802697403034
-1.87825426938836
-1.72199332894143
-1.68632825005515
-1.64493753687463
-1.4158118186801
-0.986765304921467
-0.58412338987595
-0.445545432049155
-0.467539313927441
-0.343953655716585
-0.0462739211158452
0.211599699402805
0.407307601503592
0.617529909761703
0.530633047797324
-0.454729504580272
-2.60252517645704
-5.62966109142142
-9.02429745010001
-12.2792032060044
-15.0010893731005
-17.0724137295726
-18.5146464778634
-19.1107960574654
-18.5518533480757
-17.0171915287375
-15.1756624757949
-13.5230611649538
-11.8996146691631
-9.47506584613735
-5.17126959104779
1.32604181308466
8.74029582184563
14.9025426789149
18.4621952644803
19.5612445991984
19.0320046661411
17.5820808828634
15.6735629689422
13.5826214934316
11.4611875180958
9.47839991650191
7.74552093489819
6.13434129696053
4.50065540778532
3.00153586655507
1.87382248554835
1.08762444495271
0.495228370318404
0.0783528472256806
-0.147542159075648
-0.22876466987017
-0.204800373854408
-0.186109480673695
-0.424113306447992
-0.991289098031866
-1.49720024739479
-1.45123555033036
-0.802583605693433
0.134483913290817
1.07959454215601
1.86217251914649
2.37318828126188
2.67031537744467
2.90042933788169
3.06608163686549
3.13805729851304
3.30065821734288
3.76176976124604
4.43413211196804
5.00996456571825
5.16505458343929
4.62284288070299
3.29817792811227
1.40474673377226
-0.760291867745384
-2.96719912496942
-4.87965673600834
-6.17065781354349
-7.00843995192234
-7.9194207495204
-8.98969606945715
-9.71089626602318
-9.68496219410328
-8.98618769991903
-7.90895509745009
-6.85048964309202
-6.25768375446462
-6.21140041296435
-6.21848296619432
-5.72328657615977
-4.63878208376537
-3.21104564991211
-1.60856059031562
0.185025257862358
2.16764812063651
3.99942827595137
4.86504402871321
3.9720322894422
1.44472317645136
-1.54398581452524
-3.76802118979741
-4.83522038561784
-5.07011389497523
-4.99899712183205
-5.01747237958673
-5.0812480416429
-4.64566105253892
-3.21755998772879
-0.895358891748551
1.78969815842235
4.30709299057579
6.33674602953216
7.93075155085275
9.48868947039532
11.1902799069583
12.5265685404424
12.75265433423
11.6632066852131
9.67565058491712
7.42838376192658
5.47811008561974
4.01987748182646
2.72964721700088
1.14123535872941
-0.83097191142237
-2.90485394841871
-4.69971282383468
-5.81946758666562
-6.06249094412585
-5.74960119511033
-5.47715644227689
-5.41025362054994
-5.13737271129937
-4.26094415010029
-2.8312756018204
-1.21064785777399
0.23130642460097
1.33909526736523
2.25871497509095
3.16607148279572
3.86806719614998
3.99862471384566
3.62382239434476
3.22432031286495
3.07606896702408
3.03929325524611
2.86019029915505
2.36177959180127
1.56746197613846
0.888831600527972
0.87883434410266
1.61669735722882
2.61056683819364
3.29139803605914
3.3251589511762
2.66873285553785
1.69005635511812
0.979736357026923
0.752281183326119
0.718959968601474
0.650741069839361
0.630089249370725
0.706224497794693
0.751573659856489
0.644054832597718
0.274353198140523
-0.452639631651495
-1.42183461918908
-2.4446712622588
-3.71928469852828
-5.72510978455528
-8.54990785281434
-11.723775617947
-14.7337037994597
-17.2682808994107
-18.9807977263885
-19.5028082760224
-18.7734286598064
-17.03353357195
-14.4865965280672
-11.1644041444499
-7.06017227154597
-2.3377623495989
2.47233430422503
6.65083277470312
9.93548004693086
12.7579301568603
15.5278502603036
17.9125896594447
19.0479643354029
18.2597969156269
15.6029282410552
12.0386162761967
8.97495603871933
7.21278289995088
6.39948551980561
5.70427766717864
4.70828519501896
3.46208033074845
2.18549734532166
1.19917195684051
0.729279912638396
0.572645701123769
0.243077311284078
-0.547567094944437
-1.74763232067243
-3.0796336005964
-4.11281110976781
-4.53624532337176
-4.50214256200003
-4.40883585582937
-4.34944753854359
-4.1020377730457
-3.57053679053412
-2.86928276094406
-2.07201855562555
-1.19698439026147
-0.295199636631031
0.692331418320709
1.90846304915251
3.19534202227797
4.07401317960378
4.30018930446755
4.12651641845582
3.943061770845
3.91584573820743
3.85585962664243
3.21097182298492
1.46041015070862
-1.28615280664998
-4.39169720142017
-7.4024887812908
-10.2206280698666
-12.6731788621599
-14.4534154498268
-15.4221752999055
-15.5739505535921
-14.9053715074414
-13.5932189678311
-11.9629326023591
-10.0829842600202
-7.73540802473016
-4.76128882185987
-1.03511076430987
3.61942146674078
8.88904842608993
13.6005745528033
16.4876305311058
17.2496481779298
16.6186481564229
15.6275861619228
14.9260164361417
14.4579200602708
13.6584854400723
12.1810159245877
10.4049814513989
9.02578703580995
8.33533441137987
8.17242129949184
8.29817282108185
8.48420236047959
8.47300701318852
8.11904818102284
7.42023772369512
6.39655303110252
5.12891519474026
3.75564687251526
2.21924462914727
0.262771765980973
-2.20289026306111
-5.05848405638746
-8.28672623071191
-11.8901149247381
-15.5766592449053
-18.950195997515
-21.8533221868981
-24.1794841546641
-25.629361355357
-25.9440336302038
-25.1159327012244
-23.357785911312
-21.2329167612963
-19.4966440869639
-18.1291084156416
-15.8852246037419
-11.6355781179331
-5.92571619036929
-0.522450794194658
3.36076442779775
5.85483416539915
7.72086877164598
9.40296218712266
10.8211219482137
11.8284465120542
12.6680427678743
13.8066574780131
15.3004814993955
16.5853381306458
17.0164658952551
16.3819894586337
14.8709381170955
12.917375801458
11.0872045170485
9.68273267785462
8.44999250335594
7.00414021086699
5.38800327282087
3.93841144195023
2.89883339686673
2.37809110629373
2.30563477998198
2.28228923639281
1.8710357502242
1.08362116045731
0.265671468486426
-0.342270921358309
-0.639557748044856
-0.603655684194476
-0.5005979754617
-0.756247921108843
-1.36606764621291
-1.83437765669504
-1.84322642439721
-1.62537427935691
-1.65833758638898
-2.23862835835424
-3.22048698034153
-4.03244504096754
-4.20177908705213
-3.89080564158361
-3.6017101431722
-3.45431770672149
-3.16347703937113
-2.60772640043443
-1.9969508880075
-1.58306610674764
-1.55364590934273
-2.05449127805668
-3.01617407691175
-4.12599013091295
-5.11647254224282
-5.81630334955469
-5.95238844962382
-5.37877910390971
-4.48307245639293
-3.90065909913012
-3.87939457810419
-4.2349570177505
-4.6737209634385
-4.84652350689111
-4.3782866450866
-3.11941353269606
-1.22036357242629
1.00677179820042
3.09230763372174
4.53285040587038
5.26344862164074
5.77616387439749
6.50567377220114
7.35769423958258
7.97306255051955
8.13022385740947
7.82324747764475
7.20627157865408
6.41872417037946
5.36815449263001
3.95260224484579
2.50853242165466
1.58051606613758
1.22976634414086
1.06005611947143
0.886708350515865
0.841032181686709
0.838004098086656
0.48452411633859
-0.411621784451517
-1.61953220173371
-2.78412342771626
-3.70061280041926
-4.4125308119647
-5.23524292532536
-6.48843216089692
-8.07534256937104
-9.51000494058832
-10.3123907898029
-10.1966812077117
-9.1637755892521
-7.70225360848184
-6.5328237688905
-5.82647423183556
-4.97359528478652
-3.30257664374843
-0.759026933405019
2.08889635534768
4.41751500549802
5.70171915198881
6.20089210288762
6.65586227636061
7.38249327042762
8.07498942960988
8.46723051701312
8.53745495698161
8.07207067693233
6.7245995463448
4.5713242924896
2.15894967381409
0.0977236454370198
-1.13260735361757
-1.30065952427546
-0.64448301410788
0.2729296173841
1.0662703153822
1.67209616942893
2.04841315155192
2.06943552813168
1.72332657678889
1.1617604276718
0.583142584022691
0.218602608454549
0.294167558107956
0.866074460718097
1.80197202011544
2.8709440482625
3.66244361289148
3.65375749951843
2.70437118402481
1.27660764422591
-0.0782035311992637
-1.18526745030207
-2.13382702271758
-3.12779080355011
-4.44721358228496
-6.077095489789
-7.43651620912479
-7.91765095807443
-7.54483805258392
-6.77990588586579
-6.00144470838402
-5.42575200059444
-5.04938148313139
-4.40887208954735
-2.88927162146405
-0.467139998409946
2.2329689113628
4.60830146398691
6.44922556950492
7.77405328181344
8.60777200859015
8.8403641221209
8.23896351496905
6.76472104280267
4.7819215637902
2.74000949622155
0.847713543558728
-0.749612636441672
-1.85651397341893
-2.60896914756203
-3.56504200517637
-5.03404435686291
-6.64796526886002
-7.86433677883149
-8.50988782535936
-8.65875819448756
-8.42093272705824
-7.98413709608605
-7.48735244202549
-6.81216199966282
-5.73111412971793
-4.14305448747325
-2.07091962981958
0.27278773184931
2.39485461772811
3.88134254780668
4.81460979920356
5.47313924143226
5.80128596988812
5.59231230037401
4.9946065963356
4.43875484699306
4.1621400979982
3.97892317255544
3.45565138614256
2.43640859550076
1.49490891750867
1.46638652499665
2.33506392280597
3.13678289355526
3.22325447490894
3.03387502538869
3.33238404227044
4.18782529799571
4.94102243986735
4.80140993886755
3.39129058644793
1.05015196904957
-1.33566641474506
-2.99337205717094
-3.68436721545215
-3.46725430949755
-2.48679539166408
-1.18014239465033
-0.198080875054045
0.17544939339459
0.261414589884081
0.617853441623669
1.6566911897933
3.37002854906407
5.11588971638615
5.99278629097678
5.71003940841152
4.78286081298972
3.78871192155052
2.86346106565703
1.93776097351291
0.9778570575929
-0.0682816128833288
-1.26878332420247
-2.70498777561836
-4.54770600636821
-6.83428967943393
-9.12654429520386
-10.7854749720619
-11.5972162926086
-11.7900610845193
-11.5728613078484
-10.9892984139448
-10.0484413424723
-8.79094925280862
-7.42792057276046
-6.37753159042893
-5.77055458519815
-4.98625422315463
-3.15727099550262
-0.172749024856552
3.13061785602546
5.71996587144403
7.08834187437477
7.4305776298668
7.3863069586022
7.48841895993388
7.75400608745082
7.95090556169381
8.06972004725956
8.1318528608279
7.78236227069734
6.62106999314357
4.784064845798
2.80608086351146
1.137605834523
0.0431229036909981
-0.380744838117608
-0.323137891983624
-0.141394328708223
-0.0735282669319775
-0.2354438140517
-0.675330028309402
-1.17567733376301
-1.30978723809716
-0.934030590093039
-0.312523527281861
0.31059956947125
0.835798258095941
1.04439525274218
0.722254064683917
0.0293188387595214
-0.638194239556951
-1.06722368481392
-1.2902510366797
-1.43483395979659
-1.65415818511108
-2.00618839580334
-2.37591083632709
-2.67770536373454
-2.99527251929849
-3.33085626112114
-3.45971995502024
-3.26271848943096
-2.90752454970349
-2.47865928016151
-1.79132964060012
-0.782122633716815
0.301184784794302
1.2259575575081
1.89457781941758
2.15185598238979
1.92688812313815
1.53606044648141
1.47934688709565
1.96442764418972
2.73928756388269
3.21593524583516
2.83177986629958
1.62574280246582
0.34505952245965
-0.312216202621005
-0.304840900098162
0.125010307773444
0.940605650113955
2.09076028087705
3.28626982250054
4.3263735107596
5.29096232484883
6.25848333082283
7.1170077652259
7.63043957545916
7.51488223668665
6.66998176726993
5.45843034033201
4.44556013063188
3.80184337175272
3.24850356809707
2.48484243907929
1.32081491996277
-0.428935938281485
-2.76156361097598
-5.31123518929134
-7.68732826131794
-9.86668193967286
-12.0423408473219
-14.2878899785055
-16.5066452945122
-18.4625384857005
-19.8170127715424
-20.3631595978619
-20.1069689340904
-18.9663165335564
-16.7953458598226
-13.9117505010479
-11.0046595670179
-8.21867485464457
-4.93106458855831
-0.729359468583301
3.93754713666804
8.29419840759791
11.9307883985796
14.7968730773566
16.8650838723412
17.9453582478798
17.7862228378436
16.4578593260574
14.5227782607334
12.5394995455338
10.5902269932889
8.63577783372858
7.00312782419017
6.09509261534534
5.8988440389808
6.06406358354893
6.17136344668971
5.8273981601037
4.88468392778524
3.65087989605304
2.59511749455982
1.8723035475523
1.32633096385058
0.780494495596355
0.133584927780616
-0.576416559379132
-1.04573472361278
-0.954188396870877
-0.420952861161186
0.15517890210362
0.651270347486287
1.15031373134502
1.46976624018715
1.2883979755685
0.600690951208604
-0.346318371233734
-1.35387297263304
-2.29625123529041
-3.16362262260409
-4.14297741881951
-5.28734400608045
-6.20271368445769
-6.47630628531715
-6.21746280431294
-5.80394349909135
-5.41582508146736
-5.1560065249989
-5.22315409124111
-5.63536094581937
-6.11802785606269
-6.45803724485096
-6.71581334035595
-7.06628040224815
-7.60481793519879
-8.21139742433775
-8.56437997545807
-8.49616781987052
-8.261702767554
-8.18742644115226
-8.19225101732685
-7.86019401403761
-6.70255875782326
-4.18427064488385
-0.0061028316806594
5.27035853854664
10.3080626715697
14.0466104381585
16.3097630863017
17.2666902028538
16.9410844399757
15.5261566787942
13.6247944927284
11.86001208136
10.4768559937677
9.29874697362096
7.86029280032205
5.77388465138522
3.16727839970914
0.586379557719086
-1.5335456996852
-3.06571953290384
-4.06823661522682
-4.8374187048204
-5.8425975174822
-7.20164746039516
-8.4081504892751
-8.83273133357731
-8.29228698588997
-7.0784281770583
-5.71509675495712
-4.61211632068822
-3.68478042053834
-2.53800308509763
-1.22043430468861
-0.36614027204077
-0.352085415598382
-0.742531438430563
-0.741218288213307
0.157997467287422
1.94583062515172
4.07335909227186
5.65952494834597
6.12632018424844
5.66188730150889
4.85344870615861
4.03081406967867
3.1922311157556
2.32196962032805
1.5320257397021
1.06786677129014
1.19781157293874
1.81972335625541
2.30060528741643
2.07580394751542
1.27359602124521
0.499556459473901
0.254376757836533
0.688477841701617
1.53544171396957
2.17872879923063
2.14519623719973
1.55136956308219
0.828452611509689
0.214847142528177
-0.269689683060339
-0.714113522589682
-1.3863915761908
-2.51860500974432
-3.91804719544266
-5.17489112926267
-6.19583891904483
-7.15806790073188
-8.13792106509457
-9.11767012829625
-10.0572610014429
-10.7065592510713
-10.7039895057111
-10.0262272219841
-8.98423182743366
-7.70594255246578
-5.97291001472012
-3.59150048114027
-0.624157345325814
2.71664437830431
6.12904973744612
9.21066063822366
11.5617466303246
12.8338857063745
12.7084978984664
11.1380783730587
8.62459244748222
5.95790501566031
3.72240216431504
2.22216996726781
1.54328857965126
1.39460448746602
1.24134035610458
0.845986788861064
0.387422582627241
0.0309869252819364
-0.226827194682389
-0.350153983312096
-0.274540449630366
-0.0060564264903384
0.511375351425927
1.34034292684285
2.22443136648182
2.71714159707348
2.70987577895632
2.44552326392511
2.09827597631103
1.74323969716203
1.54265327591107
1.59263755278142
1.80837786416839
2.14284087061388
2.56806804808875
2.74753525481569
2.15363311682116
0.627040728249569
-1.4790880238273
-3.70187921050404
-5.74746739030571
-7.46353855232288
-8.82832577558066
-9.92086694727078
-10.7376047940869
-11.124402829358
-10.8930201274445
-9.82223524851745
-7.7096743901105
-4.75407065673609
-1.67252929515109
0.884692509237331
2.75559630028913
3.93596139872298
4.35531371151523
4.21429441690769
4.01989265188789
4.0648983553789
4.21972164563178
4.2242545290605
3.90285433915351
3.29967886035423
2.80131391684755
2.73988014915007
2.77028413514317
2.1835662449926
0.881332471082751
-0.54359777257123
-1.61095632153114
-2.23338583372153
-2.38863619973267
-2.13224669684266
-1.79414201617442
-1.70038842370098
-1.76806379467595
-1.54286606366343
-0.543662366806194
1.31762219598142
3.40984588529218
4.64545664657714
4.37387082312071
2.91598981033427
1.12131861253557
-0.290624061457486
-0.896390982064085
-0.631286393973831
0.0783197562312234
0.674853930042276
1.08049975065592
1.58231139774809
2.20050928706367
2.59782788853813
2.49754581129826
1.90097814858076
1.10010756189572
0.59448562384904
0.665440359152139
1.02124200318305
1.21112315103328
1.23407627487607
1.34335908224093
1.51465133867485
1.54958866562581
1.46618578680911
1.43487161744322
1.51702635643897
1.61144095224366
1.46356982619659
0.794428011553303
-0.343444399843209
-1.51875349214237
-2.41672838708044
-3.12019697082928
-3.82271684035988
-4.61790310542664
-5.59320901608026
-6.7624417078985
-7.89288521292452
-8.64086165166576
-8.76507857665188
-8.09038965517791
-6.57797334519506
-4.62258682856817
-2.88714347723305
-1.58938982209975
-0.317388176140296
1.26632251238133
2.92078919007104
4.12135462170035
4.50881660792249
4.10218663095728
3.39870419992173
3.09872809569501
3.45126205581954
4.05141300004201
4.35006233271412
4.05895869903612
3.13685063433795
1.80779241332439
0.508300073518133
-0.537869747277863
-1.52202103676986
-2.58656846949759
-3.45035379451692
-3.66996880279036
-2.97258554473256
-1.35277620461217
0.75174595595148
2.48240677953394
3.17151501058776
2.83980824557252
1.93843012638
0.955854201230562
0.387339918863372
0.592230378749309
1.48055828977267
2.64122000665683
3.77458934847968
4.7376437418666
5.33890390588641
5.43395285849539
5.09607812014133
4.45624066529332
3.56618431068226
2.56848568579053
1.69653080163443
0.971275795208966
0.216428308906898
-0.59154819203758
-1.32395179910588
-1.97047547296069
-2.58056179624234
-3.09030311045765
-3.45572599067639
-3.73795102134959
-3.93696795345957
-4.00669099564505
-3.98971325586865
-3.82691692934796
-3.23863845274988
-2.16861432707832
-1.08896814742634
-0.540725444675925
-0.668529812005637
-1.3812808209706
-2.53486430201968
-3.81174487129594
-4.8452982402933
-5.54926972779355
-6.05586813847947
-6.44305120465792
-6.68474477243557
-6.59032838955731
-5.76398509726695
-4.07972211660647
-2.15675982386292
-0.769236798609691
0.232115050524158
1.83413788873236
4.6148568980336
7.98913252544417
10.7018367077309
11.7713608301294
11.0764919439497
9.36728061449343
7.67608541675644
6.57255380024194
6.01105490057247
5.68486197505871
5.19951858249614
4.14023723144007
2.42604064865126
0.49554062236588
-1.07016122532438
-1.89782361950228
-1.81412541269323
-0.962934306181149
0.0265990015948438
0.442777994416882
0.111690264690867
-0.623951301945799
-1.34848611534299
-1.77630426323774
-1.83507095119962
-1.75143867824983
-1.76464893567495
-1.7644329049479
-1.59123397331076
-1.53309595234105
-2.04472380998256
-3.12491082013211
-4.3518457344846
-5.34748821668223
-5.97284446551324
-6.30311326159423
-6.55289657409087
-6.85494906749266
-7.14537158128258
-7.38955473780084
-7.65850495408581
-7.74954507358205
-7.06779973468349
-5.23104684580875
-2.57028484922016
0.17756180659574
2.41187142782345
3.8591477451461
4.64400617005957
5.22789065611721
5.94355455559941
6.69983179255472
7.39117653737378
8.19466853713919
9.09592000498911
