0.0116821822402399
0.032828385032358
0.0129462677985335
-0.1502422280555
-0.422064368594879
-0.652275015737653
-0.747644967498139
-0.710469624691338
-0.58851067390509
-0.475485256156867
-0.461836357905348
-0.529289694543513
-0.579670291745635
-0.56245481987932
-0.497274337939817
-0.422043084545286
-0.376826551465278
-0.369583062034263
-0.345852328596854
-0.276445429263804
-0.232446493509621
-0.263190728612542
-0.275843403414966
-0.163518857060069
0.0429631624951667
0.279655662213
0.581009455533183
0.961969835411121
1.28391468173778
1.3748418689322
1.22183957794539
0.996337726028365
0.928490988465063
1.09664298327047
1.28798302652925
1.19546761488664
0.804982054100465
0.417874152317557
0.252465645568429
0.225624846357347
0.171789853142245
0.0804916830853587
0.0655571064487621
0.24667903779122
0.674002187949075
1.2477328534227
1.7295258651198
1.92206369896777
1.80010207467982
1.45457423266809
1.02716490632231
0.695074732327995
0.566959184808665
0.59283321023475
0.673378696498609
0.777489274298596
0.850330102511058
0.730385052790669
0.296556058406993
-0.367543729668577
-1.03474025529108
-1.51688536146103
-1.7858478185441
-1.98976660452039
-2.3446318783686
-2.95423023980973
-3.74449973186487
-4.52069428345747
-4.95140985846144
-4.59378420050517
-3.26098783594925
-1.41914153681222
0.0511634044824612
0.581039019490793
0.283038133690028
-0.328102059957355
-0.795545503870899
-0.959683651445693
-0.929896299052465
-0.871815447432375
-0.817479451866127
-0.710548702712152
-0.568736435543
-0.481714386992871
-0.480607465874348
-0.49998329680945
-0.409128723855824
-0.0275410890104254
0.7578538452605
1.81326676249025
2.8117831743182
3.48988521918269
3.7472246226864
3.57801817478476
3.08475745835623
2.49082446769554
1.98223330704305
1.58679842355704
1.26574044559926
1.00311094840989
0.767228630991516
0.531637573553258
0.364411762196504
0.356118336766795
0.453146375778652
0.493385116831754
0.389201002518543
0.166836140110046
-0.123878030113631
-0.44374726531961
-0.752800315847645
-0.997566243507541
-1.07153703482838
-0.853923706975793
-0.376285592927954
0.131576422432984
0.448682948216014
0.545786859713284
0.535007959651206
0.534020762575628
0.58160211784972
0.591650413718924
0.417521895767206
0.0450659905795946
-0.348516287396973
-0.610253103177023
-0.777014671313221
-0.943937636511455
-1.10519705540548
-1.20606497156013
-1.22105928154245
-1.13944304391151
-0.992602034307824
-0.876711725171557
-0.838498054236306
-0.802430099443869
-0.695288076370428
-0.548046974817449
-0.422296105440928
-0.341783606545487
-0.311250989414228
-0.295877089988962
-0.203564056884178
0.0060211878968306
0.238497505041415
0.376462602283294
0.399097209209692
0.332763880969522
0.202959430941568
0.0829881405518376
0.0541032764024586
0.0912425812716341
0.106160619661891
0.0761380070992681
0.0314218698163625
-0.0035103647049067
0.0254260907506834
0.185301945680148
0.444375911084463
0.684199369122265
0.838679791808849
0.91396935130853
0.899959188748604
0.786051766900238
0.623560533265828
0.459559979135441
0.266061991087844
0.0189738797262624
-0.24000397144563
-0.472745131430282
-0.661878075314404
-0.747704094169356
-0.691055705214482
-0.592135062839442
-0.613233179137435
-0.800560676716158
-1.05550248467411
-1.21266625787333
-1.10864414317679
-0.694700674194481
-0.139463932689063
0.266826520479434
0.341019527115978
0.111691232630361
-0.22469385835781
-0.378377501835416
-0.121979417490866
0.49313853323328
1.14357935221036
1.52618372455106
1.57166711337028
1.38324481670084
1.10457559625781
0.849893159518981
0.653996603357041
0.490054513967743
0.355804851529935
0.272444580656484
0.215241076354634
0.157066653391078
0.144425501589224
0.207833890447008
0.261163643431853
0.22245836090589
0.150266654069295
0.126491809418314
0.105166773112177
0.0010588203763464
-0.181504327765002
-0.393209190478969
-0.584919173950285
-0.67006521510799
-0.586844618699051
-0.407747182160348
-0.269591226198448
-0.230447733663766
-0.274927226937848
-0.374706534437843
-0.486163329045979
-0.58958893868328
-0.752651179613864
-1.04648486355911
-1.41110870452879
-1.70695832657821
-1.84012292805808
-1.72803279802972
-1.25367170757088
-0.415140688262838
0.545021418056522
1.27274709774945
1.5339337652342
1.33243994006854
0.906561118268007
0.568898139378288
0.438286638163934
0.380347289630689
0.258192613184886
0.111235808191631
0.0356548991743548
0.039507366999998
0.0788716000187654
0.128433186750367
0.194340081678499
0.333198622213386
0.61633234258073
1.00357926455534
1.34074011982442
1.53727823614897
1.60601751630211
1.48678828094753
1.02465303954261
0.191850522046092
-0.808933974970625
-1.67074830530535
-2.12021717700892
-2.03669777908134
-1.57883325575242
-1.10187185805392
-0.82969448924474
-0.673424824188418
-0.421612460945042
-0.0111794840818415
0.43623660347863
0.766630962177782
0.939746249722607
1.04077589306638
1.12880387479224
1.10139382339566
0.820563610519725
0.356039689067021
-0.051985022191711
-0.263069113852448
-0.319914445642389
-0.300076731803688
-0.233685373033217
-0.136558689574519
-0.0313377541639304
0.0260913550606967
-0.0637746959216342
-0.326740856522261
-0.600243600111499
-0.662220696898049
-0.472236000862443
-0.191300673235555
0.0022659363763182
0.0352741549532328
-0.054012528711686
-0.144555408710272
-0.118328615175489
0.0471415229939501
0.313062730809364
0.63771161854945
0.905406501595307
0.920717548956719
0.622046612015088
0.200934330092655
-0.100040457190055
-0.207038901048047
-0.192835922383887
-0.180502496039497
-0.295047480576772
-0.557130951806062
-0.799863361043053
-0.817795070973873
-0.598643213226478
-0.304869682506096
-0.0614957192156003
0.141448969824121
0.376381769567499
0.665757129158205
0.902781925840435
0.906522757139851
0.628936894255067
0.239531503772903
-0.0722661100121024
-0.272839725161697
-0.408340004213208
-0.50975223237602
-0.634412697710859
-0.840114888588698
-1.05982432035982
-1.14039372624882
-1.03981704867336
-0.87178360026382
-0.748272239389336
-0.66193134871925
-0.496944573695051
-0.116376896359288
0.474802230606237
1.03370117435552
1.26860319614283
1.1318483186197
0.824439085853691
0.569521578407289
0.48219623687715
0.55163645046853
0.637271368605938
0.578155326227671
0.369637772161552
0.144421385581402
-0.0049034409714989
-0.0608824578407103
0.0048990957382669
0.190616434473541
0.378230370447752
0.431811723552684
0.340952460609743
0.177225135595517
-0.0061792021664485
-0.166589866190929
-0.271268357986747
-0.343353502489964
-0.420912985840532
-0.500855025667913
-0.608262982117362
-0.827729649794634
-1.15439387063592
-1.39194839823573
-1.28248126201478
-0.703700172568135
0.22966678159354
1.15941060240225
1.64328758117995
1.48692778711553
0.91140946439353
0.302069839320779
-0.131668664145592
-0.368461986510933
-0.412254241147678
-0.279817696594892
-0.0595473597483155
0.133554419685092
0.229373500245296
0.225839092667268
0.189237510543175
0.187643893289256
0.188225753784683
0.0942066328197874
-0.101326264911955
-0.28374193997379
-0.334780079012688
-0.21223707636095
0.0447707551543768
0.318354725115001
0.479248217983028
0.506667301135911
0.469394599071502
0.386061989865806
0.235554202531297
0.0853591423055113
0.0290764463661878
0.0159437562252887
-0.080536775337674
-0.259643604633462
-0.395390686827179
-0.365583942673217
-0.0971651311879448
0.36929576179415
0.777635901355253
0.788950713739693
0.318635972849167
-0.368934630601307
-0.934123323956149
-1.22096101976727
-1.27179378408758
-1.2434308592912
-1.3146574948351
-1.56048331062314
-1.89809246408472
-2.15165025670673
-2.08836151608711
-1.44743284382522
-0.149537915656794
1.47031778515774
2.78493614557818
3.30554097858836
2.99598185896573
2.23577491941125
1.51868941261131
1.11085050370643
0.932577098775122
0.756818732110644
0.471189157968586
0.122633961806989
-0.187632381901508
-0.37256770668839
-0.415983408709874
-0.429824291987126
-0.55738635489457
-0.779265517938651
-0.920819977688895
-0.858306785794536
-0.623885010597186
-0.351605819239457
-0.19799994691318
-0.228057787353954
-0.322785763744662
-0.303440563040069
-0.157460867805107
-0.0222049188608867
0.0159517520828357
-0.0359038346621419
-0.165319493011454
-0.320758836231994
-0.359315184530139
-0.183459354938434
0.132782828999542
0.448328160062278
0.670645577534146
0.706490441106854
0.465292739778837
-0.0149266652567862
-0.56519117647954
-1.00892990689544
-1.19897526876805
-1.03839782833319
-0.604949010973599
-0.163382451938084
0.0655109656684462
0.0973359407036366
0.116577019532405
0.290218532673094
0.63405815061533
0.977171363034689
1.08524621003712
0.882900097337519
0.512617001478496
0.171682714080969
-0.0079355958060699
0.0396903346316545
0.259393081023717
0.455992287020511
0.498532841936169
0.47809762949811
0.521390552114436
0.571926843579222
0.503353378269401
0.316579491193871
0.0911784893093498
-0.144049164814378
-0.3914799692806
-0.617285721364073
-0.748611600292801
-0.688423099924238
-0.381322459401783
0.0486296770122393
0.309055426119144
0.205627341481413
-0.159406866047317
-0.509191527571661
-0.626325381984219
-0.468905698202087
-0.189827987476951
-0.0388927884506715
-0.135060592625895
-0.351051326433775
-0.466017730870033
-0.36753604538908
-0.109278631653598
0.121120717412258
0.122139178655505
-0.104850453738036
-0.303753333025138
-0.246010070048125
0.0127054437983725
0.262703217623111
0.401535633474883
0.44697101493175
0.427362583992805
0.374719825490207
0.318991552154224
0.241765799848371
0.133628836328077
0.0594894852301447
0.0482008300788414
-0.0091522272137988
-0.237940664156082
-0.627317602885178
-1.05042127231178
-1.34384803822504
-1.36658699813646
-1.111897640754
-0.767632189568402
-0.562620932356083
-0.570308971227211
-0.705132507836017
-0.789333724726797
-0.566536589803614
0.144380111501332
1.17484230809591
2.03695905693601
2.32943015899403
2.03743536202192
1.47131087837155
1.03074795616408
0.942995794171931
1.08898574213331
1.14181291630559
0.934043000796804
0.590072309283662
0.289042793160368
0.0594748420540432
-0.154034620487954
-0.362770343509697
-0.512853628353733
-0.509583804035961
-0.289390566716673
0.0563464192531861
0.297757418143095
0.281220480604573
0.0634993855439652
-0.185533950817197
-0.330243467529288
-0.343851757424902
-0.320506196058402
-0.36858694753498
-0.455565884909723
-0.452087111379898
-0.33800398887519
-0.235201163894146
-0.233717305430838
-0.316035784749802
-0.442458502778554
-0.582593444741406
-0.678320624944577
-0.692211495187827
-0.681217299261788
-0.748423172286891
-0.937896309400986
-1.16911972562425
-1.21137814358877
-0.81271363049915
-0.0143751898030278
0.739799961899313
0.980195404200725
0.655254858761963
0.124271223196277
-0.178473223010466
-0.0259205849345335
0.483362664953459
0.998968463177882
1.21251134807282
1.11083372918118
0.878443361011951
0.625219213111816
0.332095876811246
-0.0148401853616257
-0.372746350090339
-0.674576137227727
-0.849918935480171
-0.893967782282227
-0.92272108627884
-1.03894936650163
-1.15260209072565
-1.04919687473832
-0.619814407131922
0.0372832697484729
0.686303173468163
1.09670527944994
1.20119753433781
1.13363079902685
1.05556032799208
0.983890828442332
0.854699808942934
0.669532438519499
0.475464685348764
0.284204946088181
0.103595725711946
-0.0423865215724856
-0.187230291053568
-0.405817098754647
-0.687834526538291
-0.923527296848751
-1.00304645099015
-0.853708555664012
-0.450344037193661
0.130721658854831
0.733592378675517
1.22342245297534
1.49775166557193
1.46127874092466
1.12816990056074
0.694466551845018
0.369232720528197
0.181863616691451
0.0428649414185006
-0.112457022870273
-0.317951221272828
-0.569014866029984
-0.758943832942279
-0.778964718496433
-0.700000096925541
-0.687922407299187
-0.764018216006832
-0.816692484063403
-0.793908581926938
-0.731263747313816
-0.654788685231326
-0.576343183037935
-0.527935383956274
-0.526818245156357
-0.549122892743286
-0.548000492222621
-0.448305646612147
-0.17165199509282
0.246223488417459
0.618935557958375
0.780389317135951
0.743454571801308
0.642435891733816
0.590366042390416
0.610090168141761
0.636703572266572
0.6068920120526
0.575924032984119
0.650437747602236
0.785557671143596
0.800388053692127
0.623826032110878
0.372101845406051
0.176010987334442
0.0830538774865618
0.104811569222576
0.191357764754779
0.182279852446201
-0.0583275446168785
-0.472042802874061
-0.870203614411853
-1.11704628613329
-1.19179811488296
-1.15199361371061
-1.06971050767495
-0.943899066704985
-0.711750369574746
-0.393780018605133
-0.11908738451185
0.0460066392129445
0.158197872096161
0.250992671414172
0.282583728428756
0.256420168747976
0.245435677659179
0.278447777422506
0.323272773242289
0.369858455960515
0.426674408251695
0.474823612480313
0.505008871901371
0.5328350393953
0.534714139358367
0.464031162771352
0.336956604070295
0.198593080026606
0.0443675806331391
-0.120626994288336
-0.217073665242861
-0.178363603679554
-0.0280044845255178
0.168834021372705
0.334109017947909
0.347413580247215
0.0980146943994245
-0.406223814893232
-1.00832324252237
-1.42863589179062
-1.35043834123088
-0.689944677434429
0.150390205111357
0.530944479723226
0.209587232109098
-0.4274102413306
-0.815410662018441
-0.722450563628019
-0.321574440839029
0.0399784905168131
0.11933145200393
-0.0409206620083461
-0.189396082316483
-0.14355231985179
0.0673329082001452
0.313573088271212
0.492256117751047
0.544986318124104
0.476014422851792
0.364121995214361
0.280967559597611
0.232866781069325
0.223686891224456
0.270047534901385
0.315101920144354
0.265748014859365
0.140605806695883
0.0413167263254824
-0.0066598438187962
-0.044625025129979
-0.0605026988188732
-0.0104172846364271
0.0834172328130029
0.144121565869161
0.120333345619808
0.0495485296371055
0.0957054692947418
0.463535999882727
1.15213134657518
1.82795730656348
2.06583513150313
1.71696439930625
1.00283916036349
0.315850961650949
-0.05341754590228
-0.108105110645422
-0.106120794496691
-0.27225269347336
-0.592351262529069
-0.933946961187462
-1.2323416642991
-1.47158226370861
-1.61959867220385
-1.66682663607705
-1.62842732291044
-1.48603474155088
-1.23170888660233
-0.947069200835972
-0.71862618233383
-0.510697753757968
-0.234776969881012
0.102482967195283
0.402069399548948
0.556424725882788
0.503386177841251
0.303037174764944
0.147844179704096
0.171573456535724
0.287595536654278
0.299419904529858
0.0680900597979151
-0.451168453085681
-1.10767188470288
-1.43211824305665
-0.91313218963742
0.421121627936101
1.86248234247362
2.59841689658316
2.35734966386487
1.49262076067107
0.589502736021778
0.0331275540155605
-0.149177062349485
-0.112164404487705
0.0487240989233866
0.278583114893856
0.416680842661249
0.283088342055985
-0.108767930884534
-0.574393711397482
-0.944832760251525
-1.13749740953153
-1.14899228030775
-1.07026599368189
-1.00733576443352
-0.93190738169318
-0.708464631171146
-0.28654542559467
0.221359929822717
0.628091035922636
0.771486352868159
0.62186713308709
0.373875975408283
0.308583280397243
0.487152170243171
0.699780824660773
0.731249507471639
0.534775505131826
0.189196014763754
-0.133555277689883
-0.202375541338314
0.0924563754782721
0.580374313929766
0.909157870156706
0.82451820596845
0.401303575732579
0.03948089405122
0.129865849825045
0.630805584016488
1.0775209325943
1.08902392153829
0.725728172810436
0.280914473455488
-0.0770756476154578
-0.350370638219506
-0.59122449697998
-0.848724479854168
-1.12596033754794
-1.36038238704811
-1.51063630245688
-1.60301811770415
-1.63933676263978
-1.56356615295475
-1.35956581787042
-1.0747480022673
-0.746114245018898
-0.412388364556578
-0.159811368643443
-0.0325410285874053
0.051333334378089
0.188814628787506
0.373565616091319
0.565129836825993
0.75816120294941
0.921707657755727
1.006561499327
1.04890986120758
1.14144317291492
1.30985309442296
1.50815525533976
1.66500697597574
1.67311367175657
1.45107477803626
1.05397797800177
0.594052831995603
0.0639624491721896
-0.601724144370274
-1.31785152165873
-1.87017631963657
-2.11820761189349
-2.04135251135434
-1.65328515913204
-1.01737696165968
-0.297036192808767
0.299319709895395
0.582310406933235
0.426022099635542
-0.108559425901741
-0.724301991582313
-1.1072351685214
-1.17590432790012
-1.04776108251876
-0.851971659303118
-0.644437920689063
-0.418320551870994
-0.150147981572709
0.116411155046727
0.270272415375545
0.292055904050268
0.334978166484845
0.542292242507856
0.867184531532199
1.16632156373121
1.36831715845397
1.4776191362445
1.5320528493417
1.59927048893098
1.69868364392524
1.73291220591335
1.60050216745908
1.32071890886382
0.962455763555997
0.54720978576797
0.10100829491243
-0.288642827148096
-0.519820293022162
-0.531411236449698
-0.344598670103993
-0.107133152763086
-0.0043340675079489
-0.0541962552569889
-0.119613677825429
-0.184524997747947
-0.427247948058105
-0.932058489319663
-1.52250518700334
-1.96946514146793
-2.20734233669072
-2.30126586833069
-2.32977573237568
-2.31429026353773
-2.1995099407962
-1.94005779436546
-1.61049693382292
-1.32225686292037
-1.04069726908074
-0.633785242249272
-0.103806204035584
0.384750684337395
0.71909508131289
0.947891251442172
1.17689867051138
1.45202242787916
1.72862484780485
1.91626072631199
2.00408598633491
2.11849991451076
2.36176288905512
2.64841436004448
2.79535961786266
2.69021156963063
2.32298199970685
1.80241229568374
1.37759453615642
1.24525528114238
1.26959231450143
1.0640545175741
0.410532123623891
-0.528698583581302
-1.42359626969708
-2.06741307373288
-2.45664711202061
-2.70544534014608
-2.91332905142306
-3.08437603324313
-3.1620397720359
-3.07555092996227
-2.71332067855307
-1.99232522842332
-1.06037598052764
-0.286178793818118
0.0729426052379135
0.086559304932072
-0.0193150354510859
-0.108758751228011
-0.155817233699253
-0.134727814068502
0.0391148100955129
0.457402489023455
1.05590922005283
1.52282308907987
1.54367634466709
1.18101689284503
0.817918896030637
0.6819183647637
0.634296711989705
0.452763677384741
0.108189327200531
-0.235006354276438
-0.303608463236466
0.143783721242361
1.06554090127403
2.05487445122514
2.62725885371468
2.57421768344701
2.05574337854476
1.4749671949468
1.23425216599804
1.42210309906533
1.70277091000762
1.62460030471921
1.02108800809992
0.0551357769181455
-0.998903321559886
-1.90554216247791
-2.52796722749272
-2.86173449565369
-2.98029481953165
-2.95468631773831
-2.85605244904217
-2.73696247074213
-2.55599800054779
-2.2395223978525
-1.84523650489485
-1.52480826678455
-1.3228463155628
-1.1611477338398
-0.994998372800014
-0.824749196371006
-0.594788389429374
-0.243500499739093
0.192154779026387
0.650417157862313
1.14405195450938
1.6855554944502
2.21664704547495
2.67797563296147
3.04165795172697
3.2626152534563
3.3076741633052
3.20758749473133
2.99733865588425
2.67498039339866
2.2781325637503
1.89447385367045
1.54187612889863
1.14066899358147
0.637391962145348
0.0691263040845977
-0.489081444685521
-0.963544025355116
-1.3125695035359
-1.58065719091824
-1.84938788566495
-2.11062597309807
-2.3006887372304
-2.44445121983196
-2.61741804999417
-2.79527566855774
-2.87716744493837
-2.80983331815716
-2.60006637239869
-2.28768081863481
-1.9544202248175
-1.65624200982453
-1.34016324342562
-0.939440570097637
-0.507969004482433
-0.129590463848748
0.229426373411495
0.631902032545826
1.02801518107101
1.34163322506568
1.59401241051735
1.83522813640851
2.06953730184709
2.30484534359927
2.54362995363821
2.7096199313042
2.70865961203655
2.54636748107212
2.30066702815525
2.03584911965299
1.79527157727778
1.59380042444959
1.38514199565235
1.10877565582386
0.759121836934912
0.353617453231193
-0.0974405057296823
-0.529708407258325
-0.842905143010214
-1.03792265488251
-1.21513078690925
-1.4250780301148
-1.66983945578951
-2.0039865790971
-2.43664627107
-2.79676456071356
-2.8916894005795
-2.73214769641402
-2.45848216932365
-2.14932618488307
-1.81710380341822
-1.47707299969557
-1.12455671856086
-0.727447695115928
-0.284909191137957
0.17515841493885
0.64847381156826
1.13377006563728
1.59467732863574
1.99075799834458
2.28364964772175
2.40512799980281
2.32401623524493
2.12571270349596
1.91259852720328
1.68333216486254
1.40430162539611
1.08670740228057
0.714135087081204
0.249586247282192
-0.209570951566602
-0.435952317734643
-0.291800886641175
0.156119306274882
0.711591910649449
1.11794389575571
1.1317707895503
0.69498051539237
-0.000595713009516
-0.705479176321378
-1.28721571631881
-1.68910039575969
-1.88567374038332
-1.93669470240804
-1.94851271484572
-1.96241021325218
-1.97321945983897
-1.99980459543882
-2.03784036284845
-2.01108534329892
-1.84055149407722
-1.50803827409493
-1.05406292044018
-0.598990588253336
-0.327959620845856
-0.333953965963052
-0.489741938724484
-0.541606078490087
-0.27480860746923
0.420130474979056
1.47604709473153
2.59207075492417
3.42583825823102
3.89573701914909
4.16247487640355
4.3536903711924
4.46599745966679
4.46149816990531
4.28811416038137
3.85709620219087
3.11340306630224
2.08241898051577
0.82348538561848
-0.567538590616697
-1.91459050689543
-3.04128243230142
-3.89277827157429
-4.49652780632647
-4.86117447230558
-4.98903983821192
-4.87715918646399
-4.42711970163529
-3.50096287810888
-2.17700667898457
-0.860828515705786
-0.0647093391173608
-0.0605749024792908
-0.667459564573328
-1.34851619492867
-1.62864027809725
-1.4612872029597
-1.12057953537075
-0.8046182638446
-0.497901212421438
-0.141721199437069
0.28468861462665
0.83616221699208
1.55691567474295
2.35025775407635
3.02134236178342
3.44174331333704
3.61116446398404
3.62022032377257
3.58828329148353
3.56400223496125
3.48887649894601
3.31184141058345
3.07029606923521
2.80558579370087
2.50424126053797
2.16364802959579
1.79688444853825
1.3575206353128
0.78782407357234
0.138381171458469
-0.479564684181308
-1.03413050634577
-1.56574402504169
-2.10038651030084
-2.65185681894106
-3.23070224365277
-3.80458114982554
-4.33309665234466
-4.80895827992091
-5.14745614829924
-5.13483789636987
-4.6579028683915
-3.902013076764
-3.18467068360798
-2.67685376809972
-2.35903976169853
-2.11826514453289
-1.80909879539214
-1.32933060905715
-0.703843802132926
-0.045038707376409
0.559610422591184
1.07713819001072
1.52019899451344
1.97132763517546
2.52487781601287
3.15790650082125
3.75750809539252
4.2739812861719
4.72498983949687
5.08280113329052
5.27735088613545
5.25624140095052
4.96702461139854
4.38516120164225
3.61859007980113
2.86142959253407
2.19764677754381
1.55925281551123
0.884570724349635
0.198097353229286
-0.462292151848741
-1.08961313120089
-1.68947798799369
-2.2786544442788
-2.85658559038307
-3.36450051754547
-3.75826078698203
-4.08756028812956
-4.38314084126102
-4.54129092042787
-4.45995559624819
-4.19276053874483
-3.83933707620577
-3.39480932294428
-2.81968506983142
-2.15553746901151
-1.49116353517814
-0.895446768938924
-0.410309226580949
-0.0261204638083509
0.333684917446154
0.733259538570637
1.15992777117444
1.5723718120626
1.92850007518314
2.15357557976353
2.20561002722713
2.16762049297073
2.15062579099315
2.15321845679814
2.12673459213865
2.07660074776646
1.99567424315577
1.82385258657784
1.55963262373498
1.29219061445436
1.07845761015296
0.898519632999266
0.731999708561618
0.574172740175284
0.411359709225379
0.266925145661134
0.195874542532929
0.165659877833643
0.0616027857368077
-0.130644339228138
-0.287386792792381
-0.332095136938925
-0.32597654431254
-0.360665484530626
-0.458145402411116
-0.550574096051319
-0.511888031144464
-0.290153552052911
-0.0252356571898199
0.0836234095939297
0.0309355498281025
0.0013495577863446
0.131484367475405
0.400247989781687
0.708980863976408
0.927035526529594
0.90187776791799
0.555685619914816
-0.058055128591422
-0.847759933638686
-1.74293741866294
-2.63345257479326
-3.37669031876587
-3.89986244487518
-4.20823588825029
-4.28948261196598
-4.06099124953689
-3.41859264686297
-2.39310758740728
-1.30754948774254
-0.635359443423397
-0.542394491260606
-0.673266627938917
-0.536867055555341
0.0193858133296883
0.836108392949471
1.73606817154254
2.60188881560868
3.32591046774232
3.86672800737368
4.25843414606533
4.49097442471531
4.50823620765828
4.34418793086111
4.11153409544184
3.83590400430987
3.41791920551831
2.78274522819154
2.00927783824927
1.28650860644991
0.729760994519756
0.252281880648198
-0.310000725586276
-0.945015788342557
-1.46793186811683
-1.81402800408974
-2.15609035860148
-2.64777502694537
-3.21093352788975
-3.65532774223825
-3.86684259677784
-3.84400952967316
-3.68425573043535
-3.52635114889284
-3.40018455754624
-3.1928476068465
-2.83544054163634
-2.4100345024542
-2.00613309057432
-1.59326755124556
-1.09101994449526
-0.471491734811655
0.22456491187152
0.903722314678817
1.48396489635361
2.00252919435966
2.58376991577649
3.24071211004018
3.80956007457657
4.13460452125106
4.22723712492744
4.23410683887751
4.32237531806024
4.52914699446374
4.64603529646703
4.37359370522651
3.66790545577427
2.79104706928842
1.96803702678267
1.17053295719536
0.290845814640429
-0.655137121497648
-1.57355568517209
-2.41045558623338
-3.17459865850145
-3.91463945175645
-4.6515742958412
-5.26786951628773
-5.51824674416236
-5.20573279124733
-4.32358110171081
-3.08788171348317
-1.9156676535834
-1.23881101759033
-1.17089351933984
-1.42708303835162
-1.65359905217971
-1.71928185362306
-1.64872206045452
-1.45467202761508
-1.12599057430664
-0.66544036063551
-0.0897385262589586
0.542710857583913
1.12810076405096
1.60855466186937
2.01655683678954
2.39461297835055
2.76438254636757
3.16883001903778
3.59248098023891
3.86011611296607
3.79324838305116
3.44739156011027
3.04758599717521
2.73453803680278
2.47833588264351
2.16887621792875
1.72343376672553
1.18362577826851
0.723811310256348
0.472510322283628
0.342670397521694
0.134927966727261
-0.236191781844017
-0.711611071735082
-1.20345319595792
-1.64466941355885
-2.01378564814001
-2.38487377210445
-2.85143490621978
-3.35828468327933
-3.70986216064652
-3.75491886138845
-3.49421598582638
-3.05403250021994
-2.61117967797842
-2.2739134591828
-2.00036207482465
-1.68999880803903
-1.32518494598012
-0.942587415590829
-0.53030839710043
-0.0596215872634013
0.442177373970444
0.941775647246135
1.45268915499408
1.9732282255011
2.45643627859541
2.87219851373416
3.20230018921074
3.39086914083458
3.41309143050168
3.34348166580288
3.25141013509747
3.10551626339347
2.85745727068941
2.52133200418527
2.12505387964129
1.68654736255343
1.24754639776364
0.83229981897435
0.399587840312967
-0.0727195458985042
-0.517728011236572
-0.883704367935241
-1.22556851664157
-1.61959511302798
-2.08318941580684
-2.60815878675325
-3.14461435285519
-3.55585101668502
-3.7326275645959
-3.72178540676808
-3.62369719773571
-3.44603978548415
-3.16046116364701
-2.77748271186326
-2.26802967047206
-1.54938163224362
-0.649491303763435
0.217267897121742
0.808520439799484
1.03584554983003
1.00264075547201
0.930153500694401
1.00116163797819
1.21076687137997
1.42070352374439
1.55924780920821
1.65213439169852
1.68511565748192
1.6064662720498
1.46208150799047
1.39507971218974
1.52510464643967
1.88106127239275
2.3615266288982
2.71690249128018
2.69131942937192
2.23777890808224
1.52162445552189
0.734232310099569
0.0011366930651645
-0.582380416495098
-0.957658512098666
-1.12456153218879
-1.10230465071784
-0.947827145043244
-0.827828543266322
-0.92404478795913
-1.23748138652466
-1.61055919393182
-1.91835954054179
-2.1245891509611
-2.22805334353434
-2.27484197352884
-2.35331888478807
-2.50931810930464
-2.72879251624135
-2.9706225701148
-3.08672523552013
-2.78434110419806
-1.88354620988148
-0.598891529045758
0.624588244271373
1.54881471018999
2.2617904767201
2.89466467167977
3.39150731264043
3.59810975056674
3.50131137006662
3.30358538809098
3.19063611858307
3.06034951652391
2.64724623709869
1.93955140725599
1.2835279781288
1.01998222592787
1.17935629912539
1.55390541694663
1.89077935386557
1.99203461406635
1.79089615405442
1.36813267776157
0.820063156187209
0.171517408763027
-0.514585675911577
-1.08141236904902
-1.43556873028214
-1.63907960955739
-1.7875013213088
-1.91568958017032
-2.02522707469019
-2.08571988853872
-2.03934973509661
-1.88810705148621
-1.70931405775527
-1.53922555908267
-1.34178786797017
-1.11853693906405
-0.939323848970084
-0.845610004373158
-0.80891305699886
-0.777413196980125
-0.707643350861177
-0.595957381467267
-0.506042373329471
-0.478115128305307
-0.417168205639402
-0.204854366728895
0.105117184672546
0.363620134138882
0.564229628632085
0.852853521016143
1.31967677501902
1.86269644645097
2.22001049560344
2.13706066305183
1.59912593489496
0.890312394958139
0.332576007480682
0.0050652864977272
-0.209582617241815
-0.409034515672306
-0.611111330398472
-0.801208320982662
-0.932577298848488
-0.974795077373464
-1.01824750901453
-1.21871377766086
-1.62492839429614
-2.16582207823824
-2.75273592892865
-3.28127728891875
-3.63325233817265
-3.79123322127911
-3.84387348337169
-3.79965322730749
-3.51570567114692
-2.87129366925994
-1.92317661173318
-0.882691781428038
0.0017340773548792
0.616693436879892
1.11160800878128
1.72356291531645
2.40036512339437
2.78867873016837
2.69919247648158
2.38576905872898
2.25302339752832
2.44402710205798
2.78166880396474
2.98167839872441
2.87786419130935
2.52056504243925
2.08904995816961
1.72205493576142
1.47170045172562
1.37087794537151
1.43701568663885
1.62228953062398
1.84587761406474
2.05797485928798
2.22222652765892
2.29461759095146
2.26687164134316
2.16468459874556
2.0014647974063
1.82682819099641
1.77110044612705
1.90636701648642
2.12199984219203
2.25982717060533
2.2957111767888
2.30591446696974
2.36351420096619
2.52076008824671
2.76702650877367
2.96860133214092
2.96413762131207
2.7225271966454
2.30126884719535
1.68385439831784
0.785448996196237
-0.391900147715573
-1.68859450636926
-2.85056049881462
-3.65878837991028
-4.08202689199164
-4.2976818075135
-4.48646327868601
-4.66449079876427
-4.78968803314398
-4.91575245142612
-5.13644598549345
-5.46625577904088
-5.83348160344165
-6.11508185546933
-6.19340510010771
-6.08811138746662
-5.99663750052138
-6.08926584930181
-6.31197078509866
-6.48104234261707
-6.47588664107291
-6.24809456272225
-5.76864149784625
-5.06182926073278
-4.18267008289131
-3.12818925290976
-1.88961719589432
-0.564172563104415
0.718906375658824
1.92592220442332
3.05433372058606
4.02453401725439
4.74052392015552
5.1831902803592
5.38170266884097
5.37442982827222
5.23552388539731
5.06680746564526
4.94438258799554
4.90321035430442
4.92396170692889
4.9081637183994
4.76628676495153
4.55547222705526
4.40867864867479
4.32991525902547
4.19815046539789
3.9460366406038
3.60285546071771
3.21659515899607
2.84616065720563
2.55354915032094
2.31098295731512
1.98837523313224
1.48817031838992
0.831585750917057
0.115008362850846
-0.533683373050407
-0.982607629745247
-1.18362617691123
-1.22222362194006
-1.22987476852996
-1.29609827491233
-1.4733550110086
-1.75905178494754
-2.05946233071311
-2.26346259633402
-2.32766998081717
-2.23754389818991
-1.99142257145062
-1.67949831775647
-1.43760644800175
-1.27205943092473
-1.06781218963531
-0.780308790469723
-0.470327193124301
-0.168295633471734
0.136174259418449
0.405216683923003
0.615252270489089
0.871342529910451
1.31241940767277
1.9163953741657
2.46686856666984
2.68259227003517
2.40550799420981
1.76008047700314
1.09370597838075
0.673611414200101
0.498951389535441
0.444939941234201
0.452951678750774
0.505107654480513
0.531051972089773
0.421291129313479
0.0896561570372178
-0.4696071392101
-1.13477116600996
-1.72497660605845
-2.1846515554054
-2.61855432058682
-3.08720676296307
-3.49308810663125
-3.73046817758647
-3.81358787641573
-3.82239195028255
-3.85185135912648
-3.99196634138568
-4.20921554091093
-4.29184763626788
-4.05300831533291
-3.54877802283134
-3.00759571219953
-2.60455595787874
-2.36151131735453
-2.19844534772951
-2.03362006183311
-1.86294755882684
-1.72853777925694
-1.58804853789506
-1.29446493211505
-0.752146839788706
-0.0019643868980078
0.862953169526762
1.73458945656242
2.45357865565341
2.90274214198998
3.14251224115811
3.34001685504819
3.60217719624899
3.93681433021232
4.26399272246407
4.41019877980808
4.23394786221577
3.81668286455811
3.40849249460331
3.1596755861643
3.01304229415909
2.83885820578463
2.55838184259558
2.18287612997243
1.85078093437409
1.76157576815865
1.95681858016673
2.21621855121578
2.24057372029091
1.90382731888158
1.33015622994946
0.77718835543699
0.417970133151146
0.207965874323278
0.0029949826875155
-0.228342250418641
-0.400687585150724
-0.45968303248036
-0.404249494128202
-0.219659775629501
0.0674875675473462
0.314423356893086
0.375870683541873
0.254010746350369
0.047662107556586
-0.174194595754045
-0.380950424985388
-0.548670213440636
-0.659037298462372
-0.677589468537228
-0.594114692439089
-0.557641715436993
-0.837773435892452
-1.52656301438094
-2.38167361694663
-3.05078226340816
-3.35797396768878
-3.34701696715129
-3.18010173426208
-3.03376068298457
-2.9845518554666
-2.96286722871498
-2.87093608516658
-2.71861667695723
-2.60790521844109
-2.65074345692309
-2.89677962715635
-3.21351432667549
-3.26292845045532
-2.77897637737878
-1.88069806215453
-0.986848891097249
-0.441006347277238
-0.284476230492567
-0.30623362927278
-0.232415463654264
0.0742747518572251
0.559962046210487
1.13181844575659
1.78244719611824
2.48556847455733
3.08347331647411
3.41840541392816
3.503770417512
3.46398653759768
3.39608774003415
3.36219980940342
3.3985357754684
3.46316889018877
3.4647560483701
3.36295565759665
3.18408856100869
2.98474797172248
2.84416039580134
2.80888328394136
2.81995756065964
2.78928621508256
2.73497595490537
2.72943856494084
2.75413415026369
2.72670055553737
2.6058493056036
2.34468313781409
1.83895554737387
1.06759729510893
0.194688028680237
-0.591213340949804
-1.26137652325229
-1.90870990012766
-2.61544484777065
-3.38360141338835
-4.12665914617445
-4.74305582620654
-5.22550677378161
-5.63645339597217
-5.98396444495297
-6.23051872103603
-6.40943790027951
-6.60671103049594
-6.82815957195093
-6.96279583063379
-6.83265389585789
-6.24038491204923
-5.10746898076302
-3.64322058871574
-2.22198294539113
-1.02802172798325
0.0144699784634527
0.955172175968318
1.6947369272862
2.18588920484329
2.562091586621
3.01458655206298
3.62645775367655
4.29853059391533
4.78803340794647
4.90013057459769
4.69573306119471
4.44720923763923
4.37197602521289
4.46647213586259
4.57385573680578
4.53309950585115
4.28218079930225
3.87094425566308
3.35787322480949
2.72384775234762
1.96922178244469
1.2280517309461
0.6533464031667
0.259599149831822
-0.0049101895634001
-0.141173031092494
-0.168697126453635
-0.189838551819055
-0.290624153749636
-0.483934109288572
-0.787645330260295
-1.222468468465
-1.69096648127879
-1.97540039125758
-1.90894715734202
-1.52840155150349
-1.09900203405482
-0.988172501976559
-1.38469574064299
-2.09516854965477
-2.70905446038291
-2.94682787485417
-2.77064001981437
-2.29138655887476
-1.72181662224541
-1.27428591376948
-0.930438303368459
-0.428530479197604
0.392380539536632
1.34337117909391
2.05828711891102
2.30953937024792
2.11848129594562
1.67619075035436
1.201363008868
0.804794226095583
0.47957076819984
0.223582307627942
0.0749004239061898
0.0071996837741924
-0.0723039171608247
-0.191275092917217
-0.301224312832622
-0.393338209927203
-0.519435008943317
-0.727349525965592
-1.03422951362287
-1.39859621537926
-1.71053763303617
-1.90970326172609
-2.07948560969912
-2.29854727243106
-2.46942501372203
-2.44955807376645
-2.2710984934266
-2.0673496019756
-1.86323456445606
-1.58426505031474
-1.19155943089049
-0.708065929099234
-0.195279404106894
0.266770762886125
0.675367195646561
1.13987958315207
1.69889685205087
2.17826618565492
2.35661240628512
2.2066597972427
1.90739338505944
1.70593767741756
1.78272269878054
2.12551765429599
2.52029174439283
2.77432893577389
2.93016597241142
3.16736676141153
3.5630430711677
4.0460163090445
4.4900699338287
4.7669696037315
4.80689510080609
4.64286771512453
4.30384693694725
3.71915983097118
2.85776011760045
1.87315399196392
0.973642766156406
0.229137737412218
-0.408382106189284
-0.994543468517013
-1.57192793472518
-2.18504586688364
-2.88311185547432
-3.72911588311777
-4.74000449147705
-5.77302233132317
-6.58659511737281
-7.08951041944755
-7.42546808321362
-7.77362030651751
-8.18711320461379
-8.61964572613634
-8.94586773208722
-8.93977779954559
-8.35176180698472
-7.04210297638698
-5.0790223423604
-2.81214819321481
-0.787760561386446
0.616362673268018
1.49393758021312
2.23521863514888
3.11631168850777
4.17007536427981
5.28842639397124
6.230281727465
6.66097241490117
6.43120632452022
5.76984431310105
5.06675137262554
4.54361859356825
4.19606210689912
3.92437984547287
3.65519303585922
3.40698648494829
3.23681052508728
3.11086437434788
2.92810887732607
2.68381690244414
2.46286465433955
2.2541558424359
1.92871172396538
1.42344538636342
0.815013056370127
0.211660779144993
-0.319809215055681
-0.744627330793234
-1.05238346096474
-1.20452396353862
-1.07534301502958
-0.577403327777163
0.131960888102425
0.705325064444747
0.878148826848072
0.603140848583804
-0.0107226378335949
-0.766322489542499
-1.43583784344307
-1.85504497257198
-1.98074921565489
-1.88905442467579
-1.75928724411988
-1.78089551806853
-1.97372218026492
-2.13972724288307
-2.05284477675036
-1.64369767760279
-0.999266668305308
-0.313650157779722
0.15358536489751
0.230926723406936
-0.0282652397552253
-0.45515688856816
-0.934479986632419
-1.36275472313319
-1.59513844060031
-1.5998587869351
-1.55511810897075
-1.66161561329791
-1.91963686494996
-2.11714452719943
-1.95374471259446
-1.22913605248628
-0.0686436677309287
1.05988043025427
1.69222720197527
1.72283887773093
1.37141104524373
0.913436273637178
0.521114813013776
0.248705904515979
0.0810873671342815
0.0211085473864665
0.0917720237945896
0.223364239773731
0.26995472665333
0.203293875191359
0.142422592669799
0.136081029014058
0.0813724100878666
-0.0835215479982248
-0.255815311635079
-0.292968674517559
-0.164153677654707
0.0284333739524025
0.11183079550575
-0.0200461527408052
-0.270163706232555
-0.426330861894821
-0.407493013631175
-0.284448921422238
-0.0659598445912784
0.337371808054782
0.916865719923907
1.49412751069865
1.85753161161542
1.89396021897922
1.65069140556395
1.33389988006398
1.16708373760811
1.20425669333467
1.32909763579367
1.3970522064438
1.30249415398262
1.00420003640653
0.612168676087097
0.357030113401164
0.350500276280358
0.461356226242746
0.49775205992056
0.394543506116709
0.191494277776527
-0.0268544005226136
-0.156139418683762
-0.169313058712362
-0.182651438398004
-0.336547200974509
-0.642512945220567
-0.983818477645412
-1.20464735626176
-1.20560869655448
-1.04762457424343
-0.946892988192335
-1.07457378784139
-1.38806929360301
-1.71577263765246
-1.91676798185922
-1.89574102807825
-1.60480547997854
-1.13150267210802
-0.676107461770559
-0.384121411491049
-0.276740534800212
-0.310129010575438
-0.40712957847333
-0.497920815988522
-0.591459646290514
-0.700715458980358
-0.688463892132836
-0.36689216529247
0.219738237757065
0.788281304794775
1.12814186242115
1.2810153445718
1.40056070684236
1.55115410242248
1.65076135523961
1.55540155952047
1.23397982119946
0.859288268505237
0.638487961913491
0.590816897360531
0.604121890507977
0.620524764861354
0.624987180534684
0.562613071832236
0.413204763798277
0.247544359772602
0.114961117349341
-0.0131433086625515
-0.144934159405631
-0.250830694439653
-0.362061255871369
-0.539748300104461
-0.742963988043972
-0.866155988512904
-0.89776056671996
-0.932303154625993
-1.04985688912341
-1.23198125633817
-1.33688447281447
-1.18183788476351
-0.76669631045898
-0.344658412886212
-0.113333086793336
0.0692728661089535
0.475718591503415
1.0903735389317
1.5686740018694
1.58680973473535
1.1372765653273
0.506376083883636
0.0143747440999271
-0.227205113755066
-0.304731711323617
-0.290901185189093
-0.164245317711009
0.0463714182211388
0.205652195621929
0.22693436385085
0.148735821904012
0.0302522339258559
-0.0971775881442326
-0.18713629456289
-0.208878780879195
-0.186337892304403
-0.135032956674006
-0.0400650213429731
0.067571601505978
0.12578219248456
0.146573050265188
0.189372255062752
0.246804093255357
0.277485490743764
0.306854983459536
0.373919090756107
0.444395209452986
0.484880292898353
0.533479364182733
0.610494564875128
0.661574258153473
0.639228313739188
0.541577392810472
0.373864282691193
0.160948888895439
-0.0491433051149276
-0.248518227345887
-0.444344619534452
-0.562542474706196
-0.527213534800136
-0.438487323666308
-0.501621244334835
-0.774899667821814
-1.13722900006235
-1.47646422595155
-1.75119115384911
-1.89756689293042
-1.82701107293137
-1.52044027732122
-1.06693543351834
-0.636156697613436
-0.384263481497413
-0.296308823716322
-0.17475872112271
0.119230529235522
0.492036421436465
0.753436933176318
0.81117808001762
0.684080615699785
0.45873072062014
0.272931300277232
0.227715773080995
0.307829589090539
0.462505793333757
0.687536147756362
0.935866034592492
1.07986982565719
1.08736185583204
1.09574236276603
1.19647829572644
1.29240426386956
1.26086865878859
1.11954053161478
0.967660254795868
0.865495104877286
0.787517643900633
0.634149816484775
0.321593203542705
-0.113884494799549
-0.557700338605516
-0.944947953234248
-1.2650770532019
-1.48885111789399
-1.59637104030666
-1.62668319695205
-1.61306249351896
-1.54294334481986
-1.43308322307315
-1.31332242680713
-1.09437700565969
-0.630932588203978
0.0239709467933841
0.586889123746416
0.806916870792311
0.659549399805332
0.324360237041236
0.0787133287105445
0.136966116756288
0.47918578100946
0.876411824697465
1.12022282659414
1.1667220463853
1.07767613189425
0.938439146306088
0.833814765407277
0.80841428867624
0.851533587869101
0.947135235515014
1.06549858774032
1.1080213430006
0.996509312602682
0.808832941965836
0.679385324477881
0.607036970155351
0.502673181365431
0.343101484776868
0.14500208847512
-0.108758258134918
-0.40408714943928
-0.658514008161857
-0.821430778650519
-0.92213741117503
-1.00200335386916
-1.0921789488678
-1.23008596019373
-1.39576371509341
-1.48110424711257
-1.40503693748318
-1.18723889165684
-0.874242801992641
-0.517010687737441
-0.229134655003835
-0.113403039703241
-0.133705547653049
-0.182930796224657
-0.221593849541292
-0.244112465439068
-0.208523489093043
-0.105804703865805
-0.0070678858001333
0.030742733988884
0.0264382729786351
0.0183441240862032
0.0320618317475834
0.0965808535611007
0.205734040395959
0.292146148210843
0.309001593435425
0.279635294923159
0.221745611664288
0.114699862300277
-0.0324287540723282
-0.180025419846365
-0.319923707039632
-0.456010785835826
-0.573469880809581
-0.688375915833304
-0.84180921578615
-1.01185456197816
-1.14073672079562
-1.24799933724629
-1.38590825245066
-1.50631779742037
-1.51119171144146
-1.3932027187881
-1.19401639914551
-0.898577993483334
-0.509935982385889
-0.144524831298757
0.0713911318227933
0.127760598708664
0.0958978466588615
0.0629822422637275
0.115665762607462
0.287674787834626
0.523655426771462
0.747197175010711
0.924803661519643
1.05395485307349
1.16358032548828
1.30723871499051
1.46887960253716
1.52961777713571
1.43144960002513
1.30004984898771
1.29399860103717
1.41618653699019
1.57343258084151
1.72064372452939
1.86418701575463
2.02888650553136
2.26124228412004
2.5586442269802
2.81269187494684
2.93105953730074
2.95590046054983
2.97131082286899
2.99223634107289
3.02066269394144
3.094088520024
3.20239872177346
3.24010997943179
3.08151365619782
2.6655837888245
2.04996584432556
1.43075540381295
1.01784917646445
0.825655926898216
0.676612716478473
0.419583835827608
0.0119682125516457
-0.572320767355898
-1.32743341454873
-2.14601790830018
-2.92408588419158
-3.66210091927515
-4.34716783005745
-4.86929899413882
-5.17014278209656
-5.34193258450597
-5.49152255369278
-5.6259620519613
-5.72029380958401
-5.78672285285548
-5.8539400893489
-5.95646513572616
-6.11634492910394
-6.27445578959866
-6.30897612794038
-6.16199364900024
-5.85720348019541
-5.40018216570282
-4.78622969413307
-4.07646862664684
-3.34617536488628
-2.61254087308497
-1.89980082049785
-1.28481127869334
-0.812211088470101
-0.45071328802117
-0.135257793809776
0.259434783446385
0.933828265028412
1.96896375033851
3.12294105315935
3.9783813375754
4.3107717068561
4.24323282568718
4.0926475289418
4.1204222087172
4.35311072545143
4.60208945309073
4.708866135718
4.73335912077524
4.83670878381535
5.06791396381772
5.34366513408194
5.54120586221369
5.55216014755971
5.34349982578573
5.0046152920758
4.65833337528371
4.33528784421791
4.01103311995967
3.70819344072493
3.45856718553251
3.23123812782636
2.99882506799855
2.79933767315884
2.65958993427251
2.55005330894727
2.44854787874122
2.34031067599161
2.16398025730146
1.87253916048166
1.51639186506115
1.18614244595489
0.942481288015468
0.8453501686231
0.940281568229249
1.17786995192538
1.44938678878684
1.70336996567964
1.93119350220555
2.08924791383251
2.15163640461471
2.16031351074444
2.09869701902127
1.81483690095807
1.19854151854078
0.359076771123441
-0.445012421120703
-0.993362466482981
-1.24770859762841
-1.41121526959971
-1.80158127659399
-2.58648318325133
-3.70085356231149
-5.02898391034248
-6.52498382132611
-8.12945738300739
-9.72838197357581
-11.2528948032729
-12.7124894991238
-14.1001776606779
-15.3392035822148
-16.3112926386114
-16.8795961120918
-16.927544924891
-16.4204016032205
-15.3972896070736
-13.9448877742904
-12.2624924222318
-10.6713084819043
-9.43448542737941
-8.60237792157698
-8.0330001658003
-7.41744377937411
-6.32575701038404
-4.51323673835828
-2.2516054433408
-0.113185053253222
1.66818168617201
3.43645222969264
5.63858173155477
8.25260502489953
10.7532750901716
12.5719180221861
13.5681437986435
14.0712777936866
14.4666245543304
14.8227840356749
14.9810712425467
14.8539295195956
14.4952450223172
14.0182379191833
13.5846325104531
13.3597691224919
13.3870249004605
13.5989748359228
13.9633717131132
14.5111613954258
15.2526895560027
16.1627328194318
17.1597982929761
18.0034730148327
18.356192232502
18.061847590847
17.204196718274
15.8091821315128
13.7171789631555
10.8791306729711
7.61636866527541
4.50409401599558
2.05708199958162
0.412274247602358
-0.854292477654739
-2.49676849192111
-4.99478754845207
-8.18111159040173
-11.4943997540742
-14.4951062797083
-17.113805037132
-19.5350113909918
-21.9013722939684
-24.0741726654156
-25.6894642376118
-26.4773073585498
-26.4545747664085
-25.7938245770531
-24.637238180362
-23.0663769387551
-21.1221594821194
-18.8313317172255
-16.2920958849392
-13.6976418651904
-11.2230248921702
-8.96033450025786
-6.97497671371863
-5.30591249501045
-3.90571991487645
-2.70947697733201
-1.76183399837295
-1.15986733299046
-0.883147501554438
-0.76292467508125
-0.570354848156331
-0.090816974849527
0.772499250033775
1.91995812950826
3.19647284841418
4.57837770119879
6.03836009691565
7.31278223365575
8.10328706508207
8.526428628237
9.10701572867924
10.2234916540882
11.6739658164493
12.8848279773944
13.5404006120537
13.9203923593412
14.5055288727836
15.2821603331489
15.629935108941
14.9550312412547
13.2559082820693
11.0189617851812
8.79210014765535
6.93790308292494
5.53641455663999
4.36851350963624
3.13492577502898
1.76715636676883
0.450729594677078
-0.60794963816266
-1.34408797674946
-1.83897955408359
-2.22364121969849
-2.49671525520792
-2.44786722171613
-1.89746264182496
-0.995681822566622
-0.141694245751005
0.367346536040036
0.488236198838459
0.318633180579357
-0.00789351990303
-0.370028607756639
-0.727783079799798
-1.1116864905616
-1.50752686645354
-1.8139894051632
-1.90943750581262
-1.72409235970872
-1.32538219861801
-0.95331976538319
-0.822121268600512
-0.850668213233861
-0.756745432593596
-0.459482390501283
-0.228655738055054
-0.387170877976106
-0.979466410365801
-1.74861756975307
-2.35469813268916
-2.6371196732519
-2.72670541929074
-2.85917620475627
-3.07820454296818
-3.22844105182484
-3.20542196370234
-3.04756972630409
-2.82078043187329
-2.58925560046996
-2.46914524665689
-2.57161751262061
-2.9219703242383
-3.49738760589775
-4.27640467980118
-5.22734612518344
-6.32112506449256
-7.51742817791395
-8.64542001388827
-9.40636734984353
-9.65620747227784
-9.58488886102223
-9.45124487220486
-9.24231507658605
-8.72076465844508
-7.67946533802795
-6.07039304995851
-4.04725369787927
-1.92872550409659
0.0533954376481612
1.99534478049485
4.16586329260672
6.61098204131232
9.03137516798957
11.0537631630941
12.5454340313467
13.6201167391803
14.331989977766
14.462763092515
13.7989334025551
12.6044630180743
11.5103872923604
10.7915855112265
10.0223483239444
8.64920179554814
6.70179550701882
4.74827129128503
3.2805953892405
2.28228855609251
1.34534921374997
0.147750303482238
-1.20909087336481
-2.36903752739309
-3.14232148300642
-3.61133977169309
-3.89908959578782
-4.06554350993316
-4.20284736565827
-4.36844731860387
-4.37950647885921
-3.8920219997654
-2.77777719967168
-1.33553739075983
-0.111373699556123
0.46716059517956
0.35453831405952
-0.163134038290817
-0.79954951978805
-1.48069251450645
-2.18429651875235
-2.74554104861257
-2.9822836587132
-2.91908786967043
-2.78729583152731
-2.87827953698412
-3.39966830689767
-4.31663608466389
-5.29155667147011
-5.92225933473639
-6.10273955373221
-6.07042228624073
-6.07647830791201
-6.05984424089355
-5.64418225589059
-4.45730182323977
-2.49374151318836
-0.123085179191761
2.28377899805393
4.56526684712002
6.5077057134977
7.64239895279083
7.5946812751246
6.54183261090932
5.11592371718625
3.90633387161152
3.1742451325815
2.93087014674466
3.08103184842596
3.4510945029789
3.77088695546882
3.73434002418188
3.18550011226061
2.26723148519063
1.27002901785081
0.300316443493567
-0.751639004961405
-1.88461375056256
-2.82384220802698
-3.28238511268721
-3.29465199659414
-3.2427563954771
-3.53795560631433
-4.19361658976368
-4.72820368422766
-4.63595143082913
-3.94691911887583
-3.15467341213741
-2.60617700320874
-2.16917904888039
-1.5311307406534
-0.643576177071986
0.196007106992094
0.613886992475004
0.49559547175766
0.0886478302477927
-0.257751723952346
-0.43222170951166
-0.564877564877065
-0.763459042561016
-0.968301961114673
-1.00517557595032
-0.687502769378312
0.0498507458353926
1.05077570031009
2.05589994373167
2.94017807868655
3.7400625517204
4.47587232237634
5.08129144731903
5.4809946273864
5.61065226961919
5.40980843961126
4.92051805208625
4.32914739382055
3.80642514848372
3.38020326434426
3.01458576323761
2.69861068132244
2.42469435472897
2.18344733308236
1.98157757238825
1.81383531077062
1.69435067020903
1.75310191215094
2.15992169903194
2.88019705426622
3.61987389877398
4.06013286573938
4.06836024537321
3.72582854259175
3.29846922494667
3.13572675892846
3.40494755750162
3.8800407456457
4.05264482620151
3.44420124246233
1.86062275735904
-0.492644449382186
-3.10520044195378
-5.48169388513662
-7.41515190381444
-8.9645147246977
-10.2725009363544
-11.4372570910789
-12.4481871496812
-13.2229355357962
-13.7987024712924
-14.437796248456
-15.3850591385796
-16.5349237145442
-17.4717416463497
-17.8197938750344
-17.4707685826371
-16.5587931432016
-15.3322705912174
-13.9954917685283
-12.6083748394158
-11.1534521645362
-9.61803451686158
-7.90964584060357
-5.80632581141471
-3.15385502680143
-0.0723442069161808
3.11411724610799
6.11926245454833
8.86885286665402
11.5079113899664
14.2348257579205
17.1108443581389
20.0909597520683
23.1908708156436
26.4053423279443
29.4216401686298
31.6464680239021
32.5991435958279
32.1230778969192
30.2750539415738
27.2995922262771
23.7081946418633
20.1020831893478
16.8431595323722
13.9697839282831
11.3031434732522
8.50448546080392
5.20331646452748
1.29999826621041
-2.85632953295945
-6.64804853118888
-9.53959999985438
-11.3410556362707
-12.2858440711018
-12.8499567941243
-13.4062782294903
-14.0676925587401
-14.833859916076
-15.7132395514079
-16.6664446013723
-17.5939486236972
-18.3991076402981
-18.957897240194
-19.1202161937083
-18.8856014574325
-18.4652518600328
-18.0336575148744
-17.5180573457411
-16.6968844132451
-15.361504782127
-13.351419163233
-10.6454922312189
-7.53737933236452
-4.60161892672894
-2.36773573813015
-0.980956657291424
-0.110368347002591
0.804715014499281
2.08945213495268
3.5826756341476
4.91288908387516
5.93212904595397
6.76165836058809
7.55353821457825
8.37438300821754
9.21185588354748
9.96183527219013
10.496322203185
10.8023404878881
10.9529402062601
10.9433127895144
10.6926964347924
10.1933374595936
9.51973973848458
8.7190333003727
7.80636761699891
6.81344731709906
5.76368459657389
4.6843174584809
3.66467432503911
2.76919257229078
1.90168190633758
0.90889098731921
-0.198065370173634
-1.23649685812611
-2.01083566572353
-2.41519365439999
-2.48865706310144
-2.4341472260111
-2.48785107162759
-2.74813002780886
-3.2104868671839
-3.90345521433603
-4.84540716935728
-5.92304115946828
-6.94627522724706
-7.76458261188252
-8.24854590657095
-8.27177460337935
-7.80084947183487
-6.92301756943594
-5.7657029980181
-4.46340848857565
-3.16184282277388
-1.97374501441208
-0.972422680320868
-0.23048356220221
0.254832698715341
0.674164728550736
1.29373652251964
2.20519520272878
3.28023238229213
4.33102245367466
5.22048454559612
5.92671613297899
6.65395282126172
7.77539819752955
9.48404270860398
11.5282100233141
13.3811996499591
14.6548621891438
15.3590658507735
15.8096966348348
16.248769822338
16.5360271565638
16.2838966773964
15.2636506178841
13.5612678516897
11.4029319292387
8.99463307448973
6.47246339143028
3.84558600079651
1.04997315352403
-1.8152649169494
-4.42455428658952
-6.54624703055893
-8.31747955313385
-10.0902012989295
-12.1191236101831
-14.4511030651941
-16.9611220175616
-19.4293079232764
-21.6740282038563
-23.6136108278505
-25.1603826106706
-26.1489864862838
-26.4517799632771
-26.1148433747893
-25.3432653585191
-24.3445145093398
-23.0940637707033
-21.2226954148272
-18.306206332545
-14.3876119748576
-10.0939030092648
-6.16183617418187
-2.9630924888359
-0.448369360248431
1.71941481579245
4.00414165008459
6.66925114377567
9.48615237478169
11.8919640907978
13.438879385849
14.021158415144
13.8055337425248
13.1095053577865
12.2630890476047
11.4420858955723
10.6519742850252
9.89032408775542
9.23057145100637
8.74077097663659
8.44097619729889
8.35366034362612
8.49590483542716
8.82536833618655
9.26552314716243
9.76735372758486
10.3232606157314
10.9535332065285
11.6483129317117
12.2761287930004
12.6349247272513
12.6741158481874
12.5858180856734
12.6090206101735
12.8177319747861
13.1281661184848
13.3954558662211
13.4415627614769
13.0848742112174
12.2289164622957
10.9151318559215
9.29412748543656
7.55064802003864
5.77590797437823
3.87226505392847
1.66976565169491
-0.851379224806144
-3.55838724825841
-6.34810925999997
-9.19261780157214
-12.0488591570286
-14.842979916326
-17.4775879141226
-19.7769965555262
-21.5437945985172
-22.7555485464161
-23.6022546862594
-24.2769038415056
-24.8176208758387
-25.14769864954
-25.152745263828
-24.7336408049027
-23.8831033380326
-22.6729290309464
-21.1006214579352
-19.0147409919322
-16.2265124345205
-12.6457475405863
-8.38216531603473
-3.83165213905038
0.448333836542914
4.13864949907582
7.41478375281356
10.7256967671628
14.3772046955239
18.3305635071897
22.1993577533294
25.3047388749448
26.8991191692584
26.5941592961431
24.6559056324153
21.8534962312155
18.9961354901205
16.5516780901353
14.601868256544
13.072994487655
11.9187227751539
11.0363825828515
10.1228443632117
8.76199821565377
6.65188863803591
3.74199811647444
0.271214228066775
-3.29706148444848
-6.51531117748778
-9.17546349304333
-11.2340794176517
-12.6261286865027
-13.3600751522265
-13.735866464148
-14.1931713453063
-14.8548802667676
-15.3480664570153
-15.1340116537361
-13.994231568243
-12.2430630608713
-10.511004170727
-9.29368123046142
-8.68832454558147
-8.4821820889579
-8.30835434088855
-7.70547770381227
-6.29587564967819
-4.08679733080562
-1.53273973095418
0.729859754347461
2.20514169030744
2.82869626533832
3.17649568153174
4.17278899893164
6.20973252484237
8.62344206909349
10.3423014391857
10.967086819118
10.9442038400454
10.8165875397163
10.6572237283244
10.2532704836747
9.59269439135369
9.00622821430448
8.81622231632962
8.93217131652727
8.92621264711712
8.51119461857995
7.80457987454901
7.09885907151112
6.52205473310659
5.98187765059359
5.33312706018519
4.52962531286097
3.6313574716612
2.65286151542982
1.4331794631395
-0.208146294046695
-2.16664842696888
-4.07577271563305
-5.66761864361862
-6.94486248032987
-7.99792234306386
-8.84216430778355
-9.4459891023636
-9.77620295975766
-9.82426081774569
-9.67416345686707
-9.48060443475119
-9.27730185516768
-8.85880510253099
-7.98957951026655
-6.78936552955
-5.81498737783911
-5.54402884178748
-5.67775354175302
-5.18868072021478
-3.33060951583075
-0.440603849037546
2.56296460171425
5.25411701545566
7.82182822059984
10.2920616091322
12.1912515162307
13.0439438999955
12.8393207142397
11.9357338746065
10.7053461565579
9.27341932914891
7.4743446120827
5.06307515926675
2.00028223267148
-1.4661101695241
-4.86298538548576
-7.52807008085655
-8.81858576101533
-8.56426502293578
-7.18243490427466
-5.13720139775832
-2.50683636543347
0.657275595257761
3.80651178368749
6.12842077607395
7.25838490534016
7.48863859451812
7.23726610590201
6.48766576035628
4.87973060305829
2.31129840298097
-0.725673646755805
-3.51948927540719
-5.74063106292775
-7.52682075398584
-9.07551067886504
-10.377401352363
-11.3513068205938
-12.0592495333419
-12.7175471182579
-13.5370129359634
-14.5633255275135
-15.6873044170512
-16.7905532623997
-17.7345570841049
-18.1681861761538
-17.6033794650355
-15.8652143052489
-13.295859531019
-10.3634388188783
-7.21743300429468
-3.73300568677531
0.158860803327208
4.28072498919117
8.23979491703202
11.6059999433149
14.1459400212885
15.9051101247696
17.0625740415938
17.7864684687311
18.1981672630023
18.3017472480563
17.9704185487913
17.1891626158586
16.2446956406909
15.4763200674184
14.9390667401885
14.4904041811478
14.0409328701945
13.5020551228634
12.644797248099
11.2681339687876
9.47614068774344
7.65081815829111
6.15741677500258
5.08933725765234
4.22707277694117
3.2438851312418
2.01202271898848
0.679316816479078
-0.549828695800781
-1.55984772155262
-2.22957333302181
-2.40338703732425
-2.05757036867253
-1.38059536006765
-0.636208592721741
0.0067143127701965
0.522771740319406
0.901691276551891
0.906103651525609
0.0548105013307658
-1.94240204683964
-4.76473938644413
-7.70301381984341
-10.264924975546
-12.3539715960537
-13.9558940057297
-15.0051695510016
-15.6254844601612
-16.2211842099506
-17.1445911818349
-18.3193888804531
-19.2843181733756
-19.6549820395803
-19.5090696857948
-19.2129662215442
-18.8765904735337
-18.1324427514135
-16.4839989369506
-13.7432621239731
-10.143080892655
-6.20352279742655
-2.50418653875175
0.590820174774014
3.04650226908814
4.9418657306409
6.23247088297369
6.8797627728583
7.13975542487103
7.51998174424551
8.38332369743664
9.60064616618027
10.6027086295469
10.9054337640425
10.6970025196668
10.7557223628323
11.6227851169411
12.9811999775025
13.9794806260982
14.0396553079651
13.2939222852384
12.4395806624361
12.2600737893485
13.0802203446316
14.5027971211884
15.6657849598461
15.7894806106358
14.6082759075395
12.5217457673756
10.3638947668345
8.81290527067437
7.98573170413476
7.70688761756384
7.96852279772646
8.83665236483735
10.0628927905941
11.1074707245239
11.475710883266
10.841900932977
8.98783955819956
5.8470728264676
1.56997565552944
-3.52539733239406
-8.95520040084582
-14.0304244613939
-18.1057604900227
-21.0611411607338
-23.3916991235386
-25.6409123103186
-27.7925272969186
-29.3337667566641
-29.8772678139662
-29.5714822659303
-28.8581926359604
-28.0222334799063
-27.17547959951
-26.517149782778
-26.2542542466063
-26.2364042562997
-25.9087949978426
-24.6573020725834
-22.0859547583984
-18.0829630039719
-12.8113282817339
-6.55202700002679
0.503950683669229
8.05278393575633
15.2330855954246
20.8923414536905
24.5669016991996
26.7739432090142
28.1000673381188
28.4939808392908
27.7737685697588
26.3619743871766
25.0259801268842
24.0263847809928
22.8739970677147
20.9776928122984
18.3531451130351
15.5989528744002
13.2971368299495
11.5846521568482
10.199867574726
8.71257088563065
6.7877634445098
4.52295828493551
2.48001512851812
1.05908353320371
-0.107577353567758
-1.76931317251983
-4.08413064966059
-6.37435885827705
-7.82432374531708
-8.09292704482565
-7.23339851923434
-5.29281748112379
-2.11924182554852
2.44026211435383
8.12499103140567
14.1083269521148
19.3740927144264
23.1747569791223
25.0382730515698
24.6074359881842
21.8716489584276
17.4921568386996
12.5003622933722
7.56634252921257
2.75111386320586
-2.03204607848037
-6.54059844474244
-10.275788678237
-12.9687774409998
-14.9368222599997
-16.8880801490592
-19.3241821182227
-22.1611987846833
-24.9025011248137
-27.0714610262318
-28.5360294928824
-29.6067248194889
-30.7758123963175
-32.1090271001542
-32.8838112150531
-32.1102736082578
-29.5671720326438
-26.2068180567458
-23.3719839679183
-21.5376821067531
-19.86351905833
-17.1219732252883
-13.0694593993423
-8.66064174843494
-4.8450191633686
-1.50305548560495
2.21448228613696
6.80388322329366
11.9415393073545
16.8589599791086
20.8662917308483
23.6060000334616
25.1092855096906
25.7537530751907
26.0999981339019
26.6012901287654
27.3209679203344
27.9218396720201
27.9875148697306
27.2792741691653
25.6171305424524
22.751151195244
18.6292174064556
13.6660744524833
8.49468561051132
3.52731685675828
-1.1247218440552
-5.50092926601678
-9.69988297033046
-13.7217993584799
-17.2556894202758
-19.7657405746382
-20.8562987647221
-20.4854867886298
-18.9478267140893
-16.7777224695587
-14.3843527293084
-11.5024926264897
-7.34643490650912
-1.7325923994827
4.2547137627631
9.23204810930787
12.9611507921501
16.2988460248923
19.7446903824676
22.5447085143935
23.4793517094913
22.3003299997812
20.0557914216627
17.9664114062487
16.226355201749
14.0338905561318
10.5955383274245
5.90064117324654
0.657108068249968
-4.25854517270353
-8.26855331280803
-11.2182931576461
-13.2257542415281
-14.5283784079144
-15.4713087139543
-16.4461505839441
-17.6881739141109
-19.206745170655
-20.8944352802628
-22.4620542043972
-23.2935659456481
-22.7561785277075
-20.754429355634
-17.6706622506327
-13.7495174798997
-8.94398473417855
-3.43419685026725
2.13956226242111
7.16007547026113
11.4634339753687
15.1533443801731
18.2673376823532
20.7805668085773
22.6833799362122
23.8134932649046
23.7290715615229
22.0503461531285
19.0896734933332
15.9914869811722
13.8822278702535
12.6933937425858
11.0379934534481
7.52619410309285
2.1608601153448
-3.70636883734892
-8.63705908021821
-12.0650662572285
-14.1552957671259
-15.2045495493491
-15.4553889425868
-15.311798050601
-15.363777330905
-16.0057313371954
-17.1204412249596
-18.2613042457104
-19.0192242237408
-19.061965337094
-18.0718184839474
-16.0413653164897
-13.5220177826218
-11.1408369071943
-8.83268196384953
-5.90501359090575
-1.9611179364548
2.52116495571926
6.68970418829962
10.2028871874202
13.3496131909705
16.2886197948431
18.4930127376448
19.2434326669643
18.4873221759253
16.7911265757061
14.5627149959739
11.8839973757787
9.08400272390855
6.7546206259734
4.93777299815981
2.87978646093937
0.0484212859361822
-2.84767556311968
-4.2643778817052
-3.31203220277605
-0.659454644528643
2.16354810496372
4.22234531943389
5.67759086957574
6.88151263165285
7.43269051292368
6.46123440925845
3.6650624197832
-0.228331235758014
-3.92151835091308
-6.26644531149117
-6.74638439485193
-5.65322994587847
-3.89651123150238
-2.48539520756722
-2.03454822771284
-2.6223076396803
-4.01011438995847
-5.99038276961724
-8.52577770532817
-11.4984272289671
-14.3780617038408
-16.361492054537
-16.9942150230868
-16.5688210982994
-15.7665805211833
-14.9518579884927
-13.9819710258419
-12.7012222932923
-11.3414347459853
-10.1543259870397
-8.73319473116417
-6.11555406310605
-1.80346670982613
3.50471191374304
8.39469857834775
11.8328150596596
13.7445047327129
14.7964766487686
15.7869362581124
17.0377780902578
18.178869301964
18.5834028409635
18.0584449909664
17.0558779916188
16.2998928279994
16.3386033904415
17.3012008158518
18.8296531731108
20.2516709999828
20.9355797339134
20.4927260581198
18.8010651929734
16.1427175879595
13.2909254803314
11.1241447495878
10.0311726761277
9.75965238197317
9.75667170276762
9.58754643275582
9.17774970400445
8.73209983133085
8.34901538149632
7.81576259725689
6.93344152163712
5.82575614892622
4.62899737392055
3.06280708808196
0.663803231772855
-2.66607345345909
-6.67985197277463
-11.3308337171103
-17.0174629791865
-24.092342951759
-32.0578741981925
-39.3748027743873
-44.4325909620813
-46.9307109106654
-48.1290583604165
-49.5603623057658
-51.5937872184456
-53.2734909557806
-53.2821990270346
-50.9319304694672
-46.5184423805368
-41.0186255202053
-35.3743280946978
-29.9014533352262
-24.4058402255015
-18.8190618092612
-13.4395923176575
-8.37478506211872
-2.93425489751587
4.0542749472746
13.1004674189231
23.292368547223
32.8863690876121
40.6875271578881
46.7427508339407
51.775812739232
56.2028777615983
59.6871284275736
61.3649011539806
60.4079952774615
56.5841205432921
50.4717275751697
43.1610402043988
35.7249201620138
28.8721836639633
22.8510116085736
17.5154458103279
12.5835341691138
7.93731164721266
3.63325680077227
-0.307966075697368
-3.95122979641921
-7.36039478234483
-10.6466859074846
-14.0031688630656
-17.4966932164342
-20.9249655493013
-24.0454692233257
-26.8149333396309
-29.2035156487554
-30.8519999229405
-31.135093461268
-29.6653880222254
-26.6856634167703
-22.7928262078535
-18.1455171386448
-12.18810306762
-4.60820916612888
3.47383936114255
9.81963961841197
12.8412054657741
12.882932763973
11.7429722392634
11.1242761625215
11.4503295931388
11.874090161037
11.3335650394862
9.63597986993988
7.51797704606801
5.80014387479778
4.73776532270087
4.13845232407748
3.77600874152982
3.58790482593381
3.65708342962853
4.07033804244108
4.72688472126515
5.33942887648521
5.68438618262558
5.75313744013231
5.6027731214334
5.15191271911264
4.18904390512782
2.60926740627295
0.694045245008659
-0.920849358841025
-1.73762085672655
-1.85726947828877
-1.84983307638859
-2.30484816349798
-3.67450915339844
-6.27073848862205
-9.955624042853
-13.9015288960591
-17.0995027162773
-19.1945160504502
-20.5933476752549
-21.7921675847526
-22.8236274019856
-23.3079588830771
-22.8536772344282
-21.4252504793206
-19.3963711053639
-17.222761094038
-15.1067467048757
-13.047157462767
-11.0628040623712
-9.15036433221877
-7.10051362388767
-4.61128160356094
-1.63375759150414
1.5320781785783
4.51760628347176
7.15979288899033
9.42866303717155
11.1151107097538
11.7570171586655
11.1042609157689
9.6436659758287
8.35344634637844
7.80604555978248
7.76838207221334
7.83361219114929
8.16334281003402
9.30975913043011
11.4083276907887
13.8365531575003
15.7509497894623
16.8232972934892
17.3606752907599
17.8074344992678
18.2994165815999
18.6883986455077
18.7416370238749
18.136887818699
16.4604827224608
13.5388793486871
9.81408483412656
6.2356242781117
3.70082418169892
2.52517802952137
2.31290158412309
2.28733255941412
1.82663914859047
0.81001225852647
-0.373423632641699
-1.06574993104464
-0.81845519856445
0.0875667468308107
0.70489289452277
0.254955744075884
-1.20153605037278
-3.11063310197533
-5.15857525442422
-7.30081695425253
-9.33397695222543
-10.9841153498761
-12.3866335189774
-14.0058382059296
-15.9019032053743
-17.2838757525319
-17.0148610204129
-14.6952281009327
-11.2713953571096
-8.42539456406353
-7.19797002604513
-7.19472632640047
-7.11388738513455
-5.89932878909016
-3.38168651863083
-0.129153033309581
3.01049173102285
5.30332155266236
6.39555612256257
6.37051691146164
5.52121886687025
4.02961557097394
1.89684102898171
-0.791468342076607
-3.63169935691105
-6.10508621676315
-7.99489956762134
-9.37397582575536
-10.1748466497254
-10.1237660416588
-9.25808960990629
-8.19832927520238
-7.63146622348228
-7.6237382199541
-7.58463660234759
-6.84470040890184
-5.21623353378734
-3.0570427532235
-0.825500080286156
1.41552603115871
4.01776888958103
7.34699460604866
11.4665195076652
16.0189167899431
20.1306060274025
22.6401066762017
22.8884887076845
21.2552073557851
18.5784865537932
15.1781068039692
10.8490330187549
5.69491196675892
0.455265994736401
-4.10731551653877
-7.81557953728713
-10.9165940473314
-13.4923984077981
-15.2040445316172
-15.6317687755023
-14.7953559895199
-13.2327915017432
-11.5400058528152
-9.95302950303242
-8.41317309578714
-6.82405884643749
-5.07607566425916
-2.96551419309188
-0.343942988262429
2.58433984735949
5.24689721764253
7.18373428633287
8.63057631884155
10.4927052142039
13.5585194578723
17.7228435582686
21.9985262314128
25.156174684544
26.3433918874298
25.4395589589265
23.1202376569116
20.4266117489716
18.0374613544269
16.0329575546439
14.3359472356005
12.9450690130202
11.4697191268628
8.79585571814766
3.75272379736715
-3.70029904223864
-12.0697616599305
-19.2718078803248
-24.0747603800699
-26.6833341533759
-28.0939684674849
-29.1390145853843
-30.138961582408
-31.0544374123065
-31.6167508899777
-31.436388200322
-30.2554484379131
-28.0601792511278
-24.8704542557148
-20.6534472079944
-15.6553014916193
-10.6561256083959
-6.62561567749787
-3.97757688790533
-2.0476459712463
0.649137947642332
5.29378298736207
11.6044076117161
17.8681881638814
22.2512388138455
24.0492677728991
23.8089525352809
22.6616453863696
21.6922859062045
21.5339553255913
22.1027634430904
22.7076315604778
22.6191549861483
21.5298697721552
19.3433738074003
15.661011724022
9.91138362936731
2.2216004929625
-6.14673221814013
-13.6050944011464
-19.3065291958396
-23.0945611541113
-24.7468153383315
-23.9659154829812
-21.1629092943899
-17.6757694249944
-14.8579261005268
-13.0029101914787
-11.2235219000224
-8.39239728974654
-4.29734145589031
0.0842818018844305
3.5144797750652
5.64326056641688
7.16550564129471
9.05910926870527
11.8660920692559
15.3915192178842
18.6510754470322
20.2501380760415
19.2822720666245
15.9900705567552
11.4578513440375
6.75489952273662
2.49597800569132
-0.946925338975195
-3.17649379826252
-3.97785433894452
-3.81036240784568
-3.83667613745879
-5.10934980226919
-7.64925838940256
-10.5205829792602
-12.7631447814845
-13.9033009091097
-13.6151674521266
-11.5007811065365
-7.50031738467072
-2.16416606950622
3.69914554910292
9.38373031114457
14.2116513271756
17.4749870393573
18.7551893832685
18.2661007454672
16.8172270050703
15.4114845032782
14.6454359862784
14.220172503843
13.1179375692932
10.5879303886276
7.0638443998322
3.9080101974881
2.04676525216879
0.896149800309664
-1.09189644723319
-4.63503954359684
-8.58017966344374
-10.9540131669989
-10.9307088977502
-9.45322123400005
-8.0297813295394
-7.34290529689467
-7.17587257420592
-7.44013755353395
-8.89934390597971
-12.5693572496087
-18.3045916869144
-24.2362675551696
-28.0059326755212
-28.6867666925573
-27.3902330030734
-26.0020018374974
-25.4707368917903
-25.3328430169634
-24.6876608014125
-23.3323237086059
-21.7549086554429
-20.183338406622
-18.0663883163815
-14.6512868154718
-9.83931147359032
-4.35330632619697
0.769020194481557
4.83041910119297
7.88858947154442
10.6628235848239
13.9441246115164
18.040090556435
22.7373801425334
27.5596229174718
31.9203628936427
35.3280713175451
37.7758912260723
39.7526194716581
41.5548834935016
42.7458201619268
42.6172792569122
41.0859644220149
38.8202403350048
36.4817749839855
34.0620528406979
30.9728213202918
26.545809588941
20.3422968803584
12.2730095712524
2.82497113675942
-6.81926361973111
-15.244581448151
-21.5855094780132
-25.7936227031692
-28.2726305286455
-29.5910722907436
-30.4671622147742
-31.470595042959
-32.4919480064527
-32.8222775878534
-31.9325951754497
-29.9313736393983
-27.1586970422649
-23.6457261669298
-19.2602769089036
-14.2875644616281
-9.51854549754231
-5.53080042151347
-2.01007225928516
1.92150516302601
6.68729394665388
11.7840354045626
16.2681737240042
19.3684586859162
20.605646290476
19.7764891045751
17.1027057061073
13.1600168600898
8.44690959777337
3.17366736001308
-2.43933872503948
-7.89768184961859
-12.6600891692862
-16.5531609636644
-19.8285049993677
-22.7190931639542
-24.8572309661305
-25.1943636280172
-22.742797497922
-17.5796835080341
-11.1225492733931
-5.35261038058016
-1.60217017637701
0.217853759804106
1.40898051217646
3.40958634272888
6.7389508101103
10.8853897166152
15.0112689397721
18.5580853842122
21.3145992488523
23.2249626731428
24.2343076168661
24.3340440162016
23.8367538209706
23.4405508902352
23.6662525343683
24.2600568192908
24.4403446509393
23.5302948702079
20.8867667054357
15.541410125495
6.88176098388612
-4.07261407914
-14.7957226117194
-23.1099957933413
-28.6386359129313
-32.2792794838352
-34.6953828223305
-35.7394179476162
-35.1635873142006
-33.2944945278406
-30.6535675316297
-27.2453097097241
-22.8103924577191
-17.7219899138557
-12.9774968791664
-9.11554406091133
-5.65789372815773
-1.83496215695795
2.6102008969769
7.5694056344791
13.0158609269821
18.8718249096509
24.6684214914517
29.7254635044533
33.6451757374349
36.404823839593
37.9513019930605
37.9358268977399
36.0389916804044
32.4039528111056
27.3900503601531
20.9520021435726
12.8377892969605
3.65320536694012
-4.80726313728041
-10.8227602881793
-14.1919514060457
-16.1718259681025
-18.236680418236
-21.1279562414612
-24.7189355161186
-28.2447409136926
-30.6483533073274
-31.0866134695366
-29.3879972689322
-26.0904281409285
-21.9601999363932
-17.4029545558493
-12.4855788730242
-7.65974395876381
-4.07369564107348
-2.57129193292169
-2.46881257582826
-2.00911936917917
-0.244709437816821
2.04780225914939
3.61162496263174
4.38650040473238
5.43957284114047
7.44886854535565
9.85056247431246
11.5916270001051
12.234551376183
12.0776437970517
11.7180906756136
12.0216203948051
14.0754549401688
18.3090080541881
23.6359378135827
28.102492190012
30.5685402808005
31.4558505551684
31.8207362571346
31.8831741511895
30.3866529266044
25.2919308778139
15.3845301611271
1.61049191113827
-13.0535175664432
-25.1684513140025
-32.5577134015995
-35.0541624582678
-34.1306507497444
-31.8264589658935
-29.5535465229752
-27.5306115820036
-25.2041288231608
-22.1025654486362
-18.2813136415091
-14.164504828584
-10.2046089521401
-6.73020871704785
-3.89860438066584
-1.46650853349423
1.40228068759371
5.58213742310712
10.8097095505771
15.3805041076819
17.5721420233214
17.2561451511529
15.6718489248785
13.8538247544875
11.8919150479862
9.55328580637767
6.80052475847111
3.49235980267193
-0.802319116893843
-6.27192764406913
-12.3454816635066
-17.9597036496622
-22.30811827311
-25.2581343426436
-27.1218249465796
-28.1270781093366
-28.0556364967566
-26.2730025753124
-22.1817166175989
-15.8566491805207
-8.24662192083869
-0.583088761831125
6.34993660872118
12.1458810938892
16.2304829206978
18.0551282743759
17.9669137215679
17.2280995323761
16.7876182698079
16.5022723393017
15.9563972293544
15.6107379150687
16.5637678884241
19.2014196100652
22.3947887904374
24.1801600797836
23.3105941869692
20.2239320389436
16.4695565457947
13.2133556173724
10.4923299837198
7.90146349947535
5.53926998632221
3.93946008591148
3.33047094465509
3.31842312199624
3.19071431673019
2.28057275564412
0.17368200390268
-3.02161342559948
-6.39624819979699
-8.50173839262391
-8.41917944446247
-6.78566600406459
-5.43785550528909
-5.70470904757563
-7.18674597317319
-8.4662560992267
-8.82654748684197
-8.85467469418806
-9.34423608933863
-10.0705832916701
-10.0355784792126
-8.83003100426849
-7.36462418175848
-7.0712213833918
-8.61306563720866
-11.5530009249419
-14.9022638843074
-17.5610652172713
-18.6166040108648
-17.9926658278081
-16.7896288805252
-16.3729210286802
-17.0596001532894
-18.0084656568808
-18.1165919428986
-16.5738328733873
-12.979008485805
-7.70570064414593
-2.06614057779112
2.51597562147473
5.58572468924637
7.68112345404912
9.46437894932653
11.1159157016654
12.4184440830914
13.1164605926684
13.1673823465166
12.8013111585834
12.459727640815
12.6807089410224
13.89781073008
16.2066924886426
19.294943618089
22.4906860581842
24.7815013628155
25.1542346662304
23.5070017213713
21.1624382527785
19.8572624244336
20.080345168798
20.8335175367711
21.0774006619824
20.9678888551799
21.5621684980391
23.5802356270469
26.3915447156035
27.9150103551445
25.6671959016435
18.4133897858508
7.05302256760653
-6.04783253675744
-18.4392250816206
-28.3894322538405
-34.9987694150122
-38.3717625520923
-39.8847032867077
-41.6543170964623
-44.9839498836776
-49.2211317083132
-52.5267313528031
-53.8374225383853
-53.7037538209312
-53.1705966230152
-52.3459507808481
-50.2233419353484
-45.3812765650741
-36.6906043216565
-24.0786308561513
-9.20122965624468
4.99523928031195
15.9758281547193
22.9708750743529
26.6584453201508
27.9846227138288
27.7771356425388
27.2635721984141
28.0650670543106
30.979322947092
34.8936922483386
37.5331872600149
37.5847392895619
35.7848160642627
33.6703725061813
31.6426617217201
28.8252715451549
24.7832512470213
20.7594983241373
18.7083634365256
19.1557085941555
20.4707819542602
20.5539780210904
18.9353376449891
16.7104147247178
14.6261796616042
12.0289969976131
7.90232149074647
2.26377386788181
-3.91272230303341
-9.75942284278523
-15.044195123373
-19.8296207076614
-24.0013530830645
-27.2004050445251
-29.1266519447228
-29.886190783963
-30.0036717952084
-30.0617531222992
-30.3546609373327
-30.7964441860985
-30.9526324947589
-30.1392830460588
-27.6595889327774
-23.0444849226988
-16.1898726973203
-7.58332510994816
1.41433426005744
8.83236873993944
13.1856190835376
14.5184187950009
14.1676378336047
13.3577965786492
12.2067895336315
10.2518518047407
7.62638615049857
5.17663284314398
3.38770942658816
1.79371609873067
-0.164324261372493
-2.08453261272348
-2.89486965115462
-2.02842326863238
0.0598312920569758
2.37328678211258
4.00275088933177
4.50117059215814
4.24877864168317
4.5753178082857
6.95364833284286
11.5223792685332
16.4787030060333
19.389714006565
19.2986805049623
17.3059502051484
14.9415281475514
12.3506580029841
8.53403428104096
3.16884969184779
-2.43851648162699
-6.35304317585093
-7.56283928378262
-6.40877213085148
-3.84715923514622
-0.57080560096572
3.25666311718286
7.63777344412142
12.2559932149018
16.386260570848
19.2155578965208
20.2022306479291
19.3001772688134
17.0682705225183
14.4679877467372
12.2728229542864
10.6241654907017
9.16112890727021
7.29938201349441
4.2525332609812
-0.771280320039149
-7.93980740417246
-16.4923560505165
-25.357930193101
-33.9959969823097
-42.3847307700106
-50.211598520383
-56.4056226631949
-59.7973519876719
-60.2369599092337
-58.6998247836161
-56.0403668725707
-51.916885319123
-45.364552542292
-36.2923372000401
-25.8927067476275
-15.5275319950863
-5.73147880912643
3.46367989647112
11.6918397078238
18.2612716963893
22.9531747682072
26.3677918393946
29.2061519713234
31.3984408004155
32.2470471326592
31.3426520773773
29.0448832933788
26.145164831368
23.3980319314233
21.3455637375459
20.219700622757
19.8729002538179
19.9270033882932
19.9853291671456
19.6831856757139
18.8205288250137
17.6982736836615
17.0964714218199
17.5845775441411
18.8985051955251
20.1332860072254
20.4353009515825
19.4822674488085
17.6007405326836
15.6508379399035
14.6007814616514
14.836197729689
15.7121938422502
15.8902890248788
14.3480170625955
11.2046787487524
7.53463811979692
4.36022644174223
1.9690549513837
0.239285994919486
-0.739109416301391
-0.78041410373965
-0.273171984043161
-0.338359914353126
-2.06445885924632
-5.55991710423294
-9.8262107966879
-13.6350639206504
-16.5096429263625
-18.8083888516261
-21.0644882070087
-23.5475750931099
-26.3008553649763
-29.0820939523257
-31.2143012943202
-32.0149704779022
-31.6125520080368
-31.0097051945863
-31.1335740199223
-32.01570911794
-32.9537076029758
-33.2211180363939
-32.509303029997
-30.7818764263071
-27.7605405824939
-22.7004408186349
-15.0092548993795
-5.25423039929079
4.59212647978802
12.0642519100749
15.5494583830079
15.2040121557368
12.9461458238635
11.322087368045
11.7937173584171
13.9056525528182
16.2343968877552
18.0533486887994
19.7705317930865
21.7647751916252
23.2962635752084
23.0516623615017
20.6965988804525
17.3518706178016
14.2726419762686
11.4753580818621
8.06625448473155
3.55378931742384
-1.73650473880471
-7.31954239445605
-12.8728063299075
-17.7315409529495
-20.6482049035384
-20.5730796402473
-17.6274418745584
-13.0358291851763
-8.05936945201005
-3.13778892557219
1.93150526281474
7.27209903653977
12.6973335136093
18.0733294302166
23.4220737665959
28.4915053848202
32.614158735791
35.2387076324302
36.3274406147863
36.1225891158584
34.9078071110919
33.0859650872597
30.9460086084669
28.0537962603974
23.2649175464879
15.7011297124242
5.64453136630981
-5.54602940369804
-16.2070890392062
-25.116009530876
-31.8162389326216
-36.4084524762471
-39.0298080262574
-39.61398005674
-38.2741378377548
-35.8088208284399
-33.4515199940494
-31.8173179360463
-30.2295361557159
-27.4028308747996
-22.6898595985391
-16.363670845643
-9.03715244900296
-1.56179577109301
4.60819466159057
7.94983211588845
8.26997210157521
7.15991433011385
6.77044355432102
8.35535809458108
11.9038307713307
16.4896777974409
20.6167196065661
22.7349818520381
22.1021336107309
19.2504083933067
15.3410557952398
11.001939171121
6.04238910415957
0.392052471450644
-5.04221825813649
-8.82435862225118
-10.1790615792462
-9.46348057531254
-7.60376620116209
-5.40600610638338
-3.35910541644929
-1.74775656551282
-0.778273828750465
-0.587037985532087
-1.08920350846049
-1.92494751886238
-2.78548799464451
-3.64942623821967
-4.23731534590075
-3.32854809223581
0.559172584377824
7.33208865877446
14.624144491702
19.5477478866119
21.1306477450739
20.7551042829896
20.3166518785269
20.3210634885368
19.8188423656524
17.7779667974609
14.1191447437403
9.51527069023939
4.7084628068779
0.305740132537913
-3.1875205275531
-5.73877969509219
-8.10332405674489
-11.2163359555008
-15.1934050846316
-19.3310015458351
-23.1391219770785
-26.9319829412311
-31.1450982274588
-35.3029447251046
-38.0252324704029
-38.1740871488989
-35.8750670863161
-32.3212717574617
-28.6711226402537
-25.1852888115328
-21.2484554596146
-16.1151104943975
-9.84018032222312
-3.56676678152842
1.46719694088362
5.40968384462242
9.8508944692232
16.0535825235086
23.4478141147789
30.1176539572679
34.361688030844
35.5435937292097
33.9312103996068
30.1544550953503
24.6615294312326
17.591664944686
9.40521157926573
1.5208611099676
-4.24705900977578
-7.10399750574909
-7.81794900533898
-7.78193510600768
-7.89683330327665
-8.39991126868458
-9.15666015154904
-9.57362871587016
-8.44652997442193
-4.5832853949747
2.03268668891853
9.84741895801342
16.7642063189327
21.6110233206856
24.6214632714335
26.6850164106188
28.2909458394159
29.1657714401409
28.8965820069456
27.8565698070953
27.2598741769151
28.0741403086412
30.0341490642832
31.9511985409905
32.781557949821
32.0461062198617
29.3594007028668
24.0731728124676
15.6914207578655
4.66314486602067
-7.28365480354606
-17.8327837531218
-25.4965004310661
-30.4597738787778
-33.8650331685002
-36.3854087065412
-37.8771472791799
-38.4038622578405
-39.0683220535386
-41.4040568839058
-45.903638911458
-51.2479512500362
-55.0895624827045
-55.7336906376799
-53.1294144377335
-48.2263889299828
-41.5778982422397
-33.0100363713869
-22.7886776089381
-12.6148380646263
-4.81768092019299
-0.370495892930546
2.03551536018214
4.68629123588971
8.6493404287945
13.0424414288352
16.3769865871909
18.2035343938932
19.232885948848
20.1990119587266
21.061414248794
21.3310148753751
20.8713427254487
20.1512350823748
19.6590109758635
19.1891519900617
17.9541256823774
15.482404008748
12.1971562590197
9.00812435898943
6.54106913030694
4.8367183967742
3.54849276763276
2.33217990976274
1.23008616806336
0.699247563131858
1.10533117639335
2.29037938933135
3.89849836134592
6.00150430496698
8.91494970453125
12.1961126982574
14.2589526569868
13.5798938599999
10.3440680312013
6.44930993181572
3.67978510077366
2.24430891193217
1.37552727824449
0.898992107695238
1.53899537085975
3.7187669044319
6.68424594471489
9.14823145803907
10.6129661373632
11.7883197223231
13.5750678416753
15.6919435807639
16.6637955951243
15.4453956361376
12.6568316492532
9.62665572310859
6.56297835177328
2.60887329410005
-2.32383975424841
-6.84300999009176
-9.58499936475915
-10.6247908350368
-10.9034801061485
-10.9483323184702
-10.8004250062908
-10.7157682510538
-11.0916925545532
-11.6921518425986
-11.6064462243696
-10.2856453129345
-8.25748769211304
-6.49407944437036
-5.36331301871761
-4.56630800397443
-3.7728816112726
-2.7289634673846
-0.937077498114183
1.95296210004374
5.1745726038646
6.78578086022383
4.96734913924625
-0.699927627190911
-9.16948926490543
-18.692280154374
-27.4635730847008
-33.9294493509247
-37.1059906691557
-37.0056744275467
-34.6717018460091
-31.3623758883292
-27.4552161217331
-22.3851266926508
-15.9136942575573
-9.20163843770057
-4.07541555591928
-1.04368890907309
1.50087408255683
5.44646542434067
10.2714050635103
12.9404001458471
11.1556540609282
6.33917874234452
2.49737537382293
2.12485127945163
4.05519144308222
5.4313532000087
4.80505884091493
2.90228645497813
1.24506608729226
0.76367778989927
1.41417053663169
2.669311014989
4.43957450707603
7.51540857876286
12.8393055629959
20.3937540230213
29.0693345298153
37.376108998793
43.7840760023533
46.6501824697373
44.8303832405833
38.9243149557573
31.5111964499542
25.4876621063154
21.9142185819422
19.5908773134032
16.7797685371343
13.1029819340629
9.54469990569684
6.88076381488594
4.6824691819417
2.01676529792831
-1.26008835307571
-4.25441013269026
-6.08458871056142
-7.02545862340093
-8.38751797702463
-11.0227483552661
-13.9806306712069
-15.0400989765003
-12.9314432902077
-8.99352275778989
-6.32842762519026
-7.05293264883613
-10.3002135774781
-13.0279655606898
-12.9531452216652
-10.7758252685594
-9.53080935975917
-11.7166263255818
-16.9389698750435
-22.2506023714165
-24.761342932272
-23.883037589859
-21.1473600454097
-18.4019519419995
-16.7708288248809
-17.0196852189901
-19.7096404215805
-24.2906267533583
-28.6786012938885
-30.7083801884841
-30.0783890541713
-28.3451385605924
-26.9553868695962
-25.6809094593931
-23.0573444006296
-18.0692456580559
-11.2674894769848
-4.34136509804523
1.26597803695207
5.33625930124369
8.83022962609086
13.2345790000317
19.6441642634067
27.7184745439549
35.4034560555253
40.3075496342294
41.7113686568701
41.0327895154016
40.313554005847
40.5077204958003
41.0991608881049
40.8832784026457
38.9571947782605
35.2260204685739
30.2554969763541
24.8209579818258
19.6086849271815
15.06770071764
11.201932100423
7.46333701706861
3.02848657078998
-2.66198304936459
-9.46277657347336
-16.4062625579695
-21.9394945056973
-24.3856250984441
-22.5015477908717
-16.237797506328
-7.56239703805718
-0.275425951321017
2.09964171629021
-1.02998924515524
-6.98776336344243
-12.3369481318335
-15.44727845327
-16.822074141627
-17.9351330635585
-20.1367322805345
-23.8123855256239
-27.8380088892174
-30.1625487420442
-29.4691880180333
-26.2517312149226
-22.102772865202
-18.0875797960026
-13.9706161915278
-8.90027641733493
-2.57782299876893
4.37880542511589
11.0979116162443
17.1972428506317
22.6775005970066
27.1191728604007
29.2618543380918
27.8383079140448
23.1420614360449
17.4730054608008
13.3774031866381
11.3559388822491
9.81752969153611
7.30564966852879
4.03265386681751
0.957190980094492
-1.85120730776616
-5.20747757212842
-9.49335916260226
-14.0033194747775
-17.6164236031529
-19.7058950981236
-20.2685921203768
-19.4147989638972
-17.033664709764
-13.111998571105
-8.24447329878717
-3.47789853751987
0.491678965386629
3.77891462406187
6.85228097716747
9.71553781680501
11.6179527024096
11.6341010720769
9.62745073848735
6.52605466055016
3.37713445161403
0.239784363308059
-3.53796809861161
-7.92873612598363
-11.6417912789746
-13.1583927553882
-12.0308165745584
-9.06197695550831
-5.60836683471449
-2.83282853292065
-1.12510021187856
0.176004761731142
2.3029749865503
5.95791963612265
10.6909376639965
15.4814760897229
19.7310328872825
23.364516033528
26.0628748066484
26.9567046864125
25.4895410464447
22.4340623224696
19.6637102041322
18.8296058066658
20.4014759894708
23.8638199345212
28.3982708520114
33.1283865320307
36.8513666867648
37.8851699185677
34.7010006015583
27.2084471077654
17.3516895945633
7.88437691321451
0.309508536987845
-5.87629176867358
-12.2127175363301
-20.0989310259846
-30.3446473781267
-42.9117135105071
-56.5228939404458
-68.8461999569569
-77.664098026472
-82.1377088726138
-82.9149350879903
-81.0149293952208
-76.7893992515288
-70.0710126923178
-60.9328024998023
-49.7121722741824
-36.504215163771
-21.5518386147556
-6.23360410723194
7.44207434412726
18.889183007383
29.6087814170842
41.037327593841
52.2956654130156
60.8226200091577
64.8984322410083
64.8277847915379
61.723703143279
55.7932127991855
46.2264214140957
32.748660852165
17.0492701507921
2.36589081440017
-8.57492133122754
-15.2715617432271
-19.1964294786649
-22.0325548181693
-24.275505637815
-25.4218458752148
-25.0949002566231
-23.5505891047479
-21.0957747884232
-17.4660329660716
-12.0868319794957
-4.83174766012151
3.66116344515937
12.4160239174981
20.8168158586221
28.8776302313623
36.7527205962294
43.9313515216042
49.058050326013
50.7744045190703
48.8520898897264
44.5293706833863
39.7268911160294
35.748288740562
32.4562498167908
28.6507900249556
23.3737872449472
16.820368701764
9.94287535726824
3.45799610279806
-2.47079042491733
-7.8048857534181
-12.321111422684
-15.7664497929221
-18.1092667440222
-19.6286336653386
-20.909501493829
-22.821237234386
-26.4330228508766
-32.6228077812822
-41.1815596302811
-50.0674429882082
-56.1417657484652
-57.4198026751822
-54.6918555428096
-50.6086126856443
-47.1216230607924
-43.9673905074947
-39.6453152062063
-33.6802120794613
-27.5569062317849
-23.0662883504099
-19.9154733618592
-15.6934562011251
-8.47328664819048
1.10634347964617
10.6623510811066
18.4109539946618
24.2499265964306
28.9143975822998
32.5949339899961
34.4466384186085
33.4787713696793
30.1307636305813
26.8824071752733
26.7832399903689
30.8076273647935
36.4033603409822
38.937293619164
35.2622615477201
26.271983029541
15.8358357474212
7.26147920562063
1.18090998411421
-3.29646940964236
-6.42625890326817
-7.50867494907223
-6.18568397527123
-3.22259752312788
0.0748932622081212
2.83089364807514
4.91139269836267
6.54489207707351
7.8610085656672
8.77560581708399
9.08055303413235
8.4776655998289
6.73006263881484
4.08304594933107
1.44957944634384
-0.13725480822965
-0.34228614447283
0.260561397230889
0.712020204034012
0.341107913256044
-0.91264122621224
-2.70015108972441
-4.8790142498029
-7.96944989408374
-12.727653270248
-18.9872786458398
-24.9990343748364
-28.2761695956251
-27.4704714592609
-23.6071489328608
-19.377477817548
-16.9731838724957
-16.4625806034511
-16.1937128264013
-14.5944237578909
-11.4172416468585
-7.3335668753835
-2.67668903807094
3.00726270734646
9.97979240655973
17.1281855856214
22.3301662952155
24.3710159064068
24.2685732148724
24.2179928550864
25.1966525750169
25.9725832627596
24.5202780876804
20.0423377225197
13.4474746074071
6.15822759355436
-1.18182880762965
-8.75033716760735
-16.5230592369979
-23.5491534945413
-28.4682932930974
-30.6805389868774
-30.7437849734998
-29.4695234538247
-26.8414780319436
-22.2641883971742
-15.9307850166925
-9.24839878651106
-3.23918408854983
2.99671837164739
11.0549915219548
20.3536940202138
27.6317053985062
29.8741161561368
26.975171327041
21.0843040137542
14.2917043030407
7.85820818889465
3.0632183031294
1.35253166056124
3.02414799810829
6.25740974742542
8.07995554109779
6.42972036636447
1.28342344234962
-5.77577731602052
-12.5495843074855
-17.0147055368915
-18.0398567561249
-15.8702970540798
-11.7279010847369
-6.75784605217651
-1.53388510026296
3.49709759079734
7.62810697777283
10.2524892438026
11.4380858597254
11.9825057438319
12.871842477373
14.5790785731337
16.8398511303539
19.1233101201417
21.062988135025
22.1776013271122
21.6183185229312
18.8906120438522
14.603316548005
9.67651340747533
3.91379654322819
-3.60246072193434
-12.4628197654977
-20.3168091579752
-25.0458905632632
-27.0773935556364
-28.8186462533657
-31.8751005953556
-35.4537367468164
-37.7411653415318
-38.24546977154
-38.0308641896846
-37.8565611983319
-37.0716083950275
-34.6693704637004
-30.6388679316894
-25.6576076544645
-19.893452085891
-12.7550160436009
-3.71619851095497
7.02806346550888
18.633332062117
29.9056928072638
39.4242931832653
45.7327876501298
47.9587564664272
46.6131027403816
43.7291711691419
41.8228238067291
42.2509429050245
44.2254172556324
45.336880671254
43.3600429376327
38.0067562176494
31.0163424998641
24.3165322726532
18.0787237487972
10.8518261405827
1.66544692771547
-8.40622986216721
-17.1169379603745
-23.2700950836954
-27.6571923337382
-31.8194742044832
-36.3300854234081
-40.5385997291025
-43.6022843874979
-45.0337587836221
-44.0920032000296
-39.4888038924476
-30.5612382031151
-18.5219449686763
-5.85147179888949
5.49396677178136
14.7976807303162
21.8139171670498
26.0998880355873
27.1948616174537
24.8500149591696
18.9010212693786
9.36229376005285
-3.06201069172539
-16.66832536716
-29.1068754099005
-38.215395282761
-42.7726561256945
-42.6260541999191
-38.2495591646463
-30.4656564191678
-20.6264839239916
-10.4994656722449
-1.39121827176392
6.53917563269585
13.7800355712349
20.5094025254278
26.5940573957632
32.2948279412471
38.1613997722693
43.9868517603037
48.4507481582103
50.1696862007049
48.722040772121
44.3387814695606
37.1276973419888
27.3588783077379
16.3684431408851
6.24100696797976
-1.91659190245104
-8.97273194658206
-16.5732735616044
-25.1211390541154
-33.2572284680659
-39.1146292099954
-41.6407100183765
-40.766863380991
-36.8842458959682
-30.6030252459756
-22.9009727396701
-15.0344139671751
-7.98819318650541
-2.09353837557914
2.66093589632987
6.16579662722723
8.40312810774703
9.96118963114385
11.7063065067243
13.6401841930299
14.444241392524
12.6505338432148
8.32423678625439
3.27310399279981
-0.563994227793962
-2.63580619826226
-3.45327122933376
-3.24411382893384
-1.73928829105996
0.71206328882402
2.67922358496914
2.75501283298394
0.653287357916878
-3.1087335906939
-7.94923436700485
-12.8577234465337
-15.6338021170462
-13.6936957982659
-6.3643057682557
3.96783691645649
13.5922096969266
20.2964792631278
24.1600469990206
26.0005984664346
25.9603246286396
23.768707511555
19.6640022036103
14.6070608519081
9.83265903403723
6.36093153881929
4.65665561636211
4.48722514186358
5.13866315960561
5.83044247954208
5.91235144809687
4.85750571946891
2.45946504485825
-0.803047635683734
-3.83574914203238
-5.7173868352362
-6.62424825002258
-7.88922334412587
-10.7959929844982
-15.0883666375773
-18.8932002576422
-20.4270724433753
-19.7191707491595
-18.5027879275368
-18.6112833826637
-20.7365445535578
-24.5310017472004
-29.2734813408556
-33.9191709228068
-36.6676478299207
-35.4439868923029
-29.7730437928312
-22.0568498784452
-15.995627203163
-13.2646509409679
-12.1281755435351
-9.42703776505511
-3.46782260808657
4.96428186143142
13.6064413593371
20.3201327025984
24.2215782124296
25.8588625592485
26.435143197844
26.7160150332363
26.4941676089606
25.0023317174297
21.9099703031335
17.9842500825009
14.6793536627884
13.0340127957726
13.0797789944867
14.2279988110168
15.9023888606191
17.8033983088258
19.9484223738736
22.5250965808659
25.3726363729286
27.6078053809694
28.2245330735529
27.2715079848272
26.056413434668
25.6618833172132
25.1646996703052
21.8152501614137
13.5987063946075
1.67792459887651
-10.1443885944757
-18.5274537711311
-22.8720758989024
-24.7228366605928
-25.80592338595
-26.9684865071714
-28.1151693823131
-28.3565153923545
-26.6747819285113
-23.1752580875168
-19.4374770233177
-17.1287126012227
-16.540438375061
-16.872576589469
-17.5546803069592
-18.7007777741268
-20.3717702159095
-21.8740971099793
-21.9920834711614
-19.9166897235011
-16.009716072542
-11.6266634372662
-7.95189190370916
-4.83252028742839
-0.921491440772129
4.65902277950145
10.6982147945278
14.3607653681012
13.7184416642569
9.65521020648094
4.88399467768529
1.37170598486749
-0.722822788128331
-1.96936255871682
-2.55361867113421
-2.36046554712502
-1.33069914290675
0.621012769701016
3.56277903776843
7.21384986494994
11.0278426422574
14.6320911749796
17.783375744609
20.0215535670354
20.9686918114979
20.9444661575127
20.643199179912
20.067946287883
18.3341049576686
14.7677510451218
9.75601931288855
4.22613294493164
-1.23284673175769
-6.17258333926498
-9.54378756927926
-10.0394222527496
-7.52328897073478
-3.73846928835611
-1.20015415043457
-1.21948034121925
-2.82179149520301
-3.55598961842451
-1.76374125756552
1.60050921702212
3.70413225794474
2.78440599239082
0.0127967960585791
-2.11156714694207
-2.82888863944037
-3.74622837547891
-6.51222445385986
-10.7993230702524
-14.9541900926414
-17.9755323483693
-20.1485041476434
-21.8638931867249
-22.4367416391299
-20.3526835265066
-14.4853891748217
-5.07558942895095
6.08525879697221
16.3073306198024
23.3754105236358
26.8403091933959
27.9299174089061
27.9765263839036
27.0370814347946
24.1366721962021
18.6024467872435
11.0245736764425
3.17598856789233
-2.87282864978027
-5.86838969193014
-6.01399450150895
-4.74850365985536
-3.95785341430589
-5.04987958648159
-8.06108515301727
-11.3135332677638
-12.4595112097804
-10.5487889392484
-7.07901402553426
-4.59603048055608
-4.20421720599049
-4.82343060802415
-5.02219133829004
-5.06901599306758
-6.53044924876088
-9.91436199198103
-13.445091031314
-14.54601339676
-12.1775876777128
-7.53446818526097
-2.93922623014716
-0.349368018846147
-0.379882363594551
-2.06208540516427
-3.52243599467689
-3.32427174733726
-1.43079114604667
1.06437797829992
3.0811421663322
4.41081610606287
5.54385538365139
6.78020751136815
7.6212609157679
7.12242696007991
4.81707790051331
1.21147252845271
-2.55507677256174
-5.36818393556327
-6.51570495200216
-5.73856850842383
-3.21550281059025
0.44412475719378
4.39372476700947
7.96920328381524
10.913334220813
13.1010328551077
14.2761222016669
14.396472908328
14.042800785987
13.9102673218067
13.8239906678229
12.8265244098417
10.5732597760969
8.30254387167155
7.9924823489007
10.4949445409787
14.576027338812
17.8226603505845
18.5699246541789
16.9681174665456
14.1181233911864
10.4005222915488
5.10750648313277
-2.30503753213749
-11.1328213860047
-19.7633256076703
-26.7749475193758
-31.6853721112205
-35.0289218262985
-37.7368103391607
-40.0091083102461
-40.7176745385952
-38.29055923292
-32.2082520581837
-23.2930417910182
-12.6825086696243
-1.16647800666443
10.2991699001531
20.0294427338523
26.1729423114821
27.9218822739819
25.9918382718027
21.9252603387524
17.1495947674706
12.718874043041
9.43683931297265
7.5407244256649
6.17072282128658
3.73700763461566
-0.659714102096177
-6.18762162532306
-10.9008311174943
-13.4795122447785
-14.3540655177846
-15.110352428695
-16.7370404370522
-18.4373033918143
-18.2658399302751
-15.0274392410664
-9.54376294736077
-4.04710774282689
-0.358038862171866
1.32499204825107
1.89220151145612
1.85563077604311
0.883039583804171
-0.991268066841395
-2.15554564844388
-0.215702274620438
5.65844299129453
13.4852244638712
19.9471510102977
23.1418995102195
23.7884717659027
23.8939528872013
24.5512521343511
25.0862934304383
24.0389041581991
20.6865780010978
15.7132205460999
10.73129760982
7.27910223403225
6.02433227947949
6.50051873212504
7.29471457141644
6.56219421995001
2.91203691181355
-3.53948178652889
-10.8119267657067
-16.2037095479156
-18.306048428148
-17.9512988406448
-17.0419499235424
-16.591402496579
-16.1422195672031
-14.9279364505831
-13.1250431208804
-11.6715509213191
-10.9498038514485
-10.0119336273728
-7.44363384639397
-2.95326115139903
2.22747417709902
6.54566239886498
9.29219118192541
10.4145519348279
9.79398387406547
7.41710265944669
4.12655508103667
1.44900451609705
0.279350528828267
-0.0395641462408822
-1.01257179170759
-3.34606536597797
-6.17744664344815
-8.03931959783839
-8.43743133152976
-8.28154416159441
-8.86189090814669
-10.612987123133
-12.7826358776211
-14.0990875129659
-13.8472509391222
-12.4333255689804
-10.7676614030272
-9.06270829179411
-6.57277546319523
-2.70369476306899
1.92866875595333
5.85612395542168
8.11240298342909
9.08353230149604
10.0121320282039
11.7558544223909
14.1867445984115
16.7428846065568
18.9921605539349
20.2324427196833
19.1877341510907
15.136083710151
9.28205676845144
4.10392916601741
1.06495029710695
-0.516334557534337
-2.16948526518464
-4.34689845869843
-6.09920456961831
-6.39605372898276
-5.36698753463041
-4.09424645458146
-3.30014714732031
-2.49587836938696
-0.617789489003521
2.53893414335887
5.6804514779586
6.91114961095776
5.38832087464754
2.18877213601019
-0.550331719929785
-1.49810155252352
-1.16462964589559
-1.16626605394667
-2.68604607958587
-5.61795900580002
-8.83816475856609
-11.1368087362202
-12.1114910928149
-12.2890072841841
-12.2935907693421
-12.0331053514874
-10.9581428638729
-8.92088996711167
-6.33366187223237
-3.55092410427407
-0.56348892998538
2.58607192065171
5.39550051272489
7.15445805391866
7.67269350759228
7.747258270256
8.75270717451501
11.574823560835
15.9165754282523
20.6232637610871
24.4918378982626
26.7298140576155
26.9988627403185
25.3690158281748
22.1945190141314
17.886099898822
12.8064773033821
7.34613555535136
1.97856346651104
-2.76665089435071
-6.43579489945795
-8.98949731084945
-11.0226366722479
-13.3394666624172
-16.2985801220548
-19.9085965490039
-24.4120258623277
-30.0842430422565
-36.2715331886321
-41.1981893432382
-43.126698915155
-41.5822816341221
-37.3619299528862
-31.5139340926531
-24.3905520210882
-15.697050401136
-5.46300643554418
5.28029723881584
15.0282413318534
22.6957849710753
27.6697661690254
29.6057912753403
29.0151519385469
27.6255437556038
26.9781655151206
26.5092155831866
23.9196447626241
17.8365094931129
9.57987904175191
2.0035461322175
-2.95279255525693
-5.28497004399543
-6.11125850683589
-6.55950161175329
-7.25426924393407
-8.03816489240339
-7.87311890895692
-5.60119269191732
-1.31248447612281
3.31306000120464
6.39176636331505
7.34071869401715
6.80973272797887
5.62540580187722
4.36814329548624
3.7504231012974
4.65777478755761
7.37207774426409
10.8538186088687
13.1731340068445
13.0026334072794
10.7600831297161
8.11360604347502
6.30921720049888
5.14252590734164
3.55910339928907
0.935583588496649
-2.41450411863852
-5.73577135498578
-8.45999191800312
-10.2863261814033
-10.9185176295493
-10.1256416846271
-8.21196615855747
-6.12517575239671
-4.7934292310916
-4.50365371147935
-5.11783547160743
-6.58235975766774
-8.85235241481451
-11.5214594804206
-13.921590078327
-15.5265736567964
-16.0471289813723
-15.3625973152791
-13.7416700075388
-11.9953197738738
-10.9003890119797
-10.2785334229556
-8.9456731471366
-5.88009640757279
-1.34638732103107
3.41403821880538
7.51202347296348
10.9906827013296
14.0353863871448
16.1949811385676
16.8292865397622
16.0863300323199
14.9997924473702
14.5210934284319
14.5695563947862
14.1360094677199
12.3602489564658
9.40608944430434
6.14645059357589
3.16970800066146
0.467709101675582
-1.9625013685336
-3.73897105212836
-4.51759996959236
-4.40734503705572
-3.70822202680604
-2.50927249534259
-0.817266521539407
1.06142397455503
2.51690810883274
3.04454731922277
2.62356611510849
1.76933682192109
1.26595701061931
1.69620858672297
2.99394096683516
4.39980874191826
5.0074562331518
4.47900903190205
3.19725828655757
1.66482345293885
-0.157251740635597
-2.73562898534735
-6.14114531070094
-9.51212587558454
-11.5733722971173
-11.8037686366538
-11.0597665643325
-10.8932961084711
-12.0715838169902
-13.7572374148397
-14.3082240255073
-12.9186810576921
-10.2947394333978
-7.69787239938884
-5.65125942039221
-3.81102668983373
-1.79952898902366
0.303828506889802
2.24739747570235
3.93673959564127
5.34004533206999
6.33362078385738
6.80486218728777
6.78844698525514
6.42400982519504
5.90214655593366
5.51135602846979
5.53978355252131
5.92934078204491
6.14814939130946
5.66710475652197
4.54232449673817
3.30796030068303
2.33951272925308
1.61863091506084
1.14805253178542
1.23074829358972
2.10303598092413
3.45487133091263
4.51399575362701
4.60774156123204
3.65423826148351
2.17721079227027
0.822235593815366
-0.157895949044031
-0.873482314006788
-1.34758647707883
-1.3522268993427
-0.729230916376883
0.348832360611833
1.51553367502392
2.46687556397271
3.04070840660988
3.16823399592075
2.83378737495222
2.0814985851827
1.03385710305666
-0.181054874773067
-1.59007402843335
-3.34570900190902
-5.36871602021322
-7.10964861392376
-7.90195092533122
-7.58352855025179
-6.65018609131429
-5.7839125502399
-5.26780380008782
-4.80977019319571
-3.8760303859798
-2.19908926771496
0.0002398842775991
2.19637076348777
3.88619840335284
4.83334480674206
5.16018872302961
5.18608804707181
5.05608425490299
4.5687356493751
3.46171988600561
1.75933175471955
-0.273578329161275
-2.35409477965006
-4.18335523902182
-5.37660346390693
-5.60407382275144
-4.78455217032681
-3.10063817902544
-0.9164603895227
1.30713646163305
3.14401077113618
4.33596801745224
4.85155664759932
4.91537707570832
4.94529832197234
5.20455287864582
5.37191976342006
4.67762702345419
2.76798062657427
0.423548377044076
-0.880475032689303
-0.399905275637498
0.896181086888324
1.03541678988043
-1.09047061770465
-4.74682478925565
-8.36446336162804
-11.1373764888231
-13.2413320340593
-14.8059949950204
-15.2635173938643
-13.7381787295033
-9.81890393489835
-4.06576274402345
2.01897622540996
6.7028358743995
9.026378114256
9.20639276482367
8.18601143665673
6.98433010049302
6.27069370556042
6.07781975625186
5.86934028231959
5.18243560484722
4.15386202561182
3.15638591297754
2.10538029213721
0.550531443116755
-1.55100065740556
-3.50848059710521
-4.51624027569656
-4.49632510056661
-4.19614904076159
-4.43501277070398
-5.31663783675355
-6.15594390422287
-5.99201920213722
-4.13903043115255
-0.619882821898574
3.57318389517228
6.8592655284619
8.16383724276125
7.69119669459929
6.49022480949703
5.43368953753353
4.76377082957334
4.33328256357555
3.95901822583761
3.60934408481492
3.43466000762674
3.60162577392368
4.01021273523211
4.17790992889826
3.52187372631889
1.94204924353354
0.138125437883341
-0.95979933438193
-1.27143115734874
-1.73528446776537
-3.0251240051746
-4.40636530070075
-4.42098607777299
-2.60040591328842
-0.0029285220243622
1.94843001340128
2.80003108380797
3.23537410830399
4.19587629325411
5.92829757484427
7.81237831626394
9.04429053080508
9.40009140256275
9.29271627832571
9.19921027018413
9.11941349507679
8.45212123184274
6.25329154503836
1.77697856396389
-4.92819542823836
-12.8688042361659
-20.6583859418551
-27.277076009975
-32.3099346203164
-35.5975352157512
-36.9113060544972
-36.0996462155014
-33.3765651894003
-29.1407473199089
-23.4935385785098
-16.3199643823035
-8.00819551031715
0.335192359998864
7.73234179941019
14.0600655592483
19.4927681410767
23.4969451056192
25.0254282733714
23.8089479187528
20.9853825483339
18.180886133386
16.1911058310287
14.789152790323
13.6035954735317
12.7079616179677
12.2248908730374
11.7993468508191
10.8952180442737
9.45729607995511
7.92236944667712
6.66144051093216
5.69510379388019
4.86619613533887
4.0149784066551
3.0188395993517
1.88523950645727
0.84657011741981
0.264165489773598
0.380715021120833
1.09889431793454
1.9390128634979
2.30984614380878
1.96392665360902
1.13877064746647
0.172454245814209
-0.88701448313943
-2.18540015088226
-3.74023213145897
-5.38163705828943
-6.95677677358665
-8.49708401734692
-10.172711461567
-12.0612025579374
-13.9513846043508
-15.4335362762188
-16.1845894809591
-16.0836409232208
-15.0925902682542
-13.2134710949498
-10.6152963325107
-7.66174420688852
-4.75312486102399
-2.19468079031427
-0.16117413218283
1.30918027998353
2.22783702313634
2.54535968881862
2.30865893073791
1.96544723541134
2.24021941250248
3.52253317519409
5.46278787164203
7.23097904157474
8.13005345064452
8.03202440433542
7.35971001631652
6.65025934572276
6.09376387517647
5.51956512270255
4.762553869473
3.88159061968882
3.05293519983198
2.42601166262748
2.04373393131098
1.73840667843361
1.17268101554373
0.141779762505727
-1.21557195192007
-2.57448670270315
-3.67482503778347
-4.37028474248299
-4.60186037756419
-4.4511443495631
-4.15111975048713
-3.92639330267825
-3.74989176186157
-3.24004241561049
-1.92186703597437
0.215295355728293
2.44109610975228
3.79280256388167
3.9218950250482
3.30205907491873
2.65404241153993
2.38115359891503
2.51471928396766
2.91085057151129
3.37083256504001
3.67764950167497
3.63645473290693
3.13906019461133
2.1964583781397
0.895278043134671
-0.596813295098282
-1.89012704452616
-2.41697091455696
-1.94106308287857
-0.980032695265811
-0.345152149975781
-0.207646718245464
0.0059656261514377
0.688935656888641
1.41816376189251
1.48249248115655
0.81750425745959
0.164279148237476
0.317974486416169
1.3112024962534
2.37328294463679
2.6913241869662
2.15010970456642
1.30227254198563
0.769839709138826
0.811331963531999
1.30191720006742
1.86802918573061
2.10512721302035
1.94836517594019
1.86406500449861
2.44164453060284
3.68847297780009
4.84753214307907
5.01426240440526
3.90996023072841
2.01539910469656
0.0430738562131215
-1.51910507524324
-2.36828228907854
-2.35863759413586
-1.90052401658445
-2.07973342386832
-3.78222599042726
-6.70169035400862
-9.71390337321976
-12.3408731275014
-15.3499045839882
-19.525433416016
-24.1119656728389
-27.0583041119087
-27.009083791718
-24.6421206956241
-21.5815464835928
-18.2170043467256
-13.281039238923
-5.73191871805513
3.53345589646029
12.2041530409754
18.4489883779971
21.9888760686316
23.5878140196239
23.9297628703263
23.0674954208573
20.7640087668989
17.1645519043411
13.0221069929672
9.25458064783852
6.32891504434905
4.09094078224431
2.15131137976253
0.409437179078342
-0.778782448466641
-0.93869243271059
0.0125251968141862
1.6297557765229
3.32570175215381
4.77648194330895
5.86213911081556
6.36560884289637
5.98793852516579
4.73403660645055
3.14197283665839
1.93059016899196
1.33756354793878
0.934638616315864
0.249612229397203
-0.559901201525231
-0.931037968394593
-0.74379235793923
-0.568188436471472
-0.914108142808252
-1.50876106205437
-1.57859111656705
-0.800877629825613
0.183407045756189
0.308881740834724
-0.81871526815463
-2.4626440579767
-3.52231274491376
-3.63652091135955
-3.31672766257281
-3.15028613025602
-3.22413398876028
-3.30955306291879
-3.28919343254778
-3.28306835952082
-3.47234467343303
-3.85806399383676
-4.19647691300971
-4.2324929559231
-3.98903434558714
-3.72323338509265
-3.62898418816611
-3.72443664033121
-3.97954522487409
-4.36149082021373
-4.75199700736796
-4.95718617193254
-4.83174382998891
-4.39376095257878
-3.86560155020059
-3.53700689933948
-3.45005928819958
-3.2550974734379
-2.51233733750721
-1.1228960183307
0.596732659929109
2.18089699207766
3.30148549644144
3.93722145772794
4.36771649927617
4.90746615893387
5.58611585490328
6.15311435507894
6.35184555316294
6.08385607713133
5.40544923867509
4.52310829138296
3.71660855472142
3.12790809443592
2.67111614438582
2.21304060800323
1.76077982925381
1.40072079880616
1.10489980654457
0.689864310346161
0.0354588310225026
-0.661376916496185
-0.99155813011179
-0.821655432715106
-0.561834262493061
-0.744836552369032
-1.41217825515895
-2.12593107123353
-2.50494513150053
-2.53646359763929
-2.46502639116647
-2.61201790222017
-3.23391271645556
-4.34050642277829
-5.62876616353432
-6.65776847784494
-7.09590321313722
-6.86483519103135
-6.12842836788523
-5.07679536352609
-3.64834954895017
-1.58328506826353
1.14169573937851
4.06611181870994
6.58193533475745
8.44020690951433
9.82193664020588
10.9997383448785
12.056711034867
12.912237057638
13.4958434029429
13.7706461794523
13.580056176913
12.6618207674583
10.9801308190738
8.93340724937031
7.0722003168831
5.69449417698551
4.78197074589295
4.10059694846465
3.2109420358494
1.65443711356544
-0.585303459229307
-2.93577581554814
-4.75678125240766
-5.94599894745391
-6.97910980787809
-8.48601967779783
-10.7724432143688
-13.5623068891447
-16.1984937161796
-18.1993451972054
-19.5348180875018
-20.3064491232368
-20.3904956848864
-19.5728824161495
-17.8838074863365
-15.6222718972215
-13.0959874191689
-10.4317970156354
-7.6178343168875
-4.62622782351546
-1.41936247987207
2.05825890793114
5.63272914123858
8.6010477915251
10.0316034933232
9.66015572115356
8.33678911277043
7.33734360299821
7.29444203638899
7.92165326578662
8.64592732386338
9.30858257139977
10.1922586914453
11.4028465496557
12.394009177384
12.3633945896853
11.1544145137199
9.51446081470653
8.33958176613598
7.81179934462056
7.32198871895603
6.0689988845559
3.71570995425866
0.668489173231695
-2.20384889920586
-4.23704681930674
-5.40462230684142
-6.11089903942438
-6.71457559730395
-7.31439073435345
-7.7937380634398
-7.94155753247962
-7.6402364448946
-6.9768211848177
-6.08610134777957
-4.95918004213331
-3.54885805402289
-1.97171002208531
-0.444955230793313
0.903285771343378
2.03969499997279
2.94518903281397
3.65671549272014
4.30971222409819
5.03267730653222
5.82422846682504
6.54451728663282
6.99433596427436
7.05131402082026
6.76090076050113
6.21793096357843
5.38162135046577
4.16456815646768
2.69454167699111
1.29916204240311
0.192577297791377
-0.699900686445157
-1.60068811247591
-2.65744678314718
-3.82969031703302
-4.89832420820938
-5.60976276968284
-5.88685922555524
-5.90202812342419
-5.9495452992873
-6.27371676430697
-6.94471511570926
-7.79747310441978
-8.53453204072945
-8.94742926208265
-8.97464559316888
-8.5707718149285
-7.70606821452178
-6.52453473330633
-5.31508522356233
-4.25021471890878
-3.24354535490677
-2.078131930921
-0.622470037013569
1.02602811225594
2.55263852428627
3.66742169221532
4.41738113094529
5.20032804387603
6.4263897028037
8.19042303835181
10.2011888369769
11.9184567003491
12.8423605250243
12.8417312271898
12.2189360977191
11.4054849283206
10.6175735731822
9.79500761299755
8.77767111424643
7.48301052857942
5.92417615517013
4.10996245522864
2.04141547352601
-0.133881750116722
-2.10594145128602
-3.7014678344828
-5.11688473176863
-6.70564458092135
-8.61742787028197
-10.7511666602868
-12.877419363038
-14.6248453223832
-15.5394033659782
-15.4230297013514
-14.5694358974283
-13.514423594494
-12.5266494029019
-11.3178292795224
-9.24973046560089
-5.98178805929651
-1.99885858717891
1.6759630437144
4.37881041699448
6.22942908795108
7.64834848477523
8.79111710613082
9.60257831239282
10.1239650891485
10.5148175466603
10.8922900769123
11.2498198345244
11.466271145192
11.38681896102
10.9098491568575
9.9359942624695
8.32549537780258
6.12325679984796
3.75096761895043
1.68296876433526
-0.0553808181494911
-1.80389727872926
-3.69169892514602
-5.38503225828119
-6.43283381326122
-6.71435614509874
-6.56766927011048
-6.57217329726167
-7.10740680179697
-7.99888493315292
-8.65122297315928
-8.59194435516705
-7.85976559714871
-6.90640190421056
-6.1765452111934
-5.70052802144118
-5.05362613966649
-3.81856577717151
-2.08353864672207
-0.354557376826658
0.962892296176292
1.81694511180754
2.32257081520906
2.55685465458412
2.57720194704049
2.54164296975739
2.77594110999357
3.64242694151305
5.18557049953644
6.92318900260628
8.13807915964449
8.36653879265938
7.58493665930029
6.17160669168268
4.83893209629938
4.2776648299155
4.52050990625375
4.76867264654582
4.10851833948272
2.42859604970604
0.573917564191956
-0.391979558675434
-0.11426335695095
0.763208443508345
1.1950878300461
0.618212078308523
-0.742940485779691
-2.29005624817845
-3.55981344610573
-4.38368971315311
-4.82299361300867
-5.0485693624464
-5.18939857645817
-5.28170228635848
-5.35883747225094
-5.44921950303261
-5.45743776543266
-5.23221612799802
-4.79727745361856
-4.34829371518433
-3.99810359831763
-3.66139421865346
-3.17653328589581
-2.43347893987781
-1.44160687745624
-0.372800936663308
0.535753247400175
1.19086812370099
1.66659847611516
2.0084648062949
2.17016037077301
2.16414777679227
2.10862805834569
2.0865646046868
2.06997635496094
2.00558456795141
1.92802655916287
1.98088929027371
2.27881636195897
2.70233888857628
2.9325450249155
2.78819186101733
2.41744677813314
2.0549169267377
1.73591645105821
1.3813373828814
1.00812608965444
0.688701296634484
0.417124729809022
0.164654115073142
-0.0060857778964856
0.0228150111087494
0.316127262989019
0.829681666461859
1.42191047000337
1.9345407674581
2.26352363797505
2.31714384433758
1.9825050845861
1.24987814869132
0.323383631659112
-0.479692501541507
-0.899553841003133
-0.820737312186904
-0.361128764735575
0.0923861330293952
0.141138713354987
-0.243347099506104
-0.723466318694422
-0.983022714190392
-0.958779130383584
-0.755210325277035
-0.562061249179196
-0.635659198242871
-1.15701027563329
-2.06870639402292
-3.09426088173108
-3.87023075746486
-4.09915609321445
-3.74137783508638
-3.08972215987788
-2.54894608993299
-2.32605217365927
-2.35573464010929
-2.42138688737814
-2.27579642059052
-1.76273516693775
-0.927851856880512
0.0342023269118376
0.938169391915625
1.633497148723
1.97116260602479
1.93827907845575
1.77157804683818
1.75898826058269
1.95765905437227
2.19822455661964
2.28808211730323
2.15905866178784
1.91618726536612
1.76657271985693
1.81204326059245
1.92460513740142
1.89235827266641
1.62376284540752
1.14643314011102
0.517037754456455
-0.176811661434276
-0.826435518897645
-1.39533000921935
-1.93615977338934
-2.49326852898821
-3.03709929592376
-3.45270140352341
-3.57022366912308
-3.3262338105037
-2.90985734388504
-2.57429787301872
-2.27873614452768
-1.70356818375238
-0.660526645158575
0.660327727177293
1.8732548408122
2.70868520303936
3.13677597602541
3.28042438052074
3.25423819238944
3.10942320190062
2.94373051671439
2.94460998898555
3.18633001109881
3.48084374235107
3.59293233225472
3.51253446803863
3.37718638532842
3.25302437271525
3.1261928334631
2.98326521526813
2.7883333344929
2.47263322384494
1.98970513975174
1.30178377612761
0.348075721610195
-0.844020180591677
-2.02875843226415
-2.8316339612203
-3.00824150321294
-2.65285823545353
-2.21623147369637
-2.2379435227026
-2.90615129309228
-3.91709168112258
-4.86045062806616
-5.61645621058429
-6.27630428903974
-6.86634461052779
-7.29347852418133
-7.41813215740931
-7.10504328575585
-6.33562818842865
-5.28279092224307
-4.15187681757434
-2.99805324036119
-1.821605198446
-0.725179350169047
0.197813739333233
1.0287310511405
1.90661724900862
2.82577857745767
3.67546278492337
4.40476020661917
5.07402940179382
5.79601347812287
6.6160036863933
7.41328722088051
8.0179010536167
8.44893206324439
8.85827282552174
9.18513525658431
9.05426917086553
8.11114887269785
6.38893369743849
4.3534458528033
2.61741577427242
1.48731626221302
0.701291222309706
-0.284667893938286
-1.712166943619
-3.34155374676088
-4.80789051184591
-5.92332282896103
-6.64779969884439
-7.03138279402897
-7.23015109532124
-7.39630212538694
-7.52601412103556
-7.49275017526561
-7.17775735965899
-6.53995282191491
-5.66682037028068
-4.77101832106965
-4.02138283550159
-3.378702571226
-2.68411624826861
-1.85482528818169
-0.90473482524814
0.13940510998807
1.2445779526383
2.37307990364597
3.52118020218373
4.65175029195002
5.59815898480856
6.17681901461495
6.36919995114811
6.27834471238775
5.98270143919136
5.51910671222353
4.89687528164134
4.08833527640553
3.14122537622056
2.27280021889075
1.66806611740992
1.23193506727328
0.736019616438182
0.144443156161306
-0.401719836211639
-0.842698541792166
-1.24234614237836
-1.62737779017705
-1.9399908982045
-2.13059496868398
-2.24317670828454
-2.42372228278434
-2.77825214223794
-3.17182830696333
-3.31112675765572
-3.11159209343589
-2.82448218068999
-2.72365854076259
-2.81508739249795
-2.88929056757246
-2.71194168158814
-2.16382455536351
-1.34283647048254
-0.521284795987835
0.104591730588394
0.570456178852674
0.973514394141375
1.2748257165671
1.38941970803571
1.36242762678965
1.35803042612388
1.54969942970844
2.03534233112625
2.76037914802824
3.52641968511115
4.1356975769142
4.49834073062147
4.61697364992621
4.58142876965148
4.55607584413835
4.61783957433578
4.60217819050153
4.22842885497317
3.36108146062541
2.06542658470244
0.484285913628745
-1.23087740493093
-2.9340232864896
-4.50795003252001
-5.82078302793652
-6.68418124993315
-6.99511724623467
-6.90342364030826
-6.69678216239806
-6.52244354119284
-6.29257347510597
-5.81296776392276
-4.97311380752961
-3.88952798848194
-2.86651683343297
-2.13150867836879
-1.63051442943722
-1.15024834167165
-0.567753233261979
0.0986147072397361
0.781143078788458
1.41001648627118
1.96173364365182
2.51786417121716
3.17188177794597
3.8699082249077
4.46898063305658
4.92418618449027
5.28957217595999
5.57942018751273
5.72207476718734
5.60284998054777
5.1466068824683
4.44677456999761
3.75259341992693
3.19741216193074
2.63623754447348
1.91179550264643
1.16755686388238
0.711853008908942
0.646854573939511
0.752240737011435
0.641972828986913
-0.0052603014459499
-1.19492201657526
-2.53730304039884
-3.55460924533918
-4.05518367397502
-4.11814857045774
-3.88008363935097
-3.52038291229306
-3.28946584188904
-3.32917853044018
-3.5272138119145
-3.65070488593034
-3.5582835905359
-3.26477449923582
-2.90432322092962
-2.63785683175269
-2.50522096072849
-2.37576367975269
-2.08959299460724
-1.58871288227284
-0.894056830178402
-0.0633206883638267
0.816145576910717
1.68216382802381
2.488707907788
3.06483562160275
3.14272703920235
2.66919895104414
1.94524993032255
1.32774387025471
0.920568733853328
0.656985003455989
0.557236529333462
0.767230667272669
1.34134298881652
2.04010473195803
2.43131529832903
2.28947430005515
1.84863767037965
1.52359164899462
1.44315981268271
1.44084519803293
1.41234750624275
1.42581270567402
1.53057628067362
1.68923823409016
1.85951230303694
1.97934409360871
1.9290571335877
1.60251332103046
0.940879354643927
-0.110157110767989
-1.52112936553508
-3.01842651148388
-4.13437184461592
-4.48577996758761
-4.0047225217746
