-0.394913077447497
-0.389494040357696
-0.441813021838304
-0.52377995568596
-0.664274019613716
-0.774767703505144
-0.731964134492296
-0.594943803163683
-0.501669941102489
-0.44250396342537
-0.341213829500992
-0.22435636170798
-0.151138921217575
-0.110551530085731
-0.0531993073952926
0.0961978877706757
0.406860292368956
0.803279818709562
1.08192841681486
1.15418756351923
1.1157092089972
1.05635573876434
0.990110871305314
0.935890883409779
0.88152330552476
0.752610041341011
0.558202575783738
0.422014423389666
0.388218298030293
0.39551765908713
0.445065845260393
0.542587188148133
0.5465997677207
0.35029125521081
0.0833112248492844
-0.10725040892639
-0.264609916593828
-0.414009519222857
-0.428404284631521
-0.278616137288937
-0.135725150615596
-0.102520705153637
-0.112199086291142
-0.144192581397827
-0.25963451195665
-0.408808512212547
-0.473061438959436
-0.478303621448632
-0.538437635829369
-0.660728673099138
-0.782546058453269
-0.870498762249355
-0.876093789682628
-0.772977498343652
-0.679043575527493
-0.745103314668315
-0.934653260261637
-1.06750495942474
-1.00215394263652
-0.687691763687811
-0.1878506736039
0.299065448620707
0.605967622331461
0.764005914353794
0.871366908612928
0.921598780305754
0.895560832229416
0.830202493274325
0.684570799963804
0.369180515854507
-0.035745420207847
-0.341567344006294
-0.50247181737025
-0.553622022679124
-0.429038504097222
-0.108099732585202
0.233818513998558
0.449198780072921
0.58481721838317
0.674544648762866
0.629309164201223
0.457870231257302
0.335341637990065
0.357509185898501
0.45205905503188
0.554369845232039
0.644850205929586
0.649611985491299
0.534408355483438
0.420468466401674
0.408069772376366
0.408470368327064
0.304212275305406
0.124593458277638
-0.0303165233858226
-0.095986698038507
-0.0664228780551711
-0.0314979601462581
-0.120180342461542
-0.32521895923524
-0.50942715605316
-0.60700636722486
-0.65422799154735
-0.663154916132851
-0.650926408741262
-0.698159224371228
-0.801433160219979
-0.817019712595253
-0.696165921380755
-0.575263569990203
-0.530876013210968
-0.483261057844255
-0.393850453290205
-0.314954222403303
-0.252066779136927
-0.187404097017068
-0.158392889312128
-0.151735389730743
-0.068391165784828
0.0971475013377608
0.236048128064592
0.335512621302408
0.479438816286921
0.627896159379141
0.655080346528092
0.595741356721903
0.586681570330832
0.602618525960952
0.513765097337806
0.336949031967505
0.19749772718015
0.144896819838991
0.173881922429791
0.281169763990481
0.394275654416077
0.395719649472302
0.255698032812945
0.0362525332592061
-0.17335053785069
-0.265141182093719
-0.199732209162999
-0.103524633425199
-0.108188219572086
-0.148817281608036
-0.110968810401908
-0.0524525758856509
-0.0785494270035664
-0.155501191834848
-0.211280513284671
-0.239519004003244
-0.217243488680677
-0.126510233614311
-0.0500626105650933
-0.0279318728935072
0.0645479790593335
0.270746402980293
0.392065901979194
0.295546693661031
0.12906293596416
0.0418917843828552
-0.0277715257006942
-0.134927907720971
-0.186808354384589
-0.1461244092968
-0.115945663866299
-0.145956691473964
-0.184022563580331
-0.220909156796784
-0.258259324176075
-0.199348930553534
0.0092779892206677
0.231016983695128
0.301119200034054
0.204947177464274
0.0193381121626921
-0.160162888226335
-0.232561236570327
-0.188578667588246
-0.135941076360185
-0.132340543300342
-0.125133353066718
-0.0911586358928918
-0.0526936233446733
0.0245247060417563
0.154751959591447
0.240782520127968
0.237891975371564
0.248353048231112
0.29975315371463
0.260780419062996
0.104333454774336
-0.0163104360666482
-0.0345489188882423
-0.0391206998023125
-0.0714579536162623
-0.119001563618579
-0.239221723048213
-0.449166041892427
-0.615894052497119
-0.65100638647831
-0.648590672543933
-0.688896490349415
-0.711042069551937
-0.69133575122474
-0.719095186686099
-0.797240441198071
-0.779667659703296
-0.564989192487608
-0.181643284900651
0.283904166935995
0.692651405280742
0.914256507328171
1.00873761728475
1.15914040204198
1.35902706250472
1.40865665732642
1.23318312302706
0.953030242711633
0.673096709443795
0.420911836946653
0.226152740456018
0.109673673488607
0.0695350572863885
0.112949977948732
0.195920247883719
0.199401157743321
0.0956549604351978
0.0026579643840046
-0.0272815495026023
-0.0585844144286355
-0.0603507906373494
0.0633937289347348
0.215822050255455
0.202648194552618
0.0533321856598838
-0.0515195299788132
-0.0643901579553539
-0.0231037274206828
0.0948538261707791
0.245372517534826
0.270089618433424
0.148109325440685
0.0465558502940317
0.0114405785749944
-0.100988693884844
-0.310973681664274
-0.456819906212666
-0.504805049206841
-0.592082043432981
-0.734202703771248
-0.796255124015242
-0.754474392568648
-0.735832743077427
-0.817296648354314
-0.935602125277493
-0.953871456773719
-0.784738492842902
-0.514287661102836
-0.347619692663116
-0.370938118834192
-0.485922997855053
-0.594625293875915
-0.669942202539214
-0.663291621770705
-0.540069774839224
-0.352797141586935
-0.131536711676734
0.155795444767068
0.434633754655781
0.556857949255097
0.564170673456242
0.614166957517622
0.649006385680998
0.499850366582511
0.26419634996768
0.200837291719864
0.338466880357264
0.516719664669306
0.677552523559101
0.84416743153843
0.972115351003853
1.02418317182116
1.03270184901924
0.979753034017621
0.805824947198093
0.579613142464419
0.437968384028527
0.362204330043362
0.24933108580364
0.143930152337871
0.153790798014236
0.235516134715588
0.277474710847661
0.260466360642768
0.191906996056427
0.0506999098462226
-0.125995740609848
-0.265518915533592
-0.369079563119518
-0.472089691190967
-0.57245715176812
-0.677366203536863
-0.794048732157581
-0.856053907171497
-0.811747121483377
-0.738149290966253
-0.712580118339588
-0.684362968340237
-0.608672790609951
-0.539328270178918
-0.493776296003447
-0.423867647351168
-0.336927986206073
-0.230777800337057
-0.0044721543865665
0.320836286092727
0.482557453475339
0.349331656743047
0.178722979441222
0.245671674251428
0.470622817910874
0.641948456532965
0.736610444411232
0.815307056799358
0.853347085517088
0.84145664309395
0.829261215667178
0.780855893389041
0.608583796210146
0.3529189602806
0.111313325868695
-0.125454626888774
-0.363436684755371
-0.49716946928937
-0.489661896527552
-0.466229436320075
-0.510946979696506
-0.56511281331166
-0.573656559144126
-0.559406807207757
-0.560320959165302
-0.601947819055187
-0.673856269397766
-0.706014345157296
-0.666577543507536
-0.626573587637507
-0.608504221090288
-0.513516961947607
-0.330260143255654
-0.204590949906324
-0.177203306108616
-0.104151312389633
0.0786872010283612
0.283490662162883
0.470994665443357
0.641337137508797
0.692023815632176
0.563495124572102
0.410590561892744
0.390722773016112
0.440439443167658
0.451241865253972
0.464417819715119
0.525335614804198
0.558082930949613
0.520806834964997
0.474467808891549
0.417180698687858
0.275458034812458
0.0854201817145828
-0.0442255801853432
-0.116431980765527
-0.190735952602164
-0.240846750201963
-0.235467880189116
-0.237130679756496
-0.311893097527675
-0.450202877587145
-0.592166759642117
-0.647315449285026
-0.56754080593633
-0.454525605638466
-0.453919415362005
-0.534034180126753
-0.542942918488345
-0.436248525945955
-0.269346653125209
-0.0797494985569907
0.0600586430779346
0.0590052648170407
0.0050401718092312
0.0993920958937435
0.321919484968563
0.457429879716869
0.461501609854797
0.484166865989512
0.587433921933931
0.730973992337429
0.909170375126365
1.05685418326313
1.01645123938062
0.801901192320717
0.655251666010765
0.681945894825882
0.70094724664965
0.580614160063861
0.426880402079444
0.330616897452024
0.215432333318555
0.0180303828327462
-0.209548408622226
-0.385478967230041
-0.431695948782513
-0.320936477111811
-0.186531919223688
-0.210801015111183
-0.370860701943885
-0.501467521222558
-0.564361557310403
-0.633183468864303
-0.706142454048396
-0.731883778748301
-0.709942234577368
-0.646460246031988
-0.542537163834268
-0.455067281677024
-0.423432431177319
-0.392272022139396
-0.341837527881348
-0.350290971430279
-0.413196506288045
-0.414967501533023
-0.347879675657097
-0.299156936732975
-0.22484882985796
-0.0338459299677798
0.172529292117643
0.248319827174952
0.27351863870091
0.407240624822647
0.626336292721427
0.82846074502052
1.001346775361
1.10866310717469
1.02323905856434
0.728082356923867
0.378666803893897
0.0808807928633098
-0.171702741800507
-0.336928776782367
-0.366185834957523
-0.370612069277193
-0.488457226306714
-0.659862246181834
-0.738439868597367
-0.719833778861479
-0.722094682461576
-0.840393160047438
-1.05798494194343
-1.22149995564522
-1.17414534946242
-0.968219539971012
-0.800642597119223
-0.732511041495137
-0.67451579422291
-0.59664947974555
-0.512068681498141
-0.359294255378487
-0.142483050781617
-0.0235198114678468
-0.0607210459213069
-0.0847460512232285
0.0025086857534103
0.0999714988426321
0.192033416344023
0.429730186587803
0.847512139031975
1.29337393829663
1.64951644373183
1.87761033804397
1.92004761911624
1.78101796166303
1.59975649618722
1.46565323957554
1.29673236054181
1.02853617977222
0.741628753680284
0.500602472711528
0.270782155166655
0.0604861604309744
-0.0526330481105123
-0.0409225143266396
0.0944713618191689
0.374659432844157
0.726065527390324
0.958085591182862
0.965811191889504
0.810183005409216
0.588436652570866
0.39112566652371
0.327664489145936
0.427429829392814
0.587432580144722
0.704643813109347
0.754209138903626
0.746730545112071
0.760414283785796
0.93194356569541
1.24760838086216
1.4901871935053
1.53082898850526
1.45035125177888
1.28330645218295
0.945165003227222
0.46718110660897
-0.0183896295988733
-0.515967770829638
-1.08569011174591
-1.62707244847092
-2.03773366082189
-2.4315008242764
-2.93477637787787
-3.45859350628794
-3.90048927125762
-4.35012200280712
-4.88275519280975
-5.36074097897641
-5.6032621811923
-5.55626657182163
-5.22275499125849
-4.64421907668061
-3.95977125571319
-3.28302028838014
-2.5839713110984
-1.83999309441837
-1.1483766426542
-0.57237354450902
-0.0592033147798133
0.430851815716114
0.887548642608304
1.32827936846104
1.7783106021192
2.2580656767183
2.84893552420753
3.58691824990948
4.27288993965635
4.649396291562
4.78078015977674
4.99404273208103
5.43995923062772
5.91265732343815
6.04768978853121
5.57979664825022
4.55256329194952
3.35298252776064
2.37010806833649
1.61842091365032
0.856478708091509
-0.0503770624880724
-1.08997346197164
-2.23796194224026
-3.38869281435945
-4.30634503405074
-4.84027135112113
-5.04775719089897
-4.99396373978999
-4.62710171502185
-3.93564931819766
-3.01102876502654
-1.9048607515021
-0.634182451902071
0.686954353905252
1.90708133835882
2.93798144178019
3.67033672702903
3.98870988607116
3.98380004797887
3.92614949392228
3.95943192854593
4.00349227742353
3.92625937068603
3.64914405042387
3.19349693743381
2.74123108618038
2.48267137944677
2.34154641319157
2.03142857277057
1.35227408392985
0.250757885941244
-1.23758412055776
-2.85279462299784
-4.12123742125613
-4.74106894155451
-4.78286240597158
-4.44883253995922
-3.93484916265029
-3.52178347199907
-3.4204190331762
-3.5188606569042
-3.58958780005931
-3.66337198594435
-3.91015007777891
-4.26348067158021
-4.40082004311718
-3.96825986740776
-2.70206591810504
-0.589709705704501
1.93211613909821
4.19893821360959
5.83749515362487
6.80978607312626
6.99598180523959
6.16070538980835
4.40135453741491
2.32592742437533
0.702343579882012
-0.0176318436239946
0.0392268125548444
0.323778090368997
0.409224266186098
0.340923039370765
0.350957957904651
0.425227812782211
0.324940181305573
-0.148807467300505
-1.02822252664461
-2.13466052837116
-3.14049455240942
-3.84760643070199
-4.31582735186229
-4.58661608529246
-4.55828650461737
-4.3305902371226
-4.31843401898397
-4.77515492546565
-5.48817620077595
-6.07597802930471
-6.29291393160373
-6.00842275367484
-5.19464457656465
-3.95060247900163
-2.33547171507972
-0.290542143475637
2.07268140778316
4.28764660686307
5.86149982962919
6.63120776968714
6.66188929518041
6.0670590919563
5.11567259167935
4.2564011611712
3.83190007871417
3.88997029875163
4.29587657942443
4.87588184544172
5.47347515670324
5.97410128860198
6.25053071031956
6.12373345957101
5.50050811666647
4.47922604747677
3.22192172828903
1.87380400299516
0.669297182870323
-0.138277555516648
-0.535876232794192
-0.707147346126189
-0.746061732238576
-0.67641917219534
-0.652786530337133
-0.835775467871837
-1.18099135557938
-1.5777026997696
-1.99803476182281
-2.34969565227402
-2.46256074027519
-2.34737332261679
-2.18671398818669
-2.01999548086937
-1.70433678588948
-1.16756257735744
-0.469679243611434
0.292393103114808
0.928856724589021
1.15196623748039
0.85026876942089
0.251969349182216
-0.325267664129163
-0.738862654851823
-0.98579244440146
-1.13565695988796
-1.33281462220708
-1.64521174833442
-1.95389548135175
-2.18160107233808
-2.47257207963201
-2.93906365531607
-3.41371767621646
-3.62499153111231
-3.45645652477857
-2.96056671038763
-2.28973081064435
-1.65043014914207
-1.21946558316994
-1.11488530420973
-1.4202152705439
-2.07414677770812
-2.76663086614364
-3.14754603741119
-3.10147808238456
-2.68118233713884
-1.93964874675181
-0.991661602658041
-0.0344881160384024
0.820985263209872
1.53583830853701
1.9676453260098
2.00039350855215
1.80434917509197
1.66408362022017
1.61895178141939
1.53871386451649
1.43335244758916
1.42656952849826
1.54181931188419
1.73430543137337
1.99767852072267
2.25136782340935
2.27030037022504
1.8761341114813
1.08416952295528
0.0554286724111922
-0.917884677184841
-1.45665385448814
-1.36357595553136
-0.799902618469769
-0.0715928588724926
0.636182933626297
1.26866638211506
1.83689533765245
2.36752096634558
2.78413710146243
2.91403389797074
2.71166910628198
2.32617142196444
1.89859748784873
1.49246612994635
1.20083063891844
1.06888470475363
0.976026283273915
0.831403071354306
0.7476215517791
0.827091291320817
1.0048283869205
1.25195126646709
1.64248322936768
2.12634061314396
2.55372155583527
2.94205976926332
3.39571927055277
3.80590503178601
3.93926432004493
3.74796546212878
3.33957280663785
2.7711491065623
2.0959662513313
1.44212403044208
0.83640462487753
0.129290914552869
-0.746726808457179
-1.63932070465743
-2.39216779532879
-2.99956255846676
-3.52320315126569
-4.0373705808633
-4.60869736535676
-5.19222962718132
-5.65647930327641
-5.98518988537632
-6.2992625226959
-6.66464443548671
-7.04069373011067
-7.37047793175119
-7.57389674523322
-7.53831637284425
-7.21174048084232
-6.59558056020236
-5.65525939252854
-4.41690527837353
-3.08589759525602
-1.87230752514125
-0.819565540591646
0.0451224119778262
0.632054641245314
1.01410191236006
1.44172638327843
2.00812475013789
2.57116231076006
3.02595243346444
3.35926421986479
3.48639323865271
3.34740607004606
3.1081473095112
3.00946569912986
3.09811014041514
3.27774564689782
3.45913159860062
3.51734070090369
3.34421324721718
3.08608305328156
3.05720747323023
3.30333040899877
3.51749365081762
3.43004831761937
3.02730147065157
2.42157013020917
1.75396462610856
1.18095044180364
0.794891757586702
0.60301757868339
0.603879584177094
0.785881853323157
1.10359124713889
1.54704947414079
2.11139131179127
2.64124724823584
2.90183006535159
2.84257025280103
2.58422631143894
2.19218211095447
1.70925350967911
1.29666532496092
1.05835634048428
0.849169190093954
0.478479957745986
-0.0604784610088688
-0.687913983405099
-1.3284439691089
-1.84533523577168
-2.14602826426974
-2.35509125955446
-2.63526895532488
-2.91947929458434
-3.08248754938562
-3.24232706014435
-3.59855832955819
-4.10037141978914
-4.53910858863478
-4.83242678840671
-5.01265479941709
-5.09735053244676
-5.09840070768141
-4.97218510110027
-4.52849566362026
-3.60080118507574
-2.28121305440903
-0.823304257557019
0.572807031757871
1.75468877926216
2.57341350584542
2.9571095569086
2.91710994845346
2.50818435121351
1.90783138548003
1.41715944978567
1.23143944628312
1.31022182986188
1.51802043908953
1.73317695584134
1.85173394152168
1.88564748279046
1.96886149180726
2.09695990371461
2.06115639286938
1.79543293560848
1.50073279269674
1.28968706331534
1.04274294558064
0.719601281198334
0.472989541673639
0.380162717981584
0.349845876854321
0.301671899727419
0.192990514021629
-0.0623772559912025
-0.459768700514095
-0.787579389946387
-0.86148486597231
-0.750610193505141
-0.609754643746505
-0.469182601961917
-0.328260170501639
-0.264551142903544
-0.352421609852267
-0.613621573982725
-1.03452898887205
-1.51445650740282
-1.88979031618065
-2.08972224222499
-2.14371866952963
-2.04461006435873
-1.77955298501083
-1.43617240860937
-1.10340564212008
-0.765674915453034
-0.40705511890625
-0.0487060986194662
0.367811678649044
0.89183479425233
1.35683701716113
1.53885512435333
1.4718029201671
1.34873784900385
1.2475079523931
1.18696399619415
1.23934907964492
1.37855019658502
1.44557630512625
1.38624555967325
1.28503130254237
1.14718434287383
0.917262208946043
0.673606670229458
0.528032316983525
0.402306385264367
0.159966825105234
-0.140340717497851
-0.34475797973719
-0.416851537742989
-0.376754572709949
-0.221766820454793
-0.0355113205839715
0.0525445294134624
0.0866069039945676
0.22674657906298
0.464015136988996
0.606314879703988
0.509510796615146
0.181556266263166
-0.251948076788631
-0.615963426257208
-0.828201891827215
-0.963553924503468
-1.09296663701242
-1.18059529095979
-1.22220969215583
-1.28803477816413
-1.35968881506794
-1.3429743799636
-1.24284619008839
-1.09527871523278
-0.824900751069138
-0.418893914601851
-0.0594368856815624
0.152284988848603
0.351317044711263
0.60147298006164
0.751353888357652
0.74673162143544
0.751595340679021
0.848475055346185
0.922640186740623
0.896589116331753
0.814261853000119
0.699001432373024
0.560447070238558
0.481382858870003
0.492518427004129
0.471129402085238
0.334571574128127
0.178716662789401
0.102209078963655
0.0799694600159105
0.0645185912967613
0.0134742761160838
-0.161908529723571
-0.482013414249559
-0.797229860400298
-0.931516307890409
-0.828789703479129
-0.528430570686846
-0.151848601999919
0.114462891800271
0.181654673412669
0.131994239836161
0.0356162364057041
-0.135172948191752
-0.341986392890536
-0.465115773031867
-0.496711575839825
-0.51513857558697
-0.495898892444946
-0.379416658684378
-0.22408880249805
-0.0890255314473997
0.0699013138797958
0.252238922260982
0.391380740767965
0.537159523293636
0.772783809705286
0.95153404263401
0.84136076638999
0.511688916519874
0.260901139762597
0.196857493599543
0.178525005457099
0.10785496624362
0.0040404679057571
-0.137446988928259
-0.33033285363472
-0.533488771179073
-0.741455437234283
-0.996017166728531
-1.24891935517633
-1.39491581200124
-1.43169737520759
-1.41358468128595
-1.33469051457572
-1.20810847885168
-1.11956814904157
-1.091248346241
-1.04254677430054
-0.92900142912171
-0.78418223165283
-0.659574448712421
-0.628367724120245
-0.73288887052828
-0.854914974872837
-0.813076685458107
-0.620441847292915
-0.439084874339854
-0.307938685468021
-0.133927212097772
0.140552887831613
0.559630075354788
1.1738141139454
1.86611788857338
2.36859670607341
2.57267512112202
2.61206057104168
2.61860659781583
2.63966103158943
2.75177764298631
2.98576181666448
3.19773815909486
3.25416705270153
3.2409190592985
3.27167701756016
3.25417791070989
3.06929473232043
2.7903467407552
2.52840311272055
2.26783245979602
1.99608123263144
1.7790141383884
1.61737579035461
1.40837018630457
1.07917082111595
0.655885938263001
0.246443586215327
-0.0171749405309819
-0.121867705079796
-0.224499482708799
-0.452053541460933
-0.762967404432473
-1.10726315105157
-1.53978293586682
-2.08408082934292
-2.6987782515387
-3.41348628588516
-4.25315643847182
-5.06315592864684
-5.67389109966525
-6.13802469919316
-6.5591962830418
-6.86617703635272
-6.97800591837484
-6.9684966647888
-6.90153958338574
-6.74297267565328
-6.51562244907209
-6.28265830156677
-5.96011948611844
-5.40557073305568
-4.66444186262812
-3.88549382173319
-3.06751379464918
-2.11732424153408
-1.03330032035809
0.182444903369214
1.61772313207014
3.248068530758
4.82041226377899
6.091699817502
7.02311023386828
7.68876085529523
8.15579000122904
8.43263915419103
8.41114418415851
7.95190935261172
7.10770024680494
6.14022072044855
5.30379821794915
4.73333457094678
4.45127339565073
4.32814159151079
4.16291075392527
3.9220641852994
3.7421804429553
3.66971673099537
3.62517180336063
3.58185339661457
3.51441469321985
3.28019515506411
2.81634670449381
2.28028839836217
1.77356083758247
1.16705344793465
0.361937239379173
-0.564840280505746
-1.57349299274061
-2.70209478481817
-3.83888571312273
-4.76180098034635
-5.42024426403662
-5.9017542115728
-6.17361025315153
-6.1479985696816
-5.92870984508634
-5.72453896964367
-5.60154082757612
-5.50204374375812
-5.36634553564072
-5.13071074135037
-4.78882724094556
-4.48402374673637
-4.35709573310063
-4.36253230361048
-4.39237193670601
-4.43163535628516
-4.44862397847371
-4.30830587575887
-3.88988084376155
-3.1358772519073
-1.99152661476074
-0.456180231517676
1.35326713311817
3.267129337253
5.05472303477378
6.37365594138973
7.00151414927115
7.09258595243528
6.9247178093115
6.51097314368224
5.76608658479599
4.85059465869765
4.00853079285939
3.26603049890714
2.56682921614014
1.98413964434441
1.579483086298
1.25492264835099
0.888550783325724
0.450748632385461
-0.0447527090662797
-0.519925108400297
-0.800856500909047
-0.81307281271375
-0.722365141962602
-0.672999849802465
-0.532356357757263
-0.123864098337852
0.44130853189182
0.865682675338565
0.968475340727067
0.78028204994454
0.461383192393966
0.165814409097355
-0.0818169217968239
-0.331339392956658
-0.541809963355261
-0.623787474468746
-0.606540045621077
-0.572046132459301
-0.504536084152299
-0.397472872420078
-0.365198405573839
-0.451439490169115
-0.505398617824527
-0.420997828367302
-0.302810269719018
-0.270976800666806
-0.299540982027748
-0.303798175537952
-0.21660953837502
-0.0210302752658313
0.15058355140021
0.0908061366783863
-0.192282663632179
-0.464014155946846
-0.625088940524935
-0.835905206828496
-1.22016774746916
-1.70918982230388
-2.22135807799573
-2.71928480730435
-3.04315125059391
-2.94852352871928
-2.37183007523356
-1.50264687267089
-0.640262660186002
-0.0988182127347362
-0.0928903062432487
-0.5594861655358
-1.21447874606374
-1.82478596345201
-2.28427424834321
-2.50312176438474
-2.42677844107845
-2.08233703764355
-1.4746007509486
-0.572668757382585
0.532201897288019
1.63072222565588
2.58516255657916
3.36667527326987
3.95176813613999
4.31080270345275
4.41954435123349
4.24486728062374
3.86645728768833
3.54597896860789
3.43419574399779
3.33365045030568
3.02360753570976
2.61773295785346
2.31334535646522
2.0529337098749
1.72376608045076
1.4072022376654
1.16640906561877
0.860497490704621
0.385477079216824
-0.154362237375665
-0.68229605101894
-1.31825548809434
-2.17952128220654
-3.2095720162183
-4.26820340023921
-5.21148204851095
-5.88389393661107
-6.18760685683294
-6.1174625726423
-5.66841549396323
-4.86125568976455
-3.88471763917273
-3.00571601245877
-2.31948985501065
-1.73862526777095
-1.17162417714591
-0.594237131667034
-0.0333575944614467
0.460245236035049
0.895761881526962
1.33406264982724
1.71600939291548
1.88984303030618
1.91760331558931
2.08294648729822
2.47771960812474
2.88810793463943
3.16612102167477
3.37488739700188
3.54408246995835
3.63093335755999
3.69938180069177
3.83318272907814
3.9666563297915
4.04978166812536
4.21438936271999
4.56374336226826
4.97829404292525
5.27935220004462
5.39894334152325
5.30496207178552
4.95408910542579
4.35663329292692
3.52296579152367
2.41097993252202
1.10509514403784
-0.111742621212144
-1.07078761907942
-1.89749176943457
-2.70007670010473
-3.33493474503921
-3.65075957573276
-3.74089641098035
-3.84596506096936
-4.15280549110953
-4.67135621760747
-5.19699762613374
-5.48782789438683
-5.54740538186941
-5.61394772525017
-5.88082463740959
-6.35684082418676
-6.90343746678928
-7.26857639258195
-7.23606494025224
-6.85558924018945
-6.34726673037836
-5.76938489334214
-5.03906860607285
-4.21066949668152
-3.40121624198977
-2.53994018147243
-1.5158670349236
-0.442832786735422
0.475085075111875
1.16299475707174
1.61489059924243
1.88890599834292
2.26149279039682
3.03723450940897
4.08400768585644
4.88485099499646
5.14131737650828
5.01256474287734
4.72697546662969
4.30649540751817
3.72379780682746
3.04185411540752
2.35363574345161
1.7327414828986
1.20046209172051
0.703197178788336
0.243965159304804
-0.0196754888237849
0.0048093679340739
0.126756123287111
0.0815452112216378
-0.111832050712891
-0.116523245940044
0.473511078444741
1.82947294612794
3.67852841752122
5.44473835446694
6.72318122256907
7.51528330591525
7.9681579165373
8.14427359504312
8.09108579343983
7.7993809658337
7.034255538121
5.5388808608237
3.44837576630924
1.25295188974743
-0.609869138806311
-1.97280228006608
-2.93203589371026
-3.79089561983923
-4.81806923883063
-5.92822827123644
-6.74681690830166
-6.99601219971711
-6.63791185280104
-5.75050754360809
-4.57111206923795
-3.55675815865632
-3.01803630316485
-2.72025361648734
-2.14623687693032
-1.09371113058912
0.193681469320737
1.33804590729947
2.09531518245026
2.48078700114765
2.76276986539402
3.22796728561047
3.90135812248841
4.4875882449873
4.48115851926498
3.40338645286499
1.21142738830839
-1.5026982550142
-3.94315886142099
-5.73001885597474
-6.97076452835471
-7.90879553559818
-8.70440036637018
-9.37489080472828
-9.75600617815428
-9.63392277463893
-8.94968656070352
-7.7594718556558
-6.14330513409793
-4.34674643009433
-2.76498177908715
-1.5205818182456
-0.283852265880506
1.27323596211723
3.06780915840925
4.75891679081252
6.01147676932052
6.52112124405674
6.13633231294184
5.12581647468429
4.06992960586638
3.36936041436887
3.02065561847321
2.82503644035755
2.60823484625024
2.34300709524886
2.2531362388157
2.64826067718789
3.51565732108685
4.44851370473316
5.02114762474056
5.03215731165266
4.43547249775346
3.31319268322211
1.91884127898859
0.580041263069184
-0.431377940102924
-0.943749321971474
-0.961779765495164
-0.687750943373557
-0.315529582538798
0.12669705305831
0.617527363015203
0.996919973873939
1.09626305084187
0.838160762134438
0.185773355050716
-0.781649506654374
-1.79091862828197
-2.60614366624836
-3.22214101097068
-3.63536560633158
-3.65143917779296
-3.14934507266297
-2.32173981689038
-1.47020298774141
-0.761719899337872
-0.292051245692859
-0.154687271686996
-0.336487007748157
-0.708370901134417
-1.13309228227435
-1.45036282396986
-1.49144261468084
-1.31259201308749
-1.23575209319144
-1.44440528188828
-1.72461060759624
-1.75497759241534
-1.43746595430981
-0.842469823375558
-0.0299700384440592
1.012310651769
2.35727428657095
4.01149190251341
5.73511663786034
7.10117600740493
7.76211450252868
7.57263230185103
6.56963347827922
4.99984811865814
3.22581393026465
1.46080128042945
-0.220949140115333
-1.56263543535227
-2.1457260425009
-1.8358866966434
-0.927909084652072
0.155994273400204
1.03919998772112
1.38548497592206
1.0623589504537
0.23882789322484
-0.863948886369354
-2.12996047674654
-3.33530638821644
-4.09312909614131
-4.2080157075679
-3.84876297561171
-3.27024567197112
-2.62815528466008
-2.09631543072898
-1.83238639564923
-1.77152214883965
-1.7166171699256
-1.61445812107652
-1.5432533353829
-1.5417870294871
-1.61117084627687
-1.72283913335043
-1.71847089382967
-1.37732746639367
-0.665555604019429
0.149478791499662
0.604691586314293
0.297049727009411
-0.769013997771701
-2.1012943193542
-3.19174702722767
-3.99986827876388
-4.76906542008647
-5.53339648257273
-6.05595265536304
-6.08933933605883
-5.50441011494036
-4.35851039232994
-2.96007611020656
-1.66063805316606
-0.561086832023126
0.391583602285786
1.17297903704986
1.81450020464623
2.55921324584806
3.59038561786121
4.78178990066725
5.91113056485019
6.89296092208095
7.67783361871096
8.22936845584129
8.71770616162722
9.37608986697193
10.0194957006094
10.055593098846
9.13762701293094
7.54123534714002
5.80227012023441
4.20611811028795
2.70232676552634
1.19121534410323
-0.179611583603211
-1.07451647721642
-1.36608699354856
-1.30415961197602
-1.17886981835959
-1.04781440813354
-0.962952992608277
-1.22125724286575
-2.15453341585258
-3.75221373951219
-5.56776065188543
-6.96110410081929
-7.53689867652178
-7.44216428844799
-7.09819658658794
-6.63051371800883
-5.83899306434266
-4.70946492642797
-3.5387531759631
-2.51296449886875
-1.57543901208012
-0.759506666121915
-0.286375883883443
-0.285113456273638
-0.652804885200785
-1.14790915351524
-1.4455789078198
-1.2202076705626
-0.360096834753717
0.963641831467962
2.5069825125356
4.12751309782373
5.76676960283685
7.40500981654501
8.95257170581232
10.0377973481248
10.1076094519272
8.9795560415679
7.124710215451
5.23007790631563
3.65665560532203
2.38807812068406
1.26228781971893
0.17895615578756
-0.772325939687323
-1.40758606552103
-1.73780038992856
-2.04301437820612
-2.63812393630496
-3.70999153084567
-5.28264512171445
-7.08866732802825
-8.58266359280774
-9.3533056764271
-9.45608318018871
-9.22674572827538
-8.96632359153731
-8.85456462127765
-8.83921144566683
-8.52678144726562
-7.47771790601126
-5.6390012798471
-3.29327427831217
-0.759693641026025
1.57781329476054
3.17996820050461
3.67238203987112
3.20083483937632
2.28798727064467
1.45087307796236
1.03273025426175
1.16937025449877
1.75980096278772
2.58675920591213
3.48503818672247
4.29739876390871
4.82625434162177
5.0173717686978
5.01245837797211
4.86853959289855
4.43726724863996
3.60866482808446
2.44860376615637
1.08815089597848
-0.29381691259197
-1.41858857422007
-2.02733683740434
-2.00175943764184
-1.31501289766715
-0.027693353029499
1.63736612113668
3.38617834050735
5.00092448454211
6.29109591394894
7.07391825236363
7.36109873900355
7.35403219690583
7.12588717425245
6.54794335688108
5.59307834610166
4.4465720123182
3.30006687192837
2.24727807563456
1.29356498305905
0.297227861426566
-0.911256550589256
-2.20794144798355
-3.22373226337959
-3.82836217384551
-4.27676871563119
-4.79208306971389
-5.32948197027031
-5.80909822197206
-6.22629208203416
-6.48726958311748
-6.47496389411748
-6.28683034818841
-6.12776350159271
-6.03051518662305
-5.89627611477474
-5.68095283272249
-5.39272324897665
-5.07131515688739
-4.85277766871038
-4.89142915128557
-5.16648979310482
-5.40956780880532
-5.14918777598783
-3.88802533338572
-1.50134962792261
1.54838562789891
4.64293069767938
7.54815429405912
10.2399177729845
12.4134953996686
13.5952640398986
13.6535694110533
12.9115924455817
11.8454773273089
10.7789969422787
9.68311178343503
8.22896961842397
6.21923316959907
3.91436022427714
1.78830078137499
0.138880201293923
-0.925454962857212
-1.41573594807939
-1.60730613050604
-1.9879462490656
-2.83426926068624
-4.0357031043909
-5.43800438312056
-7.08574205443075
-9.03319016453568
-11.1708044785611
-13.2697571244334
-14.9906840356217
-15.9299539543195
-15.8685438347149
-14.8956524422464
-13.2197563830743
-11.0359934180405
-8.57379112113209
-6.03926363332385
-3.52955877608127
-1.17649516517849
0.730955998686096
1.92083428099674
2.32064527851666
2.00695892252398
1.14298341379627
0.0146827272684933
-0.973317181279938
-1.3218849596238
-0.528546993099224
1.52437953947218
4.21626814229383
6.5799807409775
8.13107284093558
9.03978174561006
9.60847900935615
10.0073059570716
10.4177937101428
10.9637098935856
11.4877093832624
11.691390026451
11.4554913691447
10.8539446167991
10.0094430129359
9.09051130924092
8.24735033741283
7.41536801370711
6.41689705016126
5.37318218830346
4.77921307654475
5.06172342726843
6.17702061484833
7.57182247663945
8.40165945672429
7.95286932806475
6.07154281299398
3.19026133926005
-0.0180408298094343
-2.93386251215556
-5.14756894437424
-6.59069539351756
-7.46836128367843
-7.97621384421481
-8.1835761972576
-8.13755796574601
-7.86239520278617
-7.35234561315939
-6.80738721338678
-6.6921351252534
-7.26133153810414
-8.1989127373132
-8.95403391969784
-9.22243307150393
-8.97261039170185
-8.30029572401255
-7.37395218009034
-6.28249160746689
-4.93888506985511
-3.33806980994906
-1.76990340743294
-0.563624597502569
0.146784823969483
0.176143267514043
-0.868189487959622
-3.14442196595949
-6.17823365133933
-9.16983713700702
-11.5173232526721
-12.8980251347177
-13.1441563097517
-12.2995491466313
-10.6769432998544
-8.72267897093326
-6.80914881164
-5.06156213457972
-3.32860163646778
-1.39844956626272
0.790453758468211
3.21816361458636
5.87439674429656
8.64213462035363
11.3067196228807
13.7942480766134
16.1422544522519
18.1581885843803
19.3976860982653
19.5524496878826
18.6588629554435
16.9937348368948
14.953776399063
12.8590501360439
10.7049576218001
8.35646765727726
6.06179841231186
4.36644438543613
3.40067931584666
2.65070541259777
1.52460419010893
-0.201303816836867
-2.48200250977955
-5.12581701024535
-7.71656724597571
-9.69955314642698
-10.713375401855
-10.8430664431596
-10.5883048399086
-10.5094711018204
-10.6880623632513
-10.5475077138945
-9.42025603834518
-7.23383584671958
-4.43407085919588
-1.40104493280051
1.75913431466353
4.93614519569731
7.75693841317045
9.62026241825219
10.0526680913418
9.1676207824151
7.64389353958776
6.09072626421559
4.62703002647137
3.20690608704418
2.04073833888924
1.49154152539344
1.77339941658373
2.79661832640686
4.04303862879999
4.66096881203792
4.06507590986947
2.48536708027678
0.741938030468023
-0.455582309092856
-0.975724948689147
-1.32316307966786
-2.25873948102202
-4.05878134355102
-6.18738220796312
-7.96139838090865
-9.32752098251305
-10.6344944424577
-11.9193867848575
-12.8854769910972
-13.3900501414526
-13.4938266450155
-13.1366839364011
-12.1477439198493
-10.5393572927791
-8.56692855867105
-6.54250087613041
-4.6603247371005
-2.92478514284513
-1.28012692316851
0.15312782794781
1.18384844737528
1.9610885024198
2.93941004021317
4.25519579860863
5.41166366224562
5.76052610649233
5.14212827818096
3.98780695173814
2.91732407713764
2.26988833420471
1.99714884411529
1.99600324920514
2.3878673648718
3.33847460874525
4.8169497951235
6.72035628148385
8.9421000129211
11.0985612930633
12.5821195706027
13.1834183536623
13.2883274657556
13.1882092273542
12.5841413287374
11.0777370115642
8.85884803902868
6.61241984977743
4.87182726142094
3.63617918122381
2.57396165452417
1.51758879197603
0.729010842192709
0.647412871191627
1.4342102072559
2.87735441612861
4.59744192873607
6.05470225027051
6.47468313496366
5.22904550803771
2.40827455650211
-1.218042426015
-4.8468802340033
-8.127272163566
-11.0758101570422
-13.6462937571593
-15.4323772891757
-15.9039774496
-14.9976382642721
-13.3005466632502
-11.552698871328
-10.1440255854236
-9.12929704223018
-8.45700194731396
-8.09387155312555
-8.11568924232525
-8.64900220864426
-9.54239259425691
-10.2576969047486
-10.3526463355413
-9.93574440784793
-9.43117955309296
-9.01644939789984
-8.40538248429424
-7.09672400099239
-4.89868490261397
-2.33267219079628
-0.30878970263924
0.816049498972028
1.62464530282574
2.86987200758454
4.62048728632735
6.44659034179169
8.1092089877314
9.64663864932241
10.9727218559535
11.7839527172471
11.8373515951771
11.1635674149433
10.0800681999365
9.00310733476078
8.10240800890596
7.19420904922655
6.11816388739813
5.09765981244956
4.55801393241132
4.67075014039527
5.17557081774474
5.58101280446311
5.49626624669987
4.81944530950272
3.66990402190282
2.26200107836122
0.918945991431066
0.0183455394491958
-0.280589273775897
-0.117707111303164
0.389407217659346
1.28987682675614
2.46765791458488
3.47391717368696
3.85401712439921
3.38912714662335
2.04386893753282
0.08985580422537
-1.73249280283596
-2.62297976727907
-2.36359487585802
-1.31626950082253
0.0898217368508273
1.59502255010269
3.0215274226129
4.26981331348417
5.28799971967069
5.85825208068539
5.61663981254935
4.43003428696688
2.50859383765968
0.0844168888634863
-2.68984933678379
-5.4797073079408
-7.7644748483346
-9.18814670014781
-9.72532725275977
-9.52758533521349
-8.73623479574767
-7.36518218751952
-5.28756939421201
-2.38995275216489
1.27480427469019
5.44910627756243
9.52774134042742
12.4058610326614
12.907339293796
10.7322607717078
6.84820026322356
2.70574345349348
-0.933554967848691
-4.36818602901123
-8.2295155240137
-12.4266842266189
-15.9052170335498
-17.5519148965321
-17.19425462146
-15.5525425087032
-13.4715850615543
-11.4900787725389
-9.89857285634633
-8.80456919042858
-8.1841058293341
-8.04341811975985
-8.39682402887349
-9.02230985663233
-9.54302384614198
-9.89849154894475
-10.4147802498605
-11.2098636147588
-11.7985738183149
-11.4596862205924
-9.80292788769955
-6.93616936201257
-3.30737593438228
0.571677739893096
4.36252776770382
7.83855700678816
10.6206927873041
12.2084332692245
12.3736467952854
11.4432828057083
10.2058452090649
9.50308482807468
9.68334506411053
10.4276948681169
11.3357895712514
12.5623249841774
14.4910333599323
16.9080313274783
18.9744378726395
19.979352063495
19.794354414433
18.7614310505833
17.4472035137991
16.2881802121652
15.2231071071823
13.8964978720244
12.3368058196841
11.1079624460396
10.6628802714142
10.8143339294939
10.9045543036992
10.2569043228249
8.47740731007121
5.63679310525023
2.28666852901624
-0.850108292396808
-3.31127432253497
-5.09165408766901
-6.55401407556998
-8.13013604459845
-9.92005921588113
-11.5758212584635
-12.6883908242972
-13.1980499796271
-13.3702507055943
-13.5800270731747
-14.1602377964277
-15.1837154054327
-16.3470450996596
-17.2816000594825
-17.898159676469
-18.2064686488882
-17.9912689704536
-16.976574120273
-15.2150849737064
-13.1508424605223
-11.3937458468254
-10.3908274755786
-10.0571347533049
-9.75839844503419
-8.88414466100718
-7.34302849584333
-5.36097136236626
-3.07783500630215
-0.557086578175118
2.0684052388377
4.62210217842872
6.84820762774317
8.3672581010198
8.98264301307658
9.02397772330109
9.0817284103304
9.39769240786541
9.74260266592519
9.82655237283432
9.60044449319531
9.21547196288365
8.85950383110161
8.58273406412034
8.23544229448478
7.65255569935238
6.79647818132644
5.59173763048074
3.88165205785803
1.80400513237282
-0.0467449298589422
-1.09730215394735
-1.26026140660388
-0.846170511414227
-0.310105241223304
-0.146675164086994
-0.682959642578515
-1.78583443125079
-2.89337951094846
-3.40604078338509
-3.07090992351131
-2.0920174800616
-0.876334390448083
0.380631434227198
1.70685019717665
2.87127157014033
3.2359689621597
2.3694014346826
0.556912550423447
-1.49836995720279
-3.2010369448161
-4.16253596135584
-4.14288865070023
-3.12752474681379
-1.31251983259249
1.02655177515266
3.52621678297356
5.71454444329144
7.21819050294993
7.92393734972226
7.86140109261933
7.16758129603484
6.24479628047489
5.55015307541926
5.01326533338999
4.00331218712093
2.08562204927584
-0.413815864306381
-2.67516707880677
-4.03572083791368
-4.41826194308168
-4.30524555375868
-4.28387830760113
-4.56038131975975
-4.9298886981944
-5.0993965038842
-4.92266844842257
-4.46396973493212
-3.95623372556026
-3.58804963860874
-3.35343062894658
-3.28262594772394
-3.62513789498319
-4.42130705556372
-5.0492304608967
-4.65543347289324
-3.00575244678306
-0.644588884573165
1.62501853344137
3.18695950955041
3.76981180140189
3.43092687274422
2.34346171782691
0.640618108628925
-1.36562101423708
-3.01495114093583
-3.74944686155521
-3.68408623493693
-3.40178777881246
-3.26583907350185
-3.25280050508271
-3.30577049640574
-3.40441037907908
-3.29183744610902
-2.48956649663965
-0.691313827578905
1.94985496503442
4.90714084487367
7.63173417408021
9.88204625474322
11.7240136061944
13.2476074068344
14.3603905147219
14.7718202655105
14.0746455303685
12.0261132455655
8.92046384173576
5.48824275114694
2.28120804560608
-0.639901762583729
-3.37892652686666
-5.89339610845444
-8.04740513687418
-9.65522089661681
-10.4797450753193
-10.4648316381039
-9.89526992446576
-9.15229698212969
-8.51897667427445
-8.29220867860518
-8.64192343955396
-9.19468521585629
-9.21660345860774
-8.42049177410106
-7.24386386378628
-6.20954601141205
-5.31898723604128
-4.12653954514129
-2.15386612508426
0.715776389673644
3.97681745336655
6.72317008207957
8.38428372905373
9.13247227023334
9.4259869810947
9.42147530995415
9.03659489659577
8.34556270868311
7.69621422836336
7.48699036904195
7.81085166521389
8.26267557871107
8.21477009529462
7.30750050576878
5.51519428789785
2.84530400765461
-0.650700645612898
-4.51408521581989
-7.82936235423033
-9.71822046560842
-9.89984371578031
-8.82381217901923
-7.26621157324292
-5.75201685351288
-4.42718502682054
-3.41985059103572
-2.94637513918131
-2.94531848517445
-3.04377746673791
-3.08813436843987
-3.28935421407959
-3.65060443121824
-3.67495789341244
-2.8696496911494
-1.24195576378568
0.827900470457184
2.93426841301409
4.81176559862641
6.42259213591402
7.91777033210974
9.3076357563214
10.2100600944171
10.1119697241382
8.82306607225845
6.61520492069741
4.1052607618439
1.9952000534182
0.611313184869931
-0.339384998351841
-1.31165234523683
-2.2707912951373
-2.70672608833679
-2.20326916679796
-0.846360835097893
0.840157413024761
2.31347457649925
3.40947901108216
4.21328070511459
4.5522549735382
4.00665504664703
2.56688044729661
0.845948313577601
-0.588048024996222
-1.73263130492603
-2.86041166112869
-4.07147747892378
-5.25580265802486
-6.21872715253947
-6.78510287890909
-6.9569019684613
-6.97325653176314
-7.20190632682722
-8.06265844422441
-9.87381224061383
-12.4151481930105
-14.7351100933235
-15.8135549874622
-15.4666098137616
-14.3507539195964
-13.1402630321858
-11.9327190505877
-10.3135809795249
-7.73499492529775
-3.97394619560376
0.558577866639004
5.08014197568464
9.04588775352579
12.2468694843015
14.3788237969107
15.0138284828183
14.1778083393877
12.6480529240699
11.4682269244189
11.2037227696664
11.6541774033207
12.1850706182917
12.2491248259032
11.5867275427196
10.1695812793789
8.28792714720678
6.58573748650075
5.56461747892463
5.04536008854052
4.49009032889164
3.74955839124781
3.06620446370005
2.5433435489185
2.17205240383741
2.24849716221443
3.18658315517558
4.86959283197447
6.51230495706535
7.21141362895273
6.57271678043937
4.9153970759646
2.88780872729014
0.805476712640444
-1.47316454296522
-3.86627870743599
-5.61876512917504
-5.97252695645411
-5.0879331636258
-3.8493264528408
-2.89034260398229
-2.21877589293242
-1.67057625231008
-1.28976665492069
-1.20127137060753
-1.36707650972311
-1.66094605285324
-2.24195701727048
-3.71026058544416
-6.58406907792372
-10.5355995466433
-14.3568067420269
-16.7748534117697
-17.278646508544
-16.3755330754592
-15.2803883544618
-15.1385623330104
-16.215940010839
-17.8523440617997
-19.2118294551064
-19.8662302858394
-19.7332912115141
-18.8604410845954
-17.3202130137559
-15.0694607579057
-12.0210983385653
-8.44015953131075
-4.94815654215538
-1.85012989045557
1.21810390653857
4.70053180254673
8.49464680119048
12.1477649948215
15.3766722802601
18.1808283737823
20.694337999146
23.0921051193833
25.4334345982444
27.4727059330691
28.7374803708856
28.8149516433027
27.5521973440858
25.1538844883597
22.1613636611789
19.1595078360345
16.44168693002
14.0151161589029
11.7715241588383
9.53417434051005
7.17016486874526
4.77083173915401
2.46241405377467
-0.0057411506595675
-3.13088491416863
-6.96814358064661
-10.7561469582774
-13.302677836742
-13.7442961232883
-12.123067270628
-9.36164084272292
-6.59731127863536
-4.55362498385092
-3.57655077339952
-3.87948817289375
-5.34743783309892
-7.37424567311197
-9.32221718827791
-10.9537523026707
-12.1293192057766
-12.3957818017617
-11.2524138876088
-8.68483703352484
-5.21740759611535
-1.5356380804962
1.85974918881716
4.74792498269855
7.01638033204821
8.41138341982953
8.5847221579133
7.41222026875404
5.05190267497622
1.68047262347719
-2.4971012788709
-6.97138574354974
-11.1118109922463
-14.7197350891146
-17.9882519782819
-20.7922980596833
-22.34059741816
-21.6853624076747
-18.4927967793193
-13.3385068015505
-7.31740526419555
-1.35793632751099
4.04560105826844
8.51908876356888
11.6276989212821
13.21812594748
13.6336591176279
13.3888742810061
12.9206658623569
12.7478981485731
13.4048650753934
14.9207091357952
16.6029023442578
17.5457250816457
17.342652341135
16.3791531318006
15.4505759530574
14.8691995866905
13.9019504895265
11.3831787542631
6.96505535990243
1.51890018191724
-3.66752381658451
-7.7614359652774
-10.5526156403154
-12.2740074948091
-13.3732070179486
-14.0942362655904
-14.2054024189351
-13.4056803057426
-11.953563719926
-10.5899351910456
-9.81601266975611
-9.39724791054745
-8.58222342310799
-6.80953281673645
-4.26249198832765
-1.71167527586887
0.138034790495236
1.00092357659631
0.897980731627832
0.115057771381964
-0.757476532878096
-1.1782435199203
-1.14292478418917
-1.095043856268
-1.37892648288206
-1.92789628555297
-2.39892901820167
-2.55981409440619
-2.64369111386513
-3.16410265675265
-4.14861624454704
-4.82903525317403
-4.45906183718901
-3.21437988057234
-1.97434740174045
-1.46336529090733
-1.83818050804077
-2.77863092051615
-3.66226266355012
-3.85443445735795
-3.1170534006543
-1.75301989794688
-0.343801808534942
0.653281202149218
1.27056351657307
2.1802731059858
4.27954954965454
7.92613833590444
12.7200867342556
18.0057829771856
23.2085675085856
27.6899484396369
30.7904345697745
32.1797602585881
31.8754067428
29.9286218159494
26.401435198173
21.6487932326947
16.3690057350374
11.2743519326894
6.7017192984047
2.5033854394068
-1.67274554698925
-6.01804647891496
-10.5537795061962
-15.3328283585489
-20.3347460697165
-25.2020109490543
-29.4130352052311
-32.708947220449
-35.078455198298
-36.3748684458074
-36.1527070222076
-33.7933172618878
-28.7755127200513
-21.1701797785591
-11.9970690722277
-2.80110289859446
5.16381413777405
11.0877000886939
14.2400595636976
14.1995671776042
11.5902976876041
8.02404326226331
4.99548758726343
2.94420428405117
1.27394757313589
-0.982249686869682
-4.3210507892877
-8.18539787659904
-11.1871361700223
-12.0374776320831
-10.3132301975687
-6.57010561821826
-2.02545825400793
1.99542826385076
4.68209315873028
6.00869418831562
6.55296558974987
7.22584910698655
8.92043739920699
11.8831686909069
15.3431802945014
18.0784765977742
19.4107638989308
19.5402853928603
19.0923186284509
18.5466833877764
17.9769190054518
17.1710182197468
15.966077796589
14.3207234471354
12.0245798869335
8.71673302434715
4.45540073925662
-0.0118751289032576
-3.75973335260845
-6.23726796381944
-7.29933649901606
-7.16280385276301
-6.52355180296595
-6.30275582239256
-6.98374095574951
-8.37830085966235
-10.0932271425861
-11.9145764489292
-13.6751967053774
-15.0878966660529
-15.8714873551742
-15.9287468309232
-15.3943895349524
-14.5231857672088
-13.3990426739741
-11.7595110267668
-9.26660239230029
-5.91310247533303
-2.07608878314805
1.64879754667614
4.55788917582223
6.03513471586742
5.83421505488379
4.15721862602401
1.62499716681262
-0.655506060553407
-1.36677862068199
0.124589574504839
3.1425614644979
6.20892877421995
8.10186150751656
8.40512876074829
7.3954586459782
5.60659482994518
3.30279363295661
0.280747206169873
-3.70590392458993
-8.3997204352529
-13.0324920599392
-16.7298134687318
-18.8371716003332
-19.0717005211719
-17.5786179874322
-14.8540408671108
-11.6091807345896
-8.63319864309747
-6.399595973058
-4.47129896180254
-1.53834233989514
3.519788082882
10.5835058070077
18.3129000770669
24.8868012241108
28.6795686628839
28.7821281623693
25.3438472537289
19.4586697792681
12.7418131226306
6.94962826745677
3.53861580095738
3.14220026541192
5.4508348354758
9.6075913338135
14.5714900563984
19.216548915359
22.4317984607487
23.2808637621695
21.206661465718
16.4506927198674
10.3249949334595
4.57951051052384
0.227830372346242
-2.80658002877882
-4.94279361357915
-6.22124848740227
-6.32740266584093
-5.08542367928118
-2.9972541861764
-1.35088329459803
-1.43996733637823
-3.43958412736556
-6.27417957740335
-8.69167663581665
-10.2273939296978
-11.1920613060051
-12.2305847271618
-14.0285768480501
-16.9766632170121
-20.8057102944925
-24.6863120016932
-27.7603708219322
-29.5094220017446
-29.7657222177974
-28.6123228578065
-26.2952535158212
-23.1824584540884
-19.7576870696131
-16.4422726891163
-13.2858703754285
-10.0267643505511
-6.58261304648043
-3.26152113050286
-0.385075639091166
2.06971846043907
4.37504074118588
6.78798274067561
9.39801674875824
12.0848744882486
14.6376201299602
16.9471858597242
18.9824322622537
20.6746759237803
22.0559452734469
23.3071696916923
24.2801543915339
24.1978811334346
22.3611592858165
19.0743646745981
15.429541785192
12.2047332553861
9.29076148769675
6.14603960298299
2.55653405321428
-1.0044943699049
-3.57363058365534
-4.31451938934405
-3.15596630597413
-0.938875085637984
1.02646869308742
1.65583293158578
0.685918282989698
-1.20774562302996
-3.01591412413399
-4.17535735159043
-4.61792399579201
-4.26621513809895
-2.98461057936064
-1.06889185455009
0.624799194315594
1.21104252078085
0.364622800216005
-1.53840850830064
-3.78218863665779
-5.87923674066445
-7.72379495819502
-9.11641818403345
-9.48115874208786
-8.43290632172707
-6.40153503204309
-4.32074988158985
-2.87464398154119
-2.28292116696549
-2.48448203620321
-3.17928644712289
-3.91784836433911
-4.45395491241007
-4.92943806293876
-5.60305169653781
-6.47909649592261
-7.22216732333652
-7.38839287861892
-6.79573133073914
-5.6614273366299
-4.20541492073284
-2.12970052218235
1.20728039101192
5.98072622238836
11.4658517591088
16.4337919644011
19.7816272296326
20.9209043588783
19.9879573914702
17.7775011255719
15.2466247154026
12.973057119603
11.0340455994285
9.22911891402653
7.36666940804491
5.4822086882748
3.85359116633252
2.79038848456631
2.4366753349933
2.71879020905325
3.32538106052787
3.73743441139932
3.41128482803944
1.98698876635873
-0.587548840908879
-3.95481303698849
-7.4439783177483
-10.5303868228243
-13.1169700025505
-15.1493495445366
-16.2765520889692
-16.3192545840774
-15.766680982801
-15.3235677732525
-15.2227262690807
-15.4030393497643
-16.06165730909
-17.5848347476424
-20.1247496131515
-23.5072082846443
-27.2609965773334
-30.4842677635791
-31.9936569398757
-30.8428957571917
-26.4821433687956
-18.5242276610256
-7.05667311123682
6.56368432438196
19.8154615429914
30.356364025065
37.1351200242848
40.2103234086864
39.9875425932431
36.9824301145793
32.0717313617114
26.4365375983711
20.9990669810894
16.0865098815421
11.8183510158793
8.57523172413636
6.75531848504698
6.20475269340539
6.20159294560298
5.93458533455928
4.8737368282886
2.96490739874388
0.703608284476565
-1.23791485364993
-2.65649289118824
-3.88351718642587
-5.1591896794103
-6.21295630268192
-6.47242459400158
-5.47022204033717
-3.16000298920426
-0.0710430637629615
2.98768995639469
5.5793305599823
7.84546348383846
9.92924116548599
11.4216108757777
11.5967337941177
10.0985608144249
7.28471511753204
3.95412204577685
0.727333452059971
-2.38296659003278
-5.73369919764954
-9.41106913550046
-13.0712867096914
-16.4122483803682
-19.4270334423309
-22.0938147699229
-24.1350561281733
-25.1818884002134
-24.9932885586214
-23.5761356906503
-21.3161035316713
-18.9377863637782
-17.1062387946953
-15.9252733912517
-14.7474284503075
-12.549452259703
-8.76881646863153
-3.8332531673943
1.38943299726654
6.61225889345969
12.1793086023542
18.1259583935784
23.6703775793185
27.6621366424021
29.213430504096
28.1221600870526
25.1255140344816
21.5060129955141
18.0491722429219
14.6477129362742
11.1722236333071
8.22861359158971
6.63979838563769
6.56853135960276
7.50414840541122
8.73653250114317
9.53244431580666
9.24601619543003
7.65835715825635
5.08014291311331
2.00277283512972
-1.23710105401941
-4.57310468422838
-8.22948973394738
-12.4831322130447
-17.1808164846026
-21.6032270104304
-24.9027034617221
-26.5495243349441
-26.4068564622499
-24.6504425480022
-21.7074611681577
-18.1889514269306
-14.8333890534983
-12.3432261318874
-10.9736809823184
-10.2312090659052
-9.16569717966146
-7.02877063937067
-3.69603355946529
0.327227051716499
4.24704572520914
7.53162101139067
10.1245840957199
11.9780010151453
12.7009914847806
12.1638632128105
11.2966774557067
11.7192298642636
14.3714041259841
18.602282860363
22.571012786707
24.5069212976563
23.7817100776654
20.9937924291455
17.1242955405073
12.7299357036542
7.98340755161361
3.16403692506718
-1.29571168770496
-5.15768476439864
-8.40837867830889
-10.9109590947988
-12.2241200990018
-11.8455682338554
-9.72319728018725
-6.60827538088799
-3.6866519908027
-1.63406229211051
-0.237781868438776
0.884421823535753
1.55592622663435
1.32312822771068
0.184618067867602
-1.22299115658724
-2.03357083795804
-1.75837240835047
-0.777929163811349
-0.221254253784084
-1.07391667890034
-3.37031818446878
-6.29842207311194
-8.85439090083656
-10.3154676301102
-10.4585419512337
-9.63663997260727
-8.60725410940581
-8.186527567494
-8.87819435223505
-10.4454754487202
-11.7397867074543
-11.3736959457737
-8.86592310849664
-4.9448165620381
-0.668215196184136
3.38259199191642
6.9224288338875
9.48467777077649
10.5545347305437
10.0935480519335
8.78852447065116
7.79008646053163
8.0170709432854
9.43362421680969
11.0538781995749
11.8476445829536
11.6233805056031
10.9834564157572
10.5233158708095
10.1252334122443
9.01299756458449
6.54616722668128
2.95483056578215
-0.771694732341654
-3.59216081722392
-4.90481017929504
-4.69860841383042
-3.64019977154077
-2.8187280982604
-2.99279619755971
-4.1386211428741
-5.83129916806285
-7.70342221561153
-9.33598690046491
-10.1227499870093
-9.56316021774448
-7.53867301238334
-4.30030978750533
-0.428391735031597
3.32371604794899
6.51701937509952
9.29672753237193
11.8687367825901
13.808608453601
14.2030566026861
12.4106330054454
8.47651032849939
2.98705977652661
-3.1996612506848
-9.22264991036621
-14.5103364581007
-18.8164976408069
-21.8864474332963
-23.1451331815388
-21.8100322359916
-17.4280095060942
-10.4617337765838
-2.40897913144302
4.73607352867014
9.32950625003321
10.7784097593625
9.79129366523694
7.86467236213668
6.1305984291001
4.59170280629435
2.56588328830258
-0.31094968922356
-3.656249742188
-6.52325074658607
-7.75838833328681
-6.65399052660189
-3.65727907089795
-0.126235615208021
2.8360090837176
4.95300834297062
6.18392982430876
6.22492768660295
4.88574076462125
2.54172350938579
-0.0444502553048581
-2.19381606285605
-3.62354989778073
-4.48362098035809
-5.01031123439142
-5.01586755499862
-3.91073629966947
-1.38470709070448
2.15746197518404
6.01687751695371
9.88611328534529
13.9565542740221
18.3506203193977
22.4293228911216
24.7861669797562
24.2630198568798
20.9978302718528
16.1435039733198
10.6206854650118
4.6037107643497
-1.79916064969521
-7.91272883615859
-12.7664203525957
-15.7827471151938
-17.0935301135386
-17.2617739784434
-16.7570468318379
-15.7509666320188
-14.3406588014173
-12.6646367435724
-10.7145190730276
-8.39910686492693
-5.94822698200182
-3.86149025936726
-2.25839868943926
-0.588053196410505
1.91606417164458
5.73195259237242
10.822120150711
16.3596772817996
20.6410562015555
21.8349383196762
19.2438606897102
13.8488277083217
7.55284539542256
1.84169342174867
-2.97081536662406
-7.33126325356499
-11.3646611987182
-14.4116680100542
-15.8445988875907
-16.0490309685404
-16.0722959964917
-16.3651417763984
-16.3637777193209
-15.3622080354289
-13.4258843685694
-11.3364223021985
-9.84849411327861
-9.15881221664092
-9.04102627561424
-9.19387494738211
-9.20565106879905
-8.49768073355064
-6.85601661076101
-4.83756102643725
-3.02298585214446
-1.05072694680918
1.88855784879394
5.81196150135694
10.0543149789081
14.4465548093499
19.3978705087142
24.7462609394768
29.4184647490669
32.5079848497089
34.0841193221861
34.5704253072854
33.6312608194269
30.1201374630188
23.3077418986515
14.0367925788166
4.42219504276549
-3.58909585845844
-9.1038282353948
-11.8197076692848
-11.3797660782042
-7.78878583248765
-2.28823684110354
2.7508805729651
5.06258109001368
3.67999726457859
-0.842921952880428
-7.11158176700242
-13.7685377321558
-19.9500351097627
-25.2716463017707
-29.6016384623863
-32.7174481377881
-34.0458443013596
-32.9218035527606
-29.2038779040372
-23.4288719700386
-16.4164935854417
-9.15182646170269
-3.03907623480193
0.411784334921785
0.652032081327589
-1.22204812060053
-3.04821575978541
-3.02347267195421
-0.811447676271311
2.65302299617299
6.50935084517044
10.8483054272612
15.8817370839948
20.6755843319451
23.6330034071731
24.2990687504147
23.8941415950963
23.7842086291611
23.981719597979
23.4752387636628
21.6287618109804
18.7898911764902
15.5512342526019
11.7976075119012
6.87468265848368
0.801288967760799
-5.00565828224973
-8.56097446239469
-8.80176119201681
-6.18507385468953
-2.22212265285945
1.31103989688813
3.2071253771275
3.40822086586369
2.6440543380306
1.42282099391168
-0.304610680983583
-2.64065238316535
-5.60466259579249
-9.56243036108484
-15.0490127999338
-21.7345607694423
-27.793320381749
-30.582658283697
-28.2110508949112
-20.9173101654946
-11.2351056104153
-2.63489147191453
2.39508393420009
3.38967843832036
1.57335238624954
-1.31427067556661
-4.17450412101966
-6.8189833392714
-9.18700383044927
-10.6736955909037
-10.619706367134
-9.09977702621325
-6.57707832744092
-2.98891194603975
2.02385172061974
7.87541859819684
12.712243998544
14.7353930941234
13.6519674560312
10.6935868013659
7.40225244337388
4.54829881679577
2.16787370154502
0.387210357746589
-0.218837291865079
0.761428688968051
3.00680634583078
5.85463474024053
9.04907376176621
12.805898233287
17.1913591792391
21.5496609435747
24.6200323051064
25.4530603913139
24.260221659124
22.0044644924068
19.0929827474516
14.9725323612615
9.12815965608401
1.91815483721666
-5.75247790880709
-13.0673376557841
-19.4090470243083
-24.201506780807
-26.8367466998675
-26.8023031472784
-24.1892907402487
-20.1604485878079
-16.405151728655
-13.7714952168999
-11.6744850332026
-9.01982128719937
-5.44842607368521
-1.52580124625974
2.08041884647812
5.4171927340068
9.17575343542719
13.688294506868
18.0499881660412
20.5947173956013
20.3292468960174
17.5150896403069
12.8385425373475
6.73738181128201
-0.0570126081830138
-5.92206581508386
-9.09495988388696
-9.20677095769808
-7.79824230329752
-7.01139866001936
-7.65344295394166
-8.62264780269649
-8.20732887443777
-5.69590587337209
-1.73073575008737
2.38391174303192
5.34478484464776
6.13367036640889
4.19686945370497
-0.29857951659698
-6.16796098886005
-11.3112890712991
-13.8397115281184
-13.6718646414287
-12.742554908448
-13.2145499864978
-15.629213303181
-18.8632270478837
-21.3619460548865
-22.1108572671761
-20.7991821914846
-17.4529209021488
-12.0416953213988
-4.66551627921933
3.79590555402534
11.7347694684456
18.0196258797578
22.9105857802462
27.3326881805507
31.36872774318
33.7974117681596
33.105659643921
28.9361418809724
22.7069199404729
16.7476004423616
12.6122517509947
10.28609990916
9.01441570385379
8.45849363513456
8.79739413794168
10.0479402375594
11.5909366547576
12.3027867553541
11.1818874747213
8.03370061647998
3.56164441471054
-1.19017284759337
-5.30874739820562
-8.09573946172237
-9.27656197874228
-9.3959181316249
-9.69075800537056
-11.293993244374
-14.5198910509602
-18.7289132854125
-22.6617727476807
-25.0846310962457
-25.4833630614318
-24.3057397333789
-22.5874483017382
-21.2843328952313
-20.6172776092401
-19.8072462796725
-17.7585199248497
-14.3921452819991
-11.077860464223
-9.34867373025566
-9.39465937706106
-10.1711949382885
-10.6000852182512
-10.0374013588244
-7.78731165871121
-2.99478305590582
4.5636839346828
13.7655358544831
22.5236879094947
29.0550020368033
32.7364360095584
33.6610472302377
31.7346989878402
26.7980117943221
19.5909245807601
11.9678545751894
5.88107307430026
2.32960804793793
1.21096881866925
1.79135358425197
3.19755762525039
4.66862748038489
5.56384329650994
5.40970205171204
4.22678707242602
2.72041193030029
1.77928192468757
1.68322207318542
1.94514715262528
1.9220377750021
1.5438318131167
1.56373491753303
3.02507429917013
6.13462584608289
9.57885954853623
11.3024721336402
10.212927912501
7.03068049072886
3.43172083654274
0.566648461986671
-1.50894090037626
-3.25721833457564
-4.86713601772877
-6.05042102524107
-6.3709994882421
-5.61290318783768
-4.06827782456046
-2.91950308407394
-4.21887458921617
-9.62400957714136
-18.5830277218715
-28.0911267626745
-34.6184654003836
-36.230559214328
-33.1173961614366
-26.8900924641824
-19.6550656810209
-13.0652452167636
-7.48898836008856
-1.98750996267914
4.57433058702051
12.102194117784
18.9279382827996
23.1129640760898
24.1704702780916
23.2470971308064
21.6222738913142
19.580432649667
16.9528483445729
14.0939187022777
11.7546623878287
10.2927318040343
9.49557098639726
9.14933399396842
9.46584725221044
10.6915803832994
12.2017473469931
12.2819071734692
9.37245324220814
3.64788937402959
-3.06891343384716
-9.05657653203823
-13.9245022948024
-18.1969848034927
-22.5213865674253
-27.4952973767203
-33.3695096957543
-39.3728139160641
-43.8785737453095
-45.7129411562431
-45.044965003938
-42.8316619448931
-39.7309071893827
-35.7957001386463
-31.0146062402098
-25.6975730232814
-20.0193709718014
-13.4277228944136
-5.14861886503559
4.62035999697592
14.6956062572319
24.3270140236142
33.8370348409908
43.2744532930646
51.1034010422429
55.1913533256115
55.1191381587334
52.9100657213451
51.1780599011756
50.7062063624448
50.014724371668
47.1706258697065
41.6779950011946
34.5765905620509
27.2546353151813
20.6405281631295
15.2153109081561
11.101997416938
7.98405111927338
5.2744027325279
2.50565610712119
-0.470841250387191
-3.41847375550809
-5.68056538813571
-6.6810726258771
-6.9514387889014
-8.31443511697584
-12.3317166592626
-18.4274384529332
-23.9188631759106
-26.2154401026536
-25.1066946203161
-22.8814691661437
-22.1575184093533
-23.6551508759299
-26.0750455923218
-27.7340588017599
-27.8953497418917
-26.7386884241005
-24.6724754856222
-21.9592616279691
-18.8513307472981
-15.7486633719202
-12.798160610101
-9.29353908601395
-4.20951724554543
2.04945700750076
6.98797724258087
7.98033842377873
4.75686937362985
-0.523405886164338
-5.24723975808753
-7.86070135968413
-8.02806057288055
-6.31493731887869
-3.80753847668907
-1.45959029808395
0.413076949883933
1.83943175222653
2.49426225570937
1.64313469744117
-1.06769231432123
-4.90662861304954
-8.31768866010037
-9.93322771880355
-9.24467393957919
-6.32966715480693
-1.43908614700865
4.60856238107127
9.95058169070633
12.5647690955416
12.0827058527049
10.3796858315696
10.000420987446
12.0228059453661
15.5442901958823
19.0380186254213
21.7460874985568
23.5520442684829
24.0385335270533
22.4581699348106
18.5980393749292
12.9910071206337
6.2225883740636
-1.29229867653133
-8.71092768097221
-14.6080582917853
-17.7869529405829
-18.0521356942066
-16.1995111457795
-13.5249012940186
-11.2793706224572
-10.2784428019763
-10.8517223836309
-12.9661395468841
-16.0993172452226
-19.047428020099
-20.3006656739154
-18.8334132593812
-14.4474691353135
-7.55657661700256
0.884386691329686
9.29346549933879
15.9702796966952
20.1095092036174
22.2016712770491
23.3183343456774
24.1024991249459
24.5561498707051
24.760145565261
25.4933022288307
27.7083753534726
31.3252153331546
34.8938469194635
36.6460577759074
35.7994753995136
32.9528650132854
29.4927507484766
26.5865250722955
24.4831112705245
22.6283301167606
20.3511702565781
17.3800155517812
13.8899601632607
10.2395304035736
6.48981816433669
2.09536704376792
-3.59203950392937
-10.5095977991904
-18.1862589477743
-26.8636990594994
-37.2974397398776
-49.00889392917
-59.6830474080633
-67.069752541343
-71.0095995434403
-73.060167639102
-74.5784343265654
-75.6978373951312
-75.7696282777278
-73.9658287212871
-69.219776097578
-60.1490890168428
-45.9148299695539
-27.6587017424314
-8.72736776578908
7.38394483611516
19.6543641988606
29.8090399521882
39.8882319815204
49.8430365874762
57.5434015901036
60.8661401404394
59.7638090108328
56.3949523200175
53.0113468759249
49.5503932411346
43.5775483771671
32.8174237842064
17.566868714292
0.613430416597296
-14.7578545311553
-26.4263808902697
-33.6189141080625
-36.2585604626245
-34.6037310270952
-29.4749846001968
-22.4627866618317
-15.4711105824211
-9.61058262305522
-4.22641033389886
2.68145064032841
12.247125513807
22.7551631690216
30.6625053216536
33.9270838654974
33.5648793221537
31.7507602306504
29.5926395571273
27.3518925109473
25.5123710465919
24.2899910166385
22.61116775494
18.772748508904
12.2044724377809
4.14466086908058
-3.21337017416112
-7.98984912503916
-9.59577648275225
-9.06316970585074
-8.2442504768425
-8.28393759671504
-8.8504891721205
-8.88529659624758
-7.87374831120866
-6.18465761678818
-4.28875078621896
-2.02036409831229
1.09376183748479
4.92301002735743
8.59846038471116
11.3737113601095
13.2130211125909
14.3608331408386
14.7206483614498
13.9418204537906
11.9410335111438
9.15878892519074
6.2460257527701
3.29031170389204
-0.659441364473936
-6.7679965686189
-14.7716529616018
-22.6007697480581
-28.0836854334561
-30.7556482907419
-31.675264704347
-31.820088307343
-31.1217437314247
-28.940706399918
-25.1136773321808
-20.4342914133636
-16.1201244198564
-12.7977890958057
-10.1470015705992
-7.65196487045833
-5.52033429707789
-4.67111252817444
-5.85058411798073
-8.73838505435909
-11.8265918709575
-13.32592437242
-12.4480864319314
-9.89406447690363
-7.21118512728889
-5.78793533195715
-6.12221922952532
-7.48705429182474
-8.27462866575652
-7.05610991246279
-3.44438675950533
2.02541051934689
8.4798596529089
14.9674550783429
20.5584113995949
24.6251542079298
27.0274510823366
28.0396448111779
28.2946378154394
28.6898141699675
29.923445598513
31.866897337817
33.3739233743182
32.8403434099793
29.3426810697346
23.5556230294203
17.3116756963038
11.8556224961775
6.72697867757097
0.794410567790686
-5.84962394601281
-11.6494090757491
-15.1815324052411
-16.3502344514066
-15.8370770464539
-13.8882694331684
-10.0855514665582
-4.28679755318926
2.52557942171114
8.69000968770772
13.1456539943444
15.7873981728404
16.4365067347315
14.2623673129136
8.90821842770318
1.72487763875222
-4.93922907022406
-9.70006701873039
-13.0124301107226
-16.207787772015
-20.0584884788698
-24.2834865981042
-28.034497761319
-30.4298245151491
-30.5904903230931
-27.7594498655232
-22.0664760340386
-14.9837214725095
-8.21316531576183
-1.99526747532708
4.78575394635734
12.5613317495624
19.710154911256
23.6351294679662
23.012480525993
18.8101530645027
13.3347741643852
8.55147691406223
5.18773902933644
2.9095793396565
0.828135087319647
-2.09237498798269
-6.41110253763522
-11.4998033311345
-15.7682952364884
-18.0354313894464
-18.4911857783367
-18.0292710734226
-16.9599838705465
-14.7972175648915
-11.1396172912293
-6.35018127579105
-1.28132651765168
3.48032638243567
7.87775826485111
11.8427766069779
14.7368996477754
15.6036010403712
13.9156264753936
9.97618431773831
4.836741702288
-0.0377255098539945
-3.45208287682782
-5.2528536371048
-6.24980858290446
-7.08839679243892
-7.30904839081951
-5.69010906435485
-1.50317392137488
4.50846935320101
10.3246692573569
14.0326634729688
15.2416991943958
15.0477076853695
14.5979336773185
13.9788139668821
12.5787175945944
10.1527795589595
7.25904650065451
4.83448594100374
3.52464250457901
3.24072779335099
3.16583611899296
2.3174960999126
0.327181559157099
-2.25729829005689
-4.39757561644327
-5.26116159541265
-4.6255273334983
-2.82186022899377
-0.442915024955009
1.87996956489713
3.6133994257752
4.50825797473879
4.683053578067
4.46384267235715
4.34291759013823
5.18007658015038
7.90100667115825
12.4428762520989
17.2504858526298
20.2987684666146
20.4396993130097
17.4428555401079
11.161933094876
1.38633275623341
-11.3714629551701
-25.2933717037976
-37.7961125568455
-46.9694936630339
-52.6351472205393
-55.7730167173252
-56.8032435684842
-54.8387857944908
-48.8693766003746
-39.1825810065306
-27.1552121699368
-14.0496983221753
-0.652149152131726
12.0859155908049
22.8048383578907
30.4684655626253
35.085543091711
37.4461227171102
38.1942949276398
37.3839904623365
34.9987708482386
31.5093802506847
27.4426373112134
22.6090156876437
16.4413172911289
9.18188479808643
2.12299887839216
-3.57946927452481
-7.90439537680735
-11.5253224331918
-14.7100326396685
-17.0214413542051
-18.0065801494955
-17.8162989849017
-17.0166170561927
-16.0198240084521
-14.8296729994648
-13.0390238867174
-9.88999705741737
-4.85416306434711
1.35390728285481
6.84554101807451
10.3644472147161
12.6602731953489
15.2927370361338
18.4100954235554
20.6592225894598
21.2157283523594
20.8957207094414
20.8109786023819
20.4917547346109
18.0368115974514
12.2414170248534
4.27604401159528
-2.98830877328503
-7.29243358154502
-8.52040327879042
-8.12009542163382
-7.51508317025262
-7.33150058286112
-7.70975373345511
-8.66330028984674
-9.91912165272256
-10.6410641155459
-9.61632530145702
-6.03277853823814
-0.235944421382533
6.45732350244528
12.771153203569
17.9866053407558
21.4518254301794
22.2549174519975
19.8114270137491
14.4562993497246
7.27853840578132
-0.272443313460565
-6.69312128479524
-11.1342288182861
-14.1632228445347
-17.2718858924067
-21.1771117507853
-24.9141577430577
-27.0302998350015
-27.480033691571
-27.7201837538399
-28.6817580168187
-29.19555559643
-27.1059226558582
-21.7664409662535
-14.7179995836415
-7.92687514178857
-2.1612562918053
2.72334460198933
6.82728296139981
10.2021693599389
13.2679586140532
16.4714866797174
19.6178881634259
21.9898746819875
23.0511161091384
22.6540200560501
20.5590290611334
16.1897813972501
9.31263232778041
0.995961231368535
-6.52850950102676
-11.3120285744999
-12.9322361437779
-12.3525137597864
-11.0462433271549
-10.3871795154272
-11.1577027401379
-12.9746183390341
-14.3863952327081
-14.0352681327197
-11.8465006985188
-8.94546273975203
-6.26802076352305
-3.24810558462808
1.71872086864136
9.02489648235203
16.4086942961534
20.7057442946074
21.1988270632057
20.465069329301
21.6083345663609
25.1789825460558
29.0207033734028
30.6280231737406
29.3081680796629
26.3448446551644
23.5341345113841
21.7175359719942
20.5009690226901
18.9594707897691
16.3972580609827
12.7277267287254
8.52848528921709
4.65429139016469
1.54679036319683
-0.903531970912571
-2.66099800879532
-3.21938422365374
-2.54490730740473
-2.18341480099901
-4.888886254093
-12.7869693476299
-25.5401585033697
-39.9293812795107
-51.2984941529166
-56.0164240321032
-53.2757959431241
-45.0898781659617
-34.7650318114244
-25.0516329503238
-17.2273019131245
-11.6188816591829
-8.62351695270121
-8.61877066981223
-10.7280155672339
-12.3761923685883
-10.8315114885944
-5.34562021962273
2.30260329371199
9.27922791831082
13.6929370529993
15.4545036195431
15.6559044148391
15.4806271655184
15.6578071660897
16.3814335292217
17.158378448849
16.7880277993948
14.0718440211652
8.91323502706279
2.61046830329276
-3.07068524770584
-7.0520989995402
-9.27353769970789
-10.1651161872092
-9.86200316073824
-7.89164486175081
-3.84663404728898
1.52172494181578
6.31653575684631
9.10570427963166
10.5033246490974
12.7824129244083
17.585246562998
23.9257327317713
28.7252387949572
29.6032720200527
26.9341805185723
22.9306505489033
19.2232635955876
15.9167287440835
12.4977989012943
8.70827486219062
4.58563141043703
0.387438512579493
-3.40820776984789
-6.44033766943357
-8.88637272814514
-11.4037430683389
-14.6556427318554
-18.800345587447
-23.271879960589
-27.2094169146425
-30.2993287970247
-32.9065072089528
-35.0272637967567
-35.4077503069522
-32.2886025456764
-25.1452505320607
-15.4510795932955
-5.65058608714834
2.57539755310129
9.166937222491
15.0215600485145
20.5889367873108
25.2390667968718
27.9934113600824
28.5480905900383
27.4045372763477
25.335501016553
23.003455248077
20.7821231834786
18.4817060099354
15.2750938130516
10.3321649884361
3.86959602355024
-2.48179192705396
-6.66950602502694
-7.7626293292588
-6.49030594433424
-4.40827579574633
-2.84028754127958
-2.45428272932627
-3.21754786195521
-4.57552095746652
-6.09362286153495
-7.9382453821235
-10.205172846093
-11.8252912841103
-10.9167521035538
-6.64410710158379
-0.492298130907513
4.53724543962462
6.11430023779266
4.23803060431914
0.862067983617299
-2.27875070774956
-5.41026133990077
-9.93403384895895
-15.9618490408819
-21.2816003045658
-23.1521009198508
-20.838880795128
-16.1837034855859
-11.9977223939435
-10.1087760972895
-10.6193857219364
-12.3964804128366
-13.7696725086805
-12.9721995797542
-8.99672110234075
-2.79784175008573
3.00043345379769
6.56028199024032
8.66038136754543
11.2537207011193
14.5831621922401
16.7680857902467
16.3359871775388
14.3945166754942
13.805105790398
16.270711276772
20.547118730213
23.7465866666437
24.1155886748393
22.0350601352123
18.6259851577268
14.3377748715997
9.02156287104741
2.63575327450251
-4.2556794755176
-10.1752840596405
-13.1508057425679
-12.3192916025088
-9.23448768037337
-6.78408555709693
-6.28506365708384
-5.99113240486115
-3.08670068089168
2.7600238500278
8.35857770762995
9.96812208679501
7.15163243912188
3.25610850107859
2.13971547444914
4.80693741251672
9.05020784275303
11.648147385522
10.7849508105514
7.05243528293558
2.6612061610913
-0.383907246953174
-1.58594305757884
-1.7814040627979
-2.04887818228996
-2.71617555486618
-3.04921432053695
-2.13668013983538
-0.699995293460911
-1.62124898649464
-7.35256660797877
-16.4733916998731
-23.9478490077055
-25.587834060459
-21.8331027307892
-16.7727135481018
-14.0343527606772
-14.1233377204473
-15.1603237897269
-15.1656022569281
-13.472108661065
-10.7484738401151
-8.22742135304366
-6.48041093396722
-4.38820299262126
0.280698950331544
8.46416626650054
17.995605808587
24.8438507473968
26.3296281360692
22.8669910878866
16.8887193361098
10.8653487973568
6.28369549657441
3.46092617808319
1.716237659945
0.102076947139415
-1.64321855795397
-2.97166719087427
-3.38335196848476
-3.14249740985252
-2.96182332662802
-3.10900970426234
-3.17972402588076
-2.98060748275784
-3.32822249808118
-5.42887212215486
-9.48382593314991
-14.3350086276008
-18.4066045664886
-20.574433894152
-20.3419250293395
-17.8106118758273
-13.5110668830327
-7.92298231684195
-1.27270398663895
6.04962261560472
13.2614616794579
19.6023114950753
24.6299625262396
28.0356041896472
29.6369795714066
29.689045721021
28.8458222394688
27.6963372872729
26.4398775386591
24.863777803166
22.5492372484507
19.438308712109
16.3503353143828
14.4431887829367
13.7639561629164
12.6525845575328
9.01673003354174
2.19662769256568
-6.43029697264114
-14.4705652404621
-20.241564181873
-23.9433973460007
-27.2373051983973
-31.3744720587889
-35.6397117094046
-37.8395957909443
-36.4175889878749
-31.9362233681405
-26.3167647348446
-20.6968242713928
-14.3010462527435
-5.51391261805545
6.10439217454198
18.8030188509994
29.2354603278341
34.1814944110529
32.5736595844859
26.3626926302101
18.9602163716464
12.4293980998035
6.38283275767127
-0.518442538552199
-8.6924505503871
-17.275713856139
-24.7404099699214
-29.5095813196164
-30.6513545973978
-28.5365086422011
-24.571780296469
-19.9585531021327
-14.8665413879903
-9.01176885781771
-2.84786884856213
2.1304706471058
4.42260884695994
3.90776324484796
2.13869117559774
1.10595091243056
1.65300804878899
3.06889890314735
4.02068809948159
3.78151132091134
2.80229891142729
2.27304104034183
3.01994011972972
4.8504557405219
7.10603309219013
9.58023775358221
12.4695496762903
15.5595160411003
17.9530855830315
18.8138058319838
18.3792262265733
18.1962239456248
19.9750406335169
23.7146199617175
27.0602027788202
27.0250168820001
22.5028986980886
15.0350240236643
7.3807159171822
1.55210830753572
-2.07350245663142
-4.14597742529037
-5.02375678909348
-4.25166886102342
-1.57727633708447
1.74034008064854
3.22029913052395
1.02498795885378
-4.57841037014548
-11.5319790992535
-17.4423551266865
-20.8616798960605
-21.8603219403702
-21.9278529603066
-23.2454911182726
-27.4974058513085
-34.7131544756828
-42.8941005669427
-48.929864353083
-50.2338406137845
-45.8046102682557
-36.3276036686847
-23.9166898576813
-11.4247322206313
-0.87281119985586
7.87542760903793
16.4253712272759
25.7705360376514
35.3309866671215
43.8646641749226
50.5012881675839
54.6469830566871
55.5947888941108
52.9400862645648
47.3105515582085
40.1353143770272
32.4858239671241
24.5465294873621
16.4484817742731
9.00019478086484
2.98465093104179
-1.82595783730055
-6.32558108375497
-11.1367920433565
-16.5063773292629
-22.486762960939
-28.5254338364968
-33.4865388374875
-36.8205280222324
-39.078226536605
-40.4528853709018
-39.5232634232615
-34.599624116912
-26.0352189293823
-16.2122781707004
-7.29948112494969
0.269310248129044
7.14693091212846
13.5226757414926
18.4329402461468
20.522964238893
19.4950251574268
16.7190014361794
14.1630419266296
12.6087511235482
11.021864165892
7.77255060911517
2.39844683959851
-3.98954968833331
-9.92263678666429
-14.6901678779841
-18.0379067563504
-19.4028084153338
-18.2116043780768
-14.779308058453
-10.2578643626941
-5.63251683552648
-1.10455128629422
3.64969547212353
8.9688139262794
14.8854235749187
21.0227514632564
26.7610593880695
31.5424785256026
34.9640718327764
36.6305370013792
36.097421796252
33.1084438539988
28.0073463215079
21.872238652733
15.8283065270356
9.86204388395296
2.65932595241518
-6.73577079450922
-17.1833263259423
-25.9843018560491
-31.2391694670159
-33.3201046563295
-34.1349733239694
-35.3419166666276
-37.1309391192953
-38.3301392727411
-37.6704646716189
-34.9743479841875
-30.9302441158187
-25.9394642558227
-19.8296008890524
-12.7055832082767
-5.33621135251091
1.56087882461836
7.79831706761065
13.1014060551519
16.5212521729268
17.1403264863034
15.4222303796109
13.4361106216271
13.374670752451
15.7653042557733
19.1395233622023
21.3213031943898
20.9886353619496
18.330920557768
14.6318313461184
11.2653681238464
8.9571250411136
7.9796803289255
8.76227478941642
11.6593637080976
15.9255393480188
19.5188824367792
20.5043485262353
18.6920968474773
15.8288764439147
14.1730541183493
14.4980427325573
15.0463643621127
12.7564603083637
6.15775972987309
-3.00526202995799
-11.3504463975292
-16.7827597121974
-19.626526321178
-21.4433954960906
-23.3154412962451
-25.0412263904972
-25.528365148453
-23.9014326285179
-20.3287086706748
-15.9251525137418
-12.20807689822
-10.6931535218486
-12.2548045693372
-16.0770003034925
-19.4279888618984
-19.3134271424524
-14.823359239143
-7.8053720457744
-1.1664892441151
3.39650211978715
5.99648607150743
7.29895368425609
7.35115029355105
5.92097062607739
3.34676453235675
0.265006022943128
-3.31432250845582
-7.84961529025423
-12.9996014493681
-17.0564441423874
-18.0170422338874
-15.1965402362984
-9.83366218701392
-4.2177206054319
-0.0832186574498179
2.35534883141471
3.9921736452778
5.96802991614757
9.59958246028073
16.4333992858337
26.9769483078269
39.0414855765862
48.3296810821731
51.4456005786736
48.2342345320664
41.1412676859493
32.8236055888788
24.6481084875682
16.8718964962737
9.41145678759872
2.34436196411803
-3.7685708804517
-7.85723910232565
-9.15167783924064
-8.31012905956312
-7.21002778758417
-7.14053465643956
-7.5599758911762
-6.99251750431956
-4.64110765925219
-0.668772586195808
4.42577192746302
9.72113516093134
13.2484640335349
12.4280785994448
5.86740042895795
-5.26966811026348
-18.0353709203664
-29.9473983435109
-40.2415542163126
-48.9052418011089
-55.1679603359038
-57.7596385553621
-56.5955657036407
-53.2775682918661
-49.2723947028867
-43.9370546640741
-35.099905330032
-21.8396723554223
-6.2888940444566
7.84776618060297
18.6088723206566
27.0396821558785
34.8044512296067
41.2434852212423
43.7461979511867
40.8277540541155
33.9266123804059
26.1094371494293
19.679003974488
15.0653453936846
11.3332117775373
7.43509472121294
3.28735175725452
-0.0644611795392695
-1.30193829528347
0.047742669900537
3.16676234856738
6.52237127542585
8.99167720111893
10.4223139492138
10.977502487566
10.289633916173
7.93256956046247
4.6400683997201
2.16949981957082
1.58020796177707
2.16631481380747
2.39706725838701
1.46320938479732
-0.434488009198789
-2.88432761703571
-5.6997615458265
-8.42903418472936
-9.79118081994515
-8.11291881467801
-2.70959130607744
5.18001148230737
13.0761413434266
18.8106136381699
21.2170821444374
19.8085205414034
14.8613690213088
8.18052259525109
2.89279365163706
1.35350233613532
2.97145480724209
4.55682946512699
3.14332068620863
-1.66529774996624
-8.06039738818002
-13.980850905843
-18.1889676546171
-20.0876275706931
-19.6202631841953
-17.5664533462293
-15.344385344386
-14.2570590093465
-15.0344216637102
-17.8358247961552
-22.2062035971032
-27.0104772491155
-30.7583486315457
-32.2500353995775
-31.1167540207574
-27.949169844855
-23.8600005600238
-19.6844999758834
-15.5257954429235
-11.0765463723667
-6.17095411647852
-0.843437300759771
4.92090418151071
11.1533271469086
17.6314947246952
23.7666986504014
28.6947318037867
31.5371636195886
31.9127948270828
30.3975917548204
28.3889579873911
27.3250830953512
27.7089022818641
28.5580579948637
27.9820450411424
24.8537601393531
20.0354920868243
15.6311570349134
13.0217458398361
11.9098460157846
11.1224173735713
9.83006029778653
7.8530503558548
5.12092867827889
1.22078446975241
-4.23383450858511
-10.7075956895245
-16.5482710935771
-20.0945377717861
-20.978138884335
-20.2329916767933
-19.3536152075644
-19.3586953444314
-20.3930250408814
-21.8643604431771
-22.8979958315759
-22.6168259458379
-20.1197388165891
-14.8271989019154
-7.36427761279484
0.223053702386983
5.7417655937898
8.44131787489724
9.29412736224371
10.0042679188784
11.7793720587637
14.4614862155779
16.5036838725303
16.225303886965
13.3898641484927
9.25181643739599
5.0169440486004
0.773146694638479
-3.90729711104962
-8.82504005460429
-13.0127776550029
-15.6141200271457
-16.6342755228124
-16.7144193033033
-16.2813745330442
-15.1889452912882
-13.2709885695641
-10.8846241465502
-8.53662373394092
-6.14263235960534
-3.13985731213718
0.506026037422983
3.72380582564939
5.20929319934959
5.03922986009906
5.11214007417213
7.54754835468306
12.6513081334696
18.7414769576477
23.8354322986149
27.1130799272847
28.9082156311958
29.853264118301
30.0852652254835
28.9102487742976
25.3425493282134
19.4041989041808
12.701851990296
7.08604554818533
2.76237822424114
-1.6427933756529
-7.03147916445845
-12.3945135252246
-15.7075424985373
-16.0066797340832
-14.2642290804575
-12.1920981715879
-10.4898055265891
-8.62204077520276
-6.17722286574613
-3.8546269750411
-2.87353560848773
-3.78207876508246
-6.15387980595111
-9.28682091796315
-12.8736153375151
-16.8534711377491
-20.8324940871213
-24.1988735366808
-27.0421979507246
-30.2914784917512
-34.1516785086308
-36.7576096883423
-35.4511128830878
-29.6480093427251
-21.8067351089751
-15.2822665416306
-11.5173708415522
-9.34647892259801
-6.59323599214384
-2.0472814354237
3.96785639541172
10.5372040929469
17.261204065508
24.371972132367
31.9747083984103
39.2352738480183
44.2086657988956
44.7739014059761
40.4334903713691
33.3426486526592
26.9403663743355
23.1770596561279
21.3173576679827
19.4083618776946
16.3454843881636
12.4189587584053
8.53248223508714
5.38446639795972
3.2215312357416
1.98961245886658
1.49880706105094
1.44357135247428
1.49706666770319
1.56624421258211
1.76540585947691
1.91735039994467
1.30157834928455
-0.746421144325977
-4.01692922846939
-7.45583496162677
-10.1150123482672
-12.0873362698164
-14.4654199578429
-18.2094126527082
-22.9952543111335
-27.3552320823583
-29.9119249684793
-30.1302823895282
-27.9664569227457
-23.5200326301598
-17.4262838022944
-11.1164539641104
-6.09313962814953
-2.88389777579977
-0.873956836310495
0.879353178110404
2.84337370881212
5.02990492866001
7.52792611708424
10.506619027794
13.4227685823785
14.6819101439534
12.840966635453
8.28446070692234
3.29890912042183
0.32405449779813
0.204252951993258
1.94754391233549
3.88868400854793
5.10044261518743
5.81429500265467
6.57909543355006
7.30066294264681
7.34487370356876
6.33652305099115
4.53100357464353
2.60026810291965
1.33245994108435
1.26615965616796
2.25634321264273
3.52653818989308
4.31442992518739
4.30374885871444
3.47042183548888
1.96110489500808
0.316464182181083
-0.519138929267371
0.201709217460436
2.22719805975458
4.09953455413882
4.04590403250575
1.45358322799219
-2.57447669318631
-6.35929028897107
-9.08494783805892
-10.6686426101129
-10.6171820126522
-8.12867220696527
-3.71679918955076
0.0583158113302978
0.288628386563228
-3.75410890792429
-9.86108205757846
-14.5429351141363
-15.5099264662251
-12.9140518439174
-8.62300548314883
-4.56893543969422
-1.71422962437521
-0.181150861172397
0.0211300116046854
-1.41597129510525
-4.6510913823391
-8.83075263949782
-12.0903393359643
-12.899775038186
-11.399172166812
-9.1339058253658
-7.47788277839347
-6.41587189568175
-4.72957205656205
-1.2618391065295
3.92470623259436
9.66057540163852
14.9375206804017
19.7066608425582
24.1811317196442
27.8165732189978
29.5392387243785
28.8462005110811
26.3149193234749
23.1168528087326
20.2261519420675
17.9218700982346
15.8145022280426
13.383765430265
10.5351078072159
7.57757514167908
4.80634725396826
2.33362004027895
0.150180439282031
-2.00572988207734
-4.73905567835795
-8.5505951483746
-13.1877693978053
-17.6100036416173
-20.694071396531
-21.9565767568823
-21.5784257289004
-19.8327766044723
-16.7533028491288
-12.5032193404375
-7.78093531673245
-3.4637303125324
0.135998972387343
3.42186871052923
6.90139999301801
10.44988261015
13.0379873630833
13.1926247702932
9.9873108061201
3.73595849985036
-4.18978412807207
-11.9899083836252
-18.0294059482171
-21.5392565666755
-23.0117846828733
-23.3062401137626
-22.150004035547
-18.2747312097747
-11.4012906466152
-3.33985907923275
3.48719825271728
8.23754027752318
11.9725558472155
16.0994453890068
20.7455828165096
24.4072290014815
25.0751836136638
22.0096911333698
16.5778236891441
11.2119125612657
7.38811560901319
4.42665548543471
0.163291705412541
-6.8831902029084
-15.683129107543
-23.259234133595
-27.3055679468268
-27.9318593267291
-26.7318316501501
-24.826652970357
-22.3074583863197
-19.0745171184924
-15.4251829213518
-11.6149022878414
-7.13137090783093
-0.837285904061237
7.79028273371244
17.5781661828977
26.2199727373257
32.1043281952995
35.3345657995324
36.8541452948743
36.9067693798131
34.6234700420414
29.0826240266798
20.6840445682171
11.3797152222133
3.41631917467675
-2.11787973973581
-5.46353467063701
-7.30021982129773
-8.15098865271082
-8.46793769940821
-8.68801013638424
-9.04897454088516
-9.55192307902952
-9.91455684293073
-9.29212832594174
-6.52829746357581
-1.40308235874774
4.4707817941839
8.52687033362526
9.06965056961675
6.16079151599631
1.1311877103296
-4.3524731573165
-8.92764451346974
-11.8141141286161
-12.9354639878026
-12.9390080341094
-12.8661725695559
-13.4320309976379
-14.5230477075031
-15.4219290785384
-15.4032371472584
-14.1411401320003
-11.832132638792
-8.9655947533652
-5.79121720620524
-2.22018783221672
1.49837463573
4.53833288959342
6.54964505404936
8.48315604435503
11.5640443813332
15.6209267935839
19.0008997783728
20.0100457264655
18.1595328172284
14.3345983139852
10.0759023830427
6.43673222578742
3.29114049548553
-0.0891224841856017
-3.79576562472847
-6.96472894992212
-8.72083668077386
-9.07246284515953
-8.69859192892784
-7.97750896467922
-6.40167792310409
-3.24675060172096
1.01164465852955
4.41883624947399
5.24515085482368
3.69159667253344
1.36034542549821
-0.62521438655866
-2.27073784874728
-3.65639951501409
-4.0570740866065
-2.58882285809144
0.421002935245447
3.22260891456182
4.24504127145727
3.75161151794262
3.33803014167709
3.83314649102153
4.42457664615752
3.99024983014136
2.53249526756928
1.00272268943986
0.315488743079212
0.785728738919808
2.00038944336261
2.96625634710701
2.72500636071043
1.07467180121413
-1.29559731041354
-3.24112846581402
-3.72669712864298
-2.39512269600031
0.0566126355822215
2.21597307758829
2.98209945946913
2.38156946343768
1.41988862252921
1.07752134505123
1.21496820644781
0.47744876466471
-2.30819636756876
-6.56536022099198
-10.2360628017365
-11.7041704821398
-11.1027224564554
-9.85530569419542
-9.43453829788402
-10.4252189231334
-12.1858596246587
-13.2700075499693
-12.3688580008633
-8.94155088747886
-3.30626113571254
3.27754852617405
8.7531271915103
11.3428914154547
10.8398427627699
8.56914531220133
6.12930848436779
4.43946926976352
3.69519431085591
3.64340651400542
3.79042206041926
3.60538526518918
2.76774693756653
1.45807777454641
0.463480804442084
0.699268511283761
2.39787481022232
4.84349355856855
6.88038287540059
7.56245174529098
6.60787850988129
4.70709795879487
3.26071878272483
3.25716653508495
4.31952355076611
5.16887693690341
4.96574706954259
3.93002824923015
2.85235249462978
2.37960185276306
2.68203883799879
3.47949718954401
4.25866170971265
4.49684247083211
3.89440985193366
2.73907920566421
1.95671201386992
2.24765679585618
3.04822839000491
2.84064965208491
0.678075264044482
-2.92038130468531
-6.61207563956591
-9.40730972363486
-11.1756065451354
-12.2866208530856
-12.9215838865018
-12.8585261570562
-12.045639480622
-11.0757221330604
-10.6020293181466
-10.3935172441415
-9.44256307823463
-7.03113277245368
-3.50044007596466
-0.139445244237694
1.58305838804965
1.05683518613115
-0.898556319952772
-2.64188833285017
-2.99156592892444
-1.85371563255709
0.125721634060777
2.06384140987477
3.13648919201265
2.98140221471649
1.98300286268918
0.905441009805367
0.267764131241026
0.233872897620514
0.841645516370955
1.99779178990539
3.39089726538634
4.6850271565528
5.77842189485951
6.80664950035003
7.96173093655478
9.2852294990326
10.5007257872031
11.0278276562235
10.3046402652439
8.27779639235565
5.62286610647047
3.28745199500271
1.63590588698081
0.231634653649682
-1.32843695451928
-2.73204861574063
-3.55478733705608
-4.16940574103784
-5.36219333180555
-7.1990927294562
-8.88862195039624
-9.66682957672382
-9.28067964059407
-7.69462248608759
-4.91837014209152
-1.36267511445508
1.9129380072184
3.74144954046259
3.94139850984764
3.75927766674849
4.74422095479742
7.0161436779208
9.08264048952956
9.56269629338991
8.54186755684466
6.93577307881617
5.19812286252705
3.22585686821639
1.09109653237986
-0.703599826952905
-1.59028410988167
-1.40507516807781
-0.70480872963563
-0.653858505204812
-2.3323141705562
-5.92332754593191
-10.3296915468712
-13.4601172540469
-13.4209388371088
-10.1882227924175
-6.00844161928928
-3.52196841790803
-3.56372517935853
-5.19235194032768
-7.28025324241218
-9.10429649443848
-9.6688099571617
-7.66214570937271
-2.60767130023457
4.27185871649869
10.6352214558505
14.5639477344826
15.661970226466
14.7956889683642
13.0343895626672
11.1311722364244
9.71806679021568
9.13441301097611
8.77634827734764
7.32804584416917
4.21345049479011
0.522642710232308
-1.88533248470497
-2.05971730020178
-0.679192654097827
0.574264073034216
0.286072858576657
-1.69737576738935
-4.32939682559873
-6.45246826547359
-7.87140620419234
-9.44464326858727
-12.2015464538626
-16.2138290248533
-20.2134329200511
-22.5290323875952
-22.5006411670719
-20.7334941702084
-18.0172531421391
-14.5195646654168
-10.1451216972742
-5.05434193910207
0.612963711815366
7.17866368781357
14.9790388916659
23.2366037342147
29.681478680584
31.9519135331612
29.7208031441253
25.0667163808347
20.4121555292764
16.5016578503252
12.7006431731777
8.59929329796534
4.60974417120496
1.32414094146564
-1.05725291390166
-2.74556891646447
-4.19817760469431
-5.8303489964739
-7.63479947965918
-9.18442031661138
-10.1127440920677
-10.4255651818677
-10.3269327081604
-9.96290647690644
-9.33738735685622
-8.34169749900212
-6.9674539946775
-5.52479431543009
-4.37690785735773
-3.41463557296208
-2.12265797264366
-0.213064180546743
2.09296855925107
4.36516915631266
6.19126429768438
7.09748236770956
6.6310922594027
4.83455732713046
2.63436936617845
1.43256313645506
1.87719589389144
3.00507905707514
3.02538414880788
1.12002958915183
-1.80398509771798
-4.10229014812958
-4.7024161562247
-3.53680801343241
-1.298012786238
1.08196174316567
3.02715338653317
4.40797947429851
4.94434586251856
3.94270622111015
1.0921714453337
-2.71497685766847
-5.86746392829601
-7.37565063722085
-7.55538725086479
-7.52503619804074
-8.19326173731378
-9.51094278818378
-10.4296253746361
-9.65640912827799
-6.6822672656839
-2.25715966230332
2.04333072000635
4.86869238054902
6.02458382948886
6.41948795891936
6.98876206833035
7.80111484420051
8.28966529162078
8.01028044353668
6.96174508725348
5.48735248169014
4.06742700705321
2.92494188415751
1.72169896326523
-0.0499741599352608
-2.27100079518759
-4.00192597322893
-4.13051420455478
-2.20336354873898
1.13578203298433
4.40813842206918
6.25463427716169
6.30600391811743
5.09606404483755
3.32792743237211
1.44991897855368
-0.272103791844259
-1.58700037917922
-2.16827638329406
-1.71238702982183
-0.292815918949587
1.48175486771417
2.89471886511181
3.57072136938585
3.33241110384713
2.00805385472036
-0.220704596801614
-2.67643158175243
-4.88075077960903
-7.01223101910059
-9.21670230765291
-10.9826182148887
-11.8008856301521
-11.9657562027379
-12.0241814962225
-11.7083673849197
-10.0505956770236
-6.54221782233649
-1.83748259875168
2.70539553828042
6.00780853272875
7.79311311650056
8.32699881051789
7.90839788615852
6.7103324323383
4.9071813528753
2.77831523848658
0.786712170996955
-0.474642500387129
-0.74307755474199
-0.531074696882748
-0.744953976489742
-1.75663164867219
-3.02609617190742
-3.51343665105801
-2.31166170768754
0.766042917636334
4.91219047257699
8.90229998431344
12.1005843176864
14.5193391042123
15.8428751856895
15.0816800321005
11.6064967946481
6.12683974412508
0.321831820604286
-4.26322231496405
-6.96327202189214
-8.19804028312531
-9.14156427289347
-10.7495418458722
-12.794085330675
-13.9353507835939
-12.821214605082
-9.17248510368145
-3.96138928069506
1.37386254468473
5.87860108414776
9.2438019954114
11.3085625958719
11.9367795197066
11.4219835204079
10.4549681241379
9.46658126053142
8.31203708422485
6.63273900552352
4.25345089971399
1.36938711213953
-1.34753562574623
-3.08158797166361
-3.68050503576189
-3.94401992014528
-4.90630675484231
-7.05686885261856
-10.2361529664082
-13.7821837797433
-16.6576539587831
-17.9274145203258
-17.4174121362555
-15.8044648660001
-14.0289354479702
-12.5934357657595
-11.1413893504474
-8.62628719398576
-4.33673641269363
0.977261811533423
5.37394786034116
7.4190837819561
7.42180801786005
6.91571432271934
7.19671399248807
8.40411631940453
9.75662542227452
10.5339276165827
10.7619713205259
10.8881953863158
11.0410500740912
10.9454682440735
10.4084010119601
9.52234833054032
8.46737543476898
7.36209809470457
6.22641155171685
4.9787228762825
3.60794075643566
2.33627358420486
1.37077518943147
0.525316889765471
-0.623710158627877
-2.13979288652571
-3.39390022434684
-3.39752483583703
-1.6649572517518
1.08171373389596
3.32881199896094
4.15767288856005
3.88186863617134
3.02647490193962
1.23816718938041
-2.18254062612077
-7.02799699714356
-12.1090819301952
-16.2804767229756
-19.0574613618178
-20.3594705723701
-20.1133784788124
-18.1616324381182
-14.3741826632936
-8.82707754393687
-1.88164642557684
5.83491425685154
13.2556430896915
18.7484789223047
20.8373573001181
19.4499393876027
16.0820408564709
12.4213169578159
9.05875702188873
5.6739584394607
2.09790911626793
-1.16041262455568
-3.40369467081531
-4.53339021954398
-5.12585739988923
-5.69372068421154
-6.15551631836587
-6.22857629520642
-6.06226674123708
-6.21922809065045
-7.25622921929736
-9.4462558273436
-12.4917780567705
-15.2746343359957
-16.3105152477869
-14.848357345501
-11.4791352751795
-7.62153718795428
-4.45235754707973
-2.0956279628427
0.435379283624096
4.35082064400946
9.83380708431198
15.6976565092397
20.3506949991081
22.8532452823144
22.9803737409249
20.8069655786291
16.6820695161407
11.349815604918
5.70800160254486
0.485116651011424
-3.72913538309279
-6.24755001704333
-6.34379603426359
-3.93310906375637
-0.358788431104286
2.02819492315527
1.72310090087152
-0.646575933841925
-3.31578650104858
-5.35054149668345
-7.06881396188835
-8.74473697628954
-9.61787948770165
-8.49845366912173
-5.22668002423323
-1.26810950527082
1.4894195181955
2.64904953094482
3.67615646487396
6.14160196085892
9.90093671931131
13.2026270725262
14.2550891204241
12.4723070845742
8.50501447235686
3.44553054773124
-1.88267231658246
-6.95190241088777
-11.1907044329625
-14.0536415384115
-15.4968572472747
-16.0411603804716
-16.163876753084
-15.7621252130086
-14.2581091037249
-11.1238453757057
-6.46512613989543
-1.31688379272446
2.94076442713223
5.84376729295291
8.18967411210039
10.6967912854754
12.7407690755758
13.0071674118516
11.1396179038816
8.22551036764878
5.76288206363309
4.4989314644678
4.22534061296659
4.37640299884428
4.57245626499822
4.5982210055825
4.23791789311638
3.53113616876549
3.04028709930112
3.39837753985743
4.52337666094701
5.52223896572894
5.3750531301001
3.64927869068447
0.759058273680127
-2.34610512168591
-4.92629916978087
-6.89712547303909
-8.37610899700696
-9.08028367393548
-8.70565484004601
-7.78415914485531
-7.51952290325882
-8.57176867279849
-10.3606625104614
-11.7197473528709
-11.9791979361892
-11.3112232851727
-10.2945773427516
-9.38627769890065
-8.7741439067214
-8.49944185655098
-8.41772160856565
-7.97832316719967
-6.42884740754048
-3.59871550069173
-0.308283292017969
2.34058842466452
4.07295593336745
5.68577556591921
8.17263170149833
11.6323759213322
15.1135276810687
17.6321874082993
19.1425141352236
20.1410521402504
20.5210775712006
19.4887222767579
16.6943317354739
12.8727065656858
9.20475870298421
6.43074901140253
4.61777807984701
3.45228529857981
2.72632070070336
2.6145165626531
3.21674142631458
3.74378070089285
2.61942967999281
-1.23072532133281
-7.28108574064914
-13.6957384666608
-18.6328879246547
-21.2934343649348
-21.8545869696418
-20.5873994803768
-17.428367766863
-12.73387324641
-8.00921096858253
-4.92934679914891
-3.4835591346781
-1.96041060303166
0.807170707779064
3.82189147371549
5.01336738380723
3.58023506892987
0.862395891120373
-0.997845209502686
-1.01628050710744
0.0880505359085951
1.12532024324089
1.75254252431627
2.34163768975145
3.05056088228609
3.67130604377584
4.2679608074736
5.33181821261797
7.07991510782472
8.91093231030322
9.86727572933788
9.64269031216072
8.90139453909345
8.41222545387267
8.04916320579454
7.02562577165835
5.0556311961368
2.78756047225475
0.9472308899088
-0.544742440006226
-2.35578508732454
-4.83593829902769
-7.52329315056836
-9.55324384859581
-10.5266631913772
-10.8864466202073
-11.2944386355982
-11.7180387141459
-11.450483668702
-10.0892412207196
-8.14033924107074
-6.49908065907106
-5.61427345598642
-5.24368883724306
-4.70860922576253
-3.34141695682632
-1.04084094112535
1.51488030432847
3.43294769122046
4.41943529589451
4.90321479887552
5.40684757818368
5.95692484859241
6.18205620713655
5.93531215834564
5.62021992036249
5.71912504695478
6.13339576889567
6.24722595820803
5.53566858609107
3.85152305991922
1.31862320242284
-1.61848419241874
-4.09904874141357
-5.24381936837177
-4.84180370378505
-3.57934529869264
-2.50772095438985
-2.07571911629085
-1.52570052193268
0.477143114351339
4.29565916290036
8.62846545875754
11.663166642082
12.6482136646124
12.0481440171189
10.5875535453878
8.71328951715595
6.82239244226364
5.43149698387645
4.88877195327242
4.97549768982739
4.84540692191492
3.56901000270592
0.987074984119488
-2.08939314189652
-4.6886959302609
-6.46246821248773
-7.59085090511805
-8.36958754914542
-9.1176613308959
-10.0646914983678
-11.0131993945286
-11.3169769444413
-10.3975853677285
-8.29465242131163
-5.77254738051783
-3.85904589005715
-3.07586179103408
-3.11808252325298
-3.40469077069734
-3.70774621314941
-4.03537824104906
-4.32526569618291
-4.63511806625445
-5.2106736437451
-5.96045524405162
-6.25173605864554
-5.55394454090569
-3.94169760627641
-1.80269855504153
0.557241560739434
2.91810007414397
5.13038959768466
7.1812892577114
9.04165696376084
10.4792299076817
11.1678039128641
10.844442555576
9.35042272706593
6.89311222941218
4.31768140923208
2.61156446726602
1.94846882784809
1.54146766579662
0.454834516678425
-1.66288480630853
-4.349477877252
-6.41435747080577
-6.56272226810971
-4.47026488792659
-1.21284635271676
1.58918112482066
3.00017786652379
3.15986937478033
2.72601204974686
2.16289543857353
1.65513758875815
1.60055116583739
2.71260441394699
5.17981871014053
7.92437424791727
9.22743613732716
8.14652883990602
5.11485276593687
1.33052511721552
-2.19038726773311
-5.10314966948266
-7.44671215579843
-8.91525755778144
-8.79932452876959
-6.98253700177529
-4.5064512380767
-2.54030917108615
-1.18520443546027
0.0624145486740234
1.10824448834233
1.36252027349183
0.813624836919997
0.176475508872978
-0.029143803533209
0.0547720400234225
0.122433836149744
0.242670130789441
0.828995302195943
2.31667789859141
4.89451049012804
8.2861564143582
11.5219003575135
13.0245780265559
11.4847833787781
7.06385018819424
1.4710288943306
-3.49475485011145
-7.27421414423643
-10.2846479599097
-12.8583687084411
-14.904155433997
-16.3015340980891
-17.0855862914271
-17.1594124207749
-16.0553431477229
-13.292922032879
-9.25004528397291
-5.44996121394037
-3.29635015830534
-2.42838789318068
-1.03810483651993
1.95909244202477
5.71464180472024
8.64017300183247
10.2394785768754
11.4413678113508
13.3947266200812
16.0949308294347
18.1255954152123
17.8709560121271
15.1102686551211
11.2500448963991
7.94235508517532
5.79494615218927
4.43770424692173
3.26869911794377
1.89153155769598
0.309621229149756
-1.02570505467198
-1.65991290719844
-1.72249061775483
-1.79598682343858
-2.22885062270616
-2.87183667922451
-3.48168938975812
-4.15034981761358
-5.24474008120401
-6.93276257907004
-8.84782101060901
-10.4215327878458
-11.5701691735358
-12.7681787624294
-14.3507420675327
-16.0178214374903
-17.0892881823788
-16.958266833864
-15.25610123855
-11.8994132751483
-7.17539801743765
-1.78669939029151
3.25581025786231
7.13313216997383
9.95817710089762
12.6952984491204
15.8104136993516
18.2817128093242
18.5796595839421
16.4245862439704
12.9630080174172
9.42467073623452
6.30707024625809
3.78332713409161
2.13510743505603
1.50270407794965
1.56863423199438
1.73930295786897
1.63485567032856
1.39099896606007
1.39015855803556
1.64450098884366
1.69459858550114
1.26396587285803
0.684336036520178
0.477011675036245
0.838094206836219
1.66119530819246
2.66496430963623
3.35139806327867
3.24664052823817
2.43516422965201
1.66072174736993
1.6876431554517
2.48731254441996
3.0415775140257
2.14139104746517
-0.387432518634984
-3.39029955036423
-5.51960752222911
-6.44744844151891
-6.80733571901694
-7.374956212109
-8.60359660345737
-10.5287251878185
-12.6846117686612
-14.25114622915
-14.5328113755164
-13.3523000573838
-11.0826640519124
-8.36706619154162
-5.66914353757781
-3.08674090470185
-0.811835934938529
0.404567478498728
-0.150439345032204
-1.97953729302231
-3.39696105961453
-3.0416431248991
-1.10026309316587
1.00177678229857
1.80113482216364
0.823418682504288
-1.06096869613044
-2.19599520336871
-1.35455164106453
1.38959287716257
4.85517552068183
7.68655001556533
9.19665427395943
9.50172015644181
8.95280918496417
7.68166769179301
5.96099855947971
4.68161611676533
4.78638169036071
6.17784634814146
7.70018172655623
8.28355112262018
7.79995135042133
6.93170104275238
6.56022677279322
7.13914996785429
8.35195139711646
9.42120216152888
9.75310414740389
9.09604275901007
7.2849533380015
4.34171490363236
0.83311155838564
-2.29106518268119
-4.3262793099334
-5.15175844913826
-5.06248190030229
-4.37304303495635
-2.99657250774375
-0.491899438164781
2.96475943174751
5.70905367839377
5.53884466142037
1.92674061403859
-3.20158039536475
-7.15550818632063
-8.66463893144726
-8.45317317237305
-8.14559283951192
-8.79156738891493
-10.2476281706902
-11.7105304987389
-12.5580977688512
-12.6127492864952
-12.0038842689351
-11.1355176328067
-10.5528661929257
-10.4778645910055
-10.5237477156909
-9.9935181095405
-8.42251590546474
-5.9504493123956
-3.3130197285095
-1.24326378486415
0.272738810438394
1.79342057449606
3.37352711971574
4.29404359050214
4.07311089036827
3.1646147939253
2.38123972289949
2.17322501111737
2.72271652348535
4.1399853743428
6.15405219810483
8.02921564260797
9.16445685096454
9.51619387860443
9.26686464898164
8.46217842948314
7.20159883271846
5.87130745892682
4.92376303311776
4.52189683601593
4.50140573172386
4.6154647301508
4.71713509960167
4.68962003254818
4.35830577076588
3.66773245740573
2.86688815787385
2.30624500160675
2.10962583792263
2.18795505445808
2.41911864315259
2.67438421106294
2.86756317245647
3.06493306872175
3.32287885820272
3.48534718469956
3.50271450144291
3.78022551538132
4.65957014292594
5.66554448016129
5.86157822975815
4.94314935336213
3.51472605905076
2.29394576806917
1.37776073625015
0.284997661268396
-1.49645940999326
-4.06272702961155
-7.16410276071905
-10.6040407966261
-14.2597254701106
-17.6116115473286
-19.7197715763719
-20.0937569069374
-19.3279825685672
-18.470830632732
-17.9049785578572
-17.0569783301148
-14.9877208558098
-11.2080806039113
-6.30303388838449
-1.85821302235961
0.589219754366812
0.713417154553795
-0.449459896699771
-1.26981568982688
-0.439030252503861
2.34825714490404
6.25477643990887
9.99585156287791
12.756657619921
14.3243646028778
14.6251805149965
13.6633440544909
11.8806328702114
10.1029164984717
8.94247210046766
8.32153866161601
7.55537935094991
5.92949700383834
3.35174239063006
0.470436428850039
-1.84221115851718
-3.01649951244486
-2.97661227153619
-2.22059410207519
-1.61502428354533
-1.58230870102117
-1.48562402816046
-0.319424369070187
1.97805954571883
4.37129400415567
5.85351391827348
6.24908741339924
5.9788139333251
5.58296826802382
5.4727480598644
5.65923009576018
5.63958295176948
4.80109462276451
2.95102934979596
0.405648214193856
-2.29011041987501
-4.68094677549251
-6.54418251097654
-7.75036084076569
-8.12190795328966
-7.69949536800123
-7.04648816712405
-6.84394006924683
-7.08628436801897
-6.97227730862385
-5.69747312812802
-3.27537440907358
-0.65862897519745
0.885701995253111
0.65567602783666
-1.11556226968281
-3.58983261081072
-5.65638400434156
-6.07133675923099
-4.19451959139773
-1.05899526616253
1.02371361965777
0.597332243368579
-1.51357554689225
-3.23557515777748
-3.32328252906464
-2.14081809194971
-0.765709218565236
0.270771995478818
1.35842696092484
3.05919854629523
5.13173195324389
6.59807386282953
6.87525312914497
6.45769375408671
6.22524979895778
6.39183316503984
6.3761230596385
5.46775915410301
3.52272529527655
1.26428803956025
-0.107296966313095
0.0613495162436072
1.14916197136143
1.7186965126762
0.75526101550314
-1.55142472099938
-4.15116033804138
-6.10068953790163
-7.05130140284305
-6.86444562177593
-5.30972135167166
-2.63527617901472
0.0097293493797084
1.55363830968852
2.2862812451077
3.42174470610826
5.40825048823954
7.31274371850401
7.94481620927476
7.19737309653135
6.22818994760029
6.39269242034728
7.83451937531913
9.1367705183324
8.57745534656717
5.62196821486837
0.995829141849094
-4.29936884591091
-9.44987538219946
-13.5030591256281
-15.3466196765654
-14.4471121119421
-11.581440882382
-8.68007408205672
-7.54907607744386
-8.25832133025957
-8.91189141462072
-7.53458071856203
-4.12021855316096
-0.416327164253915
2.00724590116251
2.92194144708242
3.05821065378162
3.37345149426305
4.68738162703537
7.34683378465892
10.7967490200189
13.5345066149105
13.8786011924121
11.2814303289144
7.00277681986331
3.11749645394741
0.678756465388113
-0.917029960655541
-2.86891072089706
-5.79433090015675
-9.56402333917597
-13.6925941298801
-17.6746841377833
-21.1465354705005
-23.7303118330328
-24.7463155252858
-23.4060007255202
-19.3532395431115
-12.7190314312386
-3.79045206072148
6.80794712678964
17.6024197828701
26.5024080531195
31.751646559998
32.5902975329974
29.4328693584041
23.9132371477977
18.3068717882338
14.0358970456844
10.69265524521
6.97534530457342
2.49346750806341
-1.68319029252825
-4.12556768137747
-4.41128002117009
-3.46660546248145
-2.76542544444517
-3.25839531968099
-4.92965779223188
-7.00555874848091
-8.37302497331941
-8.17524652929614
-6.50198568293826
-4.42611541754841
-3.05414246651021
-2.55351019729062
-2.14028968260121
-0.860931375368493
1.48010918610088
3.86520084060658
4.77512845058615
3.74344933505366
1.89287637926786
0.596446965601554
0.139094495557371
0.1041726211544
0.349789198566559
0.904682120163207
1.42740633999612
1.49605049792666
1.13619735611055
0.524695206615206
-0.503422901375476
-2.11093643575917
-3.88664617189188
-5.16838354568766
-5.85208572513328
-6.47808218223902
-7.49901518700533
-8.72881183841021
-9.64849325505555
-10.1201876198998
-10.5012059588577
-10.9749166130715
-11.1042931565862
-10.2982911088829
-8.55726205629205
-6.63858172034019
-5.54348783554289
-5.58259488543024
-5.62110458801529
-3.6052101048962
1.51570540368788
8.36897700297977
13.9689369672777
15.9562397268208
14.154892927593
10.4217686071901
7.10868560623203
5.27262954362201
4.26131392928975
3.14165656919321
2.08149541816833
1.86574876689282
2.56771589883513
3.44992225682271
3.98194462206533
4.35889670774643
5.04063647493333
6.1669004550897
7.55437208955916
9.16634104664441
11.3195329868352
14.0274925639337
16.14084100149
15.782491252885
12.053485262739
5.94315971489
-0.682582342929436
-6.50552278911402
-10.9912978051871
-13.889998161624
-14.9648967769255
-13.9541155218573
-10.6950754421666
-5.55146620057759
0.362873765859779
5.68658634120986
9.46466167549627
11.2134704660683
10.6860610743929
7.86458716970577
3.07503763773601
-2.9780589693611
-9.30975671604781
-15.0822143133626
-20.0758192329196
-24.2520467067736
-26.5848718310727
-25.0833734992208
-18.803482158725
-9.58962267854931
-1.0550545390787
4.39027415918171
7.27037670692906
9.75715004829571
12.9067802702937
15.4353502728041
15.151983263644
11.1910225838343
4.68078863518168
-2.32961470380853
-8.14632101781476
-11.8935772798731
-13.3427567916638
-12.5132615251818
-9.30193793515163
-3.55289432112893
4.36225487731984
13.191036633141
21.1641827925572
26.5189987293488
27.7277203631203
23.8785766378239
15.3958801255699
4.35531261302744
-6.19597783946429
-13.6105209050444
-16.8839663998021
-16.8978314524148
-15.4049810740147
-13.7231246079083
-12.3241363461315
-11.1526832271039
-9.77913119170282
-7.48259897390412
-3.9037744886235
0.152739922750064
2.87265155412001
2.74915910592775
0.0488913580214202
-2.98943206413348
-3.85028103661577
-1.98889526280962
0.840316215817964
2.65125707726856
3.22694586682315
3.94976127829003
6.21985934461991
10.283498453237
15.0520242202292
18.717137356168
19.9517640006297
18.8200505130093
16.3050878647495
12.9963014708408
8.70515474431055
3.34156880961472
-2.41042591379157
-7.4835967606334
-11.2469291676539
-13.8616262874998
-15.8100981026923
-16.9688227246896
-16.3971753841797
-13.4561143884266
-8.92183844390729
-4.44935836681176
-1.01219115775652
1.67330823287274
4.24131831176654
6.64819675882576
8.19654055324548
8.41196774874387
7.73121101365577
7.24260192364093
7.74473031012402
9.0443411884196
10.0210787887952
9.37358572097746
6.75265109578971
3.4809595700226
1.70395269828331
2.28819074054537
3.78453292562514
3.85543475490081
1.48477556657343
-2.48601378836765
-6.60970879464067
-10.179227073246
-13.5277408401215
-17.3697112232501
-21.8280135324948
-25.9239335813205
-28.0024054508064
-26.7485554843111
-22.0488520954855
-15.322863001066
-9.04450050051182
-5.12378930902283
-3.04886385122579
0.0434662001870453
6.7202542715882
16.4313345507964
25.3854319576781
29.3411889914278
26.8518928115201
20.0975968758048
12.6447689446195
6.58371383972283
1.95308979511671
-1.73885360304728
-4.41735237827993
-5.78354227571409
-5.93771670858297
-5.49401639135183
-5.34231405779048
-5.96201163381103
-6.59141640615604
-5.60421094135795
-2.31531608775897
1.92085950673267
4.93678151503802
5.92426347258118
6.06075849879003
7.02620133235821
9.13212082507751
11.1233191159674
11.7943135750092
11.313975285154
10.5839774476699
9.79255477235021
8.31633136141161
5.74808439101803
2.20848031538183
-2.16884839119977
-7.13786666296888
-11.7088505069169
-14.4933449824575
-14.9557518726426
-13.857992884882
-12.36566617343
-11.0374963869965
-9.71868813087119
-8.18741047633072
-6.66845539421255
-5.41271316302557
-3.80392485303004
-0.599113127839898
4.41657315928863
9.51956464439067
12.5220160383367
13.0538841279922
12.8481944145477
13.6800898004391
15.3969650481532
16.3386989846807
15.6477856407354
14.5740913419452
14.9709115070343
16.8152253413644
17.8779761741622
15.799811585904
10.0944472168918
2.27561689102096
-5.70105333651435
-13.3359450795838
-21.9373691526777
-32.5462372593522
-43.5566281192932
-51.2686849701197
-53.0403971380711
-49.1483657234115
-41.4483885426128
-31.3504308975606
-19.7491149520865
-7.99920417952273
2.22542911200073
10.1437185853771
16.4635498428467
22.4625412197291
28.3447303400956
32.6688265777301
33.8138732297959
31.9520668917223
28.9308089073003
26.0091191156772
22.3564975220507
16.3252766181944
7.96947774861308
-0.242600988892016
-5.4187384872173
-6.69758213415502
-5.43688414714797
-3.19960070652394
-0.248958651119876
3.70569091011825
7.84539378341881
9.91796218645392
7.68904820336752
0.853368279204967
-8.29551374187437
-16.3800636154921
-21.5018638018799
-24.0678945848825
-24.9467645024926
-23.6751986860147
-19.3506308320224
-12.7682741289002
-6.41960613816831
-2.03314128272178
1.18155489492601
5.31851146076892
11.0545237599171
16.6034389748838
19.4693944682881
18.9180475165716
16.3423840882289
13.3642260175475
10.3504281891598
7.08451168488348
4.01898150133842
2.01240413263493
1.18992241877849
0.836884626481388
0.453904466193586
0.489748036840396
1.7872266705495
4.31425624968172
6.72331253182462
7.53073716250592
6.60019777708656
4.97747312216827
3.34363066999087
1.23567681139448
-2.09116126704549
-6.47114273774544
-10.7006015683229
-13.5782142794425
-15.1632092524072
-16.7950280533953
-19.3845133950681
-21.8803023025861
-22.1860371800954
-19.5889638226701
-15.5132594012731
-11.7154165608652
-8.35334135202545
-4.16951102119605
1.60861673663023
7.76388311501503
11.7090158186684
11.9137068133936
9.64214255239503
7.86404792379324
8.45017047012356
10.8210015052063
13.1572459272901
14.2566154408339
14.1622199717424
13.5829601577221
13.0162544825399
12.4083992705878
11.666768999338
11.1795792315651
11.244889066896
11.0578475595625
9.00252720012817
4.26404285571525
-2.1957825775084
-8.49319046662065
-13.5048816727901
-17.5498028838718
-21.3863548842238
-24.7136762556423
-26.0512796021125
-24.2217086638526
-19.525908362259
-13.1825736023125
-6.03013383786565
1.76869411712061
9.85433733206633
16.7700622463726
20.1300654429702
18.1291850791245
11.263899201683
2.40376120305072
-5.04696753705141
-8.98362618547487
-8.94647798902241
-5.56920666125131
-0.204696812171607
5.26587670458042
8.86664360358124
9.25996171499208
6.59336070211919
2.88641311805986
1.03084624164533
2.5881732003664
6.42852938332004
9.79769819808947
10.6260740828578
8.66257363902467
4.79608688061966
-0.0731409383942256
-5.23986248618912
-9.57191437283686
-11.4772888400806
-10.2941576188877
-7.58662580284435
-6.14913388132284
-7.3733760471275
-10.0607677286169
-11.9457161413807
-11.9211950981296
-10.7037249825673
-9.76250382891313
-9.77600238944433
-10.0365397236009
-9.3721619460325
-7.48252776617644
-4.96943387090761
-2.08741542670737
2.04027425231419
8.69284707072578
17.9807339578734
27.8507363873429
34.8223827745382
36.2868711792976
32.3272019451647
25.1428711507488
16.9429322643156
8.8538461065921
1.48252054912423
-4.55400677636435
-9.0343251118154
-12.3989924785628
-15.1722781802682
-17.4532344501465
-19.1877935179455
-20.5841506866686
-21.9334505552094
-23.0032546416489
-22.7340979741629
-19.8694617443159
-14.1776970163682
-6.80234240282453
0.941572214758738
8.80572389878411
17.2066487253739
25.8530669721985
33.2500305876337
37.5391259140493
37.7039068952202
34.1426567312901
28.1606128274002
20.8054179113018
12.3174462220792
2.79136964189338
-7.01700957794439
-15.7602511901288
-22.042400435955
-24.9928515361495
-25.0567736636185
-24.2526314868066
-24.6977900059049
-26.4733423471676
-27.4698449095825
-25.5284774320278
-20.394347344308
-13.7608069507302
-7.98002096010099
-4.50691599717207
-2.80098231916271
-0.706527757183735
3.44711439420095
9.00021897696339
13.5802072475176
15.5274549335092
15.3771690248793
14.937705381485
15.1843367523257
15.3262549364228
14.019994222409
11.1007941728379
7.53645336705292
3.85135505982702
-0.476515735214013
-5.61431490945079
-9.95901886502392
-10.9293739632245
-7.41465916328842
-1.08497141592152
5.17775274972295
10.0171629145321
14.1466724255061
18.1854355096117
21.004670396233
20.8309203211839
17.1848139165455
10.9245253856777
2.9120781594887
-6.46409504441207
-16.4490989092118
-25.1260849535368
-29.920888152039
-29.4307935454749
-25.032856296105
-20.27379515184
-18.1121889869099
-18.579379080232
-19.0060007858229
-16.3797141902543
-9.78940850614433
-1.06053278825351
6.99192080593171
12.9866258333758
17.2736946242398
19.9697007269093
19.9711270157556
16.6129871806749
11.2526962057751
6.26031289314322
3.07856314107601
1.85934099812072
2.18371303888429
3.37165426212846
4.53778199168278
4.93854874179188
4.22660026029469
2.33093808311217
-0.691312718154183
-4.58122802585262
-8.62096635589314
-11.4804219149978
-11.7176429947384
-8.7992859474533
-3.42707702139126
3.24504047830102
10.1857795573272
16.1982474631821
19.9935324708089
21.0883813499481
20.0594315851931
17.612282518083
13.9876358297727
9.48764316587505
4.95924066206222
1.40866404733321
-0.597553544009519
-1.09686029712354
-0.622587085288247
-0.0161192476171644
-0.118259683130404
-1.46198266133859
-4.05829572320522
-7.21995537601086
-9.76795049125038
-10.9744824253471
-11.3972470145236
-12.3230222809384
-14.2474353198201
-16.2142567922557
-16.7796598688313
-15.5060551146316
-13.3973065137435
-11.7560882089151
-10.7465898082344
-9.5211985277531
-7.63436364381649
-5.41138477371663
-2.75723120136877
1.08701520107854
5.66886631901014
8.09417263517252
5.06580040784576
-3.56909957680821
-13.7643155108847
-20.0395499103558
-19.4757339339487
-13.3273915254574
-5.15976925589174
2.18448921369251
7.90631887741371
12.522993233221
16.6634699761188
20.36826876787
23.063258721666
24.2954724946224
24.4835653477829
24.368969689711
23.678727757354
21.2309639711025
16.6939157394408
11.2827077361048
6.12474395176024
0.80253072021183
-5.64180078939588
-12.7029913290145
-18.0772644527626
-19.2456432632562
-15.3409475179879
-7.84688824130814
0.429661585439775
7.37670503571021
12.7274183693535
17.2445964778476
20.9736881755793
22.4979514244162
19.9530400137151
12.7337948982472
2.07951564844166
-10.0082220820546
-22.0066303619097
-32.7736177092403
-40.8337903871054
-44.7084715686009
-44.1356711222115
-40.4562027130911
-35.3870905762119
-29.3158827940058
-20.9584836188979
-9.11796209961208
5.07201625443571
18.1685428840857
26.9936832667389
30.734097824686
30.466341071463
27.7351258961994
24.2167667293262
21.6277790385583
20.6517069636735
20.2535379937703
18.9297243207894
16.4210424109279
13.5834118011602
10.979312046504
8.3751967342046
5.4551644469353
2.36784148014598
-0.532436678186136
-3.23134317129879
-6.24981971937092
-10.245950227365
-15.3783542780147
-21.0824740590371
-26.2929850597097
-29.6631919905347
-29.9067023238773
-26.5692019230231
-20.5528672021996
-13.5080722386604
-6.57036655891624
0.242365948535737
7.4311170030432
14.7837106486484
20.687634376184
23.0265257060725
21.135034447729
16.5762339967879
11.6197647206097
7.31401124102258
3.38657030894059
-0.517681626778158
-4.1166708945759
-6.77992455863772
-8.09604166776307
-8.15521797758795
-7.40966940268486
-6.29552354718386
-5.03831489436953
-3.75773266138554
-2.5304726586417
-1.287836777407
0.20612370563321
2.32924790126469
5.70714735484606
10.9744343963468
17.7439065096583
23.8651645577787
26.5371183191706
24.5919845009371
19.3998116980099
13.3598822140259
7.70305498756373
1.82896210774916
-5.39720406846964
-13.9145634883382
-22.1372529862958
-28.1900448318576
-31.1712632583084
-31.3255573439315
-29.4949140017766
-26.4461288646083
-22.2469703212795
-16.2721039134922
-8.33364845994667
0.18809507477072
6.90789826727719
10.3249697521527
10.9867419120693
10.8818339876225
11.7291488739083
13.4999167352801
14.5602652516698
13.6440736626668
11.4831513122872
9.83970352026275
9.19282203235874
8.32290352885756
6.1173769321597
2.78619491819163
-0.869759575364447
-4.53177647982733
-8.41942334293961
-12.8170658268164
-17.6167860341971
-21.8749488408349
-23.9292568555683
-22.5075941934844
-17.8417246401439
-11.5336711778695
-5.3115854659621
0.294807240204669
6.45007369699894
15.0881272877021
26.8268945257202
39.3237806102832
47.8822543425375
48.394606234136
40.4311158959734
27.7087272830565
15.3704939865421
6.57670216592239
1.30361119961704
-2.33250144626648
-5.91820586329018
-9.2874581101859
-10.7560999247126
-9.21346204388769
-6.0599099478126
-4.27952339458229
-5.44609872898994
-8.52772658519518
-11.6595242502414
-13.8823584432797
-14.9366112069007
-14.7512011229864
-13.9017455073879
-13.6985280232866
-14.9930745258138
-17.171995940716
-18.7421666133023
-18.7853283024917
-17.7422425268253
-16.9320449086821
-17.3183765598143
-18.6841924432512
-20.0286782898612
-20.4394350012096
-19.1156899501922
-14.98571819721
-7.39637074131193
2.5708447291971
12.1493297490381
18.6554433594388
21.2334083818725
21.1372760916843
20.5768220312663
21.0877777472482
22.6624126280947
24.1843697803747
24.424491784673
22.715602035057
19.3280101947431
15.5215329038948
12.7478056225303
11.444401728083
10.8451987911472
9.97688770357797
8.49741643578551
6.71038127967862
5.2203537929527
4.48840843476641
4.38191114826003
4.20642687206278
3.301956996194
1.55260368250431
-0.568493928124861
-2.32665999956156
-3.39822755460863
-4.4409517316063
-6.55684005626842
-9.77514509627358
-12.4545272397984
-12.7309597149127
-10.4438435015501
-7.38334757200368
-5.83114883678648
-6.9149415718937
-10.0370040021159
-13.7972819347109
-17.5321474873611
-21.5792850640319
-25.8953163215744
-29.2041665271257
-30.0472974216987
-28.0199040917834
-23.4486769633577
-16.5365690076716
-7.52100473854315
2.71601201206525
12.831396276128
