-0.562061812833612
-0.775696877788987
-0.945053659687823
-1.03105326308009
-1.02949863130014
-0.946769975523313
-0.740584732419834
-0.388563250439068
-0.0238405143975082
0.172520138233901
0.200336811916842
0.188238192800689
0.1964253794627
0.242537217275993
0.372776921313423
0.537834907536617
0.574524215319337
0.426876735818141
0.192765872171889
-0.0634497388169167
-0.311558822023211
-0.447263939052923
-0.447139495892077
-0.492863746731317
-0.68978171304765
-0.854770232769339
-0.811829703011361
-0.674390758723861
-0.627497879325722
-0.648948163738203
-0.620255337575453
-0.512581263686992
-0.332937780129684
-0.0767428964709325
0.181977763340145
0.324209065281033
0.327938828391271
0.239565383600142
0.0890935048117927
-0.038014754140445
-0.0058067455401038
0.180394993903291
0.359710578961052
0.436328855503041
0.439172753133608
0.395998350445558
0.317917500767761
0.240370239170676
0.171600260833591
0.0995924182911276
0.0670247461536586
0.0982308215657922
0.10339846429829
0.0116659260313067
-0.1008308373163
-0.138259876600067
-0.0810335161468843
0.105085719922358
0.416948667535004
0.656558901824075
0.612764717806241
0.376265213042925
0.198864396987048
0.141629618401675
0.126859358742488
0.167564078554268
0.278497590918435
0.335074228801366
0.244494070056363
0.0927519673655909
-0.022065541737906
-0.113377169618754
-0.179052389447742
-0.174042210104505
-0.153055912732388
-0.19992390312241
-0.225573130482078
-0.0918871568732749
0.120517884005281
0.210682883620301
0.133717087600203
-0.0035621413252551
-0.101779539529506
-0.115968650311817
-0.0736976634766311
-0.0752994007969298
-0.168317902826094
-0.273970714933391
-0.312613618030639
-0.292487480087402
-0.2475567340335
-0.224233611651711
-0.290955475364014
-0.419400881880143
-0.469231405871303
-0.416135324936571
-0.402947947854864
-0.467567842083901
-0.481801346514688
-0.419889041003895
-0.385481277152354
-0.365025468071037
-0.266553009980633
-0.149968297124494
-0.122999026475089
-0.113052467523988
0.0037347939334671
0.191451684077799
0.369242583459389
0.553093259350218
0.72982889516082
0.800520546189979
0.772894354541269
0.791842164756742
0.894063251111268
0.946830553298436
0.85667416621341
0.638340324647733
0.328202081308847
0.0144249185679166
-0.158364271096488
-0.15894290860917
-0.106955612572351
-0.0878170439848429
-0.0983479463665768
-0.151204358412966
-0.256190738117083
-0.35890504139826
-0.412784109542163
-0.40628218169416
-0.294519613805038
-0.0679462293918558
0.152752644482552
0.269399630539354
0.339539675388536
0.395934168528308
0.339631108262737
0.16550541982973
0.0321713263216839
-0.0073956921271384
-0.0568543966160588
-0.119885824814859
-0.10199720331363
-0.0425049594775633
-0.0531336867831
-0.112565085604569
-0.165441849741977
-0.271927323259331
-0.450011403553342
-0.557440710415108
-0.504435378611001
-0.387962226173846
-0.295679641075155
-0.195283037555488
-0.0929740148636279
-0.0644170659957134
-0.0932617216305424
-0.102509092327255
-0.111521775398263
-0.156968039573524
-0.163643529802357
-0.0764287575165615
0.0179709799949028
0.0293558696014741
-0.018350289269288
-0.0601588049443703
-0.0534683761811455
0.0132578456908258
0.0848018133729422
0.0840449613257618
0.0251023251575062
-0.026461978678026
-0.0669999765832536
-0.0961270229600831
-0.0543752655195958
0.0409650192777789
0.0619026449519758
-0.0157314494826792
-0.0734947752200501
-0.0759173369749037
-0.0798487642089989
-0.0435259653228224
0.0850259385945978
0.17737577736678
0.110212292826498
0.0023255608335782
0.0155844513688144
0.10813269472932
0.194120979847931
0.314306316371567
0.457415671608773
0.463746515391064
0.286267092559824
0.112785961019603
0.0960171475757044
0.189842950988315
0.316348783492108
0.455188018590423
0.549831463965969
0.534401487248065
0.426219134213075
0.269175093864369
0.0914731893614752
-0.0302395171551191
-0.0270053922667663
0.0408572066129385
0.0689317549095446
0.0492158325475579
0.009706706458787
-0.0560216488246467
-0.119733758976209
-0.134533648864751
-0.136861573557151
-0.175145821058518
-0.202560921223309
-0.192537478950175
-0.212958175454944
-0.254420168261032
-0.209562200173414
-0.121438592782565
-0.169913246529121
-0.356984838834613
-0.511564717687332
-0.596175068024891
-0.695862742804187
-0.770546114516191
-0.720776546543817
-0.604099599541465
-0.531943783072695
-0.472903071099878
-0.352401774759581
-0.191272003126302
-0.0009146282792646
0.263145991032302
0.534094497878495
0.644781961278034
0.579842905098947
0.494678118922864
0.473871659165239
0.485394158172856
0.520498097943128
0.583715116413396
0.622332771668464
0.590776142728063
0.497172779142556
0.360540161920021
0.21986228295429
0.133459042197238
0.0869338534752448
0.0022856884168596
-0.133834289445761
-0.289060675270258
-0.484122301115824
-0.70031396435254
-0.804896919214269
-0.753241729711745
-0.684779799731656
-0.650094089501425
-0.497573572094823
-0.184840492237972
0.0946116605320201
0.216533725423789
0.263946107967642
0.314747362222657
0.370401400206799
0.462061190925836
0.578915821959735
0.596754597628538
0.482490836336493
0.393628700055232
0.40151328250748
0.347555695764918
0.132057315224024
-0.113346817008931
-0.271173074488126
-0.378048285279035
-0.427693176530531
-0.320910574638834
-0.0768425110610946
0.144546589219115
0.238082051606414
0.210054828878162
0.111993678333361
0.0187504654816427
-0.0302938344643704
-0.0841001166382724
-0.168375866577096
-0.206738867671564
-0.165887086410471
-0.12866372681102
-0.129432763463028
-0.106956562349656
-0.0717131493563003
-0.10539596837085
-0.185745692198615
-0.213598717024022
-0.166040511578949
-0.0695832260938555
0.0474035493979075
0.0785210493261385
-0.0678104196699954
-0.257304984201255
-0.280873399255236
-0.187747442359897
-0.165093225232391
-0.182332420823267
-0.0845154542192123
0.0814959729517713
0.151519499960998
0.132800351723423
0.141837114424759
0.186550328768361
0.221789285369675
0.269166761703535
0.323664875117328
0.311899064782416
0.234372108804122
0.163144541978957
0.0898593500552329
-0.0251512725920724
-0.11793110884072
-0.120938053746803
-0.0786877426823294
-0.0284598175611931
0.0706080314886094
0.207074221124281
0.285219394979113
0.251727194802007
0.129974017756708
-0.0244323897710762
-0.128272391593221
-0.137782993617712
-0.123677548578969
-0.144001009444685
-0.125184633949671
-0.0392867668855432
-0.0227212601401985
-0.115900880448045
-0.126969403930704
0.0407339494225682
0.208430150786644
0.232257150336206
0.181507946258424
0.106898446178541
-0.038248412701362
-0.195903762952443
-0.230712589003357
-0.159716836329306
-0.105824796810317
-0.0937973402582992
-0.0996826035560145
-0.166747792315918
-0.284853330840472
-0.326691539951357
-0.257304449079089
-0.203126821688341
-0.205720988760594
-0.142762031441518
0.0348498527549941
0.213234452837437
0.286634242723973
0.244004592238059
0.124794006151161
0.0062894096276383
-0.0366362598300612
0.0010790699137038
0.0967447627616043
0.238391081260643
0.345948321243061
0.313262018955514
0.20221820661939
0.189147210059545
0.280392417581886
0.318342148236203
0.254989200121115
0.159523533835152
0.01580269716747
-0.226261452992297
-0.482215067424627
-0.618587339076292
-0.590984621013751
-0.403428846443216
-0.117532805579651
0.0820804123689188
0.0599867898897939
-0.072699373832916
-0.14041408455336
-0.154737826064023
-0.180396494262827
-0.140952541628754
0.0215412897508596
0.186493384543311
0.249726242989045
0.275293516449953
0.300045285592703
0.228538253397631
0.0562879092490007
-0.0557919761336926
-0.0295500070910971
0.0410497105727554
0.0843019872303312
0.128916082605904
0.199363841464782
0.275122705543782
0.312369604492335
0.265873603612395
0.168923629467151
0.142647029009133
0.225054025222204
0.299110379063311
0.274353747067498
0.186966914811937
0.0782809429070613
-0.0408322255892546
-0.113372791704935
-0.112457509274648
-0.120802937511644
-0.173893896521937
-0.188575864332171
-0.179095768973447
-0.290852528334223
-0.508649362914696
-0.623608360275213
-0.553401267760801
-0.407344727392056
-0.259331986953081
-0.1491962933521
-0.209733899147764
-0.48816717993148
-0.761626921339933
-0.803101008292513
-0.684433206228244
-0.575055794286631
-0.425882028387571
-0.0995634477203365
0.348410541684441
0.711249549010643
0.821434820589587
0.641211146256676
0.331214182919904
0.192624847428885
0.355531524477899
0.617792961459791
0.731763773945071
0.683231465378392
0.582258022372252
0.480480743482195
0.384970678636275
0.300921470790494
0.225126971661349
0.163334531908294
0.103896393814403
-0.0189330680939036
-0.211119668350453
-0.336827881763521
-0.314177300774803
-0.257177510402895
-0.250831512557087
-0.205505393251961
-0.10794576877912
-0.122354422687729
-0.273193309525944
-0.348550098088728
-0.243882896574557
-0.0833684484755834
0.0509955518500124
0.195262323745105
0.312300984014952
0.314709124005192
0.248433437001462
0.228075047093866
0.26229623634621
0.305371592726833
0.345046603752392
0.316021344141065
0.129126951461638
-0.111023091951716
-0.164811191768997
-0.0140664207432121
0.091972627129938
-0.0138197630660659
-0.242372511431791
-0.411461300720038
-0.417504030140203
-0.295963172419771
-0.196164671361548
-0.228663838693261
-0.351746523309129
-0.479990890822875
-0.58859284519262
-0.632978746623405
-0.548566609250299
-0.397495431014834
-0.313216665195773
-0.294186102443597
-0.269515888296866
-0.283507466811175
-0.366974746332141
-0.37698579234371
-0.214558034529406
-0.0089129741248064
0.109332250385257
0.175831599907367
0.217564282353325
0.202204270785307
0.213657393402361
0.372276554011486
0.58690374530783
0.675731923230394
0.662835606801352
0.674093969339059
0.658239073558624
0.501166132670905
0.295449563003481
0.229328989604084
0.316997015426838
0.427766688887345
0.455737461354545
0.365762904788944
0.225662151978036
0.197344674959205
0.336424543111806
0.481233014432361
0.477704398738144
0.362116346180467
0.220749883979737
0.0609904887128218
-0.114920079573077
-0.280705365194114
-0.431223868484095
-0.538675049351403
-0.54997460962464
-0.497632429755546
-0.459912819254349
-0.4006116386205
-0.256774502384007
-0.137399457446459
-0.191296667001045
-0.364397227420744
-0.505469423109385
-0.561559063138866
-0.501067168137079
-0.272682508052002
0.0201831971071299
0.153754272937912
0.0769795582062707
-0.0588717168988006
-0.155627570051947
-0.21866114044864
-0.217337377026488
-0.133252728482476
-0.0662537558853541
-0.0880043323406997
-0.106994557821594
-0.0502131711675808
-0.0126980554052754
-0.0793789468964151
-0.190902885919875
-0.274759554814082
-0.295445924656091
-0.171635259418699
0.113678105686087
0.377167219525915
0.441456302667323
0.380675936097602
0.375640059460672
0.44935804002427
0.484815973925197
0.400770420116587
0.239060161680412
0.132439426446222
0.163927024619914
0.242412024788528
0.219663008702302
0.113107098427531
0.0589998204436411
0.0995968340068557
0.189315743222072
0.307894143767719
0.404252921833318
0.385684021472227
0.285476424532881
0.232185727702758
0.201405650151489
0.0687901856765326
-0.0973125661079529
-0.108994623494327
0.0103837142648551
0.0726369712912448
0.0401395300666962
0.0185583143447253
0.023970508595825
0.003509200864919
-0.029567273796045
-0.0923060721617687
-0.298048280828033
-0.637086324745711
-0.893674283259391
-0.94611122761917
-0.942137861243757
-1.06113995798416
-1.28965524215423
-1.48758795673664
-1.53890264150179
-1.43726324979633
-1.2749943596202
-1.08710850022745
-0.75070850464115
-0.171066797497643
0.523707404913249
1.12408294614239
1.55372208011459
1.82280685347101
1.92572943613424
1.87566726623046
1.69738726640025
1.39233355025237
1.05312091922672
0.872811564327376
0.851268946875231
0.710222414944511
0.3032093196269
-0.150914873420054
-0.407734088417712
-0.471196290159315
-0.416919996142839
-0.264507860204486
-0.102543727472296
-0.0457988645622026
-0.0435237968796983
0.0175951206499048
0.0715742066748369
-0.0185055421381406
-0.20361008330246
-0.330295946890755
-0.354399289728458
-0.287346909117813
-0.108547790034092
0.110125582086691
0.19092505882702
0.0752612122868869
-0.110032759440085
-0.236756061946521
-0.272312579880126
-0.234252666602517
-0.170758101306873
-0.130307492117435
-0.111598636884049
-0.112088357867284
-0.170875090854471
-0.277901481144252
-0.354137399761304
-0.385086906666562
-0.413969853946062
-0.395318384604674
-0.270218381929654
-0.142878442474113
-0.137224320776772
-0.17404441414361
-0.126889265338251
-0.0367325258991745
0.0307233981619361
0.110751971145689
0.169108163080267
0.0853035752148511
-0.0961692380517855
-0.193396506125746
-0.195739193295916
-0.243178097301316
-0.323727996803967
-0.300191475498121
-0.187109589438327
-0.103855530376663
-0.0243973055675486
0.148219195437086
0.35201496411652
0.457359104188405
0.475524859381831
0.486319571507922
0.489458763754352
0.451493232963371
0.373369939061734
0.268339897152506
0.173748130459499
0.144090723602643
0.163511386067741
0.158419376109793
0.114250226276755
0.0619155947051453
-0.0044539430285746
-0.0730751884426412
-0.0824461313065504
-0.0431265315311697
-0.0357968797884635
-0.0388490339050545
0.0298692931759508
0.100439086053482
0.03155012637785
-0.137579146170458
-0.251327381588501
-0.245875560492559
-0.107743867995541
0.171503057386412
0.447259899898629
0.493815975287585
0.334286143997942
0.217067775641156
0.223607427389023
0.20427779433094
0.101435880958944
0.0210028520112662
-0.0071084908689866
-0.056807305312215
-0.12793209503475
-0.17548922582895
-0.233364691351196
-0.320050644817569
-0.363380386983757
-0.35556606341718
-0.384359077174047
-0.431128183771029
-0.372120751317453
-0.205063068229246
-0.0473658044164935
0.0580622184372508
0.142142520295636
0.191160467083678
0.172390545529245
0.0995629297133099
0.0142341706340657
-0.028583086223248
0.0052048482872987
0.046710294926615
-0.007852881819932
-0.110759054102792
-0.122657199555232
-0.0565958825572126
-0.0425935307202856
-0.0979126978746424
-0.159937159433786
-0.234386404765918
-0.298053247618768
-0.231121659561683
-0.0276460395116383
0.138381899373084
0.173353632649815
0.157566045702057
0.138345205860867
0.0818360469793516
0.0256151872229963
0.0364343631547752
0.0594520522481549
0.0291579158180891
0.0335851175475149
0.14698495057836
0.236542792635545
0.16592261662738
0.0406222305263293
0.0417488094807585
0.163668400735307
0.265370650965514
0.243057457433839
0.0814767900607688
-0.149193487979101
-0.347229100287444
-0.488608606520123
-0.611325761140335
-0.704329762998203
-0.748226630550017
-0.800030089507286
-0.877746764599958
-0.872175974756618
-0.714867615837069
-0.475522828429518
-0.193805631715448
0.181652187636652
0.633194073129176
1.06652025402273
1.4344436291538
1.65728025942973
1.56398443591332
1.158951975436
0.751239747652462
0.584778714373642
0.559241218198353
0.485693427947183
0.355292410571573
0.217152182399355
0.0513118803722874
-0.124362847742113
-0.237078031453782
-0.303579935154972
-0.401900065858156
-0.502853029426296
-0.513078618649739
-0.437054274116757
-0.329354497555436
-0.182662967706216
-0.0015426964403511
0.14941749384662
0.261962510902459
0.391737692583863
0.521386267485007
0.565385082743683
0.478610483057651
0.258139182091242
-0.0588587470909374
-0.343123374242573
-0.466509570441156
-0.460423341198376
-0.44641883853381
-0.473528115165844
-0.547186135347266
-0.686453859443347
-0.84601518822842
-0.941049082660156
-0.983110857763562
-0.994293169141769
-0.85151680067039
-0.478605202430655
-0.0770619208062375
0.105359611548885
0.0770720894960939
-0.0390496299641896
-0.204958486073809
-0.339350281916107
-0.272509836601961
0.0103124280148038
0.332022422526734
0.60177828305481
0.864604951800833
1.05957757780255
1.02623015341063
0.771476507492898
0.468362242466465
0.212758776563705
0.0136266754935365
-0.0660328566502148
0.0082847302972454
0.121127527633593
0.137811745378365
0.0451439638085196
-0.106466588715904
-0.255929176877225
-0.314168010527551
-0.223192804719313
-0.0157842319321449
0.225356983632062
0.391114505364806
0.369653823711235
0.183336746163773
0.0214622519339008
0.0075038909363711
0.0699564627295085
0.131038969349968
0.201176967367631
0.219946313256766
0.0813130570700951
-0.135778344001722
-0.236232580213719
-0.191398544120241
-0.104148449890196
0.0033250602286352
0.136742612840183
0.221330672305645
0.22501749056884
0.211144859069789
0.177881005920138
0.058351420227877
-0.0935721604838398
-0.152796274875876
-0.146083040195277
-0.190210363935609
-0.251701452781937
-0.202596203551843
-0.0550465481014886
0.0610826052446968
0.0613632403922611
-0.0880121437825633
-0.362439319543343
-0.586425393644892
-0.560757311533724
-0.332969098729793
-0.145719330662176
-0.136098312605601
-0.247180021914194
-0.351913631490833
-0.342499401759423
-0.199298699871798
-0.0179765442330912
0.1207338769354
0.241761993390125
0.348668982008115
0.375378027478603
0.358520065582637
0.428620538711169
0.557903718856445
0.579771426435543
0.476815640935516
0.367348765613804
0.260749780872192
0.113650391937441
0.005207372165753
-0.0105134503373789
-0.0509370268430662
-0.191308345958996
-0.320049753401159
-0.354503527428528
-0.362486766194322
-0.376776686257901
-0.326174581672498
-0.196530555114412
-0.0435846547809793
0.137927231800155
0.345044405612655
0.441079714755485
0.321334312159071
0.102531758853217
-0.0429603696311534
-0.105089742899339
-0.154587843773063
-0.213204207690132
-0.280635405289171
-0.329727278979609
-0.280407204214567
-0.114968560067563
0.0571202468047844
0.142475899511038
0.149146970069524
0.100796055001389
0.021381862004423
-0.0208546505534239
-0.0036217918441417
0.0009860159953699
-0.0206164451235113
0.0131276896555788
0.0844354867535539
0.0722146220007314
-0.0157189256774088
-0.0602981894668051
-0.0600247311471078
-0.0830739239191502
-0.0889186817468403
-0.0478273770622982
-0.0727495378275955
-0.205823557969537
-0.281697534909829
-0.193697080624826
-0.0707588576951319
-0.0393474942366677
-0.0370310635845707
0.0167703344893609
0.0781750236584484
0.0987127407952159
0.10674470673183
0.130291791880642
0.183916667310635
0.291615471218856
0.404622510850024
0.414340762789839
0.329438888360425
0.267995301353793
0.248824540778359
0.194441775890889
0.106437475171048
0.0376530718240718
-0.023932329596132
-0.0837053202811034
-0.0819482340616932
-0.0127126025733255
0.0420264788184915
0.0366870642194311
-0.0091455443064017
-0.0693920251785254
-0.0989749176580647
-0.0699044955228296
-0.0634475435646664
-0.145884795712835
-0.181962601854565
-0.0328521584901662
0.145940738720855
0.112817356429148
-0.0833620250398137
-0.237168967415784
-0.316534610014832
-0.385266943143601
-0.40875967291194
-0.364994169426386
-0.335334240010607
-0.330523824150338
-0.246712236113223
-0.0805470945655471
0.0475213786697325
0.120908081532872
0.228592472434632
0.342326926541059
0.347736745822632
0.265205863709915
0.209019750126592
0.195111516364753
0.167111933524522
0.109036089804869
0.022983112834721
-0.0878363114100146
-0.186200646474912
-0.25397572347265
-0.321499710634287
-0.372483836744479
-0.341822362612049
-0.236760878751769
-0.108804485498047
0.0528454053141443
0.227722068108046
0.278989025168215
0.151998606107625
0.0059901782472896
-0.0152397651963373
0.0406860713701167
0.0909169609253604
0.127949403038875
0.131525418553358
0.0969263451299505
0.124243322002111
0.28116951653169
0.477686135560018
0.616758764625507
0.688385825287405
0.633614948224288
0.373339338841558
0.0332542339042374
-0.140925615335737
-0.133177122646193
-0.147738960927741
-0.249691285473561
-0.301633387850085
-0.241615731906773
-0.143255342086998
-0.032266765965508
0.111053983080173
0.222209495866233
0.206608201381972
0.0510697252559378
-0.194612417966091
-0.44168882960332
-0.58004849207352
-0.588478775618178
-0.557586266411943
-0.531012792448227
-0.463531553496413
-0.364301646717172
-0.294940978422875
-0.237375854224882
-0.152266015258126
-0.0969125783712468
-0.112648027689933
-0.127255591484884
-0.100347361822452
-0.071292179921826
0.0029758184236752
0.194149480762242
0.384411128240834
0.407613798246703
0.344470980187423
0.364076783930345
0.402972350528805
0.304699766406344
0.111054796403877
-0.0446990500026782
-0.151723008584071
-0.233634906438495
-0.241397694381938
-0.175843562407053
-0.127336793282862
-0.110570614788165
-0.0504118178787329
0.0481964839859356
0.117772257973933
0.179366285688625
0.279103078365178
0.362037840477439
0.376264702077969
0.371227845358443
0.379070755360157
0.355291407486351
0.289612830742084
0.227916843285351
0.194573661885493
0.198419376706754
0.24599040709528
0.300236347604287
0.330120408594464
0.372867935237737
0.425998709898983
0.396799925726241
0.296688530791428
0.288632831663677
0.395547880519004
0.409283379326983
0.221411238070265
-0.0210387755447532
-0.169313460783696
-0.217466943387428
-0.189545850821429
-0.129559473897689
-0.132469946134607
-0.183451958255138
-0.120784023828586
0.0757860883036829
0.170543647150568
-0.0146319088180274
-0.392616753875842
-0.805001954591095
-1.17965369238407
-1.44189250406844
-1.53837300846986
-1.59024649046059
-1.76575962683735
-2.0043823583308
-2.10265525914512
-2.00434525548396
-1.78488371173322
-1.45117179811578
-0.937761988778941
-0.220129543804436
0.634169489477715
1.44522529665315
1.99240355289968
2.19226718545424
2.12423766429729
1.87234507655996
1.5044729406348
1.16954415638575
0.995252494968882
0.927667133967401
0.843048397019203
0.712029015485363
0.534126542833939
0.307645068900729
0.148908781070762
0.182472625834638
0.28227547083548
0.217181709068025
0.0152054479337571
-0.124202009154235
-0.168826311563645
-0.203332792766241
-0.202137151758178
-0.124325707410335
-0.0564372581682447
-0.0508035693966571
-0.017995341627295
0.0700177616024889
0.0866256154930042
-0.0279219818683426
-0.168053795354372
-0.250253240943875
-0.290492146250801
-0.291781308650248
-0.250861711581091
-0.219894254241488
-0.207457509036711
-0.145162398701013
-0.0525832708114819
-0.0509773323107941
-0.159807361284268
-0.266314626260582
-0.287398603757097
-0.209857929903757
-0.0535050734978162
0.0940357660628777
0.13495824667648
0.106488577610668
0.120172975341037
0.182795052445172
0.241854503471401
0.313193113394441
0.396960619329058
0.40646280417056
0.310049337965131
0.17469968491093
0.0259210880435485
-0.120534250862314
-0.139585684072642
0.0221664267857895
0.154716555648444
0.0505359145762716
-0.182759226753952
-0.317500195527062
-0.3278926969358
-0.306704197640888
-0.268153633320618
-0.22170116075953
-0.244818854256945
-0.338457982453874
-0.397432178365136
-0.402155507924001
-0.443201089530219
-0.540029905631986
-0.626706599014364
-0.662380946157756
-0.591764999893931
-0.332450985497392
0.0543507739582386
0.347470450198154
0.412719600748721
0.314132202053519
0.179874795593304
0.104423353974794
0.126071105804204
0.191847635304638
0.222415516519702
0.223312827796112
0.213477973353894
0.132298404257225
-0.0112911865221614
-0.049363842563467
0.0933418295525041
0.249424605657691
0.277544834314102
0.252620478781781
0.270745196990452
0.316814359709285
0.376388059965376
0.431008611366766
0.381686607228003
0.20930124214386
0.0839282949720652
0.103878131553509
0.118826000639385
-0.0010523303167338
-0.151927387928087
-0.21644143736841
-0.252596310836153
-0.322369640507821
-0.36719852280165
-0.352876300112951
-0.316447850672958
-0.233676224037003
-0.0556126343207283
0.144846143241769
0.24899086962805
0.244248633896237
0.183959513812398
0.121725643971042
0.131458753691954
0.233581160523062
0.312692691004148
0.253274350995308
0.0901579303314405
-0.0713406612723956
-0.161875478870947
-0.134716982859944
-0.0041272513052739
0.112394724589578
0.130229223151206
0.0860795622292824
-0.0067426129539559
-0.182923650103969
-0.324181582391518
-0.238493814363727
-0.0156585734976023
0.0393749909301588
-0.131461375619134
-0.28718037553939
-0.278234572368647
-0.168353208953976
-0.0402252631036501
0.0476644485029971
0.0241211272564994
-0.0763760083431611
-0.112973625682875
-0.0746694229916595
-0.105494036902034
-0.222876578204449
-0.272007554561683
-0.207901090124184
-0.138701833939357
-0.0734806359851399
0.0797281249313138
0.276790195960445
0.360068016760307
0.278619780440208
0.107831917557307
-0.0635281257200154
-0.169254550167945
-0.196401900225868
-0.197726197213126
-0.192979667020294
-0.137993057170179
-0.0425799388161434
0.0363842030263856
0.133724585626458
0.313548006847404
0.503609870317138
0.59450581750841
0.612331631026062
0.613330702876232
0.567107429709139
0.483807292520268
0.431054338023834
0.344088362014309
0.10319188025131
-0.188015872154887
-0.322005920538229
-0.326597384966958
-0.35913257452938
-0.390276196991406
-0.316279302734178
-0.221911520139121
-0.234068991706273
-0.285163487304045
-0.262525776046602
-0.204246512570394
-0.161967324542043
-0.0845748783473541
0.0208316517664458
0.042180985147954
-0.0372239167689837
-0.119743689134135
-0.18487377469953
-0.277827982995169
-0.363398328370959
-0.386702835212559
-0.387395251759404
-0.421069526393438
-0.470120319716588
-0.478439767997067
-0.380952897490986
-0.145865826027505
0.132115241300606
0.290980267448659
0.303975597434111
0.28630695249663
0.309715398304081
0.367321952441631
0.456452618621284
0.539137821292015
0.532761493346039
0.459508244725871
0.437489896848216
0.463079636118025
0.428935403311054
0.355465550565481
0.334068001968623
0.302856398451733
0.164921692538823
0.0179687855931889
-0.0047147062548894
0.0279796645000343
0.0006199046289359
-0.0399701845152148
-0.0341513385952568
-0.0627717829688227
-0.173024854639293
-0.254278675326174
-0.224457428697814
-0.1484175390352
-0.106162053722802
-0.131372369784453
-0.260257041106562
-0.454602971472314
-0.560774385138376
-0.498842697385815
-0.366239375281892
-0.269662274811204
-0.211928448493448
-0.162599386183844
-0.0873419716373748
0.0514371715945809
0.215136388739879
0.306633918940487
0.305259975603716
0.240774837876705
0.0799383593206651
-0.166460309634179
-0.333572975596096
-0.315768161123526
-0.231052253973853
-0.181472224613361
-0.0754412545843565
0.149330782471758
0.39260437944797
0.583528552636726
0.720890339523462
0.708822582549032
0.456713712957555
0.0945593353709347
-0.185844007198637
-0.386942602249906
-0.571632607894835
-0.664193488953117
-0.605865347888645
-0.504792293424628
-0.451682831455213
-0.40184911402219
-0.357712651435132
-0.411596888944114
-0.517293507921275
-0.478249805041819
-0.220303351307862
0.130842371616214
0.422525674705012
0.569253229243223
0.567320799373963
0.523579538131585
0.55895021251641
0.659774196332204
0.735492835750141
0.757584020442923
0.737762315842529
0.687991732451037
0.662194612004948
0.685736748599938
0.658007743747095
0.506825068515477
0.346957212876355
0.280764975106252
0.19927155775555
-0.0116356416636446
-0.270828166437791
-0.476611381191523
-0.634712483952973
-0.705624620593128
-0.610891697546115
-0.442334465030378
-0.378034791892568
-0.401263739847267
-0.361381686433224
-0.238168090202582
-0.120722451463115
-0.046127468768837
-0.043688776787686
-0.178615612348179
-0.398798818771242
-0.520013812672335
-0.475940152375776
-0.390033053008565
-0.35378237874077
-0.351748701894596
-0.388281977607925
-0.456133296455354
-0.440189007337307
-0.253099005200638
0.0248065294845022
0.258999289332191
0.382100520822687
0.368435777444823
0.249277705198849
0.137760505975485
0.108251911582912
0.122891928696011
0.146331776431034
0.191350316995064
0.229630737615289
0.238093489869225
0.299789499790877
0.465902318543947
0.617540865788591
0.650561804256924
0.630941601173298
0.610002800724942
0.514782240051601
0.336954182476834
0.171039315421551
0.0215224729717194
-0.162252899536134
-0.311431137955231
-0.369643387500868
-0.468088384081104
-0.697042916562122
-0.879930430931371
-0.83354323302624
-0.653463296797729
-0.509928830570499
-0.382268687458746
-0.206962730780959
-0.0682799719312712
-0.0694995902713645
-0.202705016163324
-0.414612002921119
-0.614538559119627
-0.647203853081377
-0.448965335897514
-0.155649961970312
0.0776596039005683
0.239995793393536
0.380239273336977
0.511703643282251
0.628296298028471
0.704115340493944
0.711579500810967
0.692069293156136
0.708932726751142
0.732873750121181
0.706937771943691
0.652438682806554
0.569427767041857
0.399906233145271
0.237872434937162
0.311262481225978
0.592766831351337
0.744385066304443
0.587653833749899
0.294943824214326
0.0461196712413063
-0.148222056289141
-0.272538849663333
-0.302183435628914
-0.340423288783771
-0.4743286017204
-0.592823797460708
-0.582858345901331
-0.542274315283483
-0.588588305400141
-0.66099994783994
-0.688345004791696
-0.709701628214687
-0.689292741214145
-0.491759422125766
-0.154015910624027
0.0859548701658128
0.0923764989535671
-0.0538514608526812
-0.221611658042077
-0.328366573733143
-0.332105903471926
-0.2487655992774
-0.132215329919857
-0.024539366495204
0.0283054366361921
4.92330881883794e-05
-0.0257518704822223
0.0713165964423439
0.267802412023818
0.456754492882386
0.635517293595524
0.825305399974865
0.914339475319988
0.806774873291372
0.580269677011972
0.317781425502741
0.0042439083116778
-0.284879859746856
-0.392269973738061
-0.372800608219675
-0.461467750755984
-0.695884498041561
-0.868705432128236
-0.848617219858935
-0.678294036993011
-0.41455979815738
-0.122260782535666
0.0587145382256361
0.0580648916580194
-0.0101789773155711
-0.0272207158498342
-0.0195477910289596
-0.0289706337476149
-0.0176456752934592
0.0286755301860677
0.0739722822617835
0.116596536433844
0.173354044965524
0.249123412240735
0.394384133040381
0.650247268954419
0.911054249383684
1.02011362043947
0.985297877655313
0.93269985832835
0.915688344787739
0.906058667803053
0.860411506607752
0.704298255710336
0.392841445807354
0.0180243641699593
-0.296871203680866
-0.561740047670312
-0.820670074820215
-1.01450118461416
-1.099131847398
-1.12865191034953
-1.10796002811956
-0.970526373800496
-0.740934102752881
-0.488268824834618
-0.173548900931299
0.199390254854789
0.414048472061703
0.306707067428216
0.0472981660381978
-0.106433349202789
-0.151710770779801
-0.201985060819877
-0.225142964684215
-0.154218847021185
-0.0490116332225609
0.035075206492086
0.128907910629065
0.201240421655517
0.159177148530288
0.0349982890805422
-0.0375676229537517
-0.0109011037372565
0.0703346851279657
0.172505672835363
0.282308445037163
0.40254402164405
0.556303453594199
0.714353551707016
0.788705529089697
0.765728998691913
0.713705503473086
0.630073881951019
0.465360942045623
0.282630823931124
0.178889487273239
0.110992882525515
0.0061991338937606
-0.0872732614255229
-0.142804220166275
-0.239771832096669
-0.359932811471851
-0.370762565773134
-0.308275202866733
-0.363285745389724
-0.539643122125729
-0.650800662071782
-0.654964155636356
-0.678743354688381
-0.743873871742103
-0.75816626595579
-0.718264786008518
-0.680445237935204
-0.626980770565063
-0.557226218029139
-0.567925165588739
-0.686153903175215
-0.796193768078115
-0.82816741944429
-0.8210729862308
-0.76926249777384
-0.612467075222493
-0.364035192999761
-0.0894922322969481
0.183805836915929
0.447667072598976
0.693382733800986
0.923351036040538
1.09534853667118
1.13033792614355
1.05457052857682
0.995261930960383
0.986203416687908
0.95883793918427
0.91910375622496
0.909654994347727
0.852517920690429
0.667287412293317
0.441310126802818
0.269169397034203
0.094922772107985
-0.104620304415768
-0.204848798065517
-0.145553061277765
-0.028996063831947
0.0584793496446412
0.0929026793041744
-0.0006916203987557
-0.263526590077419
-0.552411204623705
-0.689465040245981
-0.683679605183786
-0.628326718424707
-0.515395562087467
-0.329283472197625
-0.161062146376207
-0.0618989187094246
0.0499872239251941
0.220711204884371
0.379769864355242
0.48903064416856
0.60414923998761
0.779154990398846
1.02745638145531
1.32259419271638
1.57522948908562
1.70231062236921
1.71803328895252
1.65781092680521
1.49467545482636
1.2381663278772
0.981751879520312
0.75928236052001
0.510767738540745
0.228975759330222
-0.0376212576953922
-0.299073684646746
-0.558078578841188
-0.74063975169475
-0.869501121440007
-1.11295817132598
-1.50013512911375
-1.84724345352745
-2.09220081876697
-2.38882508172342
-2.7692748995789
-3.04268621300395
-3.11203508190267
-3.09504784289423
-3.08434542707438
-3.04888014818345
-2.98018901720847
-2.89877891633467
-2.73568618888073
-2.41037916480179
-1.96436787993939
-1.44663373856497
-0.769133659449673
0.177013953524566
1.34815391693545
2.54480343620467
3.49813592408196
4.00761151409483
4.09016021848604
3.91990866611273
3.60180098304378
3.14169973180053
2.59902562201552
2.08415252769058
1.65412703705573
1.34187757285742
1.17223424710138
1.06408268835236
0.894902086689035
0.699615407536643
0.58227833660618
0.453426362279268
0.124959140585027
-0.383602828518962
-0.879870732728457
-1.23068070050702
-1.3676473476581
-1.25675849394603
-1.02536908447109
-0.897437468539213
-0.912082103719207
-0.936596960451846
-0.942188953737237
-0.987924953471977
-0.990196947728666
-0.804678345788422
-0.47409913394484
-0.134253856197816
0.230754444735063
0.705741164468135
1.23499938382489
1.68229982158462
1.96537033112255
2.03150522077451
1.87825638102999
1.62615986798795
1.38050924710021
1.06454394443134
0.556288147286695
-0.113087142251657
-0.802653461321452
-1.3487002192703
-1.58167122244046
-1.4577253718672
-1.17076248281251
-0.97987846757084
-1.00064302916462
-1.24884720555035
-1.70024312257667
-2.23751005659595
-2.76015330911959
-3.34406502813086
-4.03547387913649
-4.577445938628
-4.64549667684302
-4.22996249393511
-3.51486002845462
-2.57067945569215
-1.40212719885866
-0.0663365314107923
1.43956806873236
3.16157160929005
4.93774134272409
6.40359728900904
7.32567168426484
7.75021651932757
7.84173818808238
7.75086568166957
7.56141072379808
7.19777318469639
6.50260553997656
5.53292371995606
4.59568655080373
3.88923294393005
3.32112631371214
2.7234653191271
2.00956417315368
1.10903865928839
-0.0312479388547498
-1.37009591567726
-2.790991196457
-4.14162564145923
-5.26119145025861
-6.09358051372237
-6.72580183089532
-7.21642292794066
-7.5275183302994
-7.70455897910824
-7.88727789408937
-8.04609818157498
-7.94730504182628
-7.43032968769453
-6.51403339474525
-5.3118445502651
-4.08059830114916
-3.18042289633296
-2.72292096504354
-2.44866424207779
-2.13749795726268
-1.88608731593167
-1.84577633058037
-1.95805851275867
-2.02489000237683
-1.78962338987943
-0.975907109036413
0.44891678039941
2.07341428483777
3.39262180396526
4.33329779323518
5.19874955045071
6.1798738618466
7.14903872748957
7.82705229131195
7.95953393707003
7.45399835504547
6.49014008226489
5.40825581925425
4.46800273226679
3.79754045860001
3.46272344342949
3.42489926655901
3.50472016865681
3.47766428787063
3.16650330239352
2.50886174118834
1.64857531378969
0.854878903713076
0.24528036886934
-0.283118921552447
-0.824198519029278
-1.37159699943043
-1.92571234138275
-2.43308810818539
-2.70126217634454
-2.65303531547565
-2.52920963883145
-2.57002106006408
-2.68082430545213
-2.64216994341333
-2.42742673117745
-2.14100204790907
-1.88336071302422
-1.78733555591949
-1.95220647151159
-2.28298177788493
-2.58818646732767
-2.80988017899649
-2.96841698134302
-2.97849787384118
-2.74515661906067
-2.34095142247448
-1.88449926890058
-1.35753890847389
-0.68989779246666
0.120122539324399
1.05578920114506
2.08953046593834
3.12158935049072
4.05761346220553
4.89580326444885
5.63582031202641
6.22836392260495
6.67685219055245
7.02034890079642
7.19164159507405
7.05244054691959
6.54040403230551
5.66877777063624
4.49804669213115
3.19723097726846
1.95939601639276
0.792436504800516
-0.437944425104851
-1.78412942173023
-3.20439490092389
-4.6406166848498
-5.93454080066874
-6.88239852602734
-7.52619446864511
-8.11734273731109
-8.68922522660872
-9.00173951571293
-8.99015197153379
-8.90731892774357
-8.92560788628109
-8.89994720373135
-8.57662972529254
-7.78236708216031
-6.43832221773468
-4.66707933774847
-2.84146635729422
-1.28115660667244
0.0131799902170632
1.1377334763369
1.97877689389153
2.3339767495634
2.19786663649661
1.80227101900803
1.48034556967688
1.50047973893069
1.91604554171905
2.5767664560757
3.29522389866801
3.93245460079134
4.40014418722902
4.72639769383803
5.02780372823019
5.30380934333767
5.41988160083492
5.36628942121538
5.2869694267892
5.20202214950276
4.99992068191213
4.72189078422113
4.53559276888468
4.45041227912805
4.35370954003365
4.24405234371148
4.17210864797388
4.08330252040204
3.91701439719223
3.70724021185695
3.47173028198054
3.17367749965656
2.82203251293505
2.41604191484295
1.82886651465089
0.967923933594173
-0.0263130594670797
-0.970446395709815
-1.90196609798319
-2.91528192802388
-3.89927453247191
-4.68054471699786
-5.26674811984598
-5.76371202841912
-6.21252791425131
-6.61662477854259
-6.98540131084565
-7.31064946071707
-7.56949262167092
-7.68205213274398
-7.45364227624536
-6.72645814398006
-5.59154700798469
-4.27948559578229
-2.89400853620787
-1.41382122302234
0.151496401220515
1.74065446680743
3.2322452306192
4.40400021468046
5.1060420298823
5.46902524089586
5.71357431818224
5.84181568857305
5.75231979350021
5.49027024853895
5.15191978116384
4.75538831399974
4.38817120508824
4.22295589974142
4.24298314873856
4.20911337751109
3.97801324931819
3.59053013395685
3.01957499540284
2.11694715606424
0.848670822689137
-0.639060426182529
-2.16458945376351
-3.54114966794997
-4.57207086578045
-5.18991673146909
-5.47349581173358
-5.45586164259085
-5.13946717409771
-4.73801725778276
-4.63319484911136
-5.03081377342891
-5.81369754123846
-6.68219946116032
-7.32026246755521
-7.53108716388205
-7.31073196071673
-6.73766030575236
-5.83632188544549
-4.62928697053513
-3.18350398065544
-1.50893575744619
0.395706437828368
2.32439903446164
3.91750809815317
4.95442249940246
5.37659359346193
5.14031582301713
4.33662681453111
3.28376074243812
2.20834105628239
1.04787500535721
-0.194587376438033
-1.18114312351845
-1.54443200886144
-1.20287467479201
-0.24937327653677
1.16204709987756
2.70168920258579
3.94702490749627
4.72837120856967
5.1943137328037
5.48193298550449
5.49665029301143
5.02159446309613
3.93601445184171
2.39270293057102
0.814086379159424
-0.425844814752132
-1.28996532012014
-1.8874242343264
-2.11255053203245
-1.70109353430552
-0.567917887033276
1.05738950923923
2.74515668250025
4.06848114493176
4.80065337564436
4.90825534890956
4.34113776054459
3.05329738733643
1.3225175371723
-0.248570152723481
-1.201188121609
-1.45475943140914
-1.05592884969025
-0.024397467334906
1.5161281077385
3.3171173608418
5.10035388472463
6.56451890568566
7.51713367382177
8.10483781414081
8.59835518104916
8.87478697182149
8.50418499842551
7.42136463179416
6.0723823883483
4.76532548305055
3.26905813496694
1.21373319291894
-1.40056475158577
-4.18658853559381
-6.62708546718683
-8.34914399412979
-9.37926536474841
-10.1289397512168
-10.9974017708849
-12.0297335307338
-12.9629214591411
-13.4701145992922
-13.424916725598
-13.1169049380652
-13.1408573602916
-13.9181151422209
-15.3597976803608
-16.9636358636555
-18.0534916166356
-17.9933943204702
-16.4756198102976
-13.6957688592942
-10.1866638438191
-6.5402565896078
-3.22025033926852
-0.356187939751542
2.26999433382395
4.74815882075471
6.68209317044185
7.68633160465791
8.05528452720401
8.48723650081014
9.29087158458947
10.246337189147
11.0663629774764
11.6372040238685
11.9480210942349
12.0655843624051
12.113406138831
12.1678905250431
12.2667400722977
12.4808681423735
12.778069737655
12.8804608197342
12.4925834614518
11.5988947360794
10.3612425041206
8.90890560896935
7.43659592432109
6.29661571105017
5.7476259259801
5.6706028265696
5.57734655268371
4.83829236504177
3.02427139624478
0.216800744688649
-3.01210146694042
-5.94829488280995
-8.05674051868351
-9.14789430030318
-9.43951736679386
-9.35958815910436
-9.16645932881792
-8.89842876644322
-8.66893598340168
-8.65284325595815
-8.72321220942525
-8.46612991218352
-7.62401449895058
-6.26285321201913
-4.5887445268415
-2.8722952780529
-1.37760085335094
-0.0910443313684977
1.2850176137583
2.86524489300076
4.32986984309159
5.26986006022667
5.54404127600221
5.23521011924333
4.53553394334391
3.73124270438481
3.03691431747074
2.41265297503172
1.74515259990548
1.12807168105079
0.753487605259836
0.673728114164097
0.855593581356472
1.24742523894346
1.59266274379143
1.36699035031079
0.0813348463405053
-2.34765938820142
-5.41828599678417
-8.17668817055617
-9.76932869288713
-10.0229414640594
-9.35856555759729
-8.18883768492495
-6.6705142523377
-4.98914573746781
-3.5398153163534
-2.73604858237551
-2.72944249204483
-3.2366043078719
-3.62042997406378
-3.34187305023139
-2.36833314892552
-1.01992171183548
0.41037831113768
1.67939648142585
2.52768138074196
2.90057462776652
3.00459695723967
2.92119027765226
2.43642019215391
1.43619635892678
0.179871514935859
-0.984456150002151
-1.91827723962355
-2.60693668640792
-3.04741393685552
-3.28465922943049
-3.28351194132713
-2.73130615095103
-1.24288409320476
1.1758808722505
3.9991942354667
6.48347301919273
8.09371967214614
8.84866553876056
9.34151977071213
10.2627554395874
11.7995567451492
13.4845002713599
14.5380900310503
14.358849277462
12.8636762057697
10.4653637374816
7.74227133103299
5.23072338128261
3.46881451886194
2.81661847732702
2.99000209500087
3.06249218642983
2.17402320590521
0.0926824839162311
-2.90475266477658
-6.34589403154303
-9.68329594758969
-12.4233263446852
-14.2896436214969
-15.2198437381034
-15.2811782138321
-14.6080858449615
-13.2501442837446
-11.0959198567994
-8.16853688367159
-4.91926667233467
-1.90597966422314
0.762571930058855
3.28576719760896
5.50264915055446
6.78845233502702
6.70117188879883
5.4341452845015
3.59627273261637
1.78860810570725
0.41052043064961
-0.307850439660448
-0.193504776775855
0.848581561045221
2.62598956959821
4.60069163498404
6.1891430743001
7.06355207431115
7.14921778517319
6.49425364406335
5.15727697986591
3.08712042160017
0.211864582889175
-3.15963717818094
-6.16719797826525
-7.89037302169419
-8.00839460961368
-6.96596800132884
-5.6527866467709
-4.85558496166806
-4.73777112964927
-4.88601708377403
-5.04545840803734
-5.5583544726992
-6.77985492677244
-8.34336903468764
-9.38177787041693
-9.32454499043609
-8.25360016858789
-6.67925526059351
-5.17902639038105
-4.09356519252732
-3.37776284271132
-2.74907840845329
-1.94983485264935
-0.842510899270339
0.522399286635851
1.78186396028657
2.48746758445854
2.6758915553033
2.96433762550759
3.91070219716992
5.48870833815748
7.21400894970799
8.50319784809189
8.91386932581071
8.33581208739821
7.06473172651086
5.66144887913344
4.74686362054845
4.75444616550129
5.59078866157396
6.58407495695662
7.01135135749928
6.6687788394778
5.90195767025737
5.34904758621616
5.71496925604132
7.37015144136137
9.94392725407919
12.5468069021207
14.4262940170796
15.204397538177
14.6926945835163
12.8730080173034
9.94200992273891
6.12467113348825
1.66308025524107
-2.84495927940934
-6.49262233911092
-8.77142153533886
-9.99046077292878
-10.7899887982464
-11.4904393845356
-12.0448858179928
-12.3066045487956
-12.1503624786431
-11.5285667731868
-10.5149692512612
-9.20077514673742
-7.59452528258875
-5.71069573330819
-3.65613716891549
-1.56252925500851
0.490223275323983
2.47382153780966
4.33369840008952
5.79811276061221
6.28877864942013
5.22900925075969
2.50300918545012
-1.39815483559668
-5.48044109025913
-8.45733363678122
-9.35623696508989
-8.32279254717967
-6.59828346197364
-5.45948020390578
-5.35918118265916
-6.03380365191433
-6.9190577087744
-7.37496988094378
-7.04166541272028
-6.18276992021962
-5.40005481902474
-5.00021334175032
-4.87431635111264
-4.89124869557017
-5.16112907625707
-5.96994309210811
-7.53350732936061
-9.64311443487489
-11.5274145808843
-12.3341996660245
-11.8071838210095
-10.2590503767861
-7.94734806577185
-4.83272944870354
-0.936394537553784
3.38831436416049
7.54372324486354
10.8514084060479
12.742004021538
13.0495370209184
12.2059001459448
11.1316577475724
10.82767933089
11.7979929994373
13.7218394969184
15.8200652741204
17.5893630132208
19.0777170524334
20.5983707830009
22.4493659174842
24.7627072969128
27.2825680732665
29.3381362877119
30.2035180721261
29.3425039887128
26.3202480439514
20.9760287407748
13.9493170326842
6.69854780393945
0.722488892817617
-3.21745783721491
-5.3058083908422
-6.45263972847613
-7.75963111994099
-9.80095136465161
-12.2919212376722
-14.5147113755051
-15.9997669956378
-16.7866867712619
-17.2395143033697
-17.7200332748015
-18.3079961163229
-18.8027572181046
-19.0891230612197
-19.4125391877766
-20.1754863906424
-21.5639382071747
-23.371483007825
-24.9694005744088
-25.5025327770623
-24.4227797088504
-21.8398846553284
-18.2268192731168
-13.9956147839958
-9.491707538811
-5.02159956270394
-0.616111108640542
3.91878641025313
8.40701302365824
11.8731461328664
12.910551421852
10.6831511520297
5.89423513220506
0.797096425416289
-2.21047001660091
-2.27398253322289
-0.274557674650593
2.41379250072564
4.90715210906596
6.86655891937924
8.34407555172833
9.62372114497831
10.7542338649567
11.3138297820857
11.0098038198571
10.3209436810214
10.1293169607752
10.8348569818122
12.1176113489727
13.3580905436652
13.98595966808
13.618677065645
12.1859914284522
9.90813646549842
7.10924040389183
4.15027391133749
1.45503199025806
-0.632711451857879
-2.07253639209402
-3.18222913808439
-4.46686980580727
-6.21510059995953
-8.05894134064347
-9.04894293036447
-8.3882828190301
-6.1001073561027
-2.9910051950743
-0.107862860631694
1.85010992505452
2.86133266730463
3.33442794327437
3.40380480797853
2.66349663368783
0.78748033051134
-1.84510265968887
-4.34146624150788
-5.86129348093377
-5.93596029538083
-4.63921414234085
-2.61144103982172
-0.663010501622529
0.701761413265835
1.27226100057478
0.925329231939117
-0.219205953131094
-1.59203934145758
-2.46613409969458
-2.4651497903544
-1.70376173656056
-0.586296915115418
0.445424297648986
1.17784990283574
1.76528855292729
2.48606801910278
3.38177236246236
4.28040790622044
5.04375242654298
5.58684700941821
5.79074147768632
5.59929091924218
5.11238854252918
4.43247070624277
3.424753519264
1.72609353962428
-0.800010491759742
-3.46914769338227
-4.93748569427559
-4.4094553997357
-2.57484348601652
-0.983942165520928
-0.717978470236173
-2.05658505747995
-5.01014514614348
-9.4113824340465
-14.5337783920094
-19.1687960331709
-22.1947597438184
-23.0064033334205
-21.663542618509
-18.7836698759575
-15.0126296885416
-10.4326773490724
-4.67528150288863
2.29833965478548
9.63629910371963
15.7832918396565
19.196635848132
19.1922247315691
16.4682965887993
12.7582504566052
9.69179381031743
7.91822031813358
7.28359669385918
7.52917226450941
8.55190382689466
10.1231413263576
11.640096861451
12.332598968337
11.7872752710001
10.1915522728829
7.98594820569301
5.47409799887925
2.93392304779003
0.775453520216998
-0.817210149248667
-2.25882126206371
-4.23878773519751
-7.02877425678126
-10.2150628747031
-13.0178928750728
-14.8144081927378
-15.4173103957567
-14.84799115454
-12.9425670092985
-9.50722000190859
-4.91096172383998
-0.138925132547716
3.86056712354677
6.57580261430073
7.71850134076259
7.06452614361814
4.64434609657692
0.947151108626051
-2.98466992319978
-5.68221823845722
-5.96502376127453
-3.86880875893758
-0.594157978814693
2.65599883820279
5.4712728441892
7.7903506105967
9.22762162062192
9.23581405424995
7.65829060895257
4.80866868472371
1.10430124371003
-3.23171677685328
-8.06868749061228
-12.8902541572507
-16.5141943036388
-17.6714047854496
-16.0789626666872
-12.7975563893247
-9.38354087358399
-6.66747220952912
-4.33553081111423
-1.7049556248575
1.15848357649172
3.3892415501182
4.50664591811973
5.18456969993514
6.41557756867664
8.27004456129766
9.99725517389007
11.112749843435
11.9300644778857
13.17671443799
15.3369932239955
18.1089490186771
20.323721047927
20.7156815065455
18.9804901168625
15.9371690738486
12.6944453197256
9.88373877639111
7.5873806051552
5.6429458454902
3.89227840290346
2.22995903552106
0.476143041150214
-1.63310899917791
-4.08038534432259
-6.28791480783333
-7.58181404649117
-7.95461969879543
-8.06122195107837
-8.49137019558928
-9.33841771301987
-10.4407534594735
-11.7675602374872
-13.4451336496172
-15.3543740539816
-16.7430722443355
-16.5937254937809
-14.6722599114179
-11.9814591457419
-9.90523840021629
-9.14028604003504
-9.65594648959671
-11.229447005596
-13.4508782811441
-15.3311745761885
-15.5214609042327
-13.3472015643871
-9.64679531745951
-6.36275107921205
-5.08600042423062
-5.9637348029951
-7.96015407904284
-9.82377448651219
-10.6096419023131
-9.74805914160504
-7.20439639930878
-3.50995767712086
0.683191153867166
4.98019507967324
9.06215163198986
12.5151646169991
15.1951449009399
17.5011279683035
19.8934952083942
22.193781806283
23.5218133487795
22.8892429326393
20.0151210303574
15.9080721462281
12.5611842016622
11.6090127245486
13.0809800216508
15.5043577514639
17.1584586506474
17.2743043230636
16.2907270431392
15.1033244815136
14.0985325434348
13.0321698637038
11.7376294500712
10.5146400321644
9.71658515376482
9.33261490077963
9.07221371450216
8.55822773178967
7.46919338177442
5.81628096751155
3.99699095191081
2.30914032638641
0.587150323689962
-1.46687041486227
-3.85407575697003
-6.37309196909978
-8.88358247771523
-11.371122208223
-14.0216992159668
-17.2593098372438
-21.3786228783067
-26.0347620571819
-30.2987469542065
-33.2851669437301
-34.6600542218233
-34.6430521148523
-33.6624530457902
-31.94139804113
-29.3495942985129
-25.7206922711026
-21.2234456571883
-16.2522790550862
-11.1009238440085
-5.92954510830532
-0.831116699037257
4.23187535541717
9.22187237823812
13.5468031580585
16.1450035495756
16.3889433351503
14.8115562269105
12.7548790339778
11.2480106257262
10.2121399597572
8.82917011875144
6.73497461555533
4.61326438261471
3.39852776547954
3.19622202733853
3.35933497439649
3.35124612998928
3.10416496977974
2.78559986034575
2.69130230098126
3.24081821551535
4.68989522010774
6.80841480952385
8.90766413558588
10.1440598992598
9.99485386993849
8.77831591191574
7.61180303876827
7.44141016574051
8.04706064698518
8.25705091544493
7.14319639874928
4.82361313422967
2.20474738274147
0.190275306267815
-0.874135820040685
-1.14802635886927
-0.848578022040773
-0.083689199390478
0.83003134196015
1.30511147359636
1.08905176181706
0.718823046826223
1.06799664297268
2.47855953544227
4.36531620761084
5.54030900687213
5.02966119685698
2.89199268674286
0.315572051569354
-1.23016695268762
-1.00999493533325
0.689055811575439
3.03925156190341
5.38033589027727
7.5777219857046
9.65926674594718
11.0916359596184
10.7554298211629
7.91210165198456
3.00833307464298
-2.60531217910666
-7.48722450227969
-10.6430198800963
-11.833857894886
-11.731988897111
-11.5279285247275
-12.0764109449308
-13.409979238461
-14.9969886903585
-16.2001148286124
-16.4872708569139
-15.5724622575569
-13.5999359621657
-11.121644544407
-8.79183979418904
-7.01219752476324
-5.72916102193083
-4.4885907075791
-2.75759103872173
-0.3446624144197
2.29215329596786
4.06973494669738
3.89477901843034
1.59617465000753
-1.83480895350966
-5.12289854228136
-7.65155230687258
-9.41487999527844
-10.4283371559791
-10.5390299287724
-9.60421442318551
-7.56707021285888
-4.45856427487254
-0.482910396407484
3.92651726139472
8.14560734655899
11.5232987239644
13.7578805904561
15.1360478682629
16.1206251870291
16.7602798004416
16.9009775252698
16.8813731813289
17.4463850881939
18.8161782172395
20.1646594297268
20.1632029769173
18.0024907949272
14.0305887076914
9.50396609175918
5.54499127611091
2.27590731146304
-0.852606195301891
-4.03450930974438
-6.89803970161402
-9.29618328984829
-11.7227069669213
-14.7469145888688
-18.35683168067
-21.9011996482725
-24.4110213422529
-25.0252167115493
-23.393866034493
-19.8081639715478
-15.026816327751
-10.0448542571592
-5.83346245371441
-3.00499865829615
-1.62380202077649
-1.23041796652747
-0.916445198948029
0.326929043785976
2.82134153665651
5.820300292241
8.31138172017034
10.0682361219954
11.5899986712564
13.3465695447241
15.5371133948532
18.2191135443433
21.089525597095
23.2964272613777
23.9056555471318
22.542239787589
19.4554899611371
15.1654105293133
10.2548632336808
5.41029368289184
1.45535908446253
-0.831598372660478
-1.10792049397585
0.283254837171464
2.59474647292436
5.2202277228187
7.78507608497809
9.78904298307801
10.5333051718317
9.46998270188126
6.41265280583764
1.52003691252789
-4.61515710588706
-10.958964568926
-16.4470036343492
-20.4821694354608
-23.0370432383757
-24.4392110749924
-25.1261306161041
-25.4897058727352
-25.8738531854763
-26.6042989944695
-27.7876797685128
-29.0727630968802
-29.8652420075486
-29.7637146962787
-28.4778950792079
-25.3843802557738
-19.6612986142666
-11.13019530932
-0.863321996776274
9.14334455811316
16.9991599471814
21.8350783087046
23.8613715505234
23.6970934414472
21.9620871426239
19.5266471106115
17.5375183620208
16.65152654504
16.3928990997874
15.6082045682264
13.4930043213178
10.0564470454028
5.85919363093199
1.5995862818845
-2.15277324970868
-5.05390944804336
-6.89450890023558
-7.52834017932546
-7.01081048260636
-5.64062766472575
-3.67285528807066
-1.15101200199975
1.81637365364054
4.7753046980356
7.03309595318872
7.97270575323937
7.41474392000883
5.93248899750843
4.65106406093543
4.37888503089841
4.96866333450727
5.71510458031938
6.2200021285357
6.67664321386419
7.49146751427702
8.82523035529207
10.3704662636618
11.4193727062059
11.2229616309723
9.44893420519868
6.45130057221509
3.17850940216032
0.664009349013795
-0.631649019568843
-1.00395426456924
-1.04022799304847
-1.19356377370198
-1.8621972941017
-3.44294768622277
-5.91759239006926
-8.61783647532264
-10.7927853268717
-12.3128273496243
-13.5512877800397
-14.7115969055107
-15.5186219359009
-15.4985824060517
-14.451741806008
-12.7102273789825
-10.8799328644747
-9.23614768597256
-7.53694766821169
-5.52235526449743
-3.29558794737728
-1.02702061037228
1.43253801082071
4.40465995356386
7.95814466139905
11.6875283578485
14.8225311653891
16.6204973470226
16.7673624062943
15.3550549032983
12.5313518334217
8.3843371120392
3.10020986916751
-3.00583597951544
-9.48120296850686
-15.5247714315588
-20.0505424232499
-22.3269364294718
-22.4307293767411
-20.9001766198101
-18.1868114754071
-14.6051884841305
-10.5111163029107
-6.25371363332123
-2.05478428008355
1.93862331776645
5.52578773689692
8.36588995287481
10.0364565224369
10.4431554161918
10.2934651057546
10.7691006659687
12.396434684824
14.4915258881519
15.9489562925411
16.2769784440703
15.6387682998439
14.2105355756612
11.8874449053889
8.64439136288745
5.01311137859745
2.00187535070441
0.42429767907941
0.393386799366461
1.51973497418667
3.34442322732119
5.4217017352353
7.29805354100059
8.68993359431733
9.49480315653426
9.48176053057601
8.19460130580698
5.28161186051571
0.840987142887278
-4.41739907998876
-9.23473122435155
-12.4034885087133
-13.6563318413582
-13.7624103475589
-13.5928592193537
-13.3782043039454
-12.9597568333922
-12.3902093459623
-12.0960701049629
-12.5695624837621
-13.8346066116273
-15.0987243454603
-15.2133375991265
-13.7697170427872
-11.504417418579
-9.36529228699651
-7.4785054613984
-5.29528290408483
-2.36671411249403
1.4416442092885
6.31160976686612
12.6348637482599
20.5433902972421
29.0712946715931
35.904020545523
38.5493661232392
36.1373666517827
29.8866503602766
21.7698325692091
13.1190694953161
4.55293376862118
-3.39278540160501
-10.0567715165431
-14.9425191466809
-17.9915352106555
-19.5682547412404
-20.2040011742342
-20.3685459643876
-20.4803666920334
-20.9325101423489
-21.8850781663218
-23.1114794558097
-24.1460856675106
-24.4193562236959
-23.2683409232713
-20.2006365077837
-15.2745611710964
-8.95522627827825
-1.63189345313004
6.35151160999194
14.235829055103
20.8758777287864
25.3340464251934
27.2201975566994
26.5856460311
23.8850387800056
20.0258350687569
16.1151415069568
13.0054028322507
10.9895219293718
9.69754920117444
8.26486492829976
5.8936657385078
2.4472296293848
-1.50397322429678
-5.21548492347377
-8.36513682806363
-11.1359023784361
-13.597526590444
-15.0368408894738
-14.2765948374797
-10.9061201606111
-6.00412909844289
-1.50283636975669
1.03129897998639
1.159622722393
-0.319794334751998
-1.85858477939648
-2.1459961225924
-0.890591978006204
1.31333249368931
3.65724351885713
5.54340760226923
6.71712338438329
7.30759294097702
7.62175962059827
7.81340421329969
7.90692665923611
8.04816627602509
8.38619625174351
8.70776141229386
8.52559868620121
7.63624385732836
6.43437562626074
5.63632660040461
5.71102829931417
6.46817241180358
7.20796303860918
7.42477043346219
7.22761459545047
6.83371181914421
5.95836085582072
4.17425148461992
1.64693542331562
-0.977745517060605
-3.26845115120499
-5.18221255525745
-6.66351835333069
-7.44725971503888
-7.35753088581138
-6.73869253924888
-6.52868918841385
-7.74042598931747
-10.7178601167485
-14.8828117754047
-19.1138143132353
-22.2761112714483
-23.713716446883
-23.7145077916678
-23.3971441079529
-23.6848259443367
-24.395202303499
-24.6149472873236
-23.8051498230102
-22.20066147707
-20.2320787680644
-17.8499526670578
-14.4335909692193
-9.31241566456634
-2.46991898783802
5.27271658815835
12.8832733034531
19.8291406641576
25.9967838973618
31.1083522345036
34.5989351254183
36.0914264739899
35.774324938112
34.2705925996996
32.1310164397514
29.3128616342196
25.1708341966844
19.1751455259231
11.7013663671024
4.088291045219
-1.97959860537023
-5.24929329787367
-5.54528782842906
-3.93318729678829
-2.04024352382627
-0.958902358295485
-0.707090099158852
-0.579428946871757
0.0563601077009422
1.04484541837318
1.31690472128879
-0.320294802884389
-4.0610758875761
-8.78352823156612
-12.7654802922045
-14.6500706197629
-14.0395763951889
-11.4751742240543
-7.73954308265538
-3.19999811087283
1.79623463306727
6.05161686152286
7.90746229412518
6.82999189334031
4.02966729462932
1.19755337478109
-0.920340633980149
-2.49184925905001
-3.68923472926921
-4.28530735339268
-4.10630513631813
-3.70884507481373
-4.39027678711666
-7.16278718737779
-11.6380401833566
-16.2488353450635
-19.6019218954576
-21.2690576429591
-21.3582679269886
-19.9266271428163
-17.0588439760297
-13.1780812141767
-8.93725104911483
-4.75298411205383
-0.582565452119527
3.65615673215225
7.50444520561453
10.1749250254812
11.494656178262
12.2981838652646
13.6461183130942
15.8377622992668
18.2516699828457
19.917764754775
20.2557796565906
19.4823758532973
18.2511274182105
16.8703887614922
15.2346921824376
13.5795369135303
12.6812977133807
12.9806977544833
13.9594863169573
14.6705084844445
14.5166318424661
13.3016103130416
10.8807480819697
7.0383344734733
1.613936488179
-5.21852165046081
-12.6265660650459
-19.2695844918535
-24.1380993566314
-27.2092689914652
-29.0869515316066
-30.1555095581481
-30.2977118203823
-29.3090637993211
-27.3608491975685
-24.9819194894205
-22.5671605889177
-19.9607880607496
-16.6681047992561
-12.4702816013044
-7.67442130836274
-2.75003804185045
2.18615820206536
7.52775393043175
13.7286347038445
20.4706481221859
26.3986794432741
30.0880653020996
31.2434600409685
30.5929853463281
28.7998324512859
25.9844765001169
22.137969415424
17.434869735994
12.1657085740189
6.71024063518718
1.50202760475086
-3.14477626715576
-7.00457541455231
-9.74632550329789
-11.1536988818299
-11.5791588228626
-11.7242952107629
-11.8531468143267
-11.6456822192168
-10.9312077306924
-10.0985678871636
-9.56721248728424
-9.1802913818751
-8.32177613106716
-6.45370557896793
-3.42370831063017
0.58874521466566
5.15156871050207
9.49734036502399
12.6754548470462
14.2368710262824
14.6684882936522
14.6810894131878
14.1340795394792
12.0993224790565
7.80756857423595
1.03961982833036
-8.07471958874897
-18.8029269025965
-29.313385699249
-37.0845819035127
-40.1455066751152
-37.9912873978421
-31.610585882431
-22.8034365066376
-13.1664548068284
-3.51068174066442
5.65361174270631
13.23921496073
17.6605216746803
17.9701746017273
14.75906487769
9.82494058882739
4.95909346686619
1.02278827385762
-1.88366209593002
-3.54634351689682
-3.24536564497704
-0.376963080392427
4.7647966906515
11.0792052553081
17.4068072418647
23.0056651869434
27.4776424560084
30.5019676722577
31.682168753477
30.7273977334691
27.9322339672441
24.3122536522384
20.9365042640349
18.094821454101
15.1983014141913
11.3906208838971
6.28641270450674
0.384661286465749
-5.17361603856644
-9.41887666469143
-12.1565036092577
-13.8313829372697
-15.1212918453961
-16.7173262780092
-19.0170403903181
-21.7584938259827
-24.2488921913085
-26.0674124751922
-27.249487700145
-27.8256720231726
-27.5905646275773
-26.3163344184543
-23.8663580835094
-20.2071015136112
-15.6824426803508
-11.2322228145344
-7.9844324623768
-6.455663383861
-6.13731370047954
-5.83336079411135
-4.4536727740813
-1.61498240864266
2.46399771524021
7.49768227488157
13.1739553008031
18.5591072910326
22.029207882673
22.3404334642172
19.6470020943128
15.2217524984675
10.3759949045565
5.80480807497796
1.68425652067736
-1.90859135480316
-4.68402389589813
-6.17791173079769
-6.07160432492031
-4.4524819693019
-1.83411526537748
1.01172929731305
3.40812826804008
5.16613368979082
6.60590674385129
8.15061296205621
9.95404142105358
11.7474240023635
12.7940169179295
12.2791924840502
10.2735984037935
8.19167626575989
7.80778859624033
9.83502361932021
13.6388411008648
17.9318712188271
21.3607200452167
22.8343599899837
21.8860998821006
18.7301823957106
13.8139287775761
7.46852720862745
0.0217501153148314
-8.06487498213643
-16.2656278421997
-23.950513298748
-30.2832715309431
-34.4592508685467
-36.1200851859189
-35.4510424949936
-32.9720094623714
-29.2685054723095
-24.7003915122454
-19.2745946115351
-12.928890422535
-5.9229591805772
1.14336430236035
7.5760276350843
12.7636469184602
16.3260732558969
18.3366093017952
19.4579276789818
20.7575170758104
23.0196855019512
25.7936402446879
27.2748020366856
25.8088304110193
21.6842430948498
16.9347721527868
13.2217082870652
10.2607429275994
6.24704969942495
-0.614988747655794
-10.819148252285
-23.1190033553656
-35.1502579873982
-44.6639064922613
-50.3000607867032
-51.5709945660175
-48.783724005239
-43.0977968920406
-35.9969129075256
-28.2958649310084
-19.9959629738109
-11.3100410591732
-3.36374184405448
2.49984255302648
5.90186998217237
7.66087993440365
8.95637976262647
10.4320376442571
12.0784673041972
13.7344402963628
15.3950356379551
17.0298395106949
18.4200018422037
19.2880987119697
19.4459287070992
18.9906267196358
18.6722318908683
19.7344122771013
22.753591681105
26.7301105691866
29.8281405192848
30.8873826112234
29.867036891537
27.2423222869959
23.631988342273
19.8524596852859
16.7284821437412
14.6326488859852
13.2089410367252
11.5064936492329
8.59805733393331
4.37614277995471
-0.351582493965075
-4.75620193858403
-8.78019307975232
-12.8333934048053
-16.9848664511877
-20.8087307911075
-23.8800674554929
-26.070788285021
-27.3700090272138
-27.683415386548
-26.9057311130028
-25.059791152515
-22.1973584064077
-18.1670918279969
-12.8150422376398
-6.72338921655391
-1.40051959754715
1.90472401632677
3.48460489594812
4.709362295869
6.43422640814156
8.46991613951395
10.3935214292107
11.9843992103266
12.7238762507199
11.6566322177154
8.25322175139114
3.15805541049822
-2.21051840789392
-6.69296885540373
-9.90524892709209
-11.9861627961017
-13.2397196927749
-14.0794909774772
-14.9272256825797
-15.8300162546529
-16.2926123920649
-15.7258454460447
-14.0579198865064
-11.88694933092
-10.1141535745508
-9.25755752243567
-8.8064809034543
-7.37587793443512
-3.94472994979119
1.01109121044515
5.91312819053985
9.57698989501229
12.0912656756446
14.4275141628049
17.5472767401336
21.6166347073259
25.5596360131355
27.5625742519791
26.591883864313
23.410251244143
19.7598191018662
16.6342077907514
13.6161362043637
9.80171184217557
5.05287210141897
0.145218495986021
-4.23529536743809
-8.21922653285666
-12.1834849160882
-15.8606829764503
-18.5580503745237
-19.9497857701663
-20.0123908515263
-18.4447907258279
-14.9369977948977
-10.0453937219755
-5.30560910111453
-2.42001172515457
-2.41639307970447
-5.18999058626096
-9.46570611980667
-13.3601945949373
-15.2712215594289
-14.3777490130955
-10.6007686188264
-4.45916534432765
3.03281115073576
10.6394918616195
17.4121132186586
23.1767929022932
28.4869695096281
33.7091274405206
37.9655528873995
39.4045893866379
36.9361749982203
31.4339691074165
24.8565791576204
18.5084034078752
12.570728093084
6.97045070195881
2.15104960970838
-0.973648986638141
-1.71316382006623
-0.520757754269614
0.748719208458173
-0.0521150183694664
-3.74642864955142
-9.34665888242805
-14.9609119382343
-19.0045091058711
-20.9448991378116
-21.4441674269394
-21.8162709622523
-23.0581556197913
-25.2394585667879
-27.6729992456939
-29.4546899258367
-29.8478106854338
-28.4757497079267
-25.5391325657306
-21.9857840639117
-19.1211334730911
-17.5090548960426
-16.2729907424093
-14.0268443939474
-10.5584762854373
-6.99668151939669
-4.17959214048209
-1.54183532145944
1.99898485862838
6.54712878788125
11.0794035933031
14.5318491060841
16.650449689274
17.8179584996569
18.2552090253944
17.5701812980066
15.3764448211596
12.3949731961262
10.3833456407766
10.4858817822796
11.8935739833786
12.5288580895141
11.0165448598057
7.96381610224757
5.55819071203447
5.87609290789838
9.16132432014947
13.5622800018255
16.7118001864723
17.6633528885879
17.3196163598403
17.2006677450314
18.0429946241606
19.5298514781896
21.0111901351292
22.0731762736362
22.3418952492381
21.2598018551405
18.6638829515984
15.4077082687033
12.6729581486901
10.4851441211258
7.44417465716143
2.20457071842369
-5.06351215562915
-12.8565979722399
-19.7554867692735
-25.4876732011267
-30.6716579263163
-35.7003130269906
-40.0923518648981
-43.0632856753684
-44.4750089786468
-44.7671068247351
-43.98783664447
-41.4633322493563
-36.7110182398877
-30.3726854480538
-23.9288899448689
-18.4968916032408
-13.9928703593208
-9.49457949526466
-4.38355234370376
0.973237650748333
5.63579252495359
8.95988724981012
11.0405788653599
12.543755668808
14.114135850693
15.7162936980237
16.6136536576394
16.2074576036089
14.7069478982129
12.7444739200772
10.6864463825259
8.67324445954382
6.95866502834461
5.83138461306563
5.54929055213833
6.58175056465924
9.3861116343463
13.5974385246214
17.8465987606837
20.6676086036436
21.3887036700074
20.2031437962169
17.7749013756427
14.7936763201987
11.630837234808
8.44625365227053
5.69027422337744
4.14114955434131
4.15814772927061
5.1260390915657
5.85661276626994
5.43781904791785
3.77301689370483
1.58041142314591
-0.213141854124655
-1.34118967705881
-2.33300646554204
-3.60170808932898
-4.70282981557332
-4.82637357767901
-3.81384826838179
-2.34039969158902
-1.17721184114083
-0.625545710984005
-0.764565001207822
-1.86839563160644
-4.06954571296124
-6.61440111768756
-8.02360647597373
-7.32887682124743
-4.84770896226492
-1.56288650721292
1.77359586756464
4.61110170267677
6.22398446467801
5.96016656521429
3.76255850086773
0.188768028735914
-3.96661936817749
-7.9680836272871
-11.2666215947132
-13.5703572981072
-14.9099218010106
-15.655209083412
-16.2677150894831
-16.7538718392083
-16.4097144157469
-14.3996053360816
-10.6089962019256
-5.69104170668703
-0.302685224111063
5.40880083562391
11.4861799926781
17.4844328049426
22.1960118703471
24.1771210782674
22.7376932075065
18.3031803709246
11.585957596264
2.70641139250718
-8.38603937492965
-20.8397369740178
-32.8359677688654
-42.611211862899
-49.2186183310384
-52.4113609604105
-52.2207770368317
-48.8119698623019
-42.6487566857111
-34.6387839241312
-25.8818143764729
-17.1381812865548
-8.64249159930763
-0.441251666778058
7.28079011306199
14.195658241837
20.0349658546626
24.9785521753001
29.8190314662574
35.1004180246835
39.9018810640171
42.4273881301937
42.4501788325858
42.352912753699
44.8007674249533
49.709519273824
54.0967700756405
54.5600336393155
49.5703420143836
40.1381004541594
29.1244126079888
19.6095692458447
13.109640539005
9.03569241332537
5.77068557309819
2.10769553557084
-2.10648497602242
-6.08681660153433
-8.61408746214692
-8.88225065789275
-7.41581266866022
-6.17216297777299
-7.19317753071828
-10.7013789604495
-14.6989684396961
-16.8209481182513
-16.4817311494824
-14.981069776523
-13.9057944321052
-13.9563741068997
-14.9804856895549
-16.3180013655888
-17.0067006414767
-16.2314993258485
-13.9264972537868
-10.9540395725051
-8.69019452226043
-8.16808140514425
-9.09702518785071
-9.68618565592308
-8.09743376284543
-4.56523186816194
-1.86992640980676
-3.32358549400782
-10.1838207130106
-20.9072093670677
-32.4731567313175
-42.1256104972781
-48.2094657902045
-50.1762958186451
-48.4576114364106
-44.3592887753512
-39.4420388832198
-34.3064731591569
-27.9514091581736
-18.8185591921102
-6.71785512829451
6.46473742994938
18.144168737238
27.0968226161689
34.1117012046574
40.67527368414
47.206982154451
52.6698476321687
55.6194867199475
55.2680736253426
51.6748908548828
45.4471865790304
37.5349516453468
29.1770302204057
21.7704760789436
16.4041786497016
13.1489195093688
10.9327423113735
8.58776827382332
6.00733920728782
3.85675799840774
2.29885810620049
0.632513887370389
-1.77245339140409
-4.68624256438199
-7.2604097912194
-8.82008972103853
-9.51189141022908
-10.3101857343238
-12.0592184390678
-14.2521953175298
-15.1415032999509
-13.4486264640035
-9.71817721430443
-5.72536599330758
-2.89221295287704
-1.56487418412905
-1.44902680983909
-2.25415221241099
-3.8555343886042
-5.97380674935189
-7.90072737878955
-8.83236796880201
-8.51880952964235
-7.35400875983072
-5.90320897258868
-4.72069095325255
-4.55391064675559
-6.1480765364451
-9.52055538566211
-13.5670320130604
-16.654307842053
-17.846856135814
-17.6029129507056
-17.0292853109091
-16.4331396016641
-15.0340960670959
-12.1240150432243
-7.80944228889907
-2.38667359474787
4.24648368201867
12.0807581592148
20.3875464458983
28.0523626406475
34.3446007227862
39.2479147398004
43.1999942176159
46.4971244403871
48.7874353369811
49.1319168927173
46.5543782367002
40.4574696470661
30.7150163105924
17.8107382344857
2.98486911383292
-12.0445270458383
-25.6406338295735
-36.5996787085414
-44.3843661881455
-49.3797695502711
-52.6250784148234
-54.8414883080285
-55.7869361091172
-54.7632150562276
-51.5736934445942
-46.7127256661325
-40.627571736907
-33.0169014532698
-23.1597862460159
-11.1102594742596
1.71073913762142
13.5548575588816
23.8263511194522
32.8782061531382
40.2164374431312
43.6609903935459
41.0574366640419
32.8861691471953
22.7355564090063
14.7633231541658
10.5810821386537
8.76179110126262
7.21561156751619
5.37239637801346
3.81569734056467
2.72446632107053
1.74046444485996
1.13237223624912
2.00536974104391
4.96088353861257
9.06252570183572
12.5107859483633
14.1815175548726
14.3385519804572
13.9268796104746
13.2950860987924
11.7230716652217
8.27329779256292
2.98132498425984
-2.93455908075054
-7.96053086791927
-11.3447260656844
-13.4198857982772
-14.8550402188137
-15.5083816653905
-14.3795561784539
-11.0627341600835
-6.82160540565534
-3.58803747632373
-2.16591166289378
-2.11611395425167
-3.19442865794942
-5.91482833664585
-10.2353182614903
-14.1796566617257
-14.5810348849212
-9.77712905893773
-1.63779847237463
5.48252144346099
8.14672459404358
6.26124567964162
2.43605625692351
-0.485632843298412
-1.27997825639625
-0.512259089737091
0.509311158097482
0.877658391448676
0.343171758694935
-1.20343145350208
-3.88681731156533
-7.25373728824461
-10.0274935460052
-10.9070252213545
-9.42555083284484
-5.90654480951001
-1.07918771291358
3.96634557365564
7.98291963439384
10.2811127316374
11.1279709113277
11.2132444768482
10.8447096019976
9.76588969481312
7.62569714389553
4.51616479964517
1.0487564898433
-2.09917044645511
-4.72319219020529
-7.18934577918944
-9.92540579755845
-12.6022986245357
-13.8230504445905
-12.1440839299937
-7.81215570644656
-3.10573558407877
-0.448008010125977
-0.391287483787279
-1.69798174074982
-2.85278697551387
-3.03318364796043
-2.12095031500463
-0.395089007719961
1.91415116728491
4.97151066891249
8.99633038681892
13.5531213948223
17.5787558568285
20.1930929679567
21.1790263830376
20.7355937215156
19.2080303602752
17.0936766020496
14.863287875891
12.566239647414
9.80515354387943
6.21241699600518
1.86508877786905
-2.79177674755526
-7.30799505922653
-11.3002525349598
-14.046101974738
-14.3537217739798
-11.4824526039515
-6.32881435792109
-1.18175163730519
2.05795060910836
3.32701113715947
4.06867423225341
5.60712283268101
7.80409093501665
9.23201724932397
8.70390214371816
6.4475956040574
3.51386479198314
0.416349840601514
-2.94611809639758
-6.24756622713234
-8.57997962972876
-9.55979189052668
-9.92584203678533
-10.7487122717864
-12.4455015014706
-14.7927774997306
-17.6042170992657
-21.0269170836295
-25.0789316452852
-29.0418989304471
-31.499241453816
-31.0609033094023
-27.1818431170322
-20.6208707529037
-13.3389707297496
-7.60085386997915
-4.49894578330875
-3.07034808652588
-1.02271903061905
3.54011249498851
10.9163631992834
19.7107704305735
27.4689458012863
31.8145087768171
31.7305070783145
27.9686467531161
22.1295609452139
15.4715027178251
8.66724619851963
2.4259035550582
-1.93053727059333
-2.68629962548925
1.05522199038253
7.98925535359743
14.7090611756225
17.8779662491641
16.6985203871801
13.2805576990971
10.6089652801536
10.1136560312119
11.0204468732998
11.8051764743009
11.8852811111368
11.5037453112551
10.2663021636691
6.79742999817667
0.31900831189812
-7.97400714152672
-15.5914290727959
-20.6230305631839
-22.9110536096294
-23.8275370223523
-25.0701572419483
-27.2790282042766
-29.5213125664241
-30.1303332781647
-27.9955785671814
-23.0968631418127
-16.3022194517675
-8.99684439704051
-2.41746063417848
3.25423059167081
8.87595761165359
14.8388361638229
19.7919025819508
21.6899914779985
20.3330222820498
18.1003840447095
17.4700762649274
18.1855333949951
17.6842756150052
14.1904014819485
8.54069814610846
2.96251453995159
-1.02709735177468
-3.28368779499199
-4.42597653427059
-4.97414094699275
-4.68265886952776
-2.64700014430504
1.51662920274776
6.71774187545298
11.1389258007528
13.8158364778488
14.9702291444765
14.9429544258062
13.4316287587621
9.94000924884987
4.66582051821816
-1.26847655652962
-6.50492341592697
-10.3738100016406
-13.0539141745898
-14.8112740578024
-15.3829432710636
-14.394263432742
-12.178477898093
-9.80154558485056
-8.26962067376428
-7.88601724487049
-8.34057133256783
-9.27011084850206
-10.5939028651776
-12.2017667789629
-13.5571602805051
-14.1258000666474
-14.187839284703
-14.603113207772
-15.5798783596466
-16.190830374834
-15.3418854775251
-12.8433723343
-9.33898541198716
-5.48450693605669
-1.45166765123728
2.79010531352606
6.83417146958513
9.69634956848362
10.5462395821694
9.58377486852332
8.09349394540936
7.66646778529233
9.22512487456157
12.3748558123944
15.6387924286881
17.7573389303065
18.8302495510812
19.7890652372777
20.8473661547402
21.1001084170728
19.7464178156485
17.1577574289709
14.515214409126
12.6944764548828
11.6155616152853
10.4387567405559
8.27543863502022
4.82355709106173
0.492211981888351
-3.81099861520856
-6.87684977424635
-7.64293403829654
-6.06525836443368
-3.43899812799543
-1.33045247519673
-0.166334744449927
0.853081323169096
2.60547088532647
5.11247701849897
7.56097182337482
8.8540508695202
8.12764249327666
5.09783000155138
0.287812731475932
-5.01401816281638
-9.38692021605736
-12.3587105469382
-14.9320109990707
-18.7138213017962
-24.3511167527427
-30.8993697973988
-36.6137502566737
-40.0718375668312
-40.5469618436098
-37.6758990384823
-31.216280420362
-21.4995337175242
-10.1486182866749
0.216040227127381
7.63782810225261
12.2636561196935
15.9442476260118
20.5729858531763
26.8816855058343
34.1419375261206
40.2211112643945
42.2022557228433
37.9906834199301
27.8436168219316
14.2152895043855
0.117748862006146
-12.2709070976395
-21.7776714062644
-27.7437101760354
-29.8316005340166
-28.3626851223584
-24.5209754767776
-19.7814261492683
-15.0138293649146
-10.2973359199004
-5.52981775701636
-0.945943041432209
2.95930414695919
5.88459522441145
8.2097944918729
11.036797920864
15.3118157106343
20.5808978117564
24.8343645232254
25.8843112545404
22.9695622924899
17.2311867073975
10.970166794518
6.32444815137413
4.11287900517792
3.63363241602544
3.63844470373709
3.61235233044144
4.17412551691487
6.26405325583529
9.83828523468198
13.2458396096824
14.0435452903573
10.7782651782133
4.21302622474227
-3.13305098557789
-8.7097982938152
-11.5118435464613
-12.4407783444949
-13.3277282777401
-15.3930072184338
-18.4311451240982
-21.3331237706283
-23.0801322581145
-23.1039646861706
-21.1777981066299
-17.5025878873187
-12.7873588088865
-7.85008502525213
-3.07687284049908
1.62771268235487
6.38301543426443
10.8485264179694
14.1960996384633
15.6596576360077
15.171723467794
13.4402748312561
11.4969869825971
10.1924083935473
9.76714596358723
9.59987404644719
8.61450237375405
6.21026774919931
2.6101608667986
-1.70557118354494
-6.40462900601805
-11.0618021664414
-15.1250124028262
-18.3208551146976
-20.6081139945297
-21.6604795481634
-20.9567208872008
-18.5027285850778
-14.982167792092
-11.1062195117363
-7.21173269724381
-3.46523089260223
0.0034100945600845
3.21865259936867
6.30989562150167
9.37619107414
12.553376639909
15.9932400990451
19.531329287299
22.494501816699
24.0025109626818
23.4732461668549
20.9030507034549
16.7747874830542
11.7586319811503
6.58312933626617
2.15114836858917
-0.588691474247336
-1.25548029933496
-0.537221156960089
0.0800238340808769
-0.693286460967638
-2.83647458289094
-4.74947021034497
-4.57046202812246
-2.14982115709432
0.625809501680127
1.67724338099641
0.331964246618481
-3.03135119120548
-7.84835275090538
-13.1532766031394
-17.298224891989
-18.9039762717101
-18.045755265404
-16.1072611262793
-14.5525603495353
-13.9534722694284
-13.97539290364
-14.0933804370722
-14.224090701923
-14.4159390904907
-13.847355598029
-10.6869403412319
-3.66253251004669
6.09603520303344
15.1123011675892
19.8167303673439
19.0946057780941
14.8936715463285
10.4108501829266
7.69476876401632
6.90520489116684
7.31982573157191
8.35305448392755
9.66183985625629
10.916513069895
11.6723918484047
11.2589053076917
9.06316537241065
5.40785138983117
1.89095947125693
0.194472465375312
0.507584568420957
1.47492771657962
1.67373052901611
0.971443385951609
0.575855545075747
1.8670771565209
5.02319003233553
8.74434248790984
11.4415977066779
12.5978040978395
12.7394795622149
12.1766680047826
10.1905300653166
5.74893712205362
-1.06926390608191
-8.62272038941037
-14.7669610134258
-18.2852346155722
-19.3479613254367
-18.944717778595
-18.147521385699
-17.6178677438503
-17.2372445770407
-16.1499502952401
-13.5624264676983
-9.53968368092868
-4.75041839087064
0.374585766419589
5.79929157142653
11.3529046676716
16.4459158117039
20.196757783525
21.620109591201
20.0460319416238
15.8107537499628
10.4324423902064
5.73927823905147
2.61288318106143
0.422725330088747
-2.40071977967854
-7.0155207200922
-13.0219004483177
-18.5353610928311
-21.5631321447285
-21.6010925493464
-20.0663215669322
-19.015432635683
-19.2038262259394
-19.5715940375005
-18.8534628617314
-17.2044857028053
-15.5390658232257
-13.5679018259177
-9.5554009009883
-2.40523909226464
6.62085716152959
14.7270941786685
19.9329271029809
22.4568763335077
24.0045910748895
25.8285653560065
27.4156700995555
27.1208759615471
24.0933727655845
19.3019950363668
14.5107153196837
10.5203826138639
6.68377895184264
2.024471119391
-3.43136289355205
-8.4852834177696
-11.7635953094415
-12.7488128223308
-11.9368558139217
-10.2677779886959
-8.49702136651565
-6.90735313350896
-5.44172972556613
-4.06853214835245
-2.85866202513105
-1.59052728804505
0.295803182067635
2.7166020012654
4.05163168301849
2.11809132544981
-3.45308325735617
-10.1606870614689
-14.4713117022402
-14.8266666150316
-12.6873397459246
-10.5997829652729
-9.51599885667241
-8.26308656782359
-5.38775406437692
-0.9217189817479
3.86012642994594
7.99567139518338
11.7589990214362
16.1307923070908
21.5415512514474
27.0363201471098
30.602988786714
30.5970169029723
27.1249694057247
22.0093322594895
17.3206811753202
13.8998146636814
11.0880848983603
7.70036073317444
3.36608128752484
-1.02427195611107
-4.35674686598927
-6.63100783638336
-8.8261307872775
-11.5217352871718
-14.2361373131801
-16.1743963371167
-17.0269978794363
-16.8402258667565
-15.6124728760593
-13.3770613090378
-10.4821731598598
-7.49699044204115
-4.79615833480812
-2.37123446677657
-0.210073073685662
1.21078080755002
1.1537771670422
-0.527142778171266
-3.06489642139868
-5.51844782184353
-7.625977493796
-9.75449046617194
-12.1591939795592
-14.4401209730827
-15.7468012922352
-15.6532954504255
-14.8978207696751
-14.88643995258
-16.082694665339
-17.0963206440479
-15.7324767537371
-10.915981623377
-3.66636159870125
3.37178908006564
7.46894212943691
7.78618532316199
6.25185441226367
5.94718596707663
8.23891349389217
11.7968141919736
14.545000278702
16.0184239896062
17.2946672227259
18.9256626794644
19.8244042211057
18.6265584457147
15.5834837630204
12.3579020453941
10.1574660532486
8.82758215886659
7.68477794292401
6.35884781800665
4.6623907158379
2.45421549994911
0.0027251418992738
-2.05473533289087
-3.42023507357068
-4.41388934592818
-5.31228803428453
-5.74845424652022
-5.14324842836205
-3.74478359632757
-2.97097323350158
-4.30576025608376
-7.56046016194436
-10.4298251476285
-10.2931910301625
-6.63355028394976
-1.44120740538335
2.78938944123158
5.1659857593661
6.53110446049331
7.96291546178266
9.52887548030548
10.500438147882
10.4128997915506
9.49918488768104
8.17660633278449
6.61630293864104
4.84427420501892
2.72475136009423
-0.175493548454079
-4.04824689499214
-8.04209238305432
-10.608967925844
-10.847109475829
-9.11021935519278
-6.33143090376128
-3.28958118614557
-0.620093462114656
0.973000507672412
0.932960596944633
-0.629909727183342
-2.71048677564634
-4.00217505430812
-4.04033030743187
-3.68463289291777
-4.22124263221621
-6.03290865213604
-8.24740050700895
-9.44848258690486
-8.52357136525153
-5.13093435322528
0.133915606243482
5.91510982897329
10.7675869355175
13.9589528427095
15.6295624027297
16.0708927505366
14.9273627101962
11.4207298027543
5.56235411578931
-1.15557618465836
-6.72897512813173
-10.1971472774822
-11.8823963767158
-12.4209436062271
-12.2182601679144
-11.6456511768285
-10.9516157853173
-9.86225194945303
-7.81900108051049
-4.77685726626077
-1.52584506679947
0.757248375669028
1.11471737155306
-0.840160462719765
-4.75268557091433
-9.43092498279099
-12.9618311320273
-13.3994849896303
-10.0220875315982
-4.14200130942525
1.66346642355776
5.42025562745509
6.97617351097598
7.66341824093721
8.98659564372419
11.3517354692592
13.6777198104162
14.2690086001676
12.2293673705965
8.06346301257455
3.11930440526986
-1.25197028335344
-4.2185501209319
-5.76441139638525
-6.55447905609273
-7.09399566539688
-6.99779698548772
-5.43964159508916
-2.21177665771978
2.0992739946962
6.87722759586105
11.8703218254287
16.6982135231076
20.3844820942875
21.7998267636566
20.6298594193024
17.6393952685758
13.8063991902772
9.50537612633563
4.90975292637089
0.831612324514082
-1.60782568084144
-2.22799811918604
-2.16849464822465
-2.88613742195103
-5.08684369606753
-8.51396252913164
-12.2017496204433
-14.7995846634568
-15.1479551463823
-13.0178903022429
-9.37134231855246
-5.69053583039812
-2.8115495852806
-0.457212176249045
1.87259723729613
3.7703517320369
4.24201011495562
3.13021643374635
1.51295810098527
0.429341846020255
-0.233243496559471
-1.2904524617719
-3.20421811776425
-5.8243506722392
-8.79102221949268
-11.7739019672538
-14.3807822124232
-16.0302320981481
-16.1122492210896
-14.556439467065
-12.1507976854524
-9.75296269843791
-7.12926690126095
-3.26468020753477
1.91147894140322
6.76533969939709
9.40415992140787
9.53555659957039
8.50074808703969
7.72502444047903
7.61131255446097
7.92148472550847
8.64935980776107
10.0331544293414
11.9260080122185
13.7096665799192
14.842925486871
15.0978102218249
14.4224048818033
13.1584891127044
12.226456588016
12.303227908307
12.7629891725113
12.147573269387
9.84318382508349
6.65767945353816
3.44893129228663
-0.272037959061487
-5.76498331165675
-13.1582711586876
-20.6683624693519
-26.030605527893
-28.4333689537253
-28.6255326237104
-27.3477600203374
-24.4853105472323
-20.060855982615
-15.2365353049666
-11.489369510991
-9.05561988435092
-6.89541208590493
-4.20042112852239
-1.46626095298778
0.114077734961725
0.237462922626959
0.342525006809466
2.61667588866704
7.92454043847591
14.7882407021053
20.5448830332091
23.4843170265225
23.955703399347
23.6643755940904
23.9226662128982
24.3464224971118
23.1430242268232
18.7005454517121
10.9217345987844
1.22163585043453
-8.45534069561946
-16.6867563521615
-23.0327949950013
-27.6176288177934
-30.3434383927165
-30.7813131830382
-28.7332165735066
-24.3194870128103
-17.4938027720305
-8.3026088426103
2.02735455948687
11.0482425484447
16.8072225310718
19.2891837359623
19.8648986436531
19.8423485954843
19.8895496731311
20.1754066326917
20.3536764142196
19.6468287168554
17.5036353572303
14.2538325973816
10.9304182079435
8.33131706349096
6.17654471019251
3.18056470042839
-1.94945490190663
-9.44061858394811
-18.0850515006196
-25.6512921053946
-29.887764652245
-29.7984618805298
-26.3065064181487
-21.541912375513
-17.3494980246639
-14.3553100734985
-12.0182758472372
-9.19921953156125
-4.90645555932332
1.04790954768379
7.92621211527433
14.5039957290379
19.6422106751362
22.801910211732
24.3110603140756
24.8917177330483
24.7347507866918
23.380668377691
20.5832158443013
16.6647525623563
11.8065270772785
5.77703295627633
-1.10272732299072
-7.33666026177754
-11.2818351818493
-12.5772393307813
-12.1640806578759
-11.1237992707852
-9.81542930222716
-8.02826376688786
-5.72865493961398
-3.50672779396409
-2.15396346404844
-1.87100630909644
-2.2319573170505
-3.08927094282139
-5.23298427793307
-9.72734264384373
-16.4077085241587
-23.2892821904711
-27.9431172134039
-29.5176772409611
-28.9753052754234
-27.3316338320713
-24.346088635286
-19.1812374936495
-11.699094432962
-2.81433731769544
5.89018945757312
12.8317999637818
17.4550919533471
20.7030358857156
23.803297213683
26.66993178361
28.2280777104622
28.0595634420916
26.7880259738182
24.9918238601221
22.7753975308782
20.5638404547271
19.4163826437415
19.9868123118627
21.4158505816069
21.6248050964082
18.8766643583681
13.1281855274007
5.77224188378295
-1.989194332765
-10.1370005439382
-18.8874278282421
-27.2699716960994
-33.4336178295985
-36.2943792047099
-36.273957624853
-34.3532904256773
-30.8234784294492
-25.1559438575984
-17.0110757032304
-7.26193845247223
2.13740367957989
9.40163373240648
13.9520447794175
16.247660823618
16.9031209563111
16.1514118701119
14.019449355544
10.8790044863542
7.70974949319979
5.54765624592486
4.59441061513826
4.19330777295075
3.74762838440311
3.21935209986791
2.61213087558167
1.4859316444704
-0.667354448508456
-3.72201709618702
-6.7674727117729
-8.73375504708603
-9.29054962313015
-9.05187336422084
-8.64245323442414
-7.75210698820275
-5.70923630315757
-2.9775436803725
-1.23462834997489
-1.50161705045706
-2.73558928939469
-2.78858838336064
-0.524874163312907
3.25774000593732
6.70695452391163
8.42575904835317
8.29624432522551
7.19204007859008
6.10092771014525
5.47405646905141
5.21877284034314
5.21647823427247
5.78295319449909
7.3430427417097
9.50873797145955
10.9792962179749
10.9022104420374
9.96871227272909
9.3997114680883
8.97848327748654
6.93240304460419
2.03165467980493
-4.6936429901179
-10.6802750994599
-14.15915563202
-15.5309950720593
-16.3145623178002
-16.9736271709069
-16.3783507173344
-13.5296341751971
-9.03086455380614
-4.34553551106368
-0.286314171530654
3.03813716303228
5.31332711114937
5.98668787508927
5.07147966760228
3.34851861146737
1.66411696818261
0.251890510850348
-1.28145659686189
-3.32201065083415
-5.49720937365688
-6.7945224312591
-6.79729803673404
-6.59480631564354
-7.94654035230639
-11.424254375528
-15.498192400211
-17.4934522818927
-15.7192425980154
-11.1226202216524
-6.79630756323213
-5.26734638296031
-5.9894910208416
-5.83010463885272
-2.32719622104426
3.72910873827584
9.3161482126367
12.6525554212549
14.91636517637
18.0479892561921
21.618489568822
23.0842365054798
21.0600385423786
17.180057035471
14.3744609728317
14.049518865441
15.2368131155697
15.9198037084699
14.8790424447673
12.5498575946334
10.3290094565109
9.09782845421431
8.53311559934512
7.72639743685883
5.99232763588413
3.03429843614844
-0.964238197964022
-5.01067803835214
-7.65635264474747
-8.31849504547472
-8.09767671461733
-8.85190204401311
-11.3795437511458
-14.6258268643731
-16.7305961881334
-16.8254220414026
-15.6976349468975
-14.7256216215479
-14.4582611102139
-14.3558436304727
-13.6032898661721
-11.952884540965
-9.93970815861002
-8.34355527769212
-7.2957501544292
-6.05591786205551
-3.94102870122474
-1.26309442268802
1.01237489978844
2.38451157412104
3.38237056109637
5.23489589472631
8.90587411921691
13.8297166353852
17.5914183702802
17.7397801836877
14.2356902291728
9.43463893159921
5.44289534970434
2.23047092435112
-1.3814373283876
-5.69216468997805
-9.67955342490264
-12.1122172224244
-12.4815960184053
-10.931682626197
-7.72818862939961
-3.0767085203019
2.48892995204889
7.77482171987077
11.4268010201364
12.9680537717333
13.1949520238456
13.4494860407805
14.5333681662476
16.2082929791451
17.507615527833
17.4205348105533
15.3742464921883
11.377639454146
6.06957494073966
0.582790759418055
-4.10124907728803
-7.86022390476352
-11.2747090464421
-14.7711630880231
-18.1709376966749
-20.8700434939306
-21.9958727772181
-20.6930593734238
-17.110832470037
-13.1765581376067
-11.5437451154243
-13.2366617951417
-16.5971347064592
-18.8648131790784
-18.5940519727933
-16.2048496476026
-12.4445851775228
-7.19549318786542
-0.325464062990627
6.88869205857834
12.2621939243586
14.8710804803533
16.072784933802
17.9329213018776
20.8905615922752
23.2419371576787
22.8100892610842
19.0427244328305
13.5289433678654
8.3844504203553
4.23439689900952
0.249412226280956
-3.85088797320904
-6.66801312619863
-6.44178889334493
-2.95966306489579
2.24631110700542
7.19048782256669
10.5772969045496
12.0128671866026
11.6127086275641
9.68792605298987
6.88041334820979
4.28739925648292
2.86619076571449
2.52114797585296
2.07330841133162
0.292335051734836
-3.06266235546488
-6.9991810351052
-9.9084606336477
-10.7396826443991
-9.8577298039233
-8.58272564280561
-7.79258305481529
-7.23763443813033
-6.29199736839587
-5.04303791519327
-4.38764605327245
-5.06558931485302
-6.64312987065707
-7.55914198416837
-6.42610590344241
-3.36537715900324
0.125246406194029
2.57030253524325
3.47972954311853
3.14929464637599
2.24644686839665
1.75172166937565
2.6342582627582
5.03468045022323
7.75738900164969
8.74480436434374
6.39033462184068
0.856981039809431
-5.78291279772163
-10.9640167398097
-13.2899989032043
-12.913814894923
-10.8458032714806
-8.34222942990611
-6.56862987155376
-6.08276247365427
-6.34148868705629
-5.84669536989273
-3.08625919511924
2.16695811659344
8.22399237902733
12.5310069618979
13.7693543306248
12.8004441935562
11.5153238049886
11.1386421456466
11.5855377127122
11.7736869046831
10.3366982183973
6.60188112637964
1.28327676621613
-3.9132549553588
-7.50069344503395
-9.07515190755169
-9.26662175800688
-9.06695605251853
-8.96419225215814
-8.45938637085538
-6.58333923132203
-3.03205656479326
1.35536541208658
5.19284737387982
7.36522653278285
7.44612975307033
5.80369671940618
3.38234339360109
1.14399211738744
-0.378593404181859
-1.11809121002685
-1.38296438582356
-1.78588508207772
-2.93972079484161
-4.95640774933469
-7.15193466038055
-8.22678512892821
-7.01025995618297
-3.51251143838338
0.707503943183109
3.63666962464467
4.43563899120535
3.87603899075116
3.38152117776075
3.89898180820426
5.42079151834799
7.21209642220064
8.49661911502243
8.86493901962598
7.91588874830206
5.10568691443776
0.7577705521668
-3.17788683078246
-4.52546374571367
-3.12678659003506
-0.78699486505682
1.08458108270929
2.83251684145225
5.30177700417454
8.10934593148754
9.7969178962781
9.39033423013914
7.30229748112001
4.66537229658383
2.14353294136816
-0.288788458152669
-2.61546629105132
-4.4444935377597
-5.62151852066394
-6.75994934946466
-8.76515631040349
-11.8088327598927
-14.8386915427055
-16.2068563604484
-15.0500056801434
-12.1799149381691
-9.45301252800097
-8.24223583600044
-8.70111312939664
-10.2879388760549
-12.39970441404
-14.3661357027914
-15.3025035909722
-14.3121369560222
-10.9161212303532
-5.50306081989391
0.541369788365546
5.51378838992122
8.56691483882055
10.1852840360311
11.4634533771295
13.0942201103336
15.0940835247648
17.2169542115083
19.2730443941803
20.8717357045683
21.0183559950298
18.5127508318842
13.225914794348
6.75885615799697
1.263908846305
-2.28737439336463
-4.15593710729003
-4.55910183800851
-3.39344133924062
-1.24212339307296
0.474977924151645
0.971387293997028
1.21540473489712
2.98587743207595
6.78998280558617
11.0322300999502
13.4558170557309
13.2180755489383
11.19366940095
8.46360741436498
5.27711120580676
1.63113248484886
-2.00026716816969
-5.0891047824368
-7.7146460976953
-10.2321092536143
-12.4629920756231
-13.6500548162155
-13.3293097860609
-12.0713709606868
-11.0257807248338
-10.5705545021459
-9.81099090378454
-7.86116040030106
-5.31610835223851
-3.90070234236373
-4.80477021426576
-7.73573911886358
-11.3016492982714
-13.8731066695188
-14.4157573984574
-13.0814049104034
-10.8764552576859
-8.40275522839733
-5.18203976656865
-0.580317190942146
4.8860370367216
9.61938937676531
12.3194032115287
13.0926619711563
13.0634053694284
12.893173775083
12.0586887865918
9.99084395685731
7.46218276768901
5.889762522305
5.34172809943166
4.34135756170203
2.01635232202923
-0.444782184856729
-1.12355654320344
0.303367798171578
2.23789042458692
3.11323157586267
3.09046229934376
3.4066681622189
4.33180990675434
4.51378514302515
2.58112254937132
-1.17399446368339
-5.08254888574906
-7.64844778100591
-8.44598515994093
-7.84297990564345
-6.37191183556055
-4.4590077156936
-2.58047949956519
-1.45300693450996
-1.72707439322213
-3.24787506135754
-4.82878135448673
-5.12072378676451
-3.68972632377299
-1.12581134001492
1.61962090043141
3.78124043713656
5.05497913912259
5.74843948864859
6.56419400281526
8.0526852597519
10.265327618372
12.7759541448251
14.8485161278964
15.7483315431976
15.1536244334977
13.3111749357815
10.8142111473469
8.22189096290087
5.66409550752827
2.72735146246556
-0.959266239987958
-4.93536860832408
-8.12291897799815
-9.95767993770307
-10.8874834303017
-11.6595896890603
-12.5465644217217
-13.3207235547252
-13.5623397695516
-12.926798897221
-11.4196358864673
-9.49016845562305
-7.78490873456736
-6.84255261966843
-6.89450186910127
-7.65079607088438
-8.25216744820548
-7.69509858248354
-5.48694765108731
-2.00776131998595
1.59244996120599
3.93239920326889
4.28519923244113
3.20591504266401
2.12081325716456
2.17092691869424
3.49103806455913
5.35081220348245
6.66658232887491
6.67724995518526
5.60878551340467
4.46338883359968
3.77704295970553
2.95304605231818
1.30598100697073
-0.595657634480276
-1.28429967578388
-0.0974488397053592
1.88906312739031
2.81668985265396
1.8444922470072
-0.0977714156895189
-1.29131273343744
-0.75211971653732
1.2282361597134
3.59249443436248
5.19880561080824
5.36655102969354
4.30001835991361
2.93005642860458
2.12713075408117
2.20479944556715
3.13848586429572
4.81039030694149
6.94859889112667
9.19325330246484
11.2185717823042
12.4650294340204
11.9382965968521
8.8008404176491
3.19391201182635
-3.79434288031778
-10.8273411205617
-16.7739500801624
-20.8629058523734
-22.8789943150911
-23.0901867301815
-21.7293453380326
-18.7287803909168
-14.1584188529234
-8.7536280724455
-3.7790580470185
-0.252436103037
1.78253622534854
3.15098729200009
4.58547222437152
5.99559883386456
6.87907525769252
7.20980448423468
7.490948737286
7.9413016516254
7.9687534258929
6.64054544392933
3.72666679944421
0.269434088656543
-2.10856851125545
-2.64216153005604
-1.92345423131666
-0.817771464563417
0.634304906538524
2.8808868498981
5.89547975553594
9.00138631104827
11.3906543969768
12.5885549344301
12.7220389134685
12.4806011142581
12.4740343469889
12.4920118087911
11.6606432830848
9.36322164448659
5.77351006670709
1.61334114547914
-2.2605100924773
-5.19404142466244
-7.14401268922688
-8.77722711158183
-10.9131293432031
-13.8551782327232
-17.1824391708076
-19.8266416236092
-20.3797461756649
-17.9780283651512
-13.3155212888457
-8.51483591373841
-5.5542115115701
-4.69118415978773
-4.49497171294097
-3.42028167576293
-1.23289652308755
1.12192089961626
2.71739083286549
3.30303695206498
2.94764161548139
1.70365368542482
-0.110791130891526
-1.71412063580472
-2.28813599883761
-1.54042940037698
0.176500577322613
2.2204766754464
4.23322786105149
6.41620909273706
9.04225527332871
11.6832709260642
13.2293429717079
12.7579185841119
10.2170768196317
6.43198381976986
2.81254224551173
0.800585583158172
0.909992041856835
2.21514487125869
3.22499913414511
3.24850014597817
2.57612488319964
1.6262601178924
0.55053091226708
-0.394848148929982
-0.720109658762274
-0.217103226048682
0.61594146010169
0.901027241016685
0.133096095146124
-1.52122660672279
-3.61372923518987
-5.76555038851971
-7.53350594214203
-8.39309639570638
-8.24094126143019
-7.6517306688246
-7.27308741766792
-7.09056694261167
-6.47010568861356
-4.75079593058965
-1.70758367000129
2.35811769629401
6.88751429258626
11.3716926150429
15.0781999269749
16.5097658109624
13.9705705982536
7.26927169043589
-1.54082056890256
-9.54596257749693
-14.8693622882562
-17.2293076233551
-17.364127170651
-16.3069926629948
-14.7266081857312
-12.4670227658403
-8.81032349019148
-3.39163577269418
3.08707622426532
8.95937814920097
12.5458933826352
13.4561234455166
12.9687016946741
12.6416086188666
12.59060710271
11.6945843232949
9.3498851716206
6.27219463067643
3.534468898658
1.46780489163092
-0.308261282859758
-2.16306377813933
-3.93948333399692
-4.9549841130619
-4.3398344533356
-1.49545127835091
3.33930557691908
8.62838004857564
11.9926133451276
11.8449848351687
8.66674194057672
4.2625317039775
-0.0724038561988729
-4.14648005977162
-8.02270601360196
-11.4574795454113
-14.1985635596929
-16.2159316091822
-17.541047933042
-18.1679173425827
-18.0076784905781
-16.7161214851957
-13.7768971497107
-9.0208573369627
-2.9660871504415
3.4112162104123
9.05823712915549
13.1248568137451
15.3429064538037
16.232279960544
16.6056208438556
16.7616635362388
16.2698906421608
14.4720966315566
11.1370092949072
6.74892839041275
2.17680705581061
-1.94124341734767
-5.30186339360783
-7.54175702598293
-8.33234173622516
-8.04153121217747
-7.69974859354519
-7.95318353792345
-8.43346236915337
-8.38840683557936
-7.56787582482532
-6.27030217830518
-4.78886723570143
-3.06141764085383
-0.89288204875005
1.49543871311294
3.28046940463118
3.60193273247497
2.26260416514855
-0.217238816828688
-2.97978089713561
-5.07393381565118
-5.66797365519147
-4.4388612747924
-1.78412520977195
1.3720832936913
3.87061029737598
4.6202341651019
3.19977712617587
0.453255079882512
-1.83385464629082
-2.24668843724886
-0.808431696848628
1.25126538886015
2.73421928577263
3.55553698966558
4.67820282202143
6.91604155166638
9.83263020957241
11.9574194391215
12.0525372109073
10.1400209963757
7.50125835389399
5.71734941618742
5.39030226111966
5.6756666334199
5.25680923328367
3.70891733861955
1.67725275428775
-0.0341252679445339
-1.12824089035757
-1.77515547714809
-2.39643829883019
-3.46736401892679
-5.19775801600007
-7.30653129363598
-9.1411156321184
-10.0409380768125
-9.73630237384312
-8.48260099703845
-6.68961909503574
-4.5099970601278
-2.08473651525214
-0.0270996796668977
0.866192774752753
0.470359188869637
-0.376832372685053
-0.428837704186145
1.17458271063433
4.24791513053029
7.34406744505654
8.53269776680496
6.82501931338673
2.70757833537407
-2.77227266836798
-8.87282366166279
-14.8509816290833
-19.5238861288584
-21.8653843476195
-21.8851743515295
-20.5273206405881
-18.7408660334957
-16.7367012984297
-13.9425763765228
-9.47283520073182
-2.72955309590055
6.05399337885048
15.4005683742974
22.7777963027825
25.9591777358631
24.8265230896849
21.6437142522331
19.1329872704159
18.2852714310437
18.0600688747067
16.838554727193
13.955711000028
10.1271317964073
6.71386469322884
4.63557770607357
3.95811462106613
4.27272047072834
5.04788506161538
5.65400531790789
5.55062545291943
4.54271509102778
2.49928748133751
-1.02676538805615
-6.25787741044562
-12.2493069208578
-17.1652686305824
-19.7533274839743
-20.1844088693989
-19.4422073773248
-18.3941445232883
-17.5267622103913
-17.0471529457329
-16.8247199266939
-16.1846473112472
-13.9439206610659
-9.14462891401102
-2.21773682865014
4.76304281631603
9.52838184638804
11.4317404739591
11.6222486132515
11.4809643744621
11.1982750156992
10.0524909468201
7.92207161887597
6.02868625819464
5.73095037671289
6.8138372231566
7.66146474364519
7.12870623406532
5.53201470467004
3.74911363857133
2.1773000191877
0.819750012028544
-0.326576813104497
-1.35451521648203
-2.55622212703458
-4.22854389157769
-6.42104608563712
-8.68992923293658
-9.99681469501697
-9.30814357116475
-6.72115378669549
-3.74361056380053
-2.03846256484696
-1.95143165104972
-2.45107757594631
-2.32337878125553
-1.19292512356801
0.517791493243123
2.34758432810901
4.25505834429348
6.2400248672276
7.84362751792878
8.48932376766479
8.24867479481469
7.84299943141159
7.85194408007945
8.16160395118679
8.13543268884636
7.17830899349643
5.28603206415916
3.17998411689719
1.76751242238966
1.38731154349691
1.62877935938233
1.78853622601741
1.4209082207099
0.610728443844278
-0.237786626386271
-1.05142221694676
-2.37744382131865
-4.66896829397882
-7.50947211099413
-10.0301774486202
-11.8162953492393
-12.8309990018909
-12.7854245266546
-11.3478408891535
-8.86015164454816
-6.14351436889899
-3.47942733957804
-0.258302667392314
4.06800989021536
8.7284458880182
11.534751463206
10.4883128367178
5.87315205594728
0.499982604599673
-2.64989709308255
-2.96781755461319
-2.14455584379723
-1.93367634681748
-2.52654097319204
-2.92024551920141
-2.22249850516732
-0.354772117257847
2.1988040336753
4.80861400514528
6.63359215731546
6.59234695337867
4.1015810295597
-0.157061480762907
-4.7562866747887
-8.83974822939894
-12.4723710468296
-15.7486857726461
-18.0786194153396
-18.4654434306131
-16.2738894915278
-11.7826418753752
-6.08315607218448
-0.299729899724288
5.05074741989742
9.7595418366946
13.3157634607543
15.1096342647603
15.1194392733164
13.9413887688958
12.1791494328424
10.1170491528485
7.92357701969126
5.8823941919634
4.35952380371359
3.5928389180855
3.47598357505368
3.61107350374786
3.72752652838346
3.97283530457437
4.61950358026657
5.60100343449186
6.47980258828801
6.71321187630253
5.90731128245685
4.09766152668428
1.84349102707895
-0.203937296862863
-1.81256784607873
-3.08203400043558
-4.04572445859151
-4.61062933420239
-4.72120596163264
-4.40123665191695
-3.78715170177115
-3.17075191406127
-2.81463902248383
-2.73629392254286
-2.82105992881056
-3.00700862367085
-3.21497856928178
-3.33316601245506
-3.43612433870105
-3.80115472299908
-4.6100661631749
-5.78498879125393
-7.018884602371
-7.75390086942973
-7.32952892623107
-5.46938878345152
-2.58310840055368
0.446642221482889
2.57947005466974
2.89962773212205
1.23782263664219
-1.29399263892858
-2.93799626402685
-2.80004379899073
-1.48325718276331
-0.20517076202546
0.319071099582704
0.160120640903117
-0.109529844981536
0.19359184091219
1.43541731087796
3.35946495421793
5.11655255915409
5.66133741378541
4.46907068777903
2.14123305800899
0.0987631401902224
-0.600510637358299
-0.067066708713216
0.798712092021984
1.20970795211013
0.983889180396112
0.454291270063012
0.022554753379247
-0.283262868276691
-0.736066679449211
-1.35495012975385
-1.66944328731067
-1.17807505177146
0.130387794176882
1.76797199339772
3.13175033033884
3.95170155369091
4.43919967636571
4.88561841846682
5.2140747646496
5.22410419178915
5.05742648421133
4.84585333060282
4.03915492554655
1.85148391018804
-1.49638144449016
-4.61364435377666
-6.199779702889
-6.02346089549302
-4.68729991092822
-3.02378651109538
-1.73803839619891
-1.00210418764845
-0.206999580809184
1.48022273526006
4.12293772061016
6.70764946762187
7.85459527305006
6.80955452430794
3.86157613065473
-0.0021233230885318
-3.66757370537749
-6.19734627726213
-7.07182013421341
-6.561206836548
-5.62412934550765
-5.03110111838449
-4.74457106297509
-4.36446887026399
-3.76443347961134
-3.01941233108776
-2.25510260482719
-1.89346757578552
-2.43246011768692
-3.62923635319319
-4.50131716278939
-4.44513741230042
-3.80628419315826
-3.18644095503704
-2.81266074678485
-2.71263332872322
-2.78753032717719
-2.43938160917011
-0.768796460847411
2.43079690057295
6.20811540354731
9.24964826567535
10.9320246282967
11.4950465074051
11.4535486412861
11.0746806455589
10.3833985487816
9.37286744551546
7.85695211817075
5.24090259361222
1.06367484633507
-3.97637241932309
-7.97316888535658
-9.14420923259981
-7.18966430277116
-3.47086329519803
-0.101193493276754
1.34877453946167
0.778109940241051
-0.549400793340585
-1.11585224589538
-0.358169873199282
0.96839523341865
1.5164907957685
0.610064871725455
-1.09054823176483
-2.2649682305281
-2.16076940954271
-0.923017036209365
0.99135179219736
3.15387890287666
5.01534047374813
5.95208221536687
5.53958058351062
3.64187306494952
0.494696394465051
-3.12391070471974
-6.21738637540466
-8.36910175178478
-9.91548610439995
-11.1455845909239
-11.7430341245706
-11.2782210913805
-9.86897906434455
-8.00856261019667
-5.89484867102688
-3.1611382809746
0.623730494192349
5.07115891286537
8.72791733743745
10.1226569607821
9.07119938897532
6.62294537466248
3.91775441849253
1.58693509001047
0.0170308807212771
-0.532346885735015
-0.184496390442219
0.543592075744444
1.05897479616321
1.00515697581611
0.497234931497925
0.114469184733681
0.421790018082633
1.45944675794338
2.81288060334575
3.99519709864509
4.5939865506738
4.32496650366597
3.19695904430386
1.50566343084425
-0.361627677687014
-1.98624502175415
-2.99425005652017
-3.38024333577673
-3.58119301961449
-3.94343209710998
-4.29156416821673
-4.24322167635748
-3.71699072349995
-2.91029716532771
-2.0032370971697
-1.06613439355746
-0.0508668699349358
1.2054156582249
2.72457249987321
4.14566677115296
5.01593943172611
5.27537613366224
5.24208197206035
5.25461890402736
5.46768622448277
5.77288168913313
5.81245791228584
5.28920090557744
4.28925119759888
3.13066099140483
2.00799135660806
0.975577893829213
0.117742870750409
-0.453449178004718
-0.671027338403582
-0.567176663604811
-0.414539481356541
-0.716927917215814
-1.79447143361823
-3.39122693409769
-4.80439872184421
-5.34449179421896
-4.77604484075579
-3.57339237301729
-2.62601139851222
-2.38984010016022
-2.47896533248514
-2.321335782306
-1.90619800479696
-1.6000502668809
-1.57542210741611
-1.75342657318506
-2.04520927064702
-2.43796799486372
-3.11823455408847
-4.54012109281011
-6.90793663055251
-9.60002739831848
-11.7041862327957
-13.0702724860473
-14.0845108837172
-14.4552406384847
-13.1643028346612
-9.85857951167525
-5.54237499005933
-1.53727611146772
1.73732531391819
4.56829302831157
6.942945031438
8.42834961955269
9.12974938649013
10.074610187432
12.0998677308167
14.6876363243447
16.4067983989487
16.2977976505598
14.4937045149565
11.8722560868122
9.5401957699749
8.28898371771963
8.04864594502506
8.00658271115035
7.43881969986486
6.21946438464406
4.6213266141766
3.12272100490451
2.39091832642546
2.89133167903076
4.34558863883763
5.8511877531928
6.5647140704862
6.15939625954343
4.867473873321
3.3338075545312
2.15276778054156
1.19993180957741
-0.405773729942322
-3.40583767063353
-7.57749410014277
-11.889351109038
-15.3090894412014
-17.4692502706665
-18.7597089712613
-19.8117670035146
-20.8550714493619
-21.607739125408
-21.6170170787906
-20.4795644335872
-17.9663102749135
-14.3301023286817
-10.4045476873471
-7.09381783742372
-4.72256350678677
-2.86091827238982
-0.635178511927683
2.6780855804295
7.05633156202506
11.6722432047812
15.4642909165319
17.6674205221178
18.0143341960095
16.9579222945477
15.6233407882587
14.9069068846776
14.5914473066419
13.8352548014621
12.3621547983098
10.6039969553934
8.90509776702291
7.26036745650864
5.73574198430474
4.54066704741034
3.6562529839489
2.78418779454496
1.66380935474799
0.214950991937496
-1.54191480255382
-3.58037887962528
-6.01229295403793
-9.09402290079917
-12.8267593534872
-16.6209378603512
-19.6067852054932
-21.1610227236069
-20.9938519143066
-19.0233209743906
-15.4198915437602
-10.6185904074391
-5.15954129345869
0.428100222862671
5.64590903408183
10.0111218506201
13.0034420089488
14.2192511482984
13.8268351719731
12.6117485145251
11.1904583623336
9.43725844776691
7.0457496750619
4.28638930953957
1.81797850683177
0.126273759965431
-0.567730795245649
-0.318976613683363
0.354987095458455
0.743294520761757
0.601035282399361
0.232211671570307
-0.0586638772677739
-0.25139066395299
-0.458784669884162
-0.853653098727162
-1.64206349781021
-2.81620350373375
-4.04754235654517
-4.99915216966601
-5.55055909097781
-5.65499250138944
-5.34782812325837
-5.00284369453311
-5.14052931250474
-5.7278027717174
-5.87349897971404
-4.41005060680165
-0.888523795682486
3.81422528419301
7.88977156610876
9.83939693553406
9.40073429463995
7.30541909312679
4.51694557484481
1.92322009112841
0.296834268332658
-0.0037760197001401
0.704599153321486
1.62945754659921
1.96994527065903
1.38847134465932
0.30926196460895
-0.392797394739567
-0.264505044337007
0.323000346831354
0.756667372791306
0.814118209265883
0.581608662359821
0.171584690080931
-0.256536789056784
-0.48105015379566
-0.382492483816399
-0.0172925059668111
0.408687223486957
0.534600752889249
0.0258850283597013
-1.03673507439418
-2.13133379484178
-2.8094557859998
-3.02829746778268
-2.919160077095
-2.58220083597422
-2.20223402589624
-1.98557575316018
-1.854991944763
-1.46681764194994
-0.565671453022125
0.779827184932347
2.10281004239503
2.62447484197055
1.81436282207981
0.121535143439317
-1.13362234728095
-0.90427176247243
0.526549410000182
1.66626182878929
1.04159129042438
-1.52328542707691
-4.72812661709464
-6.8360555669514
-6.83087020905529
-4.80177743747699
-1.81660196588688
0.442896148098408
0.66241731556372
-0.921161706065408
-2.6074921013249
-2.8211855684797
-1.48371332587693
0.103737750877186
0.395843823569283
-1.1939760082168
-3.70640516871852
-5.28454357427949
-4.77699156668872
-2.62843298820753
-0.0264429117584417
2.37043166618755
4.44095605067466
5.9709032908426
6.9383210482244
8.24146916751803
11.19252510958
15.9304160438249
20.7033573777588
23.0178012960253
21.5163747109943
16.79706272665
10.6491716673466
4.76694436681565
0.128117574934412
-2.95010611976482
-4.64625341844913
-5.436518045105
-5.81274707802011
-6.20151003843579
-6.98445842588198
-8.17711705891721
-9.2137181890602
-9.65393479667031
-10.062755485843
-11.5348248440923
-14.279507841096
-17.1755350458263
-18.723574053914
-18.0960714488192
-15.4556377039058
-11.702105706648
-7.91014567446267
-4.79555074759413
-2.58741888058406
-1.12866499347258
0.124112887099175
1.90465213338275
4.53154676546307
7.5555106565034
10.1732585386162
11.8377683254344
12.4348929895009
12.2145209602448
11.6305082908439
10.8835003031111
9.60786504363115
7.38470651602422
4.44219286124996
1.43877471437931
-1.15973377387663
-2.96505521672764
-3.30977501294076
-1.78991009411233
0.830196322603326
2.8079843104264
2.77820600656714
0.893386778560796
-1.36017501176067
-2.44543793109788
-1.92634814250725
-0.539231767959209
0.516805614771181
0.251621774140641
-1.60236095187067
-4.18431313776642
-5.86041465429714
-5.51171508853221
-3.45211239867733
-0.996180095451627
0.549785219412498
0.56740442524846
-0.421207134210903
-0.802753754657861
0.850846066339017
4.17767747527015
7.16776519105259
8.11670164325707
7.07477176389438
5.37097750512723
4.23557930193704
4.00564115108636
4.2307641996384
4.30659909518079
4.0693808335195
3.73738791821341
3.35139906780061
2.64688796148149
1.53508276994426
0.284248292143008
-0.936811929793259
-2.39293472591925
-4.4757853361862
-7.11439462610932
-9.53404032152532
-10.7287541478883
-10.3469010762106
-9.02974934954704
-7.73464427760323
-6.86614290759725
-6.15610412869738
-5.1191807077509
-3.47214492871038
-1.33224590842204
0.895501837956448
2.9306355782242
4.75089335918864
6.12397841279748
6.34272934966067
4.82004661882282
1.80634738688334
-1.65266722832695
-4.30061990114025
-5.30016997042364
-4.69986475690478
-3.311848188719
-1.90218998104591
-0.680359738943607
0.24786141412662
0.473238553293293
-0.114161687322809
-0.709912140679596
-0.283620636566515
1.18368292591933
2.58315359015222
2.75649957384506
1.50225829973279
-0.338287259395123
-1.68933318700438
-2.25012814150395
-2.6626046678973
-3.64717179819429
-5.23305416336589
-6.84695147284689
-7.70442981635467
-7.06902013232454
-4.70156389604705
-1.25505623225962
2.16947093149205
4.97205069226669
7.31312774781904
9.52951079232185
11.598861716764
13.0823055923819
13.3685337947568
12.1050976143979
9.55146164867706
6.43857303108086
3.51843394238306
1.35496489267297
0.343822571469287
0.646496155378728
2.0810144859179
4.06282155443799
5.62427301629974
5.83636923098693
4.62615734231571
3.03225072082435
2.27115948786091
2.55773803275708
2.92789587081286
1.98592337621014
-1.14270837112681
-5.95001442771241
-10.3327001812344
-11.9001016487931
-10.0734961524921
-6.60076144034574
-3.71253873217066
-2.09967303835093
-0.826584907560976
1.26287087321906
4.36787323245756
7.63391314931879
9.77983826501226
9.73132680407688
7.05057780444157
2.38833368205464
-2.40382547324206
-5.32471905339959
-5.89902916795145
-5.48799386404514
-5.63456396847082
-6.44809500062325
-6.8839961586532
-6.28846902174116
-5.36402950401061
-5.6144449613248
-7.77930986014308
-10.8908466353823
-13.2784058500592
-14.4587700674747
-15.3537710137187
-16.564854186201
-17.2726879107415
-16.1917266475613
-13.0327474536688
-8.76093136641182
-4.84391073166343
-2.31689855531818
-1.04910242237052
0.251711861066971
2.89404412207202
6.84428691227816
10.6967743865522
13.0546221655664
13.8328203355549
14.2526781615752
15.6385996832919
18.1593561219758
20.714293874971
22.001335843675
21.509431676152
19.4964997418245
16.3987290771688
12.5133330279867
8.12191411267193
3.75067545833181
0.170932577916185
-2.07149899013586
-3.11766837664836
-3.52479314209059
-3.59523735064768
-3.32773390005305
-2.92567642825245
-2.86751222226984
-3.43885387018055
-4.49228884241856
-5.62816788828754
-6.52277133809977
-7.31831712498603
-8.61966437775792
-10.5915484222183
-12.1263204033491
-11.6122292780278
-8.65946025705401
-4.56206648954581
-1.03538116617017
1.06622230970028
1.89530265903113
2.03889988666866
1.91387384366302
1.51462606131882
0.783638454571925
0.156978039224
0.264270360778657
0.980871499346516
1.37445900676982
0.886051292480483
0.151890610155317
0.440987803270079
2.49354611788117
5.83816019679869
8.9808422801266
10.4389091526584
9.94795402993894
8.65337902833208
7.95934513672984
8.1488677646416
8.10021026136933
6.37336747523531
2.66947372279558
-1.85344610573406
-5.7672458584354
-8.51170326717337
-10.1548011963372
-10.7205554085271
-10.3924943989613
-9.75484299585698
-8.9814581052887
-7.24535487823136
-3.82610178031221
0.400184931465487
3.28117684087696
3.22203916873559
0.450037038175016
-3.34972017309466
-6.37016713539176
-7.76298417207668
-7.72668078171862
-6.85812036615455
-5.66270970274647
-4.58511855209239
-4.01035371068613
-3.93471514876479
-3.8427818141054
-3.05966870333639
-1.14460106847583
1.79881886772556
4.82137545234026
6.48533667527179
6.13612575935488
4.68866405058134
3.7871336684961
4.38252439285957
6.2074349275475
8.10482897786837
8.68141832139608
7.16983079576291
3.92686784194113
-0.0790435675456048
-4.10927138787137
-7.74524660251083
-10.5354113443397
-12.0210101548624
-11.9376137818258
-10.1647505538235
-6.72893162708189
-2.05115912565508
2.93684846674067
7.03191131450114
9.30454399655203
9.72626905103189
9.16147879186359
8.40049687433402
7.46513860387868
6.29335491022808
5.56037474550968
5.96627531100702
7.07786785853124
7.90251801764827
8.49034863635452
9.91086371954615
12.417029578822
14.3857004371256
13.4480458714573
8.5094619926505
0.809338505665319
-6.74175765396493
-11.5023814836268
-12.7881517709639
-11.8616639044998
-10.4829429592553
-9.49929706901813
-8.48242890340657
-6.57359308161118
-3.90293818295254
-1.99258492889338
-2.21784352232498
-4.03514975586857
-5.42854902415183
-5.0803311161193
-3.46922631242156
-1.80174562188585
-0.444370730580771
1.31151262104211
4.0909209399433
7.30560877597126
9.47797151617594
9.6886214743774
8.22285937029494
5.70828032447683
2.39720374446926
-1.32924375656752
-4.58885144497438
-6.85156964746536
-8.69894129780327
-11.0667603240742
-13.8922916524925
-15.9345190960229
-15.8884397842091
-13.508223410298
-9.73420629155363
-5.80305527017491
-2.19443331567255
1.4929813536404
5.69773253032832
10.2314349214989
14.3257668318794
16.7427004893399
15.8757687054732
10.5858140696434
1.37985884393581
-9.47910059413813
-19.0850530919334
-25.0364247491088
-26.0640686715654
-22.4462903642904
-16.0391344490101
-9.25936079771079
-3.20438063382491
3.44055227609569
12.9329405781186
25.1746138439049
36.2726079462818
41.3408192438779
38.6589110361205
30.427193008352
20.0609652486946
10.0339508264724
1.9773763909387
-2.90782979066906
-4.30364528368069
-2.98654740386858
-0.155115284862954
3.23552941205267
6.41692659820165
8.40694697325807
8.01141325480552
4.47693481059857
-1.78799615566955
-9.32897736165509
-16.5741010533024
-22.4025242729761
-25.828149060681
-25.9688680901383
-23.1065300568451
-19.3868846481033
-17.4999761362063
-18.3452865825497
-20.2455975767877
-20.5405128688332
-17.8286138679924
-12.6758383291846
-6.48503842785002
-0.203884794862315
5.83792111623476
11.671656629081
17.8687703246573
25.2033823925205
33.10339340782
38.8125654031514
39.206384233713
33.6538395241779
24.6944215737297
16.0148096309947
9.9573450917351
6.48756729488584
3.92648650515365
0.568092620398423
-4.19843210966578
-9.89664212091123
-15.4556097573461
-19.6725312931398
-21.9439129480329
-22.9272134117405
-23.9975191649403
-25.6982400957389
-27.0007043033733
-26.2045081103889
-22.2441022904724
-15.164131796199
-5.97320327204031
3.60079640086082
11.6033927618352
16.6693019947254
18.6552326758914
18.6025078299979
17.9668494134783
17.5706282080533
17.2310888413652
16.4927445211356
15.4411651928329
14.4675431180881
13.497645952784
11.8951122052452
9.07594112038863
5.00059893558726
0.121897697024794
-5.0397366691886
-10.2351302390788
-15.2893052879089
-19.5837647071473
-22.0578884839946
-21.9419736549055
-19.4273417148477
-15.6790379701212
-12.2787847965539
-10.2547652236944
-9.20814267253725
-7.64725396204757
-4.60503479128271
-0.763786362531179
2.22339042624571
3.31235852159007
3.02158299778648
3.23474316412297
5.91322717566664
11.3089246028108
17.2955138859238
20.9757667793452
21.194021202097
19.2938849790212
17.4985414750036
16.8629334724453
16.6952202437565
15.5538856777158
12.6733445884201
8.50744543352751
3.99097193633832
-0.387165415150893
-4.49059954572416
-7.93096295313136
-10.2493343255064
-11.7656660962964
-13.8292557003377
-17.8958561797282
-24.1049763642085
-30.6867849266948
-35.1043426708672
-36.0283523890782
-33.9945254886504
-30.286451678798
-25.8946493582047
-21.4319346449913
-16.7735433854929
-10.3379868348668
0.0382635997192498
14.535623257073
30.0783656330039
42.1443502263866
47.7742184934317
47.0282951339599
42.1627055626556
35.672231637231
28.9371074077313
22.3694964677206
16.1998623733999
10.6115026516759
5.46481417627855
0.538137180953695
-4.10073496336944
-8.4350313930185
-12.9185381126196
-17.9620460324623
-23.1441573709724
-27.3225391662691
-29.3008831607173
-28.1477070458887
-23.2874936151693
-14.7562553057189
-3.5155388120054
8.26730237212223
17.3948408339127
21.2123035814132
19.968957903514
17.1662254189037
16.6240807988481
19.0943750435057
21.973099864696
22.0535865951781
18.3001093082671
12.2230406931466
6.01142665999949
0.615434617262845
-4.311223033938
-9.18940557794309
-14.0401082126463
-19.0078040676561
-24.32866752829
-29.5180991553594
-33.2332466961358
-34.2019227609172
-32.1242437534205
-27.9434377704766
-23.5373993863845
-20.6170310862448
-19.2040677538209
-17.2781864107164
-12.4415439762881
-4.10633758478256
5.93190375673715
14.8807378665998
20.9602762456534
24.5166742231601
27.3965830978707
31.0050558370708
34.7995020844344
36.6871238388301
34.8520661810125
29.2478574225226
21.5178580909425
13.5638665160281
6.25164387142414
-0.442954953841265
-6.50079201306998
-11.8451475882595
-17.0714864227066
-23.1129765817028
-29.8731325678246
-35.9192587948815
-39.6993223008899
-40.4210701069759
-37.7887891345126
-31.7706482723658
-22.9308094061216
-12.4869404936831
-1.66161501925264
9.12380100406492
20.3521528593867
32.2292784176076
43.0933254535084
49.691486998729
49.8152640199739
44.3877433986911
36.5226835300353
28.9628199370391
22.7492628752182
17.6534905937356
13.0786834965777
8.62375961489068
4.24012362343422
0.0209320249806285
-4.03820320101192
-7.89475776682765
-11.1945499843524
-13.3342772557201
-13.6364940016086
-11.5202030346938
-7.16299892235722
-2.31275205790348
0.263042130146418
-1.05260274152848
-5.06314698559893
-8.65643148116835
-9.69626998273054
-9.1639644304153
-10.2921472029989
-15.4095203195587
-23.7792592180589
-32.5066867307451
-38.8662089661324
-41.3293280540595
-39.2888279992676
-33.1681648476886
-24.8863668003905
-17.1953339621252
-11.8524560083739
-8.38562063089027
-4.7528128597428
0.643274376080536
7.47262553016899
14.0160560908683
19.008344538336
22.5298228173613
25.1513369889974
26.8708947876898
27.1207403568847
25.3553942707011
21.5198045244132
16.4564484305419
