0.0917792423540655
-0.0949314128394548
-0.188100005606246
-0.187640833094901
-0.158417961627732
-0.0741959115181592
0.0417275836347856
0.0178172153228733
-0.185680241382896
-0.33869387549928
-0.278035474902646
-0.110898591532055
0.0336738790529291
0.148985670198056
0.19419594177019
0.116375142811993
0.0397689949113583
0.12959316979911
0.304167971056987
0.364858885573654
0.32371537442156
0.329617408931251
0.39211855470836
0.423094695803355
0.406749061093938
0.350403237832612
0.240977249053054
0.146632258970298
0.170155549216857
0.279259014007011
0.348924248165061
0.315624575573836
0.171507196848246
-0.0698720258020241
-0.32725646878634
-0.510843930611234
-0.634378144159632
-0.742266882004303
-0.802389851646167
-0.787719888037597
-0.738422850765403
-0.673526371855645
-0.60639640471618
-0.640083289726422
-0.826740757549953
-0.986823631009116
-0.891630999347747
-0.525672494573978
-0.0156990911731205
0.488775342335807
0.755526414918253
0.60529532443975
0.221106187080983
0.0085491595310867
0.0841924133863986
0.204214947356352
0.197695860745165
0.149937784031801
0.165288440754024
0.243619175898166
0.375651093610823
0.524264148055348
0.577860453401227
0.512902409244082
0.475232608081586
0.54920986580528
0.618861470842783
0.562066231322854
0.397369124223774
0.197196374555919
0.0275390920288757
-0.042141397084677
0.000194617468877
0.0855312598244227
0.145024680912529
0.133917329586013
0.0220996600529756
-0.127265999510226
-0.179506760998838
-0.131841935509408
-0.130146531921122
-0.219724451905799
-0.300932215262138
-0.341010599088249
-0.357324867089451
-0.244595697583789
0.0664317981988847
0.378398867095349
0.465437688353468
0.400418545757849
0.387064461495143
0.454592344102346
0.514220843341791
0.510333615007079
0.400806483554263
0.198657651007106
0.057029604182592
0.090288827464286
0.158614705333062
0.0652133787047502
-0.133733276841824
-0.25839180322395
-0.302965402850254
-0.373632583363195
-0.500507944405142
-0.692056933964907
-0.96540046508616
-1.20333812418658
-1.21833369373686
-1.02185101589577
-0.819402553646879
-0.748444664450439
-0.783771817251912
-0.828090891417242
-0.787652772772836
-0.652650249235271
-0.526198012417129
-0.476274776854044
-0.434426032079369
-0.347013305744283
-0.279901014352192
-0.27005362143384
-0.24533401729728
-0.142715516587382
0.0729201539037027
0.450405317981905
0.896216827587123
1.12966223036865
1.0410168548855
0.883545001971472
0.882731508048898
0.924563938505838
0.830374238653482
0.641272694068939
0.457879173623881
0.276680267872248
0.107485318558475
0.0148678367607074
-0.0052041004859244
0.0225995946467698
0.185216945080041
0.536619425394307
0.905152029472354
1.07266606977918
1.04187340100195
0.955408716269363
0.899130461455555
0.897937184374865
0.934754410214331
0.926809956817507
0.831095972508281
0.724399018027488
0.655824036668878
0.547196301789488
0.337856287264883
0.0771187145704995
-0.167069756660798
-0.343695076946623
-0.404405382583133
-0.391897304487155
-0.429865938169168
-0.521240122463556
-0.543341659788991
-0.505575162877743
-0.558833753216177
-0.717608371355251
-0.838730034608635
-0.852621637316049
-0.779026814070359
-0.620866191239793
-0.441140060531969
-0.370121314443909
-0.39993737304753
-0.396852237161862
-0.37212238807309
-0.457485207816314
-0.599966546757656
-0.593611061111177
-0.416018118497617
-0.245006343091593
-0.177787334611841
-0.197825952041318
-0.3256044905249
-0.540638468839322
-0.681575425291595
-0.654686627119817
-0.594681836075779
-0.660949444714287
-0.843529043202781
-1.04276499915262
-1.16044876023306
-1.11110094542198
-0.898730543240731
-0.63096907337866
-0.376418301657725
-0.129483380004989
0.0652400436928784
0.125691211007591
0.0559259956238335
-0.090009861177672
-0.285882224460648
-0.464304888075506
-0.524261812601404
-0.475293077138678
-0.372892021011796
-0.13107313003137
0.324657554297592
0.79795285286215
1.02835502629739
1.0384652501518
0.997020104161172
0.923611714260381
0.776694923885868
0.616348957592338
0.484895580669721
0.345193119326527
0.249153479933768
0.326670269650111
0.548094095902469
0.74736367875195
0.897047452472449
1.10646524308193
1.36687104286939
1.54260497290251
1.56593528834765
1.45299637522867
1.23845755985555
1.02716114685772
0.949191692917502
0.98474997587401
0.998769465375417
0.955830577288165
0.952062983343993
1.08059683536084
1.35760667387389
1.68579378810646
1.86750585089405
1.7881382109134
1.55918030296686
1.36399036004131
1.27881353196434
1.347729375439
1.61685284371768
1.95999940909391
2.0944158924804
1.87051272677422
1.35613542019861
0.661965439873678
-0.0945179239045228
-0.767721588038293
-1.35406760018264
-2.00747664069835
-2.70754637820296
-3.1762066165071
-3.29341670877307
-3.30562229616868
-3.47491642547441
-3.80381990226732
-4.20832903767424
-4.67298463847168
-5.14496906181719
-5.52028628399869
-5.7722372386509
-5.90668564706507
-5.85730251094795
-5.59039113032164
-5.1672034525806
-4.57242349050666
-3.67937150193477
-2.46826743764161
-1.08238018772183
0.324843203391239
1.60928570742275
2.60021611758466
3.23909053850407
3.64966406268127
3.95412044700676
4.15025223718164
4.20824758768375
4.14099973225619
3.99290801546456
3.85979562969631
3.81059801119653
3.7272760698497
3.41576292224474
2.89480677167656
2.32878970020022
1.72584703143923
1.00045567901544
0.244573058590997
-0.352117132988591
-0.730743530205883
-0.90582631662684
-0.875616711999966
-0.736298963209633
-0.639038097993731
-0.532929556332721
-0.214309424828015
0.318695001667096
0.835623561306007
1.20264052492936
1.46521890580955
1.64385112262545
1.72838165496407
1.80703248617241
1.95336826026
2.08501819625881
2.11050632598795
2.06368931408289
1.97462362384015
1.77789171906511
1.41813264079976
0.923204621743885
0.387232258607318
-0.045036164104425
-0.260372895882817
-0.272513238752632
-0.146819131799344
0.0859632098510266
0.309813249662298
0.289862670653302
-0.0587469724808626
-0.545673340728354
-0.978789533549131
-1.34094610193264
-1.6308860183783
-1.80797387755506
-1.92619215738032
-2.06116118273157
-2.15119271028028
-2.13894997859484
-2.13495317722274
-2.24306446454558
-2.40524213584923
-2.54500922616793
-2.63682188713989
-2.5803302646239
-2.28888520026328
-1.92571232803121
-1.74930796075916
-1.72916736620344
-1.62269365815797
-1.38593009544065
-1.17785066771659
-1.01894685975608
-0.770925837612787
-0.41292241002258
-0.100589087384818
0.0003451890654807
-0.16654017298051
-0.496317861964434
-0.769422046474708
-0.854003361792631
-0.813684439683616
-0.752675323900835
-0.681637063160715
-0.572144832827256
-0.390679366280563
-0.0919343548537412
0.283490983113463
0.602432663950332
0.85066048777289
1.16584942552542
1.55794148855266
1.85284182421813
1.98969854236897
2.08205706096244
2.16302597482494
2.17133079292592
2.13357013419906
2.06893036589536
1.85532653307261
1.4703242538543
1.17198793144396
1.19004755540121
1.4407266410497
1.72797403741413
1.99361103267507
2.22851999989355
2.38098059062851
2.46755227777407
2.56164063369993
2.63822345159795
2.64543125290427
2.68010308000628
2.84816626227315
3.02705933980304
2.97981767685652
2.61647326309522
2.01865568264839
1.3338031023127
0.712785763109613
0.238217636477327
-0.103145069695748
-0.348815297555508
-0.556235603805102
-0.860425966787109
-1.37100719346982
-2.03621518690124
-2.75752883248952
-3.53293401575308
-4.33764803324312
-5.03851497053455
-5.55969766196627
-5.90758381142891
-5.96028726717097
-5.53501260484904
-4.69914352365272
-3.69085974213125
-2.56550462029258
-1.25010947010142
0.151573296395805
1.42033668839873
2.43930224145309
3.09087539933377
3.14569917979733
2.51386718763563
1.42940547481049
0.19917468287011
-1.03991225582493
-2.17851879682965
-2.97996518916387
-3.23220154416184
-2.92277861098958
-2.21366323261376
-1.36116979567264
-0.622016834027681
-0.129392331233498
0.0756461008664933
-0.0971584696679665
-0.702391382551003
-1.54421445866858
-2.25617102982794
-2.5834854301953
-2.46306890817436
-1.93264846875889
-1.08372008381855
-0.0119807619244912
1.22088390609264
2.49174596871493
3.56687406866616
4.26307036582687
4.52565143870376
4.3020647300348
3.60657081947443
2.74997267266102
2.14871955100662
1.84817251747443
1.56400134955488
1.16653500776663
0.792546839762822
0.577136444813153
0.587344129970099
0.871824482881196
1.30552812018856
1.56260824389129
1.46168222280896
1.16287812570966
0.898682305855439
0.736567912168146
0.689240517781882
0.780640942200757
0.907742175307472
0.888614960142189
0.708328600187632
0.520911831138411
0.43935855800214
0.501351184182148
0.754637533529994
1.2219553324734
1.8397445214149
2.45724217085952
2.83161022048289
2.73145384919984
2.15932685512718
1.35297123075197
0.534604007242928
-0.161200467756739
-0.573992695207656
-0.619957745017099
-0.46185603444456
-0.32351719825351
-0.2351533915795
-0.175850139271531
-0.297062734861459
-0.797869691446355
-1.71094825469802
-2.85991268797877
-3.84715664022455
-4.20286186368137
-3.86398204755043
-3.37635996514811
-3.30941316697801
-3.64157497708122
-3.99409010493561
-4.20845939382715
-4.37079070740421
-4.50344022816735
-4.56489775226549
-4.60584021794844
-4.69114512386724
-4.79255053514176
-4.86391025609751
-4.84092305454964
-4.53425389802102
-3.75098456100693
-2.53120090927181
-1.08215063118297
0.457770199753767
2.04373200839782
3.6219117631133
5.10750682913001
6.38160069789411
7.30201014077569
7.78958410483967
7.85023717382786
7.50615338751755
6.85309642298912
6.15689420945593
5.68312276430928
5.44983144200967
5.28458017000455
4.98405358883925
4.29877022402483
3.04461657075165
1.42119908421357
-0.0576678014659189
-1.09932636837071
-1.84426136847818
-2.53272426862974
-3.2750583730784
-4.10389545626365
-4.92374821094307
-5.46932718966799
-5.56546012786122
-5.3186844622391
-4.89498099556719
-4.30660905526937
-3.53768858798602
-2.62383592486455
-1.50997838722762
-0.126753434671587
1.30069306931602
2.31791992285338
2.68219553726927
2.49961652236811
1.9846921535336
1.37052074331207
0.97405632779871
1.05412303451909
1.58518795770262
2.26492331703836
2.71417335237798
2.70909296873321
2.31020624790048
1.70090757043733
0.877204900650438
-0.345959961723598
-2.03207864649559
-4.02670894908898
-6.08791813803317
-7.86735279524518
-8.87745437393718
-8.75835520447519
-7.52406141308724
-5.45090262600275
-2.93403541039968
-0.486038030811107
1.48564370528593
3.01299225759321
4.42233427848542
5.8700597250736
7.24591732204759
8.38322806248535
9.1006039204679
9.21671640226375
8.78517663714928
8.17112226806908
7.72451062142368
7.52697653921577
7.51777514898849
7.60737643122122
7.57091791095151
7.07464885222481
5.90590396946584
4.05012944774037
1.62111623635661
-1.11680076191316
-3.80257861657424
-6.21835089807931
-8.32972158677335
-10.0354630740669
-11.1115185776025
-11.46115275587
-11.2344086709604
-10.6883002639388
-10.0374439342972
-9.37778414901281
-8.68588454648027
-7.94499152399415
-7.20371934322384
-6.39910972041286
-5.28873488821519
-3.7412913089775
-1.93187030508592
-0.146642376342974
1.3491108223287
2.21495351575635
2.20118480040002
1.49323801195413
0.556378575728426
-0.343202087374274
-1.15092504237253
-1.70403522236507
-1.75714889897318
-1.19624242857128
0.0200358675882321
1.87481700230194
3.96069883078031
5.41416970866319
5.55712643503788
4.5126007625546
3.02960274759243
1.883625512692
1.53722618825971
2.10487623662931
3.44043727569004
5.29199232502541
7.34711247227231
9.14250629962742
10.1814138078995
10.279291795317
9.65958194304362
8.69689184692875
7.69220188208365
6.78714779633492
5.90578808266135
4.85360681847198
3.55697275787807
2.08352951515919
0.450214525523984
-1.36636962292559
-3.24340327514151
-4.91637474017413
-6.10589502945091
-6.57115957721435
-6.28323948236672
-5.64146094381917
-5.20577525653187
-5.11282269602127
-5.03963977870828
-4.74760527630424
-4.35339687210779
-4.09807009458554
-4.13420448412843
-4.49414216475259
-5.06114733021301
-5.64067023682257
-6.15047997814397
-6.57316976362985
-6.67808639961168
-6.0743558240205
-4.65338748623886
-2.74571427746965
-0.795639068912502
0.889807385543444
2.13008082536849
2.91053848404066
3.40213260261973
3.73536257180706
3.82761028825039
3.53592813787371
2.84391547015263
1.85913705435448
0.779528726307187
-0.1287820939771
-0.609289568237189
-0.449288592701784
0.481486582632403
2.02501681324102
3.6716158197457
4.98296395947472
5.95380845924789
6.6706225970227
6.84973912534458
6.11838142314871
4.58976788283441
2.80890399445628
1.23850507391585
-0.0161380681904563
-1.14627283821672
-2.41988375331192
-3.8687877451178
-5.18018102485576
-6.00953294034299
-6.2856925738438
-6.09694959595191
-5.49175224521158
-4.55370025487533
-3.465824856568
-2.36349710787305
-1.32844710500265
-0.57999625267216
-0.368921428673396
-0.605439363830379
-0.896340255898832
-1.02245034839752
-1.1345386576727
-1.45625325639529
-1.95723777296188
-2.28310292522912
-1.96888040412163
-0.872278989745825
0.59931442060843
1.84903383404781
2.62743923026349
3.13644112083962
3.8265349395541
5.20806256429033
7.53131835931487
10.3942033084272
12.827400248444
13.919188251526
13.3422477603719
11.4257282736665
8.89972276188712
6.42328741177897
4.19138213439786
2.09198089447535
0.174448832710757
-1.33172277602913
-2.3598625046788
-2.9784642779191
-3.11956714652606
-2.75566059790601
-2.2812003460967
-2.30032743987638
-2.99640877084422
-3.98054640489132
-4.78580042755843
-5.34346684592788
-5.97516629346669
-6.98757866400059
-8.25454887916677
-9.28057067676389
-9.79152858906768
-10.0647108611676
-10.4435608248946
-10.7546470015889
-10.4857332063578
-9.34774491461247
-7.46363672286318
-5.22007752651434
-3.05681495238743
-1.1864448562937
0.520181018854017
2.18379552891181
3.53320264365355
4.13468155563971
4.00723559100745
3.86186448973046
4.67021633835629
6.85861626126638
9.74380528911369
11.8616719677288
12.0831679823415
10.4236918201652
7.81148238392272
5.34056945927956
3.72661448549205
3.02960664089952
2.69657708820275
2.07084981322485
0.898374128819338
-0.721492581180503
-2.59226115529066
-4.38413979189892
-5.65765043590096
-6.25581488503126
-6.45025339086822
-6.46297506527487
-6.14039921360016
-5.350282213028
-4.38094776468331
-3.66857385556913
-3.37125777859872
-3.39859045699596
-3.65841491851073
-4.1787384289797
-5.08859488036933
-6.38125788739716
-7.58809393769669
-7.88855530521925
-6.69526489919004
-4.03278712029227
-0.396522585195702
3.54767081894553
7.18856614070727
10.1172494823581
12.0777706014084
12.8157091239024
12.1814239290352
10.3915871389088
8.00718220450969
5.68526224140147
4.00507776364618
3.24406346066326
3.13821083357654
3.1621132726534
3.2104322975143
3.70938780473135
4.98529508590032
6.85248976918773
8.84865415480014
10.5629505392808
11.7361049860564
12.287145708229
12.2245085775967
11.437417678609
9.75357570269594
7.28588646416261
4.43250779142453
1.40208656872744
-1.95087641640245
-5.68635977163719
-9.48554491494757
-12.8989908212223
-15.5998189245925
-17.3440375101325
-17.9524382173528
-17.4046141004613
-15.878933738995
-13.7970720641989
-11.8360412670823
-10.6321478317122
-10.3179758475377
-10.4285906408207
-10.2864236002014
-9.48005378274517
-8.09524199921916
-6.50369472845077
-4.8128577960839
-2.64107971256604
0.34668785622323
3.87365008896663
7.31096655527967
10.2312895890167
12.32093683793
13.0395015054921
11.8867917822539
8.95296511307908
4.94923657481629
0.817645100462936
-2.58219825998235
-4.69536069893579
-5.46661882091363
-5.2913578897944
-4.7207610295702
-4.21656594085046
-4.01817944907286
-4.02414092973363
-3.85688414881901
-3.20222458610678
-2.03677186313994
-0.490470905352143
1.33171245278761
3.33716560572725
5.41740852946999
7.41043208749387
8.94537765351941
9.46646002638289
8.66563550057201
6.88749902897015
5.00379825134624
3.8425476244647
3.58773839219006
3.60181444860716
2.95272718524644
1.22693463296216
-1.24994897564701
-3.86916567012183
-6.0615615927702
-7.20940271970668
-6.70725467916664
-4.33052046715992
-0.446061964567342
4.08718557019455
8.17096507061775
10.8945899735515
11.9136867992976
11.3145245940007
9.24723247444059
6.06021300978849
2.6380107169488
0.0346031537610606
-1.33442521592261
-1.85263674615833
-2.14428095974145
-2.64086725409107
-3.5190551451112
-4.66703920731327
-5.73684786939341
-6.4441848289675
-6.71679633395422
-6.44484969399114
-5.33397439936348
-3.16930152911256
-0.0700083229274737
3.51868490917304
6.88118899613423
9.15557974403049
9.69128671778346
8.39641781950697
5.76843083620643
2.63174369627985
-0.331480561016029
-3.03197328516319
-5.8846391207811
-9.14061701145118
-12.4582614167447
-15.212948733938
-17.0145683482217
-17.8853387866293
-18.1800412648381
-18.3174282788167
-18.3257717725428
-17.6866584756985
-15.7944245470235
-12.4241677509233
-7.67392040989149
-1.77690949440277
4.88054880785474
11.7969676894871
18.3714269785678
23.6188644312244
26.2118023364511
25.4784728215871
22.2933120527815
18.3868822246363
14.7857678644845
11.4337625022244
8.25959077249639
5.96285742456777
5.50948106768352
7.11749968847624
9.84796454113786
12.1440503114411
12.9014559428575
12.1391510054218
10.6220747575651
8.92919041723592
6.98193651376002
4.30850736164126
0.607741658741172
-3.83684020117699
-8.20080311619492
-11.6191841312107
-13.6454248307516
-14.3004660635999
-13.9623864873794
-13.2768623117212
-12.8393875910783
-12.7789464280513
-12.804909465383
-12.6523109428565
-12.3120623238256
-11.9389339860441
-11.6610590338119
-11.2430345227192
-9.9076483560072
-6.98821684334778
-2.93067634416278
0.832370216228225
3.18847350912355
4.11890912413565
4.11109637064895
3.35507436082834
1.81711053775613
-0.213348983486456
-2.01115826661201
-2.94236688799156
-3.16194824613087
-3.76312213652386
-5.94971983513017
-9.8546864461361
-14.3202214336627
-17.9078798586002
-19.8838742914192
-20.199796589275
-18.9250630965972
-15.9949402666454
-11.4424832444101
-5.72047619225935
0.337194174411203
5.94880242042889
10.661613148007
14.1373914150439
16.0021912064018
16.2393247845011
15.5457055229423
15.0071965193546
15.4738745520755
17.2150073774636
19.8064307692649
22.2441371944783
23.5201794481699
23.2867748006258
21.9059749139154
20.0005352563127
18.1034757845674
16.4763823291253
14.9940507842544
13.3353395285788
11.4271558595155
9.60600394716554
8.3422372628122
7.90046215718244
8.14298232185288
8.5026384502885
8.28775547732669
7.1823697942697
5.33970592594281
2.9696826726803
0.148239536278546
-2.87886052931993
-5.59223497331644
-7.59402763683293
-8.87105125284578
-9.64314683940298
-10.2163555183737
-10.9044054818526
-11.7757542510178
-12.5565050780142
-13.0761164936238
-13.758245686614
-15.4018959582262
-18.338149166859
-21.802510480436
-24.2863016595447
-24.7373766296214
-23.4014311831731
-21.3207834896347
-19.2308925136683
-17.2960164655067
-15.5586416797333
-13.9366581375554
-11.915115653878
-8.98166581205929
-5.46318465218011
-2.48368631973857
-1.05845604296291
-1.40255199846843
-2.88230271588627
-4.40037721967207
-5.03946471381131
-4.51329851427772
-2.93451731949519
-0.364184128496725
3.00659558012219
6.39140957885229
8.73019702308825
9.6470903111721
9.77979978668562
10.0800625601871
10.9734992218339
12.1270640547694
12.7807736653786
12.2974454666347
10.5412015608012
7.83749995133352
4.72135971192527
1.77528777462466
-0.511849965020059
-1.87587641466499
-2.13435964556139
-0.915357621288393
2.21922640699232
7.32926926560539
13.914910226503
21.0637531257573
27.542439748755
31.8417667830953
32.5117134354686
28.8639229312596
21.7144313122665
13.4476603630448
6.7821473381345
2.94141763057997
1.07835753812675
-0.463552254890825
-2.67901285239026
-5.64382993673096
-9.00720511413259
-12.3694422537714
-15.5136409494976
-18.4404254188833
-20.9472449165843
-22.2659500102228
-21.5090945727627
-18.4310690461193
-13.4345776588405
-7.04282314479212
0.122941471624523
6.95785883071794
12.0534691610458
14.4536468443949
14.1103159926967
11.7548438679426
8.54134710808188
5.62243400060452
3.70741832127197
2.83456023282039
2.49368793513132
2.04210867393641
1.22224403271579
0.324480888101876
-0.30274283185356
-0.8701621377352
-2.12611555312925
-4.77654582246753
-8.96192666893301
-14.0673503668378
-18.945851805409
-22.5854147721066
-24.6946772959286
-25.578723343018
-25.6557338849132
-25.2882826535406
-24.6439235397029
-23.2623525482156
-20.1670908513133
-14.9964920428166
-8.8226397866504
-3.40111878427894
0.287222972634292
2.53594132479437
4.1911602733322
5.73536263066645
7.08875126452508
8.16218486054676
9.34109004751632
11.0561131169906
12.8583708411488
13.4512703789591
12.0011683664008
9.14788399008167
6.52608435705273
5.61759079113816
7.14876034778858
11.0380973225761
16.5039044132156
22.3419048922177
27.2854324323309
30.2935914785482
30.9395577665473
29.7614035197608
27.9170669570808
26.2153481334768
24.5791232307712
22.3972361254718
19.1116700758508
14.5437897324266
9.01757010429864
3.19184122564853
-2.41572527379585
-7.6841920868223
-12.6291381433276
-17.1189598633236
-20.9680704808796
-24.1575320146378
-26.8640687955076
-29.232175621526
-31.0040742585314
-31.4491936980861
-29.9285607649783
-26.5100327036504
-21.7797145033125
-16.1817410847418
-9.95919790728965
-3.7103346291418
1.48671136716228
4.74517218203147
6.05523480103531
6.30532119033906
6.68846019461775
7.86165672799569
9.4055644526879
10.088518811682
8.70074561555823
4.74108858935823
-1.232765590591
-7.52059011444045
-11.8972360219957
-13.0150217638964
-11.4318870478284
-9.13913378021492
-8.0020329161444
-8.49744820264579
-9.68434005424143
-10.268907852366
-9.69310661397301
-8.202336871142
-6.12509531316014
-3.51331332989384
-0.448699407266185
2.74299922060096
5.64961727449214
7.88285989754768
9.20120567679776
9.90199153933413
10.896326297192
12.9717771854519
16.0730334326674
19.5046184930141
22.562048324003
24.7447206659352
25.6543983809448
24.9587712820957
22.3742495675496
17.7504238921334
11.4487109322242
4.54437874214954
-1.70764210069561
-6.57837542136994
-9.84292171662115
-11.3637031779139
-11.1312380387182
-9.56852122464689
-7.42758617928055
-5.39325908726948
-3.86629515370191
-2.96503403442321
-2.61561208483827
-2.66764165961314
-2.92271443708476
-3.14397939326275
-3.25047913981234
-3.49986496192148
-4.29967901437378
-5.82855627067924
-7.85246226359975
-9.73251970710847
-10.6606955862079
-10.2918247807519
-9.20558029203518
-8.33087649667046
-7.86632329282458
-7.1874248762488
-5.82265768821073
-4.08931234682837
-2.72366087998549
-2.16371906488473
-2.18299285856069
-2.12959261151575
-1.65295060278105
-1.13975920606185
-1.1456838051681
-1.49962259592054
-1.35454840005979
-0.008923663166264
2.75512282947107
6.97431387871869
12.4990650192596
18.558275317943
23.7349655988468
26.5689965390789
26.2261919737063
22.9107500180458
17.8598116349443
12.6463386224619
8.16198901549451
4.28417019607983
0.497571785753255
-3.32802535095976
-6.73306208485662
-9.09299806927625
-10.2661975476646
-10.7981222142859
-11.3508240031237
-12.0154830678323
-12.4003276357376
-12.2752956300975
-11.8099118070045
-11.1708838589295
-10.1370949911688
-8.25308641558199
-5.38578192400502
-2.06494472064177
0.921175992542993
3.2353693215941
4.89255272412
5.41476228008734
3.74644492625574
-0.575803396588036
-6.52052061830843
-12.0991839295245
-15.6140348967403
-16.4763043086262
-15.3513191817866
-13.680542849911
-12.6405326519589
-12.2293915515082
-11.3588960471929
-8.78382709570008
-3.90661636566582
2.9759570734598
10.7985468795146
18.1540194936871
23.8724005917068
27.2618407404678
27.9376606960454
25.812334946712
21.4307960201401
16.0652702638193
11.1580219856605
7.50599526056027
4.9615503874564
2.98320567590665
1.41501471984673
0.495392756271244
0.138929738358418
-0.329507331672122
-1.50614201480517
-3.30798323646985
-5.22549727447684
-6.85523944820704
-8.03115358309965
-8.7398031620211
-9.07688393130342
-9.15958970368969
-9.0948432872917
-9.04959508964507
-9.06130194807962
-8.69328328095442
-7.31841836811833
-4.9544333545396
-2.39753559524332
-0.288226521934884
1.56071517594089
3.64194995437445
5.90726069948369
7.73608938954519
8.53235005258366
8.18373480305595
7.17517060155327
6.40747027878074
6.66605301140384
8.0066214451617
9.62205054214952
10.3868656356097
9.682184226044
7.8175993701589
5.62237560259021
3.63288111351419
1.8284954345843
0.0993498942958916
-1.36131121130069
-2.22256777987581
-2.37057690622505
-2.09555239639952
-2.05098145852997
-2.83373134303672
-4.3579121986428
-5.82029000925076
-6.53677346042651
-6.72598623587622
-7.38748819197074
-9.49133324500421
-13.0955740460491
-16.9372054222692
-19.061988083957
-18.2686774127856
-14.9735473092527
-10.6556144510445
-6.79899981373127
-4.44183547600845
-4.11956437022105
-5.62503205503159
-7.84259666294586
-9.16052046129119
-8.32900067391809
-5.21094353554351
-0.937422375993707
2.76201848854664
4.67564507999569
4.72639305833774
3.64681123815687
2.34315826197401
1.5742577051285
1.80040236853769
3.07767324021006
5.20985978534921
7.92699472190729
10.693526829906
12.6012035911472
12.9653418097858
12.0530971187414
10.9199671685535
10.5240558639598
11.2112317680903
13.0259585306894
16.1536947577833
20.6185889224161
25.457524287282
28.7178502471422
28.8797232796261
26.1556984533311
21.8960919572313
16.9223746113716
11.077002483564
4.27957529264268
-2.68177959737691
-8.52524490328273
-12.2561666910525
-13.6086194955338
-13.0736439171254
-11.5625963867843
-9.91397481395615
-8.68963974026973
-8.32098301329586
-9.18359444201955
-11.4593599340817
-15.0530491715201
-19.6119585444527
-24.5277287399569
-29.0750627119982
-32.6937987178976
-34.949184469062
-35.1551606743311
-32.4604694923398
-26.6574213346265
-18.7531683675056
-10.4717838318701
-3.12076764479744
3.04654898097179
8.34559082722444
12.6590167985733
15.2699472476003
15.83325445874
15.0248336194585
13.7865380056977
12.2947360094265
10.1807591641208
7.49015223698222
4.91294211102266
3.21587042865243
2.82036755112098
3.79662057094781
5.90607289143462
8.55171909510858
10.7782754365251
11.5549433534845
10.4167352365148
7.87737697693867
4.88230683905442
1.84022988560691
-1.39959443229077
-4.64553248764599
-7.06166756452632
-7.99516263466062
-7.63256406612902
-6.55165384637415
-4.95664370812555
-2.62569881155179
0.56573665109577
4.23961265801069
7.60904747219059
10.0456474274791
11.5810409012784
12.6545714794208
13.3792315452881
13.3792139109886
12.3626225937135
10.5036054325333
8.21867374783843
5.845088859005
3.5727844083587
1.52162435533343
-0.146037586896053
-1.20030588908577
-1.50699372379508
-1.15510794184701
-0.362961492083342
0.587407523376715
1.32826765260913
1.65073099432431
1.77850808041022
1.94749168674961
1.71522292658697
0.301999963673109
-2.23375218389064
-4.72192603431698
-6.00759682992006
-5.97518456804664
-5.34530945809048
-4.84453788046008
-4.76119778725205
-5.06367308580481
-5.68900023260867
-6.62561249727995
-7.69328236062065
-8.38097968343581
-8.19642115526325
-7.24318066779721
-6.20360588625307
-5.67188295645489
-5.73882048977607
-6.29529098175451
-7.44083710880621
-9.30881522738364
-11.5210544292018
-13.124145170662
-13.3528422015942
-12.3307021207797
-10.6457201220161
-8.34554411379463
-4.91013304883285
-0.278729762909855
4.61888246053902
8.47859717737788
10.4116452498279
10.2087935338729
8.34176654201381
5.76841890922688
3.35708293917948
1.36345253178407
-0.487488617564478
-2.5145404771286
-4.6300296733405
-6.11898315798715
-5.96325668180022
-3.74929837054857
-0.220443926592005
3.35396154832678
6.31512462281128
8.98507760448685
12.0537923772679
15.7145003135372
19.2891089356913
21.6884027411424
22.3280545347865
21.4953029482017
19.8012018750793
17.6478772173554
15.379758070408
13.3693408332048
11.5065389331016
9.08217753636027
5.677426718857
1.81727592322805
-1.63568051900924
-4.41030611807998
-6.90893786616343
-9.71729246976291
-13.2339108935378
-17.4707706791067
-21.9595207544171
-25.8735526327045
-28.3047629200024
-28.5796312111152
-26.5461937390798
-22.5494907045042
-17.0262301052293
-10.3549518664847
-3.28515151640979
2.93322384636428
7.36237500886181
10.1531950291244
12.1522120008311
13.8430000041943
14.879049547366
14.5789857780016
12.8209622875956
10.4528636925586
8.62378471383212
7.61954850279473
6.65668870876573
4.94134721221825
2.52366370683659
-0.07427072992643
-2.56904220317913
-4.87571945360144
-6.73676117205204
-7.85358389891172
-8.25743369516979
-8.23268126367986
-7.8803534769706
-6.93273231112754
-5.13825904551042
-2.8769763107272
-1.16082369692554
-0.690086619521131
-1.02608637307931
-1.07631119811042
-0.322960928408177
0.757826297977815
1.35969248945528
1.09358365842488
0.222708007699606
-0.511013778113059
-0.361979637341607
0.87034267566107
2.71314944816786
4.41409791014543
5.4229106411479
5.66650960049871
5.56189039406786
5.67365486206035
6.23509789658059
7.0682771342504
7.90173467736605
8.56095480907
8.97635179991491
9.31549774397382
10.0082170363796
11.2734091031762
12.5514103459143
12.6147544570399
10.4171380031107
5.97566846089927
0.508127205634964
-4.46980777321477
-8.45753519160428
-12.2955786499778
-16.8766610950925
-21.6649772594216
-24.9508449905719
-25.5505046221237
-23.8299311077427
-21.0855210000876
-18.3950470825218
-16.1381446051165
-14.1070030732006
-11.6597843862721
-7.95454162384666
-2.58578484777773
3.73315534408901
9.35771659549405
12.8472698712218
13.8618403118083
13.0071243309143
11.2412264955095
9.54775350825755
8.62213052015049
8.47739976833722
8.59193461480123
8.55296489036508
8.27535992516308
7.7382326633972
7.07369233551773
6.85154046004152
7.64787432447438
9.23296870271723
10.5741794135193
10.6723388057188
9.26372095471139
6.97846192836833
5.02744416332546
4.37159456229548
4.84433285182147
5.27402381318698
4.67042477116514
3.08718967367637
1.21324778237605
-0.571816256398069
-2.52554760924955
-5.09554497978764
-8.30595196434633
-11.6417376581321
-14.620705959272
-17.3377823866153
-20.1386948782699
-22.9144642245487
-25.1804583490074
-26.7031806313072
-27.482753182651
-27.2127485582983
-25.3696708740824
-21.8895369223663
-17.3282984030274
-12.382686471076
-7.6756859250908
-3.976977479623
-2.05231753887683
-1.8938664795135
-2.27010518496788
-1.45255307476668
1.44529882588472
5.96140671063057
11.0553573647096
16.0597917502459
20.847354482918
25.5048996000709
30.0210000037723
33.9437264949951
36.2651680105138
36.09015899893
33.5894182766417
29.9685263341336
26.4262434295418
23.4513656134083
21.0842069988092
19.3498622539504
18.235015191438
17.5312519225105
16.8313758063537
15.5465625952806
13.0572208031455
9.13215614289142
4.13792006564563
-1.32673800230979
-6.86118541913775
-12.2507835701212
-17.2822416691349
-21.7287781927986
-25.4037772503123
-28.1813313516595
-30.0277959216756
-31.0399440004036
-31.5345857839982
-32.1059312157813
-33.237876845553
-34.5656058489106
-34.8423416399376
-33.0252611384462
-29.1728339745867
-24.0699252334744
-18.4267624605431
-12.7462041883581
-7.46338110732621
-2.77476475293679
1.39054454378559
5.0003217986806
7.80645821477409
9.7819643935139
11.5014953644463
13.9861989324671
18.1017392235568
23.797362528118
29.7319540856175
33.9149222824365
35.0420501097735
33.2119380512193
29.4266890537667
24.7526784072774
19.9221819413078
15.1143048566694
9.82715657483648
3.41951365399872
-3.8294779260467
-10.3541469629594
-14.2499175624003
-14.6586682977968
-12.2262116920472
-8.21033472593498
-3.30136885365002
2.33009940481129
7.80103879583939
10.9743724877187
9.78183239026793
4.06138013983607
-4.18590293300362
-12.2791363104196
-18.4639736601706
-22.3552174474682
-24.3212240603851
-24.7224648724317
-23.6854553393761
-21.352368115715
-18.1938889361348
-15.1887212912376
-13.6700807976883
-14.4809651648132
-16.8486689706486
-18.4103677963472
-16.9562191195867
-12.2446417797218
-5.88101946746756
0.498099972670846
6.62192235428894
13.2045785773384
20.5181414611843
27.6103345968695
32.9523480238649
35.6694720494983
35.9191114927913
34.2043120790399
30.8284010130332
26.1558626978971
20.8424072498067
15.4209904764293
9.99046674124994
4.57705656452666
-0.49744687024511
-4.81937871142674
-8.2390635863617
-10.876140417537
-12.8154089023572
-13.7617855685064
-13.0592208454978
-10.3343957815697
-6.15397035283701
-1.73934928010722
2.00267957354866
4.89999752587565
7.06043842671282
8.38796541966874
8.62134107561679
7.70862633449415
6.18009427192152
5.10181629113244
5.3657758200182
6.93576712256563
8.9091201699002
10.1751692098037
9.86104789157712
7.48888474091219
3.12827883404694
-2.693404085968
-9.44012988222422
-16.7725906903608
-24.2095156839248
-30.9034269567824
-35.9661736320488
-38.7754226633809
-38.8334826797642
-35.6895862594727
-29.3450488641853
-20.6922487908873
-11.4036040513857
-3.24378113797319
2.74865290946409
6.52237198463113
8.39467364938712
8.28328873474321
5.85109344671806
1.44406713049364
-3.38462282940692
-6.52359498696448
-6.68064563653697
-4.31825128865421
-1.18506463476127
1.25663133187597
2.91518764856106
4.62975057921849
7.07977495905213
10.3433403250684
14.0358731313312
17.4812098155341
20.1270828648034
22.1686144989275
24.4258021773196
27.2359249080124
29.6647887643807
30.0973136460762
27.5984765639815
22.6659932468427
16.7328529523349
10.9859114506594
5.68681317421871
0.604946731733058
-4.11703977128826
-7.7822867471624
-9.7591101984834
-10.0631100155844
-9.38865501133672
-8.7387399747527
-8.81356589392701
-9.43613728851348
-9.70003539972938
-8.91977559640138
-7.29505906875595
-5.58397668785073
-4.49944732967019
-4.53753754566819
-5.89124425702929
-8.18702641956044
-10.5527363969875
-12.1950363250233
-12.8175715056754
-12.4023429339733
-10.7324887148162
-7.31424317410595
-1.87037033845646
5.10901310182494
12.44573533189
18.9519221756087
23.9231778707269
27.0163904590068
27.8990863288155
26.0792662803499
21.0373554020644
12.829228142927
2.83726997249546
-6.46458288940005
-13.0728389979646
-16.8043777386263
-18.9424295782458
-20.7864949919019
-22.7074780291386
-24.2210911861292
-24.604645704675
-23.6210856607797
-21.8718360618104
-20.3101607469898
-19.420575051957
-19.1616194768024
-19.507565478563
-20.3704648167219
-20.9458784907436
-19.8337087579881
-16.1355084957136
-10.1500756754608
-2.9075772526408
4.65339806875711
11.8747628388171
18.0077526502894
22.1364953217203
23.8077663960973
23.6116416182085
22.7615696203746
22.0375307178833
21.3143857611871
19.9808400663681
17.554312865685
14.0953130885323
10.3516340077608
7.31563441230355
5.39808453841794
4.25677980640156
3.49199022314102
3.03749638201409
2.74169865793494
2.11571793722411
0.77663993564712
-1.14780428811167
-3.09952031221188
-4.27885721727634
-3.86699234354755
-1.53931915288039
2.09822288846554
5.74806138021896
8.10953402343696
8.39633158600899
6.61471419467045
3.71144356883987
1.30211502476991
0.874523321055899
2.97853663459803
6.93293390786282
11.1651919580044
13.981269766364
14.277780661915
11.7798658869171
6.96639754691852
0.966396999050744
-4.78402042626517
-9.17251615236302
-11.7019085851345
-12.1703814228085
-10.3982398738842
-6.42867017180454
-0.776298445299809
5.61991520002667
11.6009102882099
16.1048296344968
18.5232175854356
18.6881863780567
16.5298592681502
12.0867895542034
5.86986826584033
-1.23052087291446
-8.4508681711144
-15.1908595422944
-20.6985356343161
-24.3238115369247
-26.1354409187482
-26.8939785680352
-27.4720069162931
-28.579267275434
-30.7153953310322
-33.7831616588308
-36.8204379331606
-38.5995862585868
-38.5010102270569
-36.5582302720265
-32.8998600969702
-27.6034628940775
-21.0518639428027
-14.0336583496389
-7.22962293332375
-0.553824796135587
6.88262099965014
15.9619390362809
26.6086058408239
37.5523277385603
46.8765783979408
52.8963226945941
54.903839974163
53.2323430528791
48.4919888361585
40.9688852926501
31.0951499263315
20.0801896698297
9.34555026829127
-0.481144013336657
-9.31712990737316
-16.5554877164405
-21.013407518153
-21.9881562708874
-19.8675494664995
-15.7073631905671
-10.5968495473928
-5.50790872325244
-1.54074456896541
0.0114995866474189
-1.69950901064146
-6.12793601669295
-11.2910658186341
-15.01537097409
-16.2111613426915
-14.9209077827981
-11.5309030574691
-6.37536413707202
-0.0593310844356752
6.21790107612573
10.9834455770076
13.3556179587388
13.6843455581702
13.1358778999979
12.4058948400241
10.9770044561454
7.91013267305016
3.30151941628382
-1.2616936279473
-3.72037860583659
-3.00778036215639
0.370263663790345
5.04854936774348
9.91267658644435
14.3910267469238
17.9623477670489
20.0264132199017
20.5017508807525
20.1370181723892
19.8328050682476
19.6548544319726
18.593989322948
15.3657557430704
9.66103543298474
2.68445525999619
-3.75808810407952
-8.71506692575571
-12.4053667198655
-15.3041155315263
-17.4741085283974
-18.7918385362821
-19.321707232728
-19.3648727517966
-19.4137415687418
-19.9708433991994
-21.1121616018722
-22.3246365561365
-22.9441622443227
-22.4816584133479
-20.3883089535311
-16.0751742674085
-9.64832807086796
-2.28405157557268
4.58420812232312
10.3338437837018
15.2028080954323
19.4240760684477
22.5040073499052
23.3922570735563
21.3627386848063
16.7058816543751
10.5878297192699
4.41063765240416
-0.669591478015425
-3.96905374388608
-5.3938018992369
-5.4078770989345
-4.94294634313264
-5.33512741145145
-7.90230801441818
-13.0572017917721
-19.8744411949544
-26.7396589857623
-32.2265627470891
-35.3036364350455
-35.3177736117736
-32.2963605283393
-27.0796775916043
-20.9088276933394
-14.9412337412357
-9.97943803430494
-6.2083805094869
-3.15508738519528
-0.26029577490351
2.49097240871558
4.82680943507344
7.03490280038046
10.096539145894
14.7719911429959
20.7910034235898
27.12569976403
32.9151379575012
37.9468088186458
42.3253138228152
45.9669450314877
48.5607355869856
49.774857411445
49.2327116294552
46.5264010978323
41.6963458326436
35.6235031446383
29.499669139227
23.783282156132
17.8746705549479
10.860030227244
2.46281044613737
-6.70846453176567
-15.7099720853192
-23.9317025093813
-31.1491064028824
-37.1135161037798
-41.5786264017393
-44.8400783489923
-47.674978866097
-50.3651623476607
-52.1336551651338
-51.7882009980988
-48.5551190361222
-42.2042552805689
-32.9966233249671
-21.9134692055387
-10.5558020182984
-0.309979347684835
8.52710570126786
16.7415356056002
25.1453553112017
33.2299830402798
38.8554906176289
39.6905456204429
35.2632597955664
27.4899816715448
19.1280604432984
11.8748957101863
5.9003340432429
0.802752662093123
-3.29471678456579
-5.5976118883713
-5.43426931316014
-2.9931027481881
0.760186561583076
4.59644264246191
7.3241856260913
8.05534197797344
6.67329755092175
3.97920995039038
1.17166833420194
-0.833871715817946
-1.80857649299201
-2.3096605299411
-3.18902104000942
-4.54923342073333
-5.38513192814323
-4.73006558050165
-2.94195856689257
-1.44397939567155
-1.4690440223568
-3.37165208135497
-6.71262770139254
-10.5171322098376
-13.6635657831151
-15.3553536044816
-15.2097051160556
-13.0979337017452
-9.41462807013691
-5.50577905621252
-3.19863591023157
-3.50565896508654
-5.88296684836496
-8.76956018065224
-10.7113603258039
-11.1297903240984
-10.3425305572761
-8.95564392506788
-7.29588691530802
-5.52766979112105
-4.06817221137271
-3.42321685450468
-3.57720646956003
-3.84423466084944
-3.3772747320815
-1.6904431086705
1.25366278946838
5.24622146389854
9.94657508151542
14.7583175119307
18.8184428136338
21.4991819136005
23.0034249458349
24.1691087287085
25.5607299709731
26.9559736204268
27.7734337952924
27.7712531149501
27.1884674298373
26.2454605385199
24.6175364857089
21.653367118464
17.2868034186969
12.4057066926815
7.86667293581296
3.33629179987551
-2.32198432104648
-9.44167498999916
-16.6987119207885
-21.9432755734648
-23.7260615179771
-22.1805454629131
-18.816192180706
-15.4921862456165
-13.2688024521141
-12.0223323146786
-11.024275964786
-9.65366278693805
-7.54905026017031
-4.51101047673354
-0.649338800905849
3.41131612986306
6.71012408924622
8.49866122716144
8.64959230918826
7.47744114889351
5.23525537310161
2.01923800037082
-1.85920866466373
-5.77720967713645
-9.20513980632125
-11.9866693235007
-14.2567848826396
-16.3623292649774
-18.6681720095052
-20.9415804747308
-22.0296611238142
-20.6896434144988
-16.7985110033659
-11.482610698857
-6.25910402143794
-2.37097559928424
-0.586679772675267
-0.935351610634234
-2.47738658804753
-3.7268281945707
-3.69211359335838
-2.69029237764137
-2.12697010332122
-3.23000257042982
-5.70314627798456
-7.57542771018485
-6.53492939289013
-1.63030496323772
5.94400383888729
13.3456733918331
17.6392382020212
17.695387962859
14.8445691789963
11.2809304721107
7.88945009782436
4.17896571223561
0.126932065443897
-2.91029849502923
-3.50735439338474
-1.79975799871838
0.708217944206863
2.77035344485521
4.38217752037528
6.12735045756594
8.11001157849819
10.039328586793
12.0845780529254
14.9326031149896
18.8915714000336
23.3742204701889
27.2877485654384
29.6086142170461
29.7438480615901
27.7510226428005
24.133132783638
19.2731594418106
13.3965533642383
7.16298642233077
1.6916850857418
-2.26740985241504
-4.69715835280183
-5.7542868258445
-5.59197397690965
-5.04901657561698
-5.72115377436423
-8.64209513803816
-13.1978607742294
-17.7942864028366
-21.3013890882789
-23.4606267835073
-24.2494426649484
-23.5378067652876
-21.4933646312837
-18.8317246619746
-16.2574255377146
-13.8742861928968
-11.6088229073262
-10.0306239805597
-10.0202468962761
-11.4734239665226
-12.949152294618
-12.8527028637086
-10.5569650879725
-6.33776586107899
-0.891589433473798
4.71589175859396
9.09806763014739
11.1678824682466
10.8936225965312
9.30234566092636
7.53732522553357
5.85292096329834
3.70864459144503
0.930667464586361
-1.52623056992879
-2.26386015795584
-0.794606648022929
1.88537571828926
3.93702990473932
3.96010863685551
1.99919523391673
-0.593688243509076
-2.40621439285207
-3.00662448087548
-2.77233931204455
-2.21634114992702
-1.8051746572112
-1.81759885871508
-1.71834239171596
-0.141395801315165
3.63706459542789
8.29413128197185
11.2065885109745
10.7988126197166
7.97191785686392
5.22501148610319
4.4668179115526
5.61745426055422
7.14744491583156
7.69734597565132
7.06122885705518
5.97698837440845
5.40266477846572
5.8080828190978
6.73268767439771
7.10534379447734
6.22344828670779
4.21904532805782
1.46393268836829
-2.04184502154365
-6.44399608001653
-11.556647928942
-16.841593226107
-21.6840604731928
-25.6616785971242
-28.6681607056229
-30.6408423255108
-31.0654608661057
-29.0423918062332
-24.1279157428444
-17.0419497516398
-9.34262639148102
-2.2101090870578
4.60002226405775
12.4372893928267
21.9624845251813
31.6100500789964
38.314862440749
40.0048347370757
37.0854170373852
31.5535485998774
25.4238093438891
20.2482687579774
17.1871635906938
16.5309033062388
17.1772082398227
17.1574475512742
15.0621110366046
11.1102332955681
6.83673139439462
3.6104570992059
1.40086738532633
-0.97436046831766
-4.51194818323496
-9.11174391353503
-13.931432814902
-18.4294584440719
-22.8989805113144
-27.8586473043338
-32.9438405542924
-36.6777910645384
-37.4931500549318
-34.7470339603223
-28.6913945089566
-19.9992474772839
-9.70193926450182
0.806548189270305
10.2136280442618
17.7765070432828
23.4159834469367
27.5940008509371
30.9940930080758
33.8190798456909
35.2929534332536
34.2757868977768
30.5846892901383
25.4786183472119
20.6708855668968
16.9190119469756
13.5728530639046
9.39310305219327
3.68332109724204
-3.56717524553548
-12.5457001461114
-23.8626549501623
-37.2846268853736
-50.5959494684749
-60.5316350016878
-65.0262070084206
-64.4374978618385
-60.8674216668204
-56.5250027581033
-52.4008211655407
-48.1170850855176
-42.9088783676107
-36.4464059255107
-28.4729522662004
-18.2127109041568
-5.02923401914164
10.2868095946197
25.5041611962349
38.4230979780068
48.1311652736761
54.9097506515553
59.3895018494764
62.0221834415337
63.0237211721117
62.2296525123158
58.8295230172639
51.7904630679376
41.1739115429341
28.9491129455658
17.9469508710025
9.79114131934709
4.00268802071057
-0.957353676918072
-6.08673556477573
-11.2217029836459
-15.5588183726207
-18.5211357818175
-20.1497471403621
-20.7499311171854
-20.3394596502905
-18.6454964423348
-15.5510924367221
-11.350593299512
-6.71221561297313
-2.562373861821
0.261496102297769
1.54008860866392
1.76006724973525
1.61278179086633
1.59963920653059
2.0705995369176
3.24023843440947
4.9954489505906
6.88175887646741
8.41848545932951
9.45902341956764
10.2966121894829
11.3105479491164
12.3216274986813
12.4344534089466
10.7309977150395
6.92298317075593
1.25089517240153
-5.61101240337796
-12.0738408683393
-15.70627800024
-14.7769482918287
-9.96731832875978
-4.30848571886186
-1.26991442222931
-2.64469581565936
-7.7688606086328
-14.4056837224767
-20.3364090829421
-24.2222568555588
-25.3779658258439
-23.5415055290222
-19.2858410597533
-14.1060612447183
-9.41349871486723
-5.47106060599761
-1.56732541095001
2.89715744554622
7.67202956817177
11.9301292394033
15.2142854352052
18.0187556861659
21.161372195229
24.5062583002451
26.566980906781
25.4558016423619
20.0914093833868
10.7249708757615
-1.17070765268159
-13.4567661145974
-24.2136638872308
-32.3965684295728
-37.7564451514961
-40.3592254941015
-40.3100595546667
-37.7752516819186
-33.1429794636157
-27.1732789510185
-20.8110087385593
-14.5535825208738
-7.98005580058975
-0.116765764047353
9.56596664509067
20.443011102457
31.0004796483302
39.8668477417385
46.6035641729027
51.4579091218397
54.4727116643555
55.0737616651859
52.5087135328451
46.4551889723649
37.2611973677052
25.9546508149513
14.0329206003542
2.81525234784594
-7.19785232567903
-16.1829196397868
-24.2711106409513
-31.1339748083483
-36.0794250067682
-38.2781693207019
-37.0997297482461
-32.6352082112423
-25.9845601200846
-18.8624754240895
-12.6728376241859
-7.70070078498521
-3.18210358113498
1.60574280368168
6.3572674262348
10.1205547259778
12.4256935506374
13.3847601996853
12.8329784417247
10.3916570131746
6.68961595473668
3.5817673970306
2.35807407979557
2.00558262896447
-0.11292498159376
-5.63276028337954
-13.3353402439331
-20.0104828358605
-23.1730004483898
-22.8481695520063
-20.7194656782878
-18.0125154504593
-14.8139720651412
-11.214109314516
-8.01576009668388
-5.73079849137767
-3.4892282493411
0.286536198272168
6.14668805229243
12.9347720073054
18.8666668921691
22.9965515468834
25.4753126012182
26.6854499128973
26.637855468659
25.2453177326734
22.6930854869502
19.3566172806384
15.743487299247
12.675513533152
11.1011711401384
11.3759020224123
12.7944731622932
13.9390908589793
13.5575837829432
11.3592799516628
8.14773397091599
5.05743959274287
2.58081812290161
0.446726723943282
-1.65969816107414
-3.54730343825922
-4.69350674675889
-4.86443047164198
-4.69481966806123
-5.63587176717632
-8.87333874731948
-13.982896344725
-18.8950640341374
-21.5255574692505
-21.5080056193298
-20.3826818067928
-20.2190427023055
-21.9236946309114
-24.5921717801185
-26.5206626879489
-27.022358293703
-27.1076911637408
-28.2425243724128
-30.7733414759155
-33.7921371536006
-36.046769265515
-36.476773366222
-34.196298461439
-28.6868643300358
-20.240057034197
-9.90582684872311
1.25090413279488
12.7002955612322
23.9874785040233
33.9098862141424
40.8294466379042
44.1480550384539
44.9966986703256
44.93249870701
44.1661418295454
41.5022915846585
35.8801133128553
27.629106808399
18.3281036573636
9.74466243979857
2.96677435074719
-1.55800386006271
-3.45051799568987
-2.44945821086044
0.673592797295194
3.77508682868415
4.71159998029546
3.19315633040851
0.890990971248986
-0.347684003151546
-0.0345057100050033
1.18384871961275
2.63096398699004
3.93854507984132
4.48640598570276
3.23991632276794
-0.303469830468925
-5.05718289372273
-8.58278379226271
-8.54182061642023
-4.09283933552777
3.52863116996323
11.2635111076957
15.4062938438068
13.4831798509887
5.64624204253305
-5.52172133908501
-16.543246288624
-24.7465074268559
-29.1002151068954
-29.839487377781
-27.51017488275
-22.5533103830853
-15.6383346638589
-7.8316889147935
-0.150011690656773
6.95505857279507
13.8003395997323
21.250735489132
29.630140676007
37.2681478436574
40.8299848199879
38.1047408935762
30.2556722918117
20.6405244424679
11.702477741345
3.56520022834882
-4.78714750849691
-13.7374590294153
-22.3247133190031
-28.8019277547074
-32.0190619640123
-32.5847536281232
-32.5141972154825
-33.5097663411718
-35.70746592297
-38.060683805357
-39.4845157220228
-39.3895995880703
-37.4483427792834
-33.3318822131428
-26.908332434837
-18.6676273646284
-9.79700122213494
-1.72447491585883
4.52234454863516
8.79540182305587
11.9003947777126
14.9778627499124
18.4918622096188
21.921926208009
24.5300845405728
26.0546647836993
26.536845018159
26.1181171241427
25.4121908966973
25.4502434181502
26.5908417817883
27.754033565404
27.2886726484022
24.5775823115471
20.5137440524465
16.4402909679814
12.8882674873525
9.5153712999635
6.1604066308181
3.50983288914562
2.29426190057521
1.97233149978965
0.823600905162576
-2.41274101014708
-7.36958583749422
-12.6606893977786
-17.1297958255557
-20.1427502144171
-21.1145568554291
-19.4738982716282
-15.364206470122
-10.2010638454872
-6.14129264342831
-4.61439630277951
-5.2589082253084
-6.32395611829156
-6.01391076801675
-3.55240715281984
0.490392197677848
4.56107429423416
7.20754388689036
8.28226371542984
9.00015047475921
10.6097094046498
13.0803918661588
15.1185096739844
15.3039928724523
13.1932526166238
9.49817342289654
5.37678263901992
1.70222061787952
-1.05363773067575
-2.73802712245852
-3.68249206097819
-4.51199208011031
-5.27498423292651
-5.1332688701268
-3.51854092870624
-1.32882982601458
-0.308415407695336
-1.25676995251918
-3.32021856440789
-5.04793620144898
-5.71606845210298
-5.5337844642101
-4.98908444954578
-4.42213112952895
-4.24381389820758
-5.12770177025147
-7.44003705938775
-10.440487256221
-12.5889861788924
-12.9589723445903
-12.0155805707458
-10.7376629305024
-9.29093322492351
-6.91661722687011
-3.05656300614846
1.62432189302107
5.46616169404216
7.187645793697
7.06817909357156
6.68292994622694
7.47133347052608
9.57271474410053
11.8393362850946
12.8126607797052
11.855473276072
9.40622924259374
5.91879772535145
0.812139672296472
-6.73669703860217
-15.887962324398
-23.9870652286241
-28.8654081481735
-30.7978240097925
-31.7179087986246
-32.7266634781819
-32.7266153894373
-29.5939830797023
-22.6078237017973
-13.4563896440423
-4.65868131091255
2.65906646821919
9.02025495417156
15.1664089715202
21.33460722871
27.8556502940727
35.2993439471403
43.3698066799067
50.1447281189245
53.0950068198866
51.0307070892083
44.9426524359801
36.9229782731392
28.4525208295027
19.9860552020756
12.0413810044741
5.94544517813688
2.83853272822722
1.97659043490757
0.507113739844999
-4.61722449191756
-14.1239732573983
-25.5359184213015
-34.8387773125151
-39.3168905527651
-39.0065906343052
-35.7138285554765
-31.1155140893207
-25.9874102380993
-20.8027742023507
-16.4113493335078
-13.708308042142
-12.4686286049136
-10.7508409106769
-6.17061155344555
1.73673834738885
10.6815392963288
17.5098054403298
20.7458415646672
21.1537096978725
20.4358180270312
20.0066291260854
20.6019797779161
22.1260897224181
23.6396273811078
23.9558472520065
22.5631665140284
19.9714751492951
17.1475640346612
14.6138814042785
12.1283201215256
9.30240444265616
6.32201180098769
3.62362449277668
0.829271908732556
-3.49752798631339
-10.6587938801671
-20.3794904986713
-30.5904866404408
-38.7346329321451
-43.5805321015329
-45.8957316553568
-47.1645740378086
-47.6728872031656
-46.2269049752888
-41.7924854512666
-34.911976209553
-27.1982120146518
-19.6553152391922
-11.8219145378841
-2.72041685876727
7.38887483759282
16.5059124001219
22.4432625021
24.7877516872545
25.1411940113202
25.5763938953509
26.9135212093864
28.1203976409124
27.1841515806954
22.8733343827726
15.8595280632254
8.12956704614557
1.71314082707737
-1.71377262594982
-0.92257275383354
3.8366526688547
10.1809190504015
15.3638770040994
18.8472989264588
21.9518531094835
24.7553103396962
24.6950407168869
19.2295200681603
9.30675963338029
-0.854777934701512
-7.57012561394217
-10.6848751087146
-12.6142538308222
-15.0930650181051
-17.5823566645229
-18.6510160061623
-18.0881960683274
-17.2468691935189
-17.4229479071083
-17.990639115437
-16.3875191626378
-10.5417942182551
-1.4140722744456
7.5554318485651
13.6838232979578
16.9473240987673
18.5865582208882
19.0442081102765
17.9580237617905
15.3348016441619
11.8615453362208
8.32568422815829
5.22682336481609
2.82356185333481
1.27002837990541
0.67233221705337
0.922904777622368
1.37598906416869
0.994303144744251
-0.705397711187575
-2.79597626267482
-3.35133949771007
-1.09723062588985
3.05627645557208
6.24614382277566
5.98645858153457
2.51603419868608
-1.60501226575851
-4.39869741396844
-6.34100471730651
-9.0155779737516
-12.6865028657212
-16.0276245978786
-17.8665040037922
-18.2102966055112
-17.4509829534457
-15.4558399768317
-12.0838966959347
-8.25712835170983
-5.79580311201493
-5.94964489555939
-8.29498263378222
-11.0928434416633
-12.462716974059
-11.251029994671
-7.26383928232787
-1.10069257999263
6.01305787591904
12.084335426194
14.4540708057538
11.2408794973216
3.47864546059078
-4.82875773223723
-9.82614771113598
-10.9490020651345
-10.440662904127
-10.1647286343723
-9.83758248522619
-8.36434751150098
-5.91358078557694
-4.06910027335567
-4.16321982500263
-5.83183161910017
-7.29048918319959
-6.8829937955084
-4.2067109935852
0.103971506913868
5.25216932887767
10.8169917761805
16.7193518534609
22.7871594343865
28.321197101902
32.3290039958312
34.36438879338
34.7990644723566
34.0558247523867
32.0423992288288
28.6829733309463
24.5588897861805
20.5430269771992
16.9587661357396
13.376506313193
9.1831880413975
4.26516526465909
-0.822942021538899
-5.31034197376969
-8.67979574477179
-10.4965224269748
-9.9614004836791
-6.25152435166069
0.211177675863128
6.89647973973777
10.0978508422277
7.38225272909154
-0.496794049972415
-10.1618597750303
-18.2425606445206
-23.4543463387519
-26.2767795191729
-27.3902237789266
-27.1637606251518
-26.2773778700962
-25.7438523993051
-25.9361726705513
-26.0341202018579
-24.6477634176538
-20.8552716551057
-14.7777917774759
-7.45344351857397
-0.184956278964494
6.07152678048966
10.7370016946699
13.3428920309273
13.649531793291
12.0742577453326
9.74315336105073
7.90427916081438
7.10115505175636
6.80666798708566
6.05162613594222
4.55573286663381
2.89189401440509
1.2951861915559
-1.13017054948353
-5.43928749109631
-11.433437054453
-17.7618803910127
-23.1482134054651
-27.0021884946139
-29.0591817870688
-29.0041318052454
-26.5389507185831
-21.5861441888259
-14.4053364716567
-5.60823818654794
3.93602996704705
13.2065280624025
21.1626486629848
27.2030789448961
31.7942855983755
36.3414668834055
41.9339719498601
48.0815465099044
52.7993182878902
54.017666289224
50.935064463555
43.9696414596593
33.5775065939793
19.8014955426251
3.49610444343393
-12.5538488866689
-24.7091627866859
-30.8206695976064
-31.2457341690079
-27.9770664876526
-23.3534124860221
-19.1902462517234
-16.2546642800033
-14.4093680432119
-13.4890097339084
-13.6989873725752
-14.7245215137615
-14.9468165689086
-12.5977909942731
-8.02774052835643
-4.13798926780407
-3.86824939902779
-7.40454662224834
-12.3174873288814
-16.1394067862039
-18.021595903976
-17.9290609355409
-15.2831658467099
-9.20955224387009
-0.036772549450481
9.85359831857544
17.0278622768624
19.3605685212217
17.7455161139405
15.1697490390881
13.752268859078
13.0630696253381
11.6852630479214
9.70630770586384
8.77280564776366
10.0042664005313
12.7467689372673
15.400472950826
16.8418477253453
16.9028833083065
15.8816568745379
13.8655579499293
10.5093706145363
5.42114999935298
-1.18709003193542
-8.10197164793633
-13.3314975193056
-15.0693479062106
-13.0067841394629
-8.95098112167335
-5.98042857282722
-6.68618603372607
-11.7688715767425
-19.6667318633711
-27.2565516925855
-31.439994623942
-30.7715359952003
-25.8800232078303
-18.5511399133502
-10.6603337255143
-3.73125979805914
1.2496654915107
4.10734970927436
5.55502756244791
6.87434416444519
9.36743013696761
13.6951146874809
19.2858110472095
24.3766311338617
26.9973338407742
26.2702892488656
22.9753826437172
18.8779707188499
15.2945515515198
12.1721941912315
8.65178399528056
4.40038265063236
0.0222135157267901
-3.72135115768231
-6.52752196715862
-8.3610803643804
-9.19885131278424
-9.11853258943557
-8.36918240020457
-7.45470091856333
-7.42611263642546
-9.73632050183874
-15.1120070098348
-22.3975746496185
-28.7805202869724
-31.3832595586577
-28.947121818437
-22.4221176235403
-14.1048317992527
-6.08238124427336
0.563775977013735
5.25737800792068
7.34498146517736
6.69609831235659
4.80528175418908
4.52534148361268
7.97222700858424
14.5509106477543
21.3735136117517
25.8176456809146
27.4953099333981
27.6721464865589
27.2838237212491
26.0556424690532
23.3189154836566
19.0267104461183
13.8895717528468
8.9416488090026
5.00307361462434
2.21124937899631
0.0487606837647314
-1.99812397023792
-3.97035183879706
-5.78275630185907
-7.7341425292299
-10.3244578114186
-13.6206829231289
-16.9739691099206
-19.3762742685671
-20.1176474636949
-19.1767143413937
-17.0186857192801
-14.1328365853843
-10.9248925431858
-7.94620169574737
-5.88156430719217
-5.10626488668534
-5.19756484023524
-4.8697253487655
-2.66415647223721
1.86519032570416
7.63742721156723
12.8708320447134
16.0895878736982
16.1589223972584
12.3735922507277
5.68280343076658
-0.713497920060264
-3.51732534028608
-2.42185950600101
-0.297023427738948
-0.245245325092707
-3.08625348170515
-7.45392670155804
-11.3278986902241
-13.3451482561555
-13.4688974726217
-12.8380612785151
-12.7714953209043
-13.7595185194781
-15.2684046222928
-16.1650423938212
-15.3038836603938
-12.2399753642667
-7.71873144672782
-3.12466623581059
0.99947523888577
5.74231852707629
12.6408421389153
21.6173737890432
30.5131492053218
36.8325332436948
39.513248981387
38.8527042122593
35.5404259429717
30.504618298472
25.1504281942948
20.7080542731208
17.2380820256692
13.7730335533483
9.49480450226573
4.56255402232176
-0.118714680197153
-3.75867911213292
-6.33454238629443
-8.44953398000115
-10.6100860837247
-12.8060197599307
-14.8028351672044
-16.5311330622211
-17.999051786312
-19.0896641941552
-19.7320322998968
-20.1354812367255
-20.6783620150202
-21.7423338790621
-23.7162861673719
-26.773191388935
-30.397642309251
-33.3577445161761
-34.3230144486509
-32.512900801511
-27.9391879550084
-21.2393309349249
-13.2213907419668
-4.57093637929292
3.9077107820849
11.1793473580599
16.8228857401755
21.9543442393385
28.4693293188796
36.8066648940337
44.6617691920934
48.3656256694738
45.8348379143821
38.3016331093094
29.1523520800735
21.0834508757978
14.4793587595167
8.36558919042832
2.31144542002743
-2.98282879514761
-6.59570609613335
-8.31895895720678
-8.62348830099027
-7.96962930750769
-6.40741472975886
-3.99549011993464
-1.45643286721751
0.0600937194454157
0.117686283548372
-0.46830685997383
-0.66292860864045
-0.613297910717539
-1.62048634768299
-4.75970379789036
-9.73228376472917
-14.8934978518324
-18.2037684353143
-18.4692975149304
-16.125918203667
-12.8694239915603
-10.2601870769681
-8.47276419887154
-6.39405123122615
-3.08678915417863
0.809045820584229
3.32077381652277
2.83578972241537
-0.687347303430361
-6.09076395389316
-11.9152702851706
-16.6245348278313
-18.5862735705132
-16.6067986254816
-10.7061454403261
-2.39645451543372
5.87520865349213
12.0908934737055
15.9404027312003
18.480158833795
20.3131242403613
20.7310808029678
19.0671411814583
16.1420097472625
13.5880644724636
12.0904936181832
10.9037501822003
8.8561836773878
5.33882129859752
0.552601914837198
-4.62014722792543
-8.88007693103428
-10.9441465010563
-10.0104434639175
-6.11321999498978
-0.285910784975757
5.70146735381637
10.0826464126847
11.9051227467189
11.4737569166914
10.1646273992568
9.448637294966
9.66048425857778
9.80813224127255
8.80026702283811
6.60986404163045
3.95286246714281
1.08700730597832
-2.6772831048103
-8.28707417208037
-15.9030902936832
-24.4346772932693
-31.9724133577764
-36.7473576117417
-37.9078478915009
-35.7049570791454
-31.163936430201
-25.5074391364175
-19.726371755792
-14.5656307319984
-10.456900038588
-6.88792715019068
-2.11100529373068
5.55480815156687
15.8227619740576
26.3254892030205
34.4594737910532
38.9193410809837
39.6899677338189
37.4501327111551
33.2046374480239
27.907753559658
22.205092549537
16.7217038716766
12.2882245310777
9.35005716471655
7.34711378802572
5.20246034693722
2.37797387141968
-0.833833932883365
-3.91239829951019
-6.71897789678142
-9.56054983463266
-12.8700418849367
-16.9055301781787
-21.6039246116176
-26.427932589065
-30.2656262024496
-31.7428665579897
-29.8831254074468
-24.5767097239549
-16.7420350046521
-8.34751899945588
-1.82163083435065
1.44813917922076
2.2003492213229
2.47434199013602
3.78158609427003
6.40182264583226
9.95631464882218
13.7787926783194
16.7568547553731
17.5830111369022
15.5966160314803
11.3350684508688
6.155100192302
1.24132142478881
-2.93677221363841
-5.96748823842985
-6.59758568990409
-3.51316288786407
2.49657946215502
8.07343287416297
9.94818386521307
7.73054958126862
3.57825105392697
-0.18971152408219
-2.4819044004246
-3.249122580981
-3.00159014964178
-2.4227464283364
-1.94522804156696
-1.72953536876087
-2.05758797496875
-3.27465315046339
-5.09367153286832
-6.35656150052795
-6.01583510195445
-4.45215183619735
-3.4371488957626
-4.35300959383525
-6.4910247942859
-7.502474672616
-5.58768611776817
-1.01370552013194
4.32239630896182
8.38142218899391
10.2026055000562
10.2449958078007
9.79016675700493
10.054190827175
11.8317833178206
15.3000531682615
19.2366932666447
20.7622733592336
17.2417961482156
8.92688303745005
-1.02280129403989
-9.36461700215071
-14.9391896155993
-18.0853474308287
-19.14153583638
-18.2457242790272
-15.9343426191645
-13.0713834589413
-10.1491959399624
-6.97994452881926
-3.19450965121822
0.947075847862497
4.2814271687808
5.42822433452896
3.92018194849709
0.75442512196746
-2.20852911718639
-3.6466863565565
-3.80987793777814
-4.05131209320739
-5.21195639283975
-6.68842770361762
-7.16730318306041
-5.87742183793654
-3.01333547600427
0.524186105033131
3.59114275166685
5.55351533646463
6.83461604174252
8.33146103331701
10.3022405018905
12.3018366027898
14.0083468875532
15.4081480351051
16.259714949843
16.0759004971411
14.6836940613384
12.3284865382048
9.28454963261616
5.79932026488869
2.32170002883867
-0.706653221307039
-3.32460955288715
-5.95124064897948
-8.73551703375293
-11.2551302840549
-13.02541235509
-14.2924342467988
-16.1143591060185
-19.2805585335378
-23.0582979171464
-25.3761530133787
-24.4526630837758
-20.1121871645623
-13.6827090573896
-7.05367445602301
-1.71634816475893
1.90572171439859
4.51721383652822
7.28390729205733
10.9738665821371
15.4761314297453
19.8462222379172
22.9651657077811
24.5308600962585
25.2901997911457
25.9257977835073
25.8554785274249
23.5755335910483
18.2545279760332
10.7727852624781
3.09036546833484
-3.3936195077405
-8.73458805955038
-13.577723600175
-17.7017906920346
-20.0285462119537
-20.09628420865
-18.8455940829562
-17.6405761769643
-16.9728053191384
-16.4223680858627
-15.5127449250368
-14.2841535552977
-13.2376576692579
-12.8512146897503
-12.9030352440547
-12.2594031518855
-9.71016986707628
-5.13362698761994
0.344304055468257
5.23159967103755
8.47105512012482
9.65040587688024
9.05485853821178
7.80574181442445
7.67205005140902
10.1341284054327
15.0936453345921
20.469159709345
23.4669721618386
22.5545909974303
18.291650800714
12.5233816175843
7.08545466401889
3.04579155639335
0.533397873333958
-1.04960870977523
-2.51172775890717
-4.30418841701304
-6.25091344854762
-7.71107326693574
-8.03387868122425
-6.92460553535019
-4.44216011009863
-0.922487766824195
2.80033800479017
5.32492955965686
5.3944333670066
2.85571033747401
-1.25510379026424
-5.50049108246443
-8.71494261921968
-10.1815771538387
-9.73880506532713
-7.89532799332438
-5.58450626576575
-3.6375605409206
-2.41161228300334
-1.68085275826244
-0.762333200444373
1.07306356254452
4.19392127793152
8.520995009679
13.457029178287
17.7394695568716
19.9827273931076
19.9215776590801
18.7313953316223
17.6265879930974
16.5089412420351
14.4809078348353
11.3286367370486
7.83826585349291
4.62122570025583
1.15557565300435
-3.52224934789614
-9.18808101593721
-14.1086136224395
-16.8506567324791
-17.9543664930009
-19.099979685013
-21.1045859404208
-23.852560063537
-27.9348905834618
-34.7539782393722
-44.200090023707
-52.983130504499
-56.2533613870334
-51.2180869850384
-39.3400834493813
-25.251927398299
-13.4468716429804
-5.5246822515801
-0.0658026357114156
5.34032843236528
12.1873327563571
20.6767750003783
30.2822128461005
40.0715407010601
48.5164080598869
53.4823734737649
53.1559203143733
47.5110051320653
38.6946897338566
29.5413185020597
21.7107355478048
15.3414397013471
10.0453187187109
5.7568741321293
2.77892420584666
1.38161393905748
1.41335038505158
2.2765431741422
3.35181500309097
4.38873137386194
5.43006166139447
6.54810826446433
7.74352074217151
8.8439959791224
9.378306378998
8.78320385348576
6.87407565683467
4.04412930568083
1.00995706836317
-1.67520247352697
-4.05718626067604
-6.71042907063609
-9.96472080912966
-13.2520579542926
-15.5756927354465
-16.6532710744137
-17.3133791751449
-18.7636368599865
-21.6388755789584
-25.5054403365593
-28.8998648442678
-30.1369520289093
-28.7103226361607
-25.8998562346807
-23.6325072931163
-22.8178710680203
-22.8959068331051
-22.4971542729636
-20.1419839563536
-14.7924028866393
-6.53119617851039
3.02532216773511
11.2761152159525
16.1481000999653
17.5254597623636
17.1928061241693
17.1709567006272
18.1908729172572
19.7922430458396
21.2877974882601
22.0983380685727
21.576464751196
19.2260995211536
15.1397505104609
10.0020440844528
4.77540250081466
0.382539313769353
-2.65176217332393
-4.40240830866008
-5.27774242841431
-5.59422430870002
-5.47415861140893
-4.95662758646716
-4.05393712679033
-2.80573961519513
-1.28967266986141
0.564511853247852
3.03903978856277
6.1982218185012
9.5055483834307
12.2241770211083
14.0596294443295
15.0281502328388
14.9320351194076
13.5301386517449
11.2056391584118
9.04084998479766
8.05107000796916
8.30257170339242
8.71757676538485
7.85885963589294
5.02850979895425
0.53483940933176
-4.90967722960687
-10.5267564425574
-15.26071898728
-18.0001810360882
-18.4659731948129
-17.6627094682494
-17.2194687324419
-18.1472449591129
-19.9062461480102
-20.6186389674439
-18.6877190048123
-14.4496722397481
-9.89711361642339
-6.73460646453048
-5.01464502979778
-3.38068970961085
-0.0711788533923517
5.89168829787711
13.5172828542806
19.845843492987
21.9862351003903
19.4952533218035
14.4953916224672
9.61623557741238
6.28215377140373
4.69842332191159
4.44594133738881
4.50019544152738
3.1826705750151
-0.853914957174161
-6.961061012393
-12.1595466012765
-13.3411777386127
-10.1243466130441
-5.20317305598487
-1.91487088540854
-1.90003918486791
-4.86293965256031
-9.57850064885528
-14.6139146083864
-18.5502284057015
-20.2425563764941
-19.2763496616527
-16.1832666239873
-11.9363358008021
-7.06075467471272
-1.43438774684228
4.92766656029758
11.224895430608
16.2389164027408
19.1718671545155
20.1480499640969
20.2252419316212
20.7502638694949
22.0711886088896
22.8019137304011
20.8672332856839
15.4720124306219
7.91246571958968
0.628473118674628
-4.27913919968485
-5.88310429731218
-4.44943788207748
-1.0687752338538
2.66000187304505
4.93207145015716
4.53740786779524
1.9916109199179
-0.446087072602437
-0.653206851919645
1.29369337117102
3.21792162239556
2.94377098003704
0.113894391816554
-3.85116176378408
-7.22571822859447
-9.26949042204278
-10.0763586131738
-9.44902822238842
-6.54267852718447
-0.928737445281536
6.24198175572347
12.3136543826118
14.375624034332
10.9277821726886
3.00141634708636
-6.3378490900607
-13.9949585403957
-18.4995906346321
-19.9548431954503
-19.1412239077445
-17.0839499204009
-14.9494060429719
-13.6378205275766
-13.1882714042521
-12.5324970525145
-10.0795237322831
-5.07645448391108
1.49818392627656
7.72404172909913
12.2248864923238
14.3585174369298
13.4550921294358
9.17406140080516
2.87109368958663
-2.49806756509652
-4.65329535882293
-3.95249897986614
-2.7864156139677
-3.13636289641411
-4.72953583709353
-5.4315294191929
-3.48544022966124
0.634781619340386
4.74280978933884
7.09569232633307
7.62731729581971
7.30739143323527
7.005861525925
7.07469086227638
7.46427371573903
7.89030171657255
7.96534312520651
7.36607147202531
6.14728413020303
5.05435811442927
5.17911897309588
6.80505414556793
8.70617629920513
9.07961308240002
7.2200166238837
4.02010209953061
0.911837529547529
-1.43372983740384
-3.41984387340117
-5.73365747612122
-8.3119179964475
-10.1693148370742
-10.2552493935304
-8.26117699719921
-4.52256942963015
0.454679786265412
5.95518532384505
10.739602789651
13.3377642596993
12.9670914856202
10.1261025439876
6.18759027324709
2.33239587208819
-1.18193652971277
-4.73394133536334
-8.49947622291596
-12.1714062703984
-15.3810006206928
-17.8753518382967
-19.1616106676532
-18.4404556443506
-15.2278257081953
-10.0527063461387
-4.57260805631285
-0.893082537195396
-0.319346485285541
-2.45243963611049
-5.57051013142134
-7.92075296943543
-8.62792877927718
-7.74146963722131
-5.88302213618393
-3.76177936846881
-1.7133826199524
0.278369767197938
2.18194051044171
3.93281010088713
5.79599297802105
8.15134926147319
10.8687193572788
13.385068088011
15.3627012623209
16.7824342888845
17.4778163764362
17.1081256298811
15.640265849838
13.556492709264
11.586376855544
10.2969124215514
9.70293346590578
9.21022260944302
8.2421719630018
6.85831932585612
5.27340885792107
2.90504598852142
-1.28478855780026
-7.22208913705799
-13.0110984858936
-16.173175079772
-15.58217808618
-12.224995477557
-8.20395578255415
-5.06143690938155
-3.07051394085881
-1.86409518273909
-1.12757824119845
-0.459069578011074
0.771387771500087
2.68042628650078
4.11903159949478
3.31583332901962
-0.395676731121613
-5.63596038269594
-9.99543520055322
-11.9844342003811
-11.7839827602814
-10.210923813682
-7.64037549955463
-4.32654076332671
-1.121872832625
0.899505109105166
1.34333122911423
0.559311462774881
-0.95365135478699
-2.84598831616566
-4.85733667352409
-6.69993651562457
-7.81693275003653
-7.3628436380903
-5.0220268636112
-1.89037636555679
0.219201962401982
0.64340143486914
0.459960129897215
1.04184791518429
2.66187129399097
4.71290405434108
6.61315913395902
8.08858645342996
8.94270936635912
8.92078915514268
7.77681250774514
5.45872189429143
2.36908607026737
-0.515475559397265
-1.97785813642805
-1.35414628236804
0.794334942341634
2.96006043638331
3.91062647786617
3.60889248225143
2.86139524351673
2.37920154273628
2.44038440613339
3.09405826718845
4.16535313063207
5.06340056418691
4.89477948446716
3.01727478262345
-0.268146291551184
-3.53156124055319
-5.09799900812749
-4.41001349046312
-2.38503563175151
-0.437128138522006
0.529905406696895
0.28967085719636
-0.855645027871604
-2.15057244865926
-2.80765780429303
-2.67075567361764
-2.2521771916343
-2.05294376620219
-2.02555406575628
-1.55410357614926
0.221197772725113
3.65812890740603
7.83278523061834
10.8981209099173
11.620053586921
10.3480721644774
8.39147196383573
6.86005992070378
6.19142499306732
6.25092344756204
6.49676286381417
6.23196307113759
5.06793645127344
3.31533934913951
1.76564529454884
0.773439557536901
-0.39823736491189
-2.86846688338052
-6.72002498817245
-10.7918662961831
-13.9177412235204
-15.7257705051794
-16.1315233847115
-14.8373631186236
-11.7541771596742
-7.56820504129913
-3.66116160204448
-1.47122723878998
-1.58775964576205
-3.16192378336123
-4.5327029321976
-4.81481663238924
-4.67199142407723
-5.35284176854861
-7.33877903007498
-10.1057980390917
-12.6600306243895
-13.9626105230974
-13.37202846013
-11.2036859337913
-8.57596878785193
-6.26878278097935
-3.90499947394001
-0.673712857723564
3.18499895941227
6.13579806987198
6.92658983292441
6.08641095871807
5.33979281877561
5.72639843335585
6.92619093304584
8.32552010936872
9.92927449553802
11.9964950584481
14.3760411436223
16.5176051992597
17.8777076419503
18.2383520536434
17.7789931900365
16.7011243507917
14.6854497250707
11.0778551199081
5.79641224117044
-0.298302138386829
-6.04603897728721
-10.6433169745856
-13.6758819073427
-14.9666707242028
-14.5233259629165
-12.4594703752734
-9.04599129581735
-4.89115643793557
-0.678345858435821
3.51741845438381
8.26047387869493
13.7804073414928
19.2423450393495
23.1975481480902
24.522630336487
22.9264236973814
18.9675512732422
13.68199731369
7.95543452557844
2.30021255225738
-2.71797188185254
-6.33002645693309
-8.25689831110496
-9.2687535029973
-10.6089443351083
-12.8587971275052
-15.5661857421823
-18.0146890175824
-20.1830800338455
-22.6957810541698
-25.7756778946126
-28.5598910432983
-29.7260375146583
-28.6561100581603
-25.8087809500458
-22.0668261411273
-17.7475563926259
-12.127851613419
-4.20924013101509
5.67508801802656
15.3801865114501
22.6201978707678
26.7267190400911
28.1665602161138
26.9730566379373
22.8027498483918
16.4468288936952
10.2323826705922
6.46405111938576
5.71626451281836
6.67272645447126
7.38216015110098
6.7160551540244
4.86912077651893
2.67145031048784
0.743040149692557
-0.558607718183451
-0.948245287657633
-0.57811783238852
-0.280498727886982
-0.882073981906888
-2.45272415889524
-4.55412269065542
-6.87213403545785
-9.18159982227994
-10.95205486796
-11.4889140940952
-10.5748144197811
-8.80765823064691
-7.1535626641193
-6.10664411110745
-5.3339163999679
-4.12464894490986
-1.98597246920363
1.18275732806587
5.02846542237281
8.62354301293128
10.8670658397676
11.3654892988396
10.6428755229395
9.3548089143898
7.72789497833881
5.92182457136552
4.43721317477054
3.77377467690446
3.76575357847056
3.38160857685717
1.30071043624284
-2.96648903426478
-8.31177528772122
-12.6151393481912
-14.2983268223815
-13.1918356759186
-10.1286869846243
-6.40132463058532
-3.61947672838222
-3.11330775776494
-4.85069736791422
-7.24486712660989
-8.32086618089978
-7.00772142382959
-3.46921789323336
1.37731926749071
6.43632986844335
10.6642818395892
13.2036287359857
13.8854170765638
13.6069124361251
13.5726132467643
13.9856130599721
14.0508441897619
13.3164401155065
12.2578700541797
11.3675495501501
10.3999826156541
8.81995788319727
6.54355116686908
4.06075215878796
2.08463483199607
1.07371750280525
0.89805207579514
0.95472331160642
0.567127012292855
-0.755187003514245
-3.05626142238374
-5.56375142926827
-6.99431626064972
-6.87263281859563
-6.38327784929036
-7.35236353016471
-10.4813096199248
-14.9706663838683
-19.5150630400517
-22.9740578470941
-24.2737420639016
-22.6213388571783
-18.392989997583
-13.5632683740686
-10.6276207153131
-10.6522077561669
-12.4396791206279
-13.8386573066127
-13.6651423597989
-12.0417385293315
-9.3260930987505
-5.55964507808732
-0.973005793543752
3.77612740486137
8.2918744178797
12.9846075190502
18.4122626365746
24.0139223137014
27.9198964606289
28.5111054232942
26.0987331390372
22.5112027100118
18.9929382817293
15.1974991553519
10.3861283453907
4.79412221085489
-0.543600036463458
-4.6134357014553
-6.66983116286826
-6.27142771914445
-3.61420638596705
0.336232522563018
4.27574016589222
7.09614333032395
8.14654533901054
7.34677216332295
5.18347399794059
2.46574281495456
0.0136422615866699
-1.51418695551013
-1.80556594759401
-1.12834349448616
-0.270506529546454
-0.102109941582897
-1.09846269404683
-3.05479805408186
-5.13574815738152
-6.4315403328319
-6.64355384001859
-6.1208439305169
-5.29359737550766
-4.3767024832049
-3.60522467875354
-3.39007575653817
-4.06001822413786
-5.49545778074144
-7.0462593741701
-7.93384257062109
-7.86202409623994
-7.02873857031414
-5.41955603293721
-2.64679139866957
1.02542766405844
4.00860027041605
4.46335501324599
1.95956219775061
-2.18943865029946
-5.99762855530732
-8.16452514039049
-8.8527988724536
-9.28431289521089
-10.2625899396165
-11.1115285078305
-10.354385036779
-7.28534698216808
-2.57849179820495
2.37177472785528
6.32702323594556
8.75406933391331
10.0455114032897
11.110630881117
12.4353565671254
13.6381024080716
14.0757719159092
13.696266445906
13.1881021175395
13.3916120848438
14.5314683520352
15.9199537344287
16.4435962150106
15.3708089800806
12.7062336697203
8.94767860990269
4.64661725408933
0.107933755762411
-4.51062278007455
-8.69082722494517
-11.3660190712812
-11.7165165288766
-10.1765499521462
-8.26524727286366
-7.3333691464207
-7.59526048924708
-8.17524646772901
-7.91579187984467
-6.46921579826184
-4.85900968350464
-4.70346127175392
-6.68686361741753
-9.93002718976506
-12.7945343133126
-14.0433232460098
-13.3377342515356
-11.0142403508857
-7.58019149532017
-3.44724533228677
0.875419036475228
4.60838296339799
7.06753913495439
8.09363498926219
7.87779490527069
6.73721658056548
5.50291761492815
5.50773874425317
7.18617315077246
8.86057998860171
7.87662338499732
3.18406791157852
-3.5742249543458
-9.48540497479572
-12.6021523152375
-12.9700632042897
-11.89297911904
-10.4182166439954
-8.55592801718853
-5.76441729965891
-1.83014044417813
2.76642320864946
6.99930651414542
9.74497976423732
10.4597163066513
9.58309914840357
8.15807972748776
7.11034387896143
6.86917602885199
7.22794554285674
7.35494597125595
6.38592154066427
4.28630531949754
1.88719955464149
0.10867307900275
-0.500000297344251
0.259124250317542
1.97021618512182
3.38037055843498
3.23556145602685
1.59612140481798
-0.119396521482139
-0.512467891395097
0.665928837799921
2.59107599207272
4.02815110376951
3.91392591609052
1.86441313073252
-1.40505931260366
-4.15299035969072
-4.56326604015962
-2.21256914715087
1.31196978772378
3.64878421834295
3.66743206666352
2.10836080665516
0.489066541830897
-0.16248591704716
0.304157448223012
1.38243660148008
2.36469587347189
2.85203566591511
2.88908561079925
2.61938801108638
2.00413443900795
0.867348460405891
-0.974166247421408
-3.48155918176482
-6.07413260207763
-7.7823198486384
-7.98155816829221
-6.81927895034103
-4.90156853543781
-2.89938420605527
-1.48877686267844
-1.30320192689733
-2.74761113125058
-5.76907995860379
-9.53462541591368
-12.4111969479846
-13.0203751115854
-11.7992692553864
-11.0075881270412
-12.5779221672004
-16.1329258509532
-19.3554232946219
-19.9091869794094
-16.8635064212717
-11.0339311401259
-4.5716946272044
0.251919094623835
2.70372613536652
4.23227219336564
7.09155207337393
12.0588569488548
17.6450023975156
21.7325301757551
23.7072891864932
24.5355617825311
25.0387376910721
24.9444484901655
23.7459951667954
21.7055037172105
19.6604734052548
18.2809221923352
17.6401680668666
17.1416790631343
15.9007156922904
13.5208982023043
10.3699134696145
6.93148819516007
3.23167967766234
-0.920216854340771
-5.4750025439717
-10.0240024735361
-13.8781557323505
-16.4653211316623
-18.0858873321866
-20.0141136449495
-23.2622095237721
-27.3701234506689
-30.8817098518683
-32.8060714661776
-33.1504794534369
-32.2357986728727
-29.9140087792608
-25.3776964792762
-17.7334278421416
-7.20990717437096
4.11911123094501
13.3064431166777
18.4684629381619
19.7094247362636
18.4105852518502
15.974007522667
13.1357310486858
10.1112050469643
7.11353217999818
4.52854271557393
2.67505121269747
1.7955097751896
2.28877429191775
4.38419835076816
7.41366366839627
9.92888436926257
10.7923309585492
9.93887342781586
8.20211703064182
6.7012307507953
6.08191973467991
5.9673045938995
5.47440584123065
4.50915801245498
4.02403087212767
4.68763366442332
5.84177363698051
6.17832748951381
5.12377748804019
3.29660518145394
1.84450071014393
1.51158090452719
2.22961725851713
3.49259527453265
4.90485896264737
6.00202062835031
5.7369604400311
3.01274826858081
-1.91398304888261
-7.12194196051483
-10.4908548193742
-11.2818242600948
-10.3729906268539
-9.40251702178292
-9.62491893937325
-11.0975647868617
-12.820149323753
-13.799942454942
-13.9141393165894
-13.668997016865
-13.4118951775778
-13.1278422557061
-12.9538426310528
-13.466619463861
-15.0736450636972
-17.1897527513556
-18.4621405289788
-17.9238398325591
-15.510934287742
-11.4432195842461
-5.87526030635417
0.551043105168813
6.64063108673613
11.6675255695875
15.8660608435755
19.5267984873984
22.3317168595292
24.115712013371
25.6060686359627
27.6333418941337
29.8851898174631
31.0649027746794
30.2792798876502
27.9779659009113
25.4868728462713
23.6243142302102
21.7313464110134
18.1878170074022
11.9937518193634
3.79254217032365
-4.53622033439206
-11.076127744789
-14.9164638075376
-16.5175812355977
-17.1830967228256
-18.0302114499126
-19.3447755206545
-20.6450918742253
-21.1130923077
-20.2685411910004
-18.6663470528359
-17.7019483412321
-18.268173531592
-19.7377200355141
-20.5216470854162
-19.3414332484283
-15.8121876106128
-10.4177776370938
-4.49691682204695
0.0708508938298264
1.93507472193337
1.46094513234901
0.73182090769068
1.88097224682296
5.06422767496328
8.24783839726788
9.20995832589743
7.50640394979091
4.39209421412253
1.50200359298738
0.150184036061513
1.23708566682026
4.6892442714317
8.90552763038274
11.645585602266
11.9466326726792
10.8906318603243
10.3103830256409
10.9511497400666
11.9740628509808
12.0390043162913
10.6708359767382
8.58089799084969
6.89719857493441
6.30759455417865
6.75651866862794
7.52394080440891
7.57589390952013
6.2693932694113
3.9478781501258
1.74789816450293
0.7300452006831
1.04250033497088
1.66197120492517
1.02999251776041
-1.63524575901659
-5.59985351229931
-9.43959272583184
-12.418392998321
-14.6868389803241
-16.4533821900084
-17.5807093161877
-17.9148347226263
-17.538909399289
-16.6382103049578
-15.2333618427342
-12.9565113721283
-9.1492747775054
-3.56379298361743
2.83595249938976
8.00359226295494
10.0298280040471
8.39171404469466
4.23723563645525
-0.320297560515733
-3.36522111544627
-4.14998980340828
-3.21894592430995
-1.60036778516478
0.136123631514812
2.1074735478679
4.54257648189479
7.01480445311555
8.39073198891237
7.85179663633533
5.90556147821165
3.94891640526133
2.83620169130184
2.30399243997419
1.70042110490474
0.74442399523068
-0.372965164674315
-1.14332169349664
-1.04863519115363
-0.0865517179691619
1.11197967528217
1.9261248274696
2.34569862327587
2.81136999131229
3.63273323764739
4.5686806801799
4.87996270864432
4.0213697513897
2.45365432494605
1.47174774443527
2.02264480367085
3.91737107511736
6.22854168088861
8.07837284457521
8.98641221258041
8.90695763867447
8.14017646960508
6.97994338374638
5.42988588161906
3.48061520671613
1.48423135988822
-0.144041963402425
-1.5265215540468
-3.33402784268859
-6.21518291913119
-10.2213171079465
-14.5497787796197
-17.8310401293365
-18.9593585859621
-17.7934648173823
-15.0794871897599
-11.8286098568251
-8.73954200818335
-5.9519339619301
-3.26488615771059
-0.662210370192745
1.49421904275317
2.83985797918935
3.31106385158637
3.0334540279943
2.26473038689791
1.45783726113794
0.982530719210733
0.86701215052757
1.23193151705673
2.67462188243787
5.51884434254549
8.79955084898264
10.6325137481067
9.64178730418946
5.77199432090667
0.009350939667843
-6.21656072578422
-11.518950772227
-14.9508484184539
-16.1210254891468
-14.9935144316011
-11.8195398563193
-7.34679046109187
-2.80037652386397
0.666814293486839
2.70357622462826
4.06765795272714
5.9964696696617
8.85130301837519
11.4825007952825
12.3907774031035
11.3297382034662
9.20643272819991
6.70818399495751
3.90981125248266
1.27182233610557
0.164261409226382
1.79686434696275
5.69611353236122
9.56608787333363
10.9223479829496
8.95312273821828
4.8319803711357
0.576939706305714
-2.06141454603342
-2.15115433372835
-0.0807461185233101
2.3930879895646
3.42870478742087
2.7597493407245
1.71625918466801
1.58408752906275
2.31397393039935
2.83285171380701
2.31078218220347
1.03325129131101
0.0601977546331404
0.0119612786948153
0.355254700990268
0.0888324266128178
-1.09120821807929
-2.64639632615483
-3.91205848611007
-4.41602795636976
-3.76533959622067
-1.98947649645714
0.0114799509314027
1.00806187726574
0.538254457027274
-0.924601544489042
-2.88468744600871
-5.51285987260582
-9.24784308063858
-13.8047694698036
-17.7937059716118
-19.6070665265851
-18.7959012294793
-16.4304353006904
-14.0810456308538
-12.558620507786
-11.4635635846005
-9.6023459658917
-5.89515882309317
-0.247873285342789
6.26531412048543
12.0025458017126
15.5442493576774
16.3248420067379
15.0084229516647
13.051812893018
11.3996689052052
9.77231729401511
7.55716548296559
4.91727325021825
2.46099355995133
0.262494586447156
-2.08388751041836
-4.64508514274618
-6.97206276613954
-8.63410716656953
-9.45960192085648
-9.26382465093232
-7.69698675126298
-4.54203161105072
-0.210191465051435
4.11140134635812
7.13909067153485
8.60085380641479
9.48956758764667
10.9700022825649
13.134517659099
14.947135056847
15.2960584874637
14.0274673519791
11.9703108845017
9.96479621996581
8.0382480836698
5.74036455771647
3.08283546813038
0.77078593302626
-0.40187396668187
-0.126760104707845
1.17923772693645
2.34475946526132
1.94408282159148
-0.706003559344098
-5.07564403524198
-9.98958651215674
-14.341735339279
-17.2397910234227
-18.0186103117954
-16.521208195411
-13.2934238930395
-9.32286613032273
-5.40893674705354
-1.66692684937605
2.1517436964899
5.67262749315053
7.66033587236443
7.26566553270719
5.1617250683938
2.79969367947744
0.783199745414974
-1.36793036843219
-4.10047920558032
-7.22873285407648
-10.3400782292999
-13.1478560044949
-15.4097841548301
-16.8077812012143
-16.8077226860542
-14.5707086425913
-9.44956172454532
-1.94856098940989
5.94096710168983
11.6864022941929
13.8415147088346
13.0325641713902
11.2431940909356
9.8194651820586
8.29273940598094
5.44248454579284
1.17261664588172
-3.20781759387742
-6.33521324219737
-7.82104226446038
-7.95670613797975
-6.86103292338876
-4.22224067511742
0.0064054963306347
4.83865453146196
8.73234714261949
11.0441624275833
12.5431191260655
14.2891450218336
16.4864494208712
18.5177040037539
19.4560797105608
18.4394620283055
15.34259566617
11.3900068427133
8.38020975605048
6.85707648874838
5.52557002837949
2.79304610105164
-1.47444015867423
-5.85703697093102
-8.64093416944121
-9.05990919577092
-7.63460065822419
-5.58561931438039
-4.03388723293268
-3.65688974259028
-4.60177907730591
-6.30838260193993
-7.70578877116795
-8.09305809792644
-7.82122207003431
-7.89158971220145
-8.92384777061383
-10.5490497515322
-11.7092920529681
-11.6263268371768
-10.550941375367
-9.31837594638984
-8.12771174366069
-6.27444727030378
-3.34249882402621
-0.20221450340684
1.53199257201114
0.941013346563176
-1.22690294639679
-2.86369743084504
-2.16693462046123
0.547967438597546
2.99100294144987
3.34463138854367
2.34319058717921
2.36212958208617
4.46990575253072
6.90060398851415
6.76271691273006
3.1858998259819
-1.50977637351707
-4.05407970815797
-3.50517614191251
-1.79086703752637
-1.09109571735526
-1.64771388243774
-2.44433343793
-2.90592992415874
-3.10137714952782
-2.97454226174281
-2.24638761419945
-0.892872277989364
0.713711949352215
2.07746113728178
2.95389978848331
3.6579027495111
4.9394747137322
7.23264327787357
9.9420670600388
11.6929654170288
11.5354944778441
9.98052268963083
8.6420890748018
8.61458940973536
9.38125170253531
9.6131143842085
8.71007692317055
7.07126988243849
5.23636530808549
3.44329889528393
1.80441359886525
0.329985330566831
-1.07240684836264
-2.31280565171659
-3.1722711183553
-3.80236982909611
-4.54172075537402
-5.00674298765799
-4.23579729082386
-2.25680634951277
-0.712327909476253
-1.19778827647372
-3.43460718330205
-5.68222194191502
-6.73021832933406
-7.07260487149748
-8.1095847054508
-10.330972228672
-12.4216941373692
-12.2959001510599
-9.00992921202714
-3.67200413104955
1.31136191641248
3.87707827234838
3.6395754680599
1.92031983702355
0.416397084473359
-0.121588270863326
0.102011319875702
0.688496244384765
1.29376232421036
1.44289272538914
0.686961378649981
-1.03096722866143
-3.24596018379377
-5.01515722657663
-5.31802090744128
-3.99699166803223
-2.16988325686405
-1.09441753049356
-0.780007477717703
-0.333488172520533
0.560070513612646
1.26691559297548
1.27666514057922
0.925898942455369
0.81257821279554
0.917312973410493
0.664557468552131
-0.150101143729957
-0.687377507301681
0.34312605011897
3.1794348775935
6.3703136411273
8.03622074865783
7.58876886615092
5.87896611402033
3.94838765996654
2.12372941485198
0.258507228564395
-1.55571716573203
-2.75373066473394
-2.72493088221059
-1.21915634427975
1.79776173908528
6.25748258857919
11.5136090696278
16.1803432080259
19.1108431321908
20.2567315795798
19.9893710199449
18.0311153506058
13.8541994709639
7.87729839873813
1.52672604400575
-3.92358718371129
-8.34164867123484
-12.7366488837352
-18.2701951045223
-24.869732962313
-30.7494018438204
-33.6031013595199
-32.3626777352512
-27.8719955815
-22.2562727311788
-17.6641546257154
-14.797437487898
-12.0708446649951
-6.81060838027595
1.88510303474559
11.6562964039023
18.8230754706654
21.6704221216633
21.391605119868
20.0955618914104
18.6596079312382
16.8047343608406
14.6707406376925
13.3447582455208
13.4934106973488
14.1671711713914
13.6885235276025
11.4475116828357
8.19591651328582
4.73910037171742
0.937107890508566
-3.90974818340693
-9.95297419470515
-16.2026970603917
-21.1296986784627
-23.8808221419953
-24.6624716226739
-23.9370733674702
-21.8295594158923
-18.5460634760748
-14.6896041692358
-10.7280294661794
-6.66816933636976
-2.61861536177567
0.765191291127077
2.73167937205394
3.15336819182014
2.79262370405857
3.06863384625621
5.38057372267619
10.1484560812984
16.221307141267
21.2535139091711
22.9735915527775
20.7107549971755
16.0997025364095
11.9269166703733
9.77843054916342
9.0467765176634
8.47043139025819
7.9287143043552
8.10264222925053
8.97112538748044
9.39063065343395
7.97204043454944
4.16142735276737
-1.11887430368175
-5.77707943306148
-8.01302489695904
-7.70468912390408
-6.17304513589683
-4.76665936091297
-4.05727401882451
-4.21104927589073
-5.49439177911136
-8.04658106963972
-11.2930249798936
-14.0233129237986
-15.3718187226064
-15.5042302176554
-14.9782952729031
-13.7375145688317
-11.2708058360758
-7.49539549385178
-2.9347778265168
1.71610567279765
5.74702923138036
8.49350616639249
9.68695230185266
9.50649181054891
8.11548134718804
5.60582329233238
2.54374818787115
-0.0941027579574702
-1.82374211332127
-2.84141812321703
-3.07906955352397
-1.98179560933785
0.259664514215782
2.10975503411732
2.09629120959102
0.385081174538061
-1.6095809240727
-2.83613514572882
-3.29669309690953
-3.38016372697522
-3.25348426774481
-3.20588433011476
-4.04647096238892
-6.45352071804496
-9.94585686000124
-12.9736781772602
-14.068133279712
-12.6774622501502
-9.14377807045876
-4.2421066610389
1.47836811179638
8.04889333273857
15.2620827550018
21.4925389541852
24.4870954883364
23.9491600487006
22.4101627939012
22.721026096452
25.1278543699629
27.244043115972
26.3981858162586
21.641820372719
13.9666075880792
5.20264107543196
-3.20299006598802
-10.6395749550028
-17.0201016787319
-22.3494199660781
-26.5079943955549
-29.1018161510003
-29.4940394277302
-27.2244156694318
-22.3407957585951
-15.2443577840564
-6.6717420283756
1.87585083067426
8.31712222832518
11.2966646961417
11.2254265999353
9.82799015524811
8.79766248973026
8.74539720462738
9.00653047912732
8.39511172525481
6.31273056945311
3.08926542688493
-0.586513480243124
-4.07726381199002
-6.69586731633362
-7.87507320573057
-7.67204485017973
-6.7374696715714
-5.71510829243111
-4.93028228672366
-4.58698314431853
-4.97438774881869
-6.38315293825534
-8.76444526570354
-11.4909509279138
-13.7821013256389
-15.4860511965683
-16.9635762553041
-17.99857429166
-17.4624815863886
-14.4201470800022
-8.90297120268359
-1.16775127921752
8.95589614081969
21.1356997612296
33.4241531923514
42.8491755206942
47.0649992459051
45.391547379398
38.8903306154323
29.7575296574911
20.171508026142
11.3708082081508
3.80131246577322
-2.27339378692595
-6.84973271788301
-10.6890575490312
-15.0516716361751
-20.4585208776086
-25.7434801348475
-28.7339379149692
-28.1709578615753
-24.7294418802417
-19.9646906845663
-14.8713508261634
-9.9772578104955
-6.00493818063218
-3.3261333889238
-1.04923297170609
2.49591169512711
8.33265021154029
15.89626563068
22.9118422336601
26.3710405465892
24.8296795986151
20.0741602071594
15.6321485199828
13.3707531191488
12.139536587139
9.54127053218564
4.12707106693431
-3.95653645800455
-13.2406316711638
-21.4417074092788
-26.5027439201488
-27.7314083185927
-25.8595925242018
-22.0730182580788
-17.2936849494781
-12.3183492402579
-8.1210797509633
-5.50004875170185
-4.3037494531984
-3.39023829928628
-1.73662343078457
0.616927556371732
2.98136990569437
4.88737143772219
6.04185075987746
5.91471197292849
4.1151475693889
1.10336386921273
-1.81676027317519
-3.12105876517738
-1.77433862291721
2.08793813168891
6.97147220900673
10.8979620196632
12.6382624471613
12.0799344867496
9.85311150624877
7.01534524498573
4.68082644432327
3.3434857771731
2.57673194713122
1.60063817607048
0.0917588068158193
-1.51116569047934
-2.29572438783951
-1.53521176072268
0.714320820233392
3.66278440655582
6.44087539768167
8.56075379102599
9.81353550405533
10.0912864344618
9.37618509966078
7.66352679265311
5.07779016632452
2.44112704033944
1.35339549829494
2.98433824666605
6.82632711937984
11.0700755346285
14.0582225306594
15.0784853724625
14.0869394677919
11.2113660001009
6.65988436679318
1.00475449374219
-4.65248684990348
-9.14839502146234
-12.0186918947061
-13.5669440345573
-14.189886499319
-14.0309273247662
-13.3805095272746
-13.0704208038346
-14.3163150689636
-18.130449480992
-24.518806240379
-31.9887862157512
-38.0833265454208
-40.6034173609904
-38.4370111047551
-31.9449066378186
-23.2892828657494
-15.6526294172252
-10.5692356432344
-5.89668955384338
2.16102773668418
14.3479639188944
26.5752303765099
33.5401700153058
33.5382023048316
29.1719067746237
24.0872216614697
20.0821782810282
17.2165084598737
15.394608088026
14.7950161549001
15.0190351645033
14.8025987402238
12.9186394954046
9.01197243907284
3.63729011542558
-1.90583694829032
-5.81199998577346
-6.64171683996866
-4.35761187064785
-0.310325583336725
3.79865951712426
6.79901312217879
8.16954109589165
7.68474247991984
5.13091447265488
0.600982510529844
-4.83219753234603
-9.26765909141042
-11.3253024366088
-11.0485308963337
-9.20200093787286
-6.33603918642382
-3.01607005731679
-0.229250375633766
1.25378688995085
1.68292434439747
1.97658783164854
2.60771235775954
3.06660272826551
2.49845695143536
0.904842878569614
-0.451683539680194
-0.191086598895624
1.75270158490375
4.38840599695578
7.13618971612849
9.99235049431359
12.1007978894374
11.440639802092
6.75487232262333
-0.7638192830069
-8.25318596031019
-13.3943587661261
-15.7002225428791
-15.9912471970832
-14.9916307087374
-12.618812305169
-8.60298490478416
-3.41825972964768
1.70708312586782
5.48134535925768
7.06688308610832
6.33587140378955
4.00544264849402
1.33304229887935
-0.530880590412553
-0.914080954116918
0.212609805699166
1.90277550047179
2.39523233938432
0.403579455867348
-3.58469230084594
-7.56930113275843
-9.66383270771098
-9.54112161420068
-8.4460480508606
-7.68532889876836
-7.04288098016948
-5.07440709449148
-1.0932227693049
3.72158034730505
7.33682560988415
8.11576722127263
4.81964019473826
-3.21649270780804
-14.6616800064269
-25.5974001916001
-31.6623082033418
-31.1164388413472
-25.6934411958521
-18.7087114438328
-12.3486139507115
-6.33064322565857
1.0404400341843
10.4641119952696
20.3583046507316
27.9387907496893
31.3706532349691
30.9913611708918
28.8395113490899
27.065441509315
26.5517421144126
26.827597735902
26.9499854251108
26.182443767145
24.2009196581692
21.2340217059506
17.899562233095
14.6492683509474
11.7726723276763
10.0226828917549
10.2624933529223
12.0482438476398
13.6311095430052
14.1521454318047
15.0141727062912
18.0787096700415
22.6795629837941
25.06668507179
21.1131896844664
9.77613410685574
-6.00587620094383
-22.0519782895882
-36.5714909689113
-50.5993377864408
-64.9659235691771
-78.0188667604236
-86.8659255122304
-89.8216563962648
-86.8801684785874
-78.712200180054
-66.3567460725365
-51.7187792572968
-37.3382026023451
-24.8430102628476
-13.4754491315729
-0.729459793272858
14.8633697732143
31.6031767806387
45.6035640474955
53.7459563437972
55.5351440358478
52.6643474787044
47.4123358142048
41.3081829122469
34.8827500817175
28.435446189327
22.6719653341942
18.3524100540389
15.688465121186
14.4020244882806
13.993159066913
13.7443728186448
12.9665116445598
11.4181231254462
9.03733329097011
5.36763205529655
-0.0528103481183839
-6.73736431628769
-13.2791469925479
-18.208230963117
-20.2561198974685
-18.1774699588476
-11.4382812417584
-1.37019377530874
9.01373802595442
16.8081496109397
20.9736577999677
22.6619212518673
23.8996261593304
25.5047795102877
26.0539433412113
23.1067242104223
15.4579572854728
4.07673824524246
-8.81959520594435
-21.1964538909241
-31.8818187224657
-40.2920566216334
-45.8480271318391
-47.9760115570731
-46.6812201843865
-42.6200821329893
-36.3663617447581
-28.0471868379759
-17.9283862753407
-6.92885291650849
3.62982761836429
12.5142610180463
18.9958718156022
23.2541527145899
26.2295708449403
28.7376524515582
30.900744837838
32.4179563180476
32.756946895185
31.0277149908332
26.5380073758588
19.8264011291105
12.5362169883108
6.01017572514996
0.513832115827032
-3.99541421170041
-6.84973842063681
-6.78392377418852
-3.10404448450486
3.15278375407972
9.29691437022695
12.5638899749367
11.6949868312023
7.05132728562371
-0.0348874018604655
-7.48485022304499
-13.0306799190377
-15.8786364129257
-17.7820765140778
-21.6703923439666
-28.9395689267251
-38.0874814842752
-45.8597985570115
-49.8446269169409
-50.2321092670741
-49.007641295926
-47.5087210338037
-45.3102088896959
-41.4419602923203
-35.4843979998286
-26.6813549168777
-13.015064102653
7.05162445767928
31.2930981052767
53.0860306019634
65.4242705265896
66.2295359457231
59.4922143038551
51.1868329216505
44.7074424879651
40.1695700803046
36.4562303899108
32.4973962603774
27.2541961806144
20.1723960152966
12.1247717725103
5.11562455711724
0.520189034324466
-2.28504549268096
-5.40813810496625
-10.423315100074
-16.6956037986348
-21.9230234956293
-24.539157915115
-25.0506566975873
-24.6261114308009
-23.2065164571088
-19.8258928903243
-14.1643483719245
-6.91415682712534
1.00838924070631
8.95451417450928
16.5403699975346
23.6451414969987
30.2707700902739
36.1505066523945
40.5182112575476
42.2712620255307
40.4157383127919
34.5474328316247
24.8543245914802
11.6173081996063
-4.64461177577653
-21.998824423872
-36.8881637839594
-46.3393340197461
-50.3342601745042
-51.1857906747271
-50.6470029119098
-48.4172019840816
-43.5407979533052
-36.3202409031542
-28.1074581753826
-19.7072936275349
-11.1630558994613
-3.30953082968792
1.77099761729712
2.89574642827853
1.60047818451562
0.47928033034992
0.0845192844527619
-1.13129013298142
-3.92598578335632
-6.76115887813472
-7.44694971887178
-5.27935532460443
-1.19761197865526
3.70720292769819
9.67427933574684
18.2101299547644
30.1562560025579
43.8093925875284
55.4342602104727
61.6918312005537
61.44011424851
55.7874130917555
47.1188596446549
37.72829742128
28.580693413003
19.1762548862666
8.63455727027773
-3.18663270256962
-15.3195895370144
-25.9643233359631
-33.4447596803221
-37.4312923232321
-39.024007891813
-39.3840081031725
-38.7095594114886
-36.6853251089992
-33.2368759335745
-28.5557569603949
-23.0232970746341
-17.4391353428433
-12.8563271563585
-9.93188887741496
-8.64302172814538
-8.52480160240177
-8.86005629049269
-8.79600907925433
-7.57185645720352
-4.58113800992849
0.631304283136615
7.94857386619144
16.3033782781445
24.1811332513177
30.4587815850396
34.5633859807386
36.2796221987512
35.8383946303849
33.8293045965465
30.6712334195322
26.4151140685861
21.1184018772385
15.0266874656235
8.39365419240756
1.49304707663997
-5.20818580548226
-11.0497175989515
-15.238620943899
-17.1485829114849
-17.1851423114616
-17.226525281487
-19.3574362424623
-23.8927221602649
-28.938980423637
-31.8940859817344
-31.5084350980682
-29.1417477898961
-28.0543229123538
-30.5126141996848
-35.119567742141
-37.5533475774064
-34.1995232673434
-24.6847299695872
-11.1668536577334
3.71973670661242
17.9551020671083
30.2726553346541
40.0525734542992
46.9419292272266
50.454003330364
50.2142180972992
46.6332961614848
41.0825177417358
35.2822411103095
30.4404351409907
26.8343186508793
24.1267352195436
21.9285805081545
19.9022881440975
17.6190618086521
14.8082407612851
11.6586338458559
8.52095445121342
5.49688703689347
2.55266552823726
-0.36320423301948
-3.51578939473494
-7.09521313007056
-10.5309130086923
-12.9087018010555
-14.4917345525942
-17.1526996028396
-22.7907890547245
-31.5655638306258
-41.7620960124329
-51.0360690801447
-57.6864557852032
-60.9985415774924
-60.8537802485641
-57.6530687976394
-52.6421249830306
-47.1593114831337
-40.6981864073645
-30.7583658941197
-16.1200893107038
0.365046816909049
14.1224454324623
23.9894892395996
33.2242098427454
44.8708151662477
57.4737398847498
66.1613781869535
67.1624955244153
60.5634662138302
49.2502477479082
36.2416820954873
23.297412051009
11.278992652175
0.859187817824085
-7.32430419988454
-12.8076680369716
-15.4552369488966
-15.6457296838611
-14.234777711438
-12.1621264854599
-10.1241394957552
-8.45960048813195
-7.00856323622838
-5.3680910060377
-3.84681202653011
-3.67715682268852
-5.29681618197433
-6.72540496612139
-4.82445001524009
1.54141617050176
9.97091709149569
16.0768258873809
16.6589121485826
12.2141619360285
6.80753942069373
4.84796060010766
7.33429533494371
11.2463502542468
12.4932754069129
9.15672575748248
2.31584464936993
-5.33008615085984
-11.4750469291851
-15.3915604790925
-17.36996444539
-17.2183914058238
-13.9433613360029
-7.02164444001154
2.58042618848715
12.5925034892192
20.0792150451905
22.4118089511903
18.868273030225
11.4533538278659
3.33022446504158
-3.7938222247849
-10.3039989364122
-16.7490689765571
-21.9696270433833
-23.7370683813286
-21.1288240803686
-15.5866675472959
-9.40257463891064
-3.96539584142983
0.0012735655744626
1.5946141960813
0.360860600405788
-2.88341566767153
-7.02183589502553
-11.8689620523034
-17.3158892254973
-21.7835281461176
-22.7913034597374
-19.0882328749734
-11.6230378832375
-2.65198362290297
5.61132501833618
11.8836070468936
16.2093057198538
19.7850029008565
24.2216076765508
30.48585365977
37.7061197154741
42.7020227575156
41.6702180137173
33.3377478480138
20.1811834976531
6.0908638042539
-6.58325652277842
-17.2366906032158
-25.2851844629973
-29.7101566594457
-30.6221765634246
-30.1380343110786
-30.3036222788103
-30.1368816808375
-26.3173353738101
-17.7427385304332
-8.03591710614536
-1.97225402937562
-0.316483308037558
0.0740475494566553
1.68481600486042
3.99485834001862
5.83861831707656
8.14187369480412
12.8714748434154
19.6858714551961
25.0624303947849
25.7276043477354
22.5036269386644
19.5582050202457
19.7342944651221
21.6823057891559
21.8274070239467
18.0400941913426
10.9006973215563
2.47756174236226
-5.13200740847361
-10.5249672960738
-13.2987998568061
-14.0256068092638
-13.769909835518
-13.3049820858176
-12.4123321274819
-9.9250868355583
-4.88268702969435
2.21032602689456
9.49811415180211
15.0116073700403
17.5331431271839
16.6938736500336
12.9390309906544
7.37058898962297
1.20059613032841
-4.68841918075483
-9.64862990807682
-13.0861074771779
-14.6249628390453
-14.4839128073777
-13.8446992316653
-14.7519195362897
-18.930900667007
-26.2118739020249
-34.427255332506
-41.0316581029269
-44.4298087657075
-43.8706663409719
-39.0300472297839
-30.215168250944
-18.5479128776271
-5.51323350599192
7.68305825726082
20.299595179571
31.6479536628491
40.5197774057227
45.3568718111662
45.5426603223613
42.486279375654
38.7194858794915
35.6342874647561
32.5707068953108
28.2275726975328
22.3414844850307
15.720380960004
9.10974187682991
2.42539249087401
-4.85398050481191
-12.5972723220483
-19.6182333683278
-24.656486072605
-27.4630924573413
-28.5270553223868
-28.1541560128051
-26.3846151109717
-23.421806587222
-19.4511994999534
-14.2792057623497
-7.88365676768641
-1.36403605387303
3.33107710586543
5.22321442545266
5.8208749327449
8.16617909871134
13.8473438335978
21.285458466358
27.3910250263349
30.3386143838074
30.1924815586474
27.7835020884848
24.1428275148474
20.4833672744672
17.5116628382654
14.7878627137647
11.4231821962897
7.2852995305982
3.10501396707024
-0.403418439235812
-3.2467921447345
-6.19763909813236
-10.2776976702704
-15.961499080878
-22.8091109121427
-29.9266474603301
-36.5284103921085
-41.9785694898494
-45.7940877527102
-47.7954720189441
-47.7575268111558
-44.8533683224235
-38.0585469414343
-27.2161809339129
-13.2859235801768
2.25152171964557
17.5730895139601
30.198252812013
37.4081749845755
37.8239583169188
32.9274339083455
26.7960614985768
23.5805938880973
24.5759027349037
27.6287158271584
29.3183444727057
27.5316821561144
22.4381791450423
16.0183914941508
10.7902638193281
8.05964388270944
6.82203150018901
4.60264822578162
-0.328740537651109
-7.35943894598269
-13.7806668276911
-16.6102152444867
-14.7653036553018
-9.9343008298534
-5.26651234063728
-3.09553242175568
-3.92035951969052
-7.06757148302692
-11.4703765351336
-15.8302010645874
-19.0482805303182
-21.0233120923032
-22.4903021849892
-23.642125069505
-23.2368320487293
-19.5417662227976
-12.2664859380412
-3.3525207209686
4.38972785672723
9.35606718971595
11.7107326475897
12.330217364661
11.9171759735411
11.0026749304871
9.93141926594481
8.5559472121352
6.3871684373857
3.27127847797443
-0.123919473900491
-2.46510022202603
-2.70036175180763
-1.30728883690074
-0.207131064151649
-0.718756613631641
-1.96931077379917
-2.00066429580723
0.161506163563941
4.23338598854273
9.52742005851383
15.0247831902757
19.2861133703829
21.3535265242333
21.4599603702506
20.3111913828112
18.1462208533955
14.9454023715302
11.0341407355635
7.05066170142728
3.66304506735574
1.3984062639638
0.259805668454454
-0.451114562490607
-1.42242067378934
-2.62499069108279
-3.80866629750612
-5.30380442732196
-7.59434091816774
-10.3040271560794
-12.4030479092449
-13.6400724703214
-15.2821044547475
-18.9255619094606
-24.5527844219279
-30.1263566114857
-33.2207642661068
-32.725104781261
-28.954333935994
-22.8349022550398
-15.4403860420673
-7.80029315664979
-0.575659559864036
6.00528782758327
11.828349262188
16.7748609107487
20.8507572471597
24.1320763773507
26.7352377342313
28.9867364300262
31.1133043201292
32.4374344056274
31.4547975798748
27.2048624174989
20.2365541784252
11.9979145922471
3.75868216325681
-3.68517041498682
-9.92636880353077
-14.9936318663285
-19.0267788566022
-21.6207832593526
-21.8897656171749
-19.3374863045814
-14.3940375995271
-8.238298629861
-2.47299702523794
1.24775317425018
1.84425079488546
-0.607513769787517
-4.75664138251363
-8.5532111877198
-10.534419944037
-10.8750083448972
-10.806504004953
-10.9093167213969
-10.5322898511181
-8.92136507769781
-6.19140141560666
-3.05665049392238
-0.204644990801894
2.07802280650403
4.27021130892135
7.55898503881915
12.8048783558149
19.3687508144325
25.1104198669245
27.6210686418086
25.7313009307199
20.2366519135339
13.2049546401116
6.40698254182356
0.425088852309844
-4.84581891926217
-9.29527874525775
-12.3788423434827
-13.4919394808299
-12.4912257787417
-10.2118864033197
-8.42377314748254
-8.61376239769509
-10.5412457145767
-12.3897177424994
-12.4294125463774
-10.2022227882754
-6.25963948052105
-1.31194411699051
4.28352142395752
10.4072998108732
16.5331396614476
21.3173644730824
23.2200357687331
21.5897343452457
16.9418279322922
10.3496368245125
2.82854946822745
-4.90132520607438
-12.3562968096759
-18.9719117405178
-23.8822325230717
-26.2244120819637
-25.5918978045241
-22.0104886007997
-15.68901990592
-7.09033320866314
2.80632971162859
12.430446053166
19.9727983648395
24.3337408831072
25.9765836430797
26.2737270968032
25.6784560230019
23.2476373981582
18.4014607342033
12.3195466858961
6.89335319980267
2.9480213839671
0.265370254999603
-1.15582524930587
-0.826535236667622
1.19536771079383
3.50984636378797
3.90313072297925
0.876523185962253
-5.15111709238089
-12.2718569873038
-18.7586123130158
-23.981407022546
-27.7961386191365
-29.9529966580863
-30.5716147936105
-30.47644979157
-30.2637491525936
-29.1989330952158
-25.7483076265557
-19.5486872347046
-12.4709886050918
-7.11239975607875
-4.27443722319771
-2.557065049728
-0.384225654902253
2.50197085897207
5.6825002786257
9.01751081339186
12.4339330324617
15.7104888998935
19.0550760964652
23.1275557474606
27.9129959790988
32.0743835186934
33.8828699240905
32.6282134495835
29.0378633002272
24.4782161186243
19.7170837915255
14.4400063648403
8.18050131265706
1.60482627220614
-3.68007993147642
-6.64598536483235
-7.54767940985479
-7.02844182406498
-5.25698281263863
-2.21305579268343
1.69787106956365
5.50758468668948
7.89307709384466
7.66691489765472
4.48008925037108
-0.869097134455773
-6.81033850183853
-11.6444247092634
-14.2002728296344
-14.3764138274783
-13.0390652039997
-11.2269922049813
-9.5947260840219
-8.58369758487523
-8.68542057576054
-10.3098300982319
-13.4703836988907
-17.5297057158134
-21.3414493391402
-24.0826452809057
-25.8616991686136
-26.827647887143
-25.8726190814884
-21.3483043013642
-13.2305316668147
-3.5589677375374
5.45576433523812
12.8364034251175
18.267327300905
21.2739130673528
21.6492079480547
20.2028567713093
18.4754931453635
17.6184740126988
17.5747825381075
17.3221193329967
15.9939400888378
13.7591712058717
11.5010979970374
9.88107878836988
9.07623067175164
9.11856711401817
9.84153644423495
10.5213498646308
10.1106794249299
8.09194453277346
5.08082795312416
2.48019426258821
1.28909767969713
1.17712093021484
0.991121980118454
0.148052375089452
-0.886047541729045
-1.4331074156483
-1.40620186111469
-1.34110868863457
-2.06559053206779
-4.12497115630978
-7.12327022938108
-9.97423604582002
-12.1308869495024
-14.0457957434259
-16.1561001465117
-18.1451104615819
-19.6070891476837
-20.8391869758222
-22.5407075778166
-24.8691968822674
-26.7362965909728
-26.0183504844685
-21.1546387434002
-13.1305437236014
-5.42855580607879
-1.30068812632576
-1.03955907367349
-1.97088201050977
-0.750049322596779
4.25987952813457
12.0061892314992
19.6313903744213
24.7165174430969
26.9576758837459
27.6136166058894
27.6225884924937
26.6566619153463
23.8219965602642
18.9138132661782
13.0212892903198
8.01307085918699
5.33308300565878
5.1636581116575
6.50852632056677
7.81690495755175
7.83122091763156
6.4906289928238
4.99594445011439
4.47006278644191
4.6348018253499
4.20254481454963
2.2493337534433
-1.27657190667546
-6.00831675039864
-11.5188206040861
-17.2839626769701
-22.4292524690941
-25.4623913631161
-24.7231144042605
-19.8417814601589
-12.7467284347594
-6.66515664292314
-3.85954263030184
-4.21051181509272
-5.60040851026107
-5.48554195466682
-2.58626876815805
2.33508970392638
7.21519472973726
10.3002187210215
11.0822088945312
9.92804083374631
7.26898140646511
3.33816272248445
-1.4384803089864
-5.99070028079074
-8.91587577087389
-9.62839736684302
-9.01175010958291
-8.50041044585967
-8.6960224665602
-9.20987725812588
-9.3944929541267
-8.60830242752226
-6.05618876462918
-1.10410890217634
5.92335642752201
13.2041113443179
17.8751711653726
17.7928991407536
13.4471707114563
7.78774672131451
3.76157607777866
2.34621911614841
2.87824605353264
4.16530481453174
4.82955051113155
3.6470581264669
0.496067780645833
-3.2461666525817
-5.62026393013862
-5.41816804588045
-2.89976916400144
0.405797068278382
2.81893050011601
3.86324651146601
4.37645512842739
5.1025833958065
5.69509018260051
5.51287414804708
4.77105477635237
4.19106343836781
3.84112128225327
2.98194234152236
1.02119113795003
-1.76810560309619
-4.53577512778142
-6.63142530670469
-7.92548667786968
-8.50566287858781
-8.43114719826071
-7.80047548423699
-6.6061837556041
-4.47251842500095
-1.11476642490523
2.83229464316627
6.08996982457822
8.03061987521785
9.1310020010719
9.98728680904024
10.4026027805537
9.62563390548415
7.18735305583855
3.42288146400512
-0.79604339990668
-4.9578620542538
-9.30318869177295
-13.8736717953199
-17.5012221920862
-18.5706434185304
-16.7628984137317
-13.3182434488101
-9.54105161812382
-5.74597059931154
-1.83951624557626
1.70928615087382
3.92465151406539
4.19295347551601
2.90427072069675
1.21871668980509
0.101310958118753
-0.390454013627222
-0.701080283194111
-0.906787481847401
-0.696075033055733
0.0045285270267317
0.991178570140442
2.31251338403863
4.30242797376863
6.95468316599724
9.49287536025548
10.6938277257252
9.7442753892485
6.8889803118328
3.19414065694824
-0.268852706283277
-2.76389752151462
-3.59215663673893
-2.09953188722991
1.75740639957245
7.10050543280648
12.3937142835421
15.9294470934465
16.5330065210718
14.3300315439291
10.7223767905548
7.39538537281327
5.36710158178622
4.63482401448834
4.18491060212045
2.61570248626081
-0.524841368047931
-4.08993391570414
-6.54875898522912
-7.65305705021286
-8.36347948133069
-9.44537833518211
-10.8982489642419
-12.653196256872
-15.0267443295927
-18.1916930952587
-21.5269925044715
-23.7891582817712
-24.064737615366
-22.5248744207473
-19.9808914521737
-16.7049708156346
-12.179840002987
-6.12717789072466
0.780557689476144
7.41687988331191
12.8885174585791
16.5845343376377
18.1006893199603
17.4847865118198
15.45793879123
13.2503294542233
11.9520243902796
11.6308095653809
11.1995611265039
9.62692262843094
7.15769164574683
4.9096496019466
3.59241099365224
3.15537190072197
3.30283049096961
3.73474985542668
4.11660973864708
4.26358162450954
4.25049873754164
4.21542703901972
4.20468213658852
4.12662371517372
3.65691990645058
2.3988583873744
0.357362820246737
-2.03832869949849
-4.56330349929089
-7.39483189575154
-10.4081482889642
-12.732517325939
-13.3713501977632
-12.0777528098425
-9.56680299333795
-7.0393845866864
-5.31060448317119
-4.17808151904109
-2.86371494873658
-1.102226545905
0.642739471776615
1.99308073559906
3.05732524975396
3.95367762160218
4.48350012055336
4.39651643093226
3.66404460971362
2.46592770648785
1.01308866585426
-0.672957736343621
-2.60625536130381
-4.23990828284798
-4.57163978081382
-3.45199087962416
-2.18925890670512
-1.99874437463193
-2.3068654594986
-1.41183626060178
1.49461685722283
5.50489062426097
8.7734362150159
9.72806612425565
8.03103717255049
4.82194538532421
1.79554431424478
-0.156525499174857
-1.32529899770021
-2.48999718735595
-4.19117270291213
-6.34470696258952
-8.09522149765234
-8.35804039655582
-6.93730402962694
-4.79044288718916
-2.85220257417441
-0.957284344449912
1.73383950783029
5.44979851967946
9.21747471040281
11.6193150687167
12.092721892986
11.2335210320055
9.72107332378635
7.46471697423971
4.2316757870854
0.597921947467693
-2.34686157777458
-3.94321568775258
-4.185148728142
-3.36776108515501
-1.93091579465893
-0.422801083028346
0.648882653750378
0.918609376357515
0.302413029033086
-0.802430285068277
-1.79591692711455
-2.56529605903275
-3.50695061114396
-4.69817404449633
-5.51152050934017
-5.2916103107661
-4.15193279023201
-3.00726947514324
-2.89517025061829
-4.01851438516552
-5.2625553907779
-5.03405068669785
-2.90747445493528
-0.142046318069494
1.62386307299177
1.7922643875678
0.877550213344761
-0.19955706509251
-0.750328998068561
-0.847108239958216
-1.31636084032447
-2.74940156405293
-4.62252782344597
-5.84405698757339
-5.95964255463655
-5.32693830234886
-4.21558285365137
-2.20024856068147
1.27967792649736
5.70565415398903
9.1547808620635
9.82702130442609
7.99612968444097
5.84639705403846
5.24331465260415
6.23728999957236
7.75506398705099
8.98891634648537
9.88382776696014
10.7337064423986
11.4584636059514
11.2381388712457
9.17484027333178
5.38558338218621
0.999780258779249
-2.90395688165716
-5.83234593178394
-7.55567244332371
-8.087131949805
-8.00859812122947
-8.03097361254416
-8.03765508102994
-7.1069849985048
-4.64867916109672
-1.24594809161158
1.57338389241044
2.26278559963659
0.28333602193224
-3.48157997982686
-7.40178663868354
-10.1694277415357
-11.1922415446321
-10.453317843433
-8.46655909301896
-6.08079436728511
-3.87032195108721
-1.74377931755652
0.790775639318595
4.10399491670829
8.03544514590269
11.7431494350696
14.1041797522441
14.4572586128522
12.8362133851439
9.5838599187399
5.16829837853003
0.34151641251062
-4.00325892367841
-7.23560422695137
-9.16032357289163
-10.0785458860118
-10.7301000290363
-11.5932493976481
-12.1096076605456
-11.2820392426279
-9.15364637548679
-6.87953590448532
-5.13110320091017
-3.29440605820195
-0.621872628451128
2.56799072487669
5.30210330424433
7.03196731845334
7.91566933333514
8.40395511741873
8.86206072541604
9.45279804113915
10.2363386227368
11.2431857149509
12.2135961503674
12.3797158095434
10.9550188392312
7.97304789053735
4.48215095831749
1.89565488029082
1.05107181682486
1.58394369553519
2.2051768840817
1.87159829034759
0.642045927272643
-0.76489658138945
-1.91448845664876
-2.85699196235492
-3.76833639915366
-4.75663167497349
-5.7788677252474
-6.5744304627754
-6.9107295851742
-6.85437632987681
-6.55780469941562
-6.03079014611372
-5.40628160516164
-5.04579643099234
-5.07453286016811
-5.20865464611831
-5.23709669361208
-5.19855677516555
-4.93811030726034
-4.02568949845275
-2.3246797923548
-0.258500241396914
1.57443084363372
2.77359014438118
3.28743210441779
3.54549362756487
4.14760228211265
5.00986409708719
5.15514295518687
3.75412996022647
1.10431453237589
-1.61455705285091
-3.222105068039
-3.14343003932813
-1.61894228779866
0.462582298801612
2.08786230285188
2.62111765714024
2.02548017123803
0.86438164328848
-0.0426358318393213
-0.272797871163623
-0.0610235232670486
0.172880743525451
0.305056236916683
0.480070984785729
0.949284657896392
1.88785052180721
2.99175555130177
3.47443814912772
2.93263936736563
1.90882169030199
1.13393460408895
0.634860747357772
0.0563958976333386
-0.62281491523432
-1.21188344294901
-1.74894665916283
-2.32770699104585
-2.68533107889719
-2.32067497188964
-1.04375432471261
0.59340391388884
1.39464230959848
0.359327953680114
-2.25736517174703
-4.91360054119438
-6.04174871014897
-5.15919085039442
-2.78504440055251
0.160687206270897
2.69289172250133
4.01906972265889
3.84195768873513
2.43827975918899
0.539760487830472
-0.94306870452977
-1.51576736514891
-1.53680446481334
-1.70997640010761
-2.08768391546797
-1.88022770849159
-0.276343867219451
2.6537726183665
5.70234572419606
7.21148956392175
6.48341428176933
4.5743229967547
3.26970431195004
3.32402569742065
4.07328666695336
4.46420660674999
3.95747213854528
2.73025540511875
1.42616329072517
0.433591479583867
-0.710736531394237
-2.68103158377061
-5.10304305503428
-6.6976118153636
-6.84147403331294
-6.22363058021838
-5.71817979644661
-5.30675892202729
-4.39513566878992
-2.64284124393831
-0.244187405570811
2.2695347837386
4.45453197312895
6.37451492108914
8.42801756706629
10.5942454875236
12.1017308797571
11.9974665044042
9.91019529860683
6.3250649352649
2.33308968518365
-0.932444887640454
-2.81439137887045
-3.31760552007746
-3.1066823881523
-3.32548504650446
-4.85016697842963
-7.42294686854539
-9.94166233966527
-11.7051003401699
-12.8116216694831
-13.4137457107441
-13.4798142185859
-13.3380202391504
-13.4763383455129
-13.6072573121523
-12.7693829989517
-10.6043362129829
-7.87456008800436
-5.35650234512287
-2.5947315520953
1.63977051719319
7.29771011100141
11.8260792624043
12.022918577459
7.62705339507908
2.33465027468124
0.473675747492722
3.0027649219516
7.24665772607821
9.94851992184687
9.90313657740235
8.16644466122873
6.6198342310278
6.3830933344672
7.2521996186921
8.44335492049584
9.48401058390203
10.1370050387115
9.99045238132119
8.72698258839255
6.61135863231061
4.35225888871385
2.57260978823878
1.44920338990205
0.67286815157004
-0.166971451348899
-1.02223849086346
-1.45106778437876
-1.32208189255397
-1.05956429801704
-1.14238998767949
-1.78714358945592
-3.00499695759475
-4.43764781508236
-5.33584614848944
-5.23674851603123
-4.43984688048991
-3.5019248127793
-2.76226970724429
-2.65142095253809
-3.71087535809745
-5.74516569536936
-7.49640403041625
-7.72074729390058
-6.34268928907481
-4.31612903731182
-2.6543454586454
-1.68391965198346
-0.890846618010657
0.516075773696225
2.57366765317466
4.22015707447771
4.29879469401589
2.73981624110413
0.532578706338789
-1.24306406327854
-2.2040795270303
-2.69107045527582
-3.13701827162989
-3.4456031954572
-3.13364563689149
-2.00410289656878
-0.392168148270405
1.16904335939798
2.25813070162965
2.73205533287252
2.84714383305108
2.97668007056559
3.07931702913047
2.82537454064382
2.25102274817278
1.72156866820067
1.27388587846648
0.627965327332971
-0.217060459617838
-0.995195057804206
-1.62570701627518
-2.13831389633642
-2.40747086168442
-2.39938817516285
-2.32392534082916
-2.10930913323305
-1.11349053113016
1.12235370667421
4.00225922266413
6.12091135626206
6.34954978434575
4.64147839051471
1.99613775548812
-0.307370696325172
-1.62399766407792
-2.1480678155366
-2.30841148080979
-2.29812971540097
-2.20134589608749
-2.10524661056415
-1.94539665389295
-1.54956193877136
-0.861154065768955
0.0580381975169767
1.10079617387001
2.0768291867399
2.84027573079758
3.47159874931956
4.04153986159684
4.31195766423132
4.06428905782274
3.59176257637944
3.46198674154146
3.84179717237001
4.25134711555799
3.90914507014611
2.39655694806301
0.208951864052249
-1.55600901425661
-2.31241326326796
-2.4520973412622
-2.51076540123596
-2.44483081970733
-2.03083978430093
-1.38453497583699
-0.762018098707036
-0.370694797231925
-0.594411088643275
-1.83659621863253
-3.89608023744124
-5.97501541429486
-7.45870033778549
-8.26958184444736
-8.47727558083727
-8.09881902788434
-7.32344074903975
-6.49167525389012
-5.73967361297553
-4.79327600754518
-3.12092515761926
-0.451238998331754
2.64200145640509
4.88289496797148
5.3069206593087
4.01689145411591
1.9522798760047
0.282697675941655
-0.0947410126340882
0.875670904743858
2.23120604108584
2.85858346929446
2.5817942515061
2.1387654355976
2.33875615959826
3.51983223002004
5.44491454585192
7.39716335020307
8.6618463117106
9.07451757434713
8.90275318064879
