0.326636261347748
-0.0024199352486412
-0.218063979008257
-0.272869204832403
-0.204581715062659
-0.107042523538992
-0.0274834973583638
0.0161823584735854
0.0108070112724118
0.0304466503722721
0.18773368737737
0.438841101410509
0.611745001802453
0.627134419084522
0.513851618567286
0.307329373843462
0.1276948218944
0.170010697312168
0.412273884395705
0.566462303168109
0.482211045804331
0.328531568327959
0.273546194027804
0.274357420908107
0.235247133431615
0.114171380224786
-0.112907850038231
-0.378149817818051
-0.497578295787554
-0.408783831325758
-0.300664604939374
-0.340479047278871
-0.444124300157746
-0.469689203184368
-0.431920179382423
-0.381252901668836
-0.287182990740994
-0.159596570715046
-0.0973694652069677
-0.163018842373221
-0.339888521356286
-0.55554518719324
-0.648496265711599
-0.462099765619908
-0.0704678957875847
0.237877586484448
0.248855671921367
-0.0157519815837539
-0.370832716315854
-0.587182316510887
-0.537179517506684
-0.309286428678136
-0.0814898953847531
0.0963145500309324
0.243758640734803
0.285844989667417
0.163917319336955
-0.0164536541082267
-0.134945206943747
-0.188050232080465
-0.16664212984963
-0.0460024926369032
0.0553409990975817
-0.00895522796641
-0.152695740089156
-0.194771913554316
-0.16272662589394
-0.16995503861646
-0.137364801353626
0.0645525348996439
0.346514204486503
0.533175406195431
0.598239884617437
0.569098828603193
0.422441251793925
0.243509508428613
0.226302656688401
0.374929904690142
0.458706922479039
0.339386096145153
0.112005386361849
-0.0881393285614815
-0.225840759788223
-0.332748339349919
-0.432528230996272
-0.460089844705023
-0.289554730296468
0.0628628083014189
0.375285794154382
0.472958533101749
0.398547049824473
0.267674744262624
0.16192623890696
0.184367929521237
0.373221192609778
0.574436681966023
0.623433631384856
0.557159949743259
0.463762756035377
0.334434719963533
0.232088958778385
0.319351467358582
0.570809624143285
0.749210388870216
0.737138212891098
0.602343213194849
0.359040976640156
-0.0223911673440338
-0.431063936557829
-0.738600833238682
-1.01382716487929
-1.35068390883394
-1.620734908089
-1.65722944564933
-1.5428818010719
-1.49400331707085
-1.5829300451041
-1.68014507291185
-1.51765034357674
-0.825401578641126
0.367451521043711
1.59280159680839
2.28581057938715
2.22926352827131
1.62269392161811
0.877329409502002
0.369886387771783
0.224182166824235
0.298207037632293
0.409762486852425
0.450600239627805
0.301855524119626
-0.0984049764097711
-0.592144791490164
-0.958665210221487
-1.17500512001237
-1.28138369546519
-1.17705057534418
-0.841950005298969
-0.530829636616127
-0.471442853126788
-0.609962246766339
-0.820634681261365
-1.05154918457334
-1.15715753344902
-0.94308996218751
-0.473274256736229
-0.0432080810283362
0.175487642637437
0.238013524808418
0.256007491842005
0.349371184363819
0.638858050088418
1.07503081761018
1.42397221945185
1.57364758424861
1.65197294327927
1.74292338805395
1.73621642335446
1.53346954715109
1.18227606567237
0.791256434450547
0.473841602699727
0.312568251588896
0.2706476124031
0.239208202736182
0.192633240542889
0.159945892717135
0.0969992018538497
-0.0499193012780887
-0.235419533039253
-0.391846716626317
-0.497124071608795
-0.513974034396534
-0.42583521551151
-0.325917197267197
-0.295488425778999
-0.282023423317119
-0.26233215921696
-0.336129400458998
-0.4936914023125
-0.543022009148938
-0.406574635574315
-0.224394598208526
-0.0994637693565778
-0.0186024061716377
-0.0142717245296313
-0.119129307332058
-0.213494167055858
-0.178414429227497
-0.105665345521561
-0.129945408286715
-0.201736931726354
-0.238273299560287
-0.309543864446665
-0.478212200490289
-0.65820661145604
-0.770512922983287
-0.827123176969054
-0.811322827885962
-0.696150492406906
-0.547193347794832
-0.405265144718987
-0.180947429829143
0.162849215616815
0.48062421429374
0.62113055213728
0.583147743480047
0.45133375402085
0.316527756896348
0.240467634734434
0.205125962540242
0.167550708217853
0.170632326403737
0.251673366313206
0.310206588813814
0.274319030778061
0.265671669388187
0.372863465509227
0.462544883272613
0.430736990458185
0.380019713119978
0.373377360507993
0.318139964195576
0.210985207043245
0.173380353562932
0.187780676530728
0.115171882606029
-0.0310039832601693
-0.127252821355492
-0.194710893451905
-0.328346127895747
-0.473837774951519
-0.535472462012419
-0.563448884299813
-0.603423545788503
-0.547438311044305
-0.337949741243424
-0.122484687918155
-0.0582581008363444
-0.136218225075412
-0.24712810145989
-0.267487429377681
-0.11405664831464
0.161805885048781
0.400742688449868
0.498385946677911
0.446704897903269
0.267839126555405
0.0424609501957196
-0.0947486897676679
-0.108979551817512
-0.088335315520042
-0.0659527285186789
-0.0054196344727727
0.052271971724331
0.0593839707219629
0.10661920913163
0.256505259890469
0.371381733115337
0.337277909399548
0.263317606345044
0.266153956825598
0.288573838670237
0.26721784098817
0.239844254753896
0.225654574313553
0.22872602287351
0.330926114156762
0.545502888956221
0.673860597416749
0.557242183385201
0.34086275955927
0.245393999136984
0.239601641314375
0.163320475637704
-0.0152125085236321
-0.243460403531152
-0.475247414537702
-0.611250266089666
-0.573660772554375
-0.478492218889156
-0.52907662002292
-0.761950437517055
-1.04105917082001
-1.20391482757561
-1.11861250530068
-0.736343529305832
-0.152151790857724
0.476357782174425
1.0295163000554
1.38600230068274
1.44082903407317
1.24199768692502
0.935649373913983
0.560428703919202
0.0968923264878176
-0.351811074494215
-0.669558150015791
-0.896893770421861
-1.08647154394884
-1.191249828031
-1.25144481499239
-1.40469430219943
-1.59183926526653
-1.5841260914802
-1.37246940166576
-1.17201638756509
-1.00747424537963
-0.665125378351757
-0.0874402794258145
0.516128362706399
0.95249259041097
1.16381757208663
1.13830667777843
0.958040145721476
0.813685579135325
0.76175937860676
0.63231850842469
0.327429478256101
0.0196264927137617
-0.0450450530968545
0.213996698936206
0.68455220332647
1.1552725799912
1.4633433446707
1.58298767550128
1.52276524059525
1.24351076090685
0.800643842837434
0.394514789937636
0.127465849302816
-0.0944132891617418
-0.318719118081339
-0.456861687907292
-0.491325297557728
-0.501664246069466
-0.492474290062599
-0.450032689845515
-0.461516384065926
-0.540921493794427
-0.5358234899359
-0.40835337147902
-0.336184096669419
-0.376930553139808
-0.346126908404525
-0.144109805436235
0.105545158719898
0.29864484468216
0.430104350284523
0.429281728201182
0.216949991811282
-0.0862482342438891
-0.267443702156124
-0.287573024827654
-0.243004502883905
-0.187051164858318
-0.149898094949123
-0.167140484403435
-0.186070481288653
-0.124260865950532
-0.0339197814543016
-0.0253963753040252
-0.0940186718980854
-0.180833494406792
-0.281159157543035
-0.380333796052547
-0.426463224551687
-0.411767794981605
-0.351188326115675
-0.231362159624618
-0.0946917971786983
-0.0390308771504183
-0.049633178061509
-0.0262166489038741
0.0045048944589596
-0.0364242011784434
-0.0417081311039184
0.13586656592846
0.394176236696922
0.53826503424805
0.569049924603465
0.564821391726364
0.502816828012988
0.399420246531752
0.362026154088931
0.366993656479948
0.26666245876939
0.078250637622346
-0.027815392369406
-0.0349680139785426
-0.079814092124114
-0.17601353935133
-0.22401039373866
-0.230948946906693
-0.266726266770366
-0.30658930942738
-0.31593678540551
-0.335344684159187
-0.352068564747762
-0.289826003446827
-0.188403938252702
-0.17166667368059
-0.231763014006618
-0.2464226628889
-0.170060383635055
-0.0580349341605252
0.0267697620476383
0.0477277926929125
0.0144890671846045
-0.0200155608716796
-0.0371118237092129
-0.0466970940648393
0.0181280843259929
0.225835727522939
0.460815070028719
0.536288389190423
0.456442964050378
0.335912542933253
0.187534795080856
0.0398048941161856
0.0530750691401419
0.256491591543434
0.418262556035084
0.398921280898976
0.349714694824609
0.390458561177104
0.405375970843628
0.3044562986523
0.184352934425629
0.115748888470958
0.0427875362744829
-0.0466761673566669
-0.101795794265329
-0.153991645022448
-0.243010507297726
-0.265502299193063
-0.120892042168224
0.0936335297530091
0.204094405120222
0.15289662014033
-0.0156141563028397
-0.223003182864081
-0.388871644219345
-0.506411918590934
-0.644110443325773
-0.81936301787151
-0.972667318348059
-1.06464271413562
-1.06981174094426
-0.941682431955929
-0.716172436892284
-0.516410672273823
-0.33910129815347
-0.0334754006506204
0.414106416979134
0.809868079705549
1.0146962971148
1.03372634788177
0.880962089609326
0.613274271340663
0.399259849747091
0.318072281056441
0.243079686420351
0.0966564983301609
-0.0017820179379962
0.0347455924656212
0.138020168247618
0.261474273337345
0.41218912819742
0.48905587517047
0.371937975566701
0.161348311719969
0.0616276022465729
0.0843953683176291
0.115122771628372
0.147264056354751
0.205640140302485
0.195588420634882
0.0391808560176928
-0.19132159104957
-0.396025211916744
-0.549930602543676
-0.650497918608147
-0.698253474021672
-0.707431552274288
-0.674525151011743
-0.618760460644618
-0.62351731207984
-0.687321950815703
-0.626267540756151
-0.310204009398348
0.128467839406107
0.474524494013749
0.63901009812538
0.59414628826433
0.357748777172701
0.112180821099153
0.0636499918537517
0.169895679340232
0.257182794385477
0.313954775731481
0.421920483621635
0.554165184623018
0.649404964935005
0.69694345921125
0.630526455357299
0.377561678159977
0.061645708031636
-0.115275061813166
-0.183520910445981
-0.305785516772804
-0.42595686168962
-0.347614378363661
-0.103459728935878
0.0688338094847302
0.0533549854519662
-0.086909486416728
-0.257998786792089
-0.355555464929322
-0.297538373805064
-0.150980834110329
-0.0655831656032994
-0.0649984166731336
-0.0626303228020754
-0.0221600080155101
0.0388507647648042
0.105192532682966
0.135698949611791
0.0926435458400374
0.0133223965614514
-0.0587232615218986
-0.143266763480575
-0.220846059506195
-0.206696611914962
-0.118229038424875
-0.0816559935534554
-0.126973522575302
-0.183733299852794
-0.242792447613706
-0.295944956177133
-0.237932363535837
-0.056880186978903
0.0705965400378358
0.07051610078792
0.095524201506989
0.195146257619843
0.182577174762513
-0.0028808085851271
-0.11916380349497
0.027155914180775
0.322056446933206
0.551069139627868
0.620979191967959
0.518407189441456
0.279473520020534
0.0193821942078787
-0.17911355406519
-0.349589226087683
-0.509785769653441
-0.590900742264518
-0.566822880367757
-0.486987505808742
-0.3721684779594
-0.22625916547235
-0.0892369859285311
0.0333207519209614
0.180430918542859
0.326048475984468
0.406319111495691
0.439259730475447
0.464030667657
0.443793719185287
0.357455235232662
0.240974882190039
0.0719733499797912
-0.154752884859003
-0.243670187652839
-0.0217814378412935
0.301527718079782
0.377783195786537
0.230724163985711
0.138841058574936
0.155010421293201
0.128596181468224
0.0475320528599028
0.0157385426084573
0.0311431466350505
0.0340558528179074
0.0284355806919367
0.0031342796184936
-0.0867219449769204
-0.177290585029585
-0.150527620842802
-0.0584637093776883
-0.0508525730963045
-0.100289964499243
-0.0541992361427672
0.0895989642478173
0.184289261335902
0.142771837935658
-0.0075273479116388
-0.196551253420924
-0.365249772429577
-0.510114464220744
-0.652445333972987
-0.731892082640454
-0.647136772459965
-0.426944028031231
-0.219228343041867
-0.127126166402726
-0.180754179500898
-0.356528060609151
-0.484810380489736
-0.331316218111862
0.072949272883824
0.403311482054674
0.458711448519954
0.358330954895183
0.271833266141403
0.236227978996269
0.249847927313858
0.292943183537163
0.301404752659554
0.294132283201086
0.37457238166083
0.486207491523853
0.41895569834304
0.170607734109786
0.0084933077951819
0.0693800686943781
0.19947571985903
0.265505194130902
0.310387579777085
0.350031337821534
0.323973618041141
0.264922679078433
0.249363851057383
0.229468496067553
0.135874681841013
0.0311358372312243
-0.0119157459160044
-0.0369821970009452
-0.103211489841998
-0.202309078249343
-0.311344508616707
-0.417016116891239
-0.513656883745642
-0.621184311243256
-0.720246145538863
-0.705981003428562
-0.549924885631634
-0.41353515608179
-0.433927398428224
-0.537065753913925
-0.599791208674386
-0.58363560533427
-0.414490726080056
-0.0265525673065742
0.402202256073025
0.577388124610479
0.4659628038213
0.25097846446365
0.0110030031377111
-0.235346568462323
-0.323905218522112
-0.115424437395936
0.258560153366384
0.558317300818247
0.693166635574252
0.668668386558302
0.492507516734215
0.266312123747686
0.154178903413588
0.1637942017546
0.151850907100653
0.0566989152150752
-0.0675671188327504
-0.182563046289646
-0.251062440141001
-0.207077856982282
-0.0702525380455364
0.052516521929515
0.126288684304425
0.189694435291562
0.230298446542193
0.213713621710279
0.158146959492779
0.0799797420013221
-0.0132240346193669
-0.0514366755082736
0.0157867363112047
0.103348548111089
0.115975769273846
0.0901932030477574
0.0886184849920848
0.118501050484249
0.214132846313913
0.364387347105281
0.378502128181441
0.130997684828233
-0.140915111313998
-0.124137425945773
0.115199414601441
0.283920252440579
0.285136055739035
0.197482736295427
0.048567002215791
-0.125596557315481
-0.19938325638855
-0.143864685924573
-0.107499049048315
-0.184508857358912
-0.302576969535393
-0.394505908562671
-0.451083956056661
-0.400727088289141
-0.181129917242385
0.0980813311582953
0.267153986844676
0.293599854470112
0.235650228279983
0.133836932852354
0.026746219316892
-0.0685611831664156
-0.200004197416351
-0.386808390869782
-0.556015503394483
-0.662950847543685
-0.754081591095162
-0.868936532741727
-1.0132980855948
-1.18474013239345
-1.28028502815958
-1.11955435757259
-0.725224332707648
-0.382622660922873
-0.266783668302425
-0.233572484112782
-0.0704816668890576
0.29193974456123
0.818311829272794
1.34802738562929
1.60804121207952
1.49913623981505
1.23951579724717
1.03620632729917
0.840795021710165
0.595268803200104
0.419086005965917
0.363620117928279
0.276139482266635
0.0796988364699876
-0.0930336067701198
-0.165341336484232
-0.223464556316268
-0.28226070325885
-0.233112592597765
-0.0652915639789219
0.100064118677039
0.181092795246527
0.174034836721476
0.0991634116035085
0.015917799597519
0.0034991456159521
0.0880225959060023
0.239827495309044
0.383519340280101
0.393910441237292
0.222411936686608
0.0178673875303478
-0.0457307589834771
0.0033245791702001
0.047015286807719
0.0714557796558685
0.0751724421076909
-0.0103824444934409
-0.152322676760878
-0.207029792831187
-0.172725297002745
-0.182670047221948
-0.23843677723769
-0.245367864287959
-0.246142315858344
-0.323667919040573
-0.398583802380651
-0.388497047339891
-0.39320218297564
-0.494764823655181
-0.580783261479973
-0.561739252050062
-0.546042115164169
-0.633092333466327
-0.742450037428307
-0.763859295599214
-0.671683107387329
-0.449640296539116
-0.118234007867266
0.188177744000307
0.374484913275555
0.523378534752879
0.716723414601639
0.868564974497617
0.863101427348958
0.708205065074563
0.494272092155273
0.3216413526377
0.246020566867456
0.221023548121723
0.177625767849666
0.154996156454538
0.206307733841669
0.254741728455992
0.231865537025856
0.219101353261088
0.26581043236154
0.279360838359773
0.256273610650342
0.33199292137811
0.467775946151881
0.426056491255968
0.149113019929538
-0.174972465405822
-0.433207387298401
-0.641082554192826
-0.740464414492755
-0.67239426547311
-0.569029159900689
-0.603402243715153
-0.746204046369363
-0.857899899920665
-0.872238649449367
-0.743478575899282
-0.406145166968933
0.0693252387034896
0.454430395996019
0.588145738960948
0.490756844857008
0.274431978801192
0.0880081321764865
0.0670160085419756
0.205369157445728
0.368820583963642
0.473314996245181
0.519531873452637
0.493572688519093
0.390376593614473
0.26400876535954
0.147674343105203
0.0314676998849215
-0.0587088729712475
-0.11420850735125
-0.211965417590901
-0.340316759777319
-0.302645260778936
-0.0146756412962877
0.299427076626482
0.41694016533879
0.387624176896717
0.34410820528377
0.321987416015371
0.35435449750729
0.446034790444723
0.44736176002223
0.245113719594347
-0.0012422967236558
-0.0848781398784197
-0.0569132035776167
-0.0567465254729549
-0.0488860322723251
0.0201194360685247
0.0155145604416106
-0.204110735533411
-0.586797017021805
-1.01836819006083
-1.43133270758923
-1.68542920393992
-1.59651435475009
-1.17932493716827
-0.676841187990465
-0.333585084895557
-0.251449097153004
-0.380683545144214
-0.561049854985832
-0.653696649049223
-0.624195984492431
-0.433036390934835
-0.0021055879107407
0.597559389432914
1.1236228494799
1.42488570443777
1.53248439451155
1.48829186945143
1.31568470194832
1.10835218451847
0.928004247430606
0.729906308744684
0.549066317541712
0.53144282270349
0.652276048822802
0.711027609019297
0.69285815812886
0.78368323382856
0.989394209005674
1.10093802995188
1.03275206385521
0.873265311405406
0.656422038367765
0.362522336498328
0.0533244739918411
-0.223193287106721
-0.53930311505305
-0.917620503436562
-1.21552307739573
-1.33179060914394
-1.35608557858861
-1.41468332284545
-1.55161085524386
-1.78781497792856
-2.09312752129844
-2.30993317933391
-2.26566556708992
-1.91269403282214
-1.30262458878507
-0.567491432840685
0.0625057287202285
0.40748486635181
0.506479451873236
0.528312812747521
0.603512482920905
0.807512551657955
1.13521125363552
1.43165953652799
1.5161355119297
1.37729043682191
1.11598899555735
0.813622041500699
0.587685578731687
0.560468124465195
0.635358057707716
0.559762319717201
0.292104490409198
0.0170616258435332
-0.201525161612471
-0.442139863143534
-0.638090644235015
-0.610044230851326
-0.348399137834176
-0.0002120869161365
0.342330984822752
0.635950112546474
0.797128073551155
0.790595739318051
0.672848525262579
0.456686521480324
0.12125299670872
-0.213884472806474
-0.381608427179134
-0.444516196119396
-0.618578137879245
-0.945920626852866
-1.27222892486395
-1.47998065060833
-1.56218651130996
-1.54844601569544
-1.46497640904668
-1.30036059169896
-1.01456075145445
-0.645181098709999
-0.312020996855767
-0.0630801317857415
0.147672016676117
0.326550964629777
0.453128225774332
0.56991476150649
0.683726342091634
0.702726140295669
0.624614243138592
0.580260030018307
0.574317042179036
0.471975333670857
0.324327565791857
0.367217706062145
0.646038453276302
0.963051299293975
1.17898163022979
1.27756633524893
1.22503978589996
1.03950013508323
0.878336842236156
0.829549774821366
0.767154976989237
0.590633015778405
0.405549801275562
0.307991199259675
0.228784808711709
0.137333580044575
0.150627584618621
0.318066883181751
0.512004748109271
0.588635753194365
0.496815774910805
0.257079142517156
-0.0444776782709835
-0.304188479425684
-0.488115597435535
-0.602263425893814
-0.639721583847669
-0.644836269732762
-0.692135693237655
-0.728355132272273
-0.629784278368011
-0.453178942047158
-0.391673698437723
-0.48441121893868
-0.623326023834729
-0.795314799323515
-1.06307307899599
-1.38598822967058
-1.65954837466499
-1.81419676839115
-1.76930461428043
-1.47012339283228
-1.00981149609637
-0.529331486353539
-0.0622894512061914
0.323271996967969
0.397273667255337
0.0409242636364263
-0.501209867401082
-0.860943579349689
-0.880686570121013
-0.557667313645061
0.0984157170671867
0.946688508788582
1.66229403609383
1.98271505902764
1.88248255400224
1.49878706099906
1.07076222640844
0.86909300176964
0.95586692847783
1.10147248587019
1.08390026821038
0.917413649886425
0.711783960958911
0.514834227659636
0.345631558055078
0.211933579089192
0.0945416384267929
0.0019551203498985
-0.0483536155341094
-0.121036811523872
-0.271478282455733
-0.406570287044371
-0.441311758044785
-0.480677770943675
-0.61967627532908
-0.741321750973288
-0.734778403268526
-0.686630696433162
-0.678762371732195
-0.66609387036674
-0.664962222729407
-0.762687800177952
-0.891344882215738
-0.885313583364866
-0.743901999161408
-0.565119375013417
-0.312633812007376
0.0677025160594288
0.413219632252096
0.507461673207171
0.384048978622685
0.25262800807697
0.23664177278227
0.328207422913673
0.447931544005653
0.462217740215278
0.300491532555803
0.063802743287587
-0.116831036102157
-0.236296274368205
-0.318289302574876
-0.333508463813645
-0.307674645411202
-0.331616447086857
-0.427215590125374
-0.555626963640732
-0.707160095685229
-0.852815116537648
-0.926426054659272
-0.951038193893368
-1.02682118637249
-1.16187214270075
-1.29307314107019
-1.42084586865358
-1.52757442245766
-1.49451627848683
-1.28349675407303
-0.996090905584
-0.618658598897287
0.0018174540629864
0.834591359111411
1.64682356898871
2.34872947308829
3.031209271462
3.68704930203966
4.21240582688954
4.61903005601355
4.96859154364301
5.20320996428833
5.26287004063975
5.20235303797598
5.00788125975093
4.53757334309072
3.81912518031935
3.13019339240585
2.62381802033451
2.14114596091938
1.503631625948
0.753703445974325
0.0549373605714186
-0.470982956581673
-0.811851522091133
-1.05883583664784
-1.28928022443736
-1.47968381986048
-1.62883328261612
-1.8593651815135
-2.27304075269949
-2.84532813416366
-3.54028252271388
-4.33419614626815
-5.10173226438938
-5.71464199318267
-6.21905322497179
-6.67455064772601
-6.9410022593292
-6.87891486817864
-6.58613836106898
-6.22113989901227
-5.81711675158924
-5.41421211575162
-5.08225476457052
-4.69895434569563
-4.00690519132749
-2.98028757597882
-1.88668197198689
-0.959853677980086
-0.224547814530428
0.392198696545581
0.989179380396727
1.67706316460864
2.45266214086835
3.15068208715513
3.63617706554503
3.94122711461435
4.1627146285001
4.36579220746806
4.57641560755616
4.72683980864673
4.68324416269936
4.43219046091795
4.09492221374568
3.70358467717892
3.17516866870949
2.53903930659254
1.97312347629504
1.60449222851971
1.43336482199737
1.40542114068392
1.45511241361716
1.56702814317595
1.8160869793817
2.215036485262
2.59278036049268
2.79890465524118
2.88096950519417
2.87286873314019
2.63850570931481
2.11937902283468
1.46838349891868
0.784159391803612
0.0028421369251439
-0.852352622763932
-1.60401280479295
-2.13951594362817
-2.44763550907127
-2.4850675336267
-2.24621445988149
-1.87389181284435
-1.49206606155279
-1.07116722325204
-0.634980220893116
-0.379330214511564
-0.392396907724109
-0.4962881121545
-0.530260555775446
-0.544422523012231
-0.603902566255785
-0.650197419245648
-0.628275630837603
-0.559265404589337
-0.472987913395851
-0.383643139833229
-0.294909608501376
-0.197452954974192
-0.126574212515665
-0.158831360817797
-0.261380365067723
-0.277208246214159
-0.15130575922909
-0.0031065276044537
0.0674928340563707
0.0333056313996716
-0.179016427283485
-0.598903874495659
-1.0518551127175
-1.32656223101339
-1.39676331859785
-1.30838534316887
-1.0570016737401
-0.726458264813177
-0.510857492269996
-0.511018512129644
-0.731170743745107
-1.23173003900242
-2.00167431169401
-2.77158840959538
-3.26377038416586
-3.53217794887398
-3.77738690651261
-3.96733763967818
-3.92229901842728
-3.62676914299103
-3.21037827683567
-2.76485237723574
-2.33235460688568
-1.89626615475144
-1.3222405042799
-0.512977736720615
0.393321923178491
1.16893073222937
1.74916979291481
2.17912342978165
2.45735344176044
2.57985771346029
2.62408476966725
2.72105718422913
3.00609003394395
3.52653362587778
4.11964902061225
4.51525939176134
4.62340140997635
4.5749837027537
4.50641609832226
4.49545414794112
4.58923031726472
4.65434519136848
4.38158880961639
3.69266773551622
2.92846425255226
2.43444773493802
2.21059253440293
2.08683776025212
1.9350801015706
1.62610107956741
1.08284752809383
0.429173502352158
-0.154539860842774
-0.682427584808619
-1.24343593109384
-1.74936803837696
-2.05042371753058
-2.16891825877279
-2.20526451223173
-2.17698479467149
-2.11092173815167
-2.09777966281664
-2.15575333625198
-2.23771896717521
-2.38713224438627
-2.69494775500234
-3.14657773389862
-3.6485413111185
-4.10337043485155
-4.38724804762231
-4.39953108440595
-4.15909781097744
-3.73448736275483
-3.14686870987718
-2.43564547077748
-1.66534685942066
-0.796461764979187
0.237177422245385
1.28725907848875
2.07342006824565
2.50269953756319
2.68149599632447
2.69313849620338
2.56105258100459
2.2747230137778
1.71359475140635
0.788228993872156
-0.248998291033665
-0.928755706610356
-1.07108371010549
-0.903401542560023
-0.689886955187788
-0.525072282418144
-0.449507260996337
-0.494277493620975
-0.644477700799822
-0.929541441231485
-1.41336740580435
-1.95712002698988
-2.21686179731137
-2.00941946863325
-1.44120179490823
-0.628146868828703
0.404102630359603
1.50823973105555
2.40089856185986
2.91557716279354
3.12393786629891
3.23532563602118
3.41580924923177
3.59883114013087
3.4965777125127
2.92308821621625
2.01850993112346
1.05181820047547
0.180208393701943
-0.496711197594065
-0.884267276172219
-1.00723632391577
-0.972738431308492
-0.79476765514042
-0.449724296388943
-0.025176936422936
0.383958000029681
0.778383036737304
1.10517981475339
1.22870010254334
1.14754767120426
0.984132654168656
0.746889120288611
0.403651078340804
0.137753871674098
0.178829618616915
0.425698251429947
0.562451849105545
0.476296695999023
0.268630325993259
-0.0259628430067643
-0.44793097870726
-0.969622815020288
-1.55632859999666
-2.21051799183663
-2.82276739872196
-3.16134620815308
-3.07543660101351
-2.56608429270846
-1.71626493320143
-0.711640380638625
0.163899029596125
0.691746410528488
0.833303284415256
0.695802289077762
0.475735371967636
0.349306997221815
0.318971057640463
0.280371793248892
0.25317406094736
0.336820482470898
0.467740874649912
0.484831416488902
0.36462530490575
0.136600901442798
-0.258472771539165
-0.75263008990757
-1.04042017791265
-0.954902426664119
-0.697794612744424
-0.509365000784218
-0.402669666762621
-0.339411362664013
-0.350608966854799
-0.409736415530586
-0.482106572794007
-0.703602644500721
-1.20623293896418
-1.7978689847937
-2.11384183836119
-2.03370945684445
-1.69984157164901
-1.25184772863896
-0.783805318050328
-0.411390155245608
-0.171433215481731
0.0364811183076519
0.332882939104022
0.79225452626582
1.43665864004002
2.15150850402019
2.71223420615004
3.0202085789718
3.20041246391215
3.41248611214492
3.69207991767863
3.96476635518291
4.08998785915152
3.94783150171637
3.55325220389904
2.96960567127358
2.13847051536042
1.03419032834873
-0.0775079201875024
-0.855543605306162
-1.29451974258463
-1.62228573145208
-1.90642431710323
-2.03087011186416
-1.90942340337347
-1.53626112689835
-1.04320345038793
-0.826549871514817
-1.32333977293657
-2.51547995279464
-3.88340381650383
-4.91123234874036
-5.4100731417541
-5.36664134863247
-4.78815665575961
-3.74634538963432
-2.35591837014098
-0.712277474306538
1.01807377630947
2.55471875113333
3.66231098501575
4.23698432970252
4.24659426913793
3.78400402658616
3.13822338858506
2.60348659436452
2.23492701267824
1.86608909222165
1.25427909690038
0.200054953808689
-1.28086750672295
-2.85982444174222
-4.07289019672837
-4.57402542608147
-4.23362650339883
-3.19839301667699
-1.87063484665307
-0.583605571155201
0.689214539017949
2.07983526440675
3.42600122912287
4.40018350491702
4.83534133696736
4.65809559598723
3.78074066314106
2.36187351224392
0.931562085649374
0.0025218286348939
-0.286653998801964
-0.0767617888603143
0.402124394241006
0.867953426599576
1.10346662353335
1.1143219335246
1.00933453797756
0.789527064268736
0.458457425384132
0.212441437618988
0.276615506166035
0.645016693098444
1.12641138836333
1.50663679112786
1.58963614383471
1.24878755953237
0.503213447284963
-0.528993514065748
-1.71644963647173
-2.94696436750564
-4.19120011308147
-5.48028904134173
-6.66762869482177
-7.36189275801838
-7.31769318321796
-6.72312252844413
-5.89057824864599
-4.87559683016054
-3.6016047121694
-2.15438243243929
-0.809953181579626
0.0725478255683282
0.21223735068416
-0.324721768797242
-1.1023990355761
-1.72446574368693
-2.08056153169957
-2.08688713480761
-1.52545853131715
-0.332837543073933
1.2167413222828
2.73249168088175
3.8967398658357
4.47878584292236
4.48549361815048
4.26624202623422
4.14171162235798
3.98270237930369
3.4665376072177
2.64126379366393
1.91347782967275
1.5829493432184
1.65653254682484
2.01143119620421
2.52900082928032
3.11393580506376
3.66776568818142
4.06255794243682
4.24316235496676
4.37851570470846
4.73690001816761
5.36337079612131
6.02791604669057
6.4704156248831
6.55255412613643
6.25474496315154
5.65829731082148
4.8222542671711
3.64691537628148
2.0691285342387
0.349080887418304
-1.15826594987712
-2.45716779459561
-3.78940944124877
-5.16002002769644
-6.32377182826711
-7.11257787909952
-7.49790970691299
-7.51488604153332
-7.35293238827551
-7.29810528691191
-7.39030310861926
-7.35360051498478
-6.9987615755895
-6.46061149139766
-5.93254426408045
-5.39239611698751
-4.67173939136709
-3.63977263577974
-2.35050548067989
-1.13998551301778
-0.438419503124572
-0.361376635888914
-0.661642318397881
-1.10504313805062
-1.61080882293051
-2.0264080532484
-2.09885056137018
-1.71453559507796
-0.955399333696124
0.0505982659808557
1.17805691438609
2.25629597388087
3.06367074202477
3.3737421731674
3.10490859334622
2.49237068636902
1.94308533075353
1.62968109628615
1.41517041592507
1.20716759966451
1.13836808353126
1.39322009553778
2.07895206523933
3.16837140269959
4.33869890811499
5.04043249744704
4.97279807817633
4.35855812444046
3.65916410351385
3.2508889423369
3.3855544976158
4.08805614626587
4.98665322350665
5.55024028356522
5.55354095274957
5.0669189656581
4.09756299412572
2.61600335090641
0.847387294431452
-0.844947947338431
-2.29145060277475
-3.445576964776
-4.13749660470166
-4.17980793722364
-3.6189469693567
-2.7318064478526
-1.87003495536263
-1.33594566095352
-1.2671852581093
-1.58018522939407
-2.03429392434771
-2.34381625955843
-2.33315229767282
-2.1005464098378
-1.92461828866358
-1.90942239167015
-1.8671792024215
-1.59306863011264
-1.04026460673469
-0.253421558808466
0.566261205622401
1.00926431486205
0.840331599243116
0.350511629051244
0.0150529324453072
-0.0410315912577678
-0.0025831207036012
-0.0923776582895817
-0.59911147062893
-1.84216692150956
-3.81432707153149
-6.07513805550988
-8.13700232532442
-9.71159274885446
-10.5468185656569
-10.3981895671253
-9.29694924538712
-7.59085465136567
-5.66878976780099
-3.82779219336036
-2.30155322679852
-1.15403352904659
-0.196471963839235
0.838901582976187
2.10264068680032
3.60761901330945
5.26567902359485
6.96860905143288
8.71628552021727
10.5466453955088
12.2781023626166
13.4962800938961
13.8569438991403
13.2909158338482
11.9916622390197
10.3566272957276
8.79236014010228
7.40019041950834
6.00183692349077
4.55036386939831
3.26458028483789
2.30493286026514
1.60094969810366
1.02685069822737
0.515134784208149
0.0685339880643835
-0.139885195841805
0.150434493361887
0.903277054786279
1.68025158304811
2.07664048495395
2.03360668183876
1.59026582254578
0.607118554637508
-1.06602061599164
-3.31103681457581
-5.72540139770025
-7.76111614611155
-8.94882574379602
-9.21408451772931
-8.93553187309929
-8.56239230104025
-8.31019019973592
-8.28453449601226
-8.59739109257622
-9.17198652880242
-9.61084538497072
-9.41800928333399
-8.36779253739482
-6.69268542002028
-4.86534792980275
-3.08804456377779
-1.13941743268226
1.05659857504821
2.90906113855831
3.55262279288277
2.67694737911973
0.742186654376425
-1.47495640258656
-3.36175604168894
-4.67211212339944
-5.39897284026838
-5.39784981229784
-4.3225728950954
-2.19537205672897
0.204550688193938
1.91290600742376
2.60322238997833
2.59611950018755
2.31827181650903
2.04635385126921
1.93875916596746
2.01371481840966
2.226121834351
2.68365364202171
3.54080576547683
4.58805135275554
5.27258188073751
5.27824439386384
4.83907673945376
4.38601428825078
4.07732328702999
3.73514874737075
3.1527644651788
2.44115126464886
2.00261344667465
2.06603282795354
2.37359252780015
2.47622187355915
2.1993575749436
1.68184056285606
1.11028575833579
0.550817536960207
-0.012888976274139
-0.47519868788439
-0.453017561271995
0.435899187447591
2.04169098721828
3.69906050596857
4.87676380673727
5.53941650090647
5.86848145387854
6.00302431751553
6.0659708801294
6.08929287609803
5.91775465994929
5.43558183608609
4.78374073893457
4.16963657339801
3.64222429120082
3.18304086801167
2.78340129837435
2.33589519142827
1.70673478289322
0.980681504553659
0.382468493330137
-0.042190658715429
-0.388198842948559
-0.601015832989691
-0.562996007446615
-0.420443056874657
-0.523783003164251
-1.08270723870417
-2.06214654727084
-3.31076942086074
-4.67209596210133
-6.08261548176522
-7.60102848887537
-9.26138940076735
-10.9715838683581
-12.6342396516362
-14.2261126823274
-15.6734882079053
-16.7682304197641
-17.2362517660492
-16.8344373844069
-15.4984031722579
-13.4663364317885
-11.0691578758332
-8.39044980984235
-5.45175289928195
-2.71450635852386
-0.932512179295765
-0.389583978171116
-0.600795875409151
-0.791585597974971
-0.46067679397178
0.365646593326611
1.16584530383753
1.39363926134269
1.18328991374921
1.43851578841416
3.03865978573593
6.08747838227339
9.94153302001646
13.6218579149289
16.1140229369401
16.7205374594364
15.4586270065358
13.0276118586843
10.3355011008027
8.08673555846567
6.57615155945448
5.61537114989217
4.78921014382887
3.95166610001725
3.36073959157171
3.30189588740809
3.7462622531114
4.36173427081651
4.71750116663041
4.53543986701293
3.83183238882934
2.75643172749852
1.35170455116262
-0.375911142555014
-2.27059241265178
-4.11658351484361
-5.76730988016229
-7.03322981388772
-7.68166668963803
-7.70788503263037
-7.37509956577416
-6.91540180819673
-6.41918536344342
-5.94974858306026
-5.46902796275618
-4.74091014211573
-3.54681268685001
-1.81792885380155
0.626289303410938
4.10536597315016
8.48430447194147
12.8272309064908
16.0513987784753
17.8342173825084
18.6452879204432
18.9992566576191
18.8250280732874
17.491521459158
14.4688508584403
10.0875226134392
5.53221160327818
1.91415917732189
-0.57105555090783
-2.54667960187614
-4.7433668553941
-7.41700907540786
-10.2230302891939
-12.5561959928527
-14.0750335013951
-14.8860406981723
-15.262121440182
-15.3335163103585
-15.0283908665751
-14.1991236934973
-12.9409259961368
-11.9033134548312
-12.0135267557718
-13.660230085819
-16.3223260041189
-19.0446239584902
-20.978812046033
-21.5243684285507
-20.4580807663869
-18.0336044472666
-14.5937056453419
-10.0877221080105
-4.33882584639689
2.19829333792453
8.26748587231324
12.530365138241
14.4372433811411
14.4890249189474
13.7176810793272
12.8133713595972
11.7183048567712
10.1228740112814
8.18591518153375
6.50185857896082
5.48978994505945
5.14061144127732
5.28910636338008
5.83252971409258
6.67823169711937
7.63682007011085
8.40474289318938
8.70711548375423
8.5339226855029
8.15942094870485
7.89621883800319
7.9532878862478
8.435873172063
9.16187386626959
9.50925207004445
8.80831151501728
6.96296085704816
4.53012607581472
2.27017870953838
0.688141281982453
-0.274638591188997
-1.24250870077572
-2.79871243977364
-4.75509277410856
-6.28585641817649
-6.78194336224695
-6.29823999721794
-5.26219782241715
-4.06234836547814
-2.83522753594692
-1.40770655687734
0.445788044905741
2.54768739470473
4.3220854153669
5.38675128227111
5.89949455176434
6.21301720717194
6.48314495760951
6.72138268799923
6.90378595310254
6.86891756046862
6.30859991273267
4.94047824245835
2.64202262266638
-0.455741758815049
-3.92755104926345
-7.25038543002804
-10.0527346770339
-12.0686090046957
-13.0561235467909
-13.0620503143858
-12.6472274365857
-12.5655055803453
-13.2082062029348
-14.4122278269919
-15.7036441437896
-16.6790409915026
-17.1708779301236
-16.9855897976314
-15.6025602713263
-12.4983920427678
-7.80782115683381
-2.30335618859486
3.28601723311323
8.57127878934585
13.2388273102463
16.9980217031349
19.7792856580861
21.5725325512001
22.0802541127115
20.8203446395018
17.5185879717371
12.2655995161828
5.55347908896111
-1.59284157817423
-7.78356124301084
-11.9142354538973
-13.6607874817813
-13.3827587531634
-11.8115772920853
-9.80441568782105
-8.01515287672061
-6.65190851815902
-5.65145932939545
-5.00865842900006
-4.83227029192978
-5.21480482990859
-6.12209853005796
-7.28971814537117
-8.21104018145459
-8.28649044975275
-6.93829893248089
-3.69968957845953
1.44342733892687
7.74344989682585
14.071503730277
19.6661021184285
24.1828902312912
27.0866085915868
27.6015082720174
25.5454415148751
21.8663774033587
17.977109707069
14.5262812622549
10.9843372076523
6.57027361405635
1.47257808431511
-3.14839539752984
-6.34642345715806
-8.1310474682484
-8.90091075791274
-8.65029003069548
-7.10995912989295
-4.38637219127321
-1.12824942815146
1.78665964359452
3.58120954753531
3.87953419747789
2.9067167781094
1.23010512220503
-0.780985767296262
-3.08876418039064
-5.65108587864448
-8.19178411374385
-10.2650412503486
-11.3909210100634
-11.2239060440155
-9.74907494542733
-7.33866134513436
-4.66087029648624
-2.53770991537605
-1.68188336909685
-2.37494772534717
-4.38583894724482
-7.13375432484994
-9.85334252678247
-11.8327029004046
-12.7414734361359
-12.5619152546891
-11.1036707593783
-8.03694389941995
-3.65714088946061
0.891175733329164
4.50098119804219
6.7809946783824
7.6029852174335
6.55629282194481
3.39636012582005
-1.12052038239795
-5.21260163593486
-7.06567322457138
-6.0545514177867
-3.15078615767017
-0.047935878322549
2.20512479395842
3.63127060646194
4.55086664807564
4.89012142098378
4.46094559013534
3.53786597051637
2.85446372971776
3.16826571718986
4.88238027860313
7.85302208399378
11.4454050717206
14.8433251351856
17.3353304901199
18.4103472178326
17.812540018729
15.5983238502625
12.1255358238802
8.06282025801946
4.32067668880895
1.59220431559099
-0.180294122305482
-1.61200379059288
-3.07859571267738
-4.36591180426842
-5.09398463914947
-5.19796859990925
-4.9886186135138
-4.91506331180588
-5.21902111423858
-5.80630920035224
-6.60530851231778
-7.86451737703984
-9.71188356096941
-11.6220350406436
-12.8519358544247
-13.3019019958232
-13.447966326962
-13.5028229628321
-13.1175450736061
-11.9031742961527
-9.88100117222465
-7.40884428311272
-4.91108986367179
-2.68830870240794
-0.877328511296764
0.427260268941188
1.15759015949241
1.51442302871335
1.96723179432601
2.75979359264031
3.70903910261147
4.78353419715072
6.54291767423952
9.60326117969568
13.7814367297645
17.9547591494734
20.7005630993323
21.151599154847
19.5158584054071
16.877062022759
14.4493631502227
13.0021543226401
12.7628518125789
13.4551624260218
14.3897600706116
14.8223664547968
14.2827101620592
12.505227402714
9.37104494742645
5.21820263111143
0.947002375861077
-2.52681736504487
-4.91478191007581
-6.69410821698558
-8.80895320240772
-12.1120181698452
-16.7186585388563
-21.8201457697556
-26.2850203899948
-29.440824076851
-31.2524151648526
-31.9730742695789
-31.776469129775
-30.536516727292
-27.8523541702114
-23.4830118629112
-17.8093197529718
-11.6907973481021
-5.91480337942972
-0.930425818717624
3.07211575683341
6.01866856244146
7.70687765740681
7.65110710479049
5.5354899938087
1.9916877742514
-1.34807844688309
-2.78047007194338
-1.55708134372813
1.80045342565357
5.99633044025111
9.87965786941652
13.0529554233347
15.6281072012138
17.5475000963658
18.3386643228055
17.4333528544656
14.6001529251674
10.257772491733
5.46900276248654
1.37278972194832
-1.49489991577416
-3.20537129335892
-3.95333176707424
-3.85677608698319
-3.00404010182332
-1.3523139683865
1.17348110513203
4.16143811211974
6.65863135867851
8.10186424785718
9.03706742336198
10.4621445029114
12.6673222025792
15.1146272183314
17.2241971140152
18.8278676094046
19.9083155656723
20.2361801729413
19.4215082517902
17.3221356298545
14.3236597902769
11.0998493399513
8.13369323655938
5.55469069948099
3.2417839737283
0.85876706395632
-2.00284984178809
-5.4197318772377
-8.98443060212004
-12.2177942989536
-14.9996880721996
-17.5717826516433
-20.3407759816631
-23.5952029501539
-27.0431383691292
-29.6480115682109
-30.2477666677739
-28.3409220826188
-24.1690214167246
-18.3349138530167
-11.5940236676483
-4.74236027033092
1.5574198464866
6.68025788836276
9.72815303437943
9.74153316892719
6.60727333093584
1.67068325423944
-2.88130423487093
-5.4558332177597
-5.96046470412117
-5.37072470303956
-4.52997127810496
-3.51075223574109
-2.1123638314485
-0.605179798304786
0.380383248622833
0.554270465816946
0.199378099260772
-0.238324546946059
-0.543853298209891
-0.797607726379085
-1.22103006756317
-1.89043337725229
-2.56800341444983
-2.93945045449316
-2.99081495595716
-3.02233890121125
-3.34948438890993
-4.02982337825594
-4.70422188105026
-4.66621231222911
-3.29479093118187
-0.446201575052522
3.66098151973906
8.66374113940167
13.8601319090086
18.1040525570004
20.3365953468255
20.1784040448345
17.9604931970609
14.5329788069626
11.1007833271177
8.70188969957925
7.51504169512812
6.88313855662615
6.0945637859207
4.92821437497253
3.49444721329012
1.88838212079221
0.0695271862924182
-2.08821742378608
-4.57547340258235
-6.9439132583464
-8.36821481578157
-8.17673273028784
-6.29869479449612
-3.29869711114915
-0.16656705487716
2.11360116575069
3.15884593773021
3.39107738026403
3.54300239630631
4.02058892235047
4.70800806698616
5.19470808632315
5.21336571096747
5.02166874473422
5.2891086762522
6.47416117687646
8.35080179034481
10.1089724211616
10.8149811307304
10.0206194402557
8.26327371758286
6.75332758294267
6.17389026071826
5.97225269183377
5.13316572736634
3.33302183611046
0.988283203735809
-1.50068789688252
-4.15168501239414
-7.22268019952375
-10.8986291514038
-15.0635889673683
-19.2552076036143
-22.8705852086527
-25.3605869016026
-26.1621434885124
-24.707655149488
-20.8907540460688
-15.5590800138755
-10.3630614747482
-7.05670053761375
-6.75486895943824
-9.36430177694927
-13.4587153629467
-16.9974966918043
-18.5557429906786
-18.0026411541588
-16.0596542364395
-13.2594905123593
-9.3366434300298
-3.69151916092944
3.52659200741263
10.9853043676308
16.9406240316197
20.3231808204869
21.1268906760505
20.1388695870524
18.4446096733353
16.8635949741183
15.6099386893565
14.5196230136178
13.5134756830837
12.7200367390349
12.3347506394013
12.4830823328607
12.9634738134848
13.0364933412197
11.7990946229849
8.90774257808076
4.81479922174364
0.491871415668247
-2.86918857653149
-4.37458025562628
-4.27273872521845
-4.07604929241916
-5.3182357549257
-8.26731771368008
-12.0301163666509
-15.4097873574062
-17.2525619220071
-16.5845137079385
-13.2506313600238
-8.35395078061853
-3.59610731934958
-0.148881198495449
1.7748902945692
2.55335865890922
2.66553170104467
2.5196947438518
2.54959003951565
3.25196661319481
4.97083725575217
7.64672212206646
10.8016578476966
13.7037937351774
15.6263125518155
16.1880797616478
15.4319776946138
13.3778308341836
9.70914244498586
4.33818511296814
-1.83010372876757
-7.15973203097511
-10.3145331340956
-10.8558136137308
-9.19581388049646
-6.41078489745982
-3.80755589255693
-2.10768453823605
-1.03099975489105
0.0809313006571994
1.28629426977919
1.81269576902725
0.707576078553007
-2.30744369661945
-6.3981817176249
-9.88785574019149
-11.1428832879311
-9.48533024597061
-5.48129956759289
-0.505337768369937
4.06779379239593
7.57301088175145
10.1648002045595
12.2632178634447
14.0260118623245
15.3532212123659
16.0065233535378
15.5025428960649
13.2663633431782
9.25074804650856
4.26928646845472
-0.470554905869894
-4.13678447009684
-6.67567250167339
-8.64311069127732
-10.5424013133643
-12.1443529418513
-12.5906349055238
-11.3534354763695
-9.00558017232864
-6.97096025747705
-6.60486370446885
-8.39404678659141
-11.7058871889631
-15.1593109868126
-17.2943696571404
-17.0305468523298
-13.9296368604545
-8.55457403437685
-2.47893562613854
2.67294471526126
6.44760527015614
9.61867385993285
12.978257853648
16.1595039953484
17.465093779202
14.7653863591372
7.09376302264826
-4.09586549313939
-15.4473068410036
-23.8993605208525
-28.3902881625223
-29.5735149014537
-28.5936302502103
-26.4847901329503
-24.1072465531166
-21.8907566195978
-19.5455441157495
-16.2878429308846
-11.5005277852659
-5.24045698267677
1.83540853017603
8.96298129848244
15.5843997094733
21.215899632073
25.3088733715586
27.4805892141788
27.8153876113958
26.8714611379954
25.4783718571701
24.4127107695522
23.9608262828935
23.7713657506097
23.3156667095846
22.440911773631
21.4109587913632
20.6384259523375
20.4421967378233
20.7441700454936
20.9413095761984
20.4418610545539
19.3605538152709
18.2418159450977
17.0187951408165
14.7518739590856
10.6585929896435
5.06364754731116
-0.957711103657107
-6.69617588751756
-12.2766839776906
-17.9430146558636
-23.0452851959705
-26.0981333140277
-26.0732868712241
-23.4412541390887
-19.7584702015495
-16.5201903847178
-14.621797815664
-14.4853922175184
-16.1435916494627
-19.1314470942323
-22.4476555866596
-24.7472050438106
-24.8830498565627
-22.5605932471951
-18.3797331491672
-13.1146860927468
-7.15513545834037
-0.72755084232809
5.64304893352223
11.0492494477066
14.498736957051
15.4961811473798
14.5692374673722
12.9429061062546
11.40615815364
9.74283083052355
7.39705026986745
4.29002538383075
0.844788254172558
-2.37977062707982
-4.94082993980144
-6.69261268794793
-7.70602870586191
-7.78667112563282
-6.3745453401334
-3.39151804583245
0.105348685402673
2.7238090558667
3.98957769767433
4.19764890134872
3.21671591279678
0.209174958314063
-5.24725057960716
-12.1292074617125
-18.2883072790616
-21.7717994300086
-21.8379675018423
-18.8770463734458
-13.7571958138371
-7.54329481871421
-1.52851424497201
3.12226121510888
5.94272093701632
7.13446423269456
7.03033117598352
5.9121789031921
4.30662972766876
3.08401673463799
3.06950613811073
4.5452762413208
7.1517869030697
10.3800601517124
14.1065226774034
18.2881638051299
22.1791962435286
24.6095873296651
25.3632938736543
25.5306116311794
25.9529283765176
25.900739039485
23.8923554953357
19.4862529559078
13.8328980930708
8.71457081877258
5.33636913583305
3.80318758071232
3.4285667625554
3.44932480690303
3.37773843625878
2.76844105060466
1.10416806500117
-1.78705048056337
-5.3531399533415
-8.42551919838894
-9.60569705850982
-7.89805561047233
-3.5980184373055
1.4012669922536
4.68364171765263
4.93627628153513
2.46361159230867
-1.71028969270284
-6.86619577822455
-12.6672866631212
-18.5829755815466
-23.7045194903221
-27.368295333323
-29.7904292602857
-31.7898926768892
-33.9743540935978
-36.4597110378521
-39.1089525834134
-41.4657783652773
-42.5416971013343
-41.3281740343651
-37.7743809708042
-32.9902396073124
-28.2742936895259
-23.8843204897197
-18.7514698253525
-11.5846231625834
-2.42987546303224
7.11876563333461
15.5711648940349
23.0686161254305
30.6937431008782
38.4591420555284
44.7181862695832
47.7161855234163
47.2725949784558
44.8277377709483
42.1414484192884
39.995568326543
37.9257613318674
35.0434062632433
31.0294148610399
26.3488294149181
21.7201739933431
17.5124889304726
13.5128814516761
9.19430491920376
4.31836344921791
-0.744272228367649
-5.37637841958798
-9.23258663566648
-12.2757129282076
-14.5605809473614
-16.173371911423
-17.14677017438
-17.2687069754505
-16.1481593700082
-13.5257089312829
-9.45585723657852
-4.43367222622122
0.466635639914964
3.98643812504659
5.62045506450856
5.9507099427953
5.86691924493626
5.80522206876496
5.89845212126829
6.35375240328472
7.27515063779611
8.35593522075093
9.05736078160532
9.0408274845592
8.36643407472286
7.3456415054392
6.16263804030141
4.65151427735051
2.67571987739706
0.660654408741016
-0.776560841019599
-1.91433445701985
-4.21206047481478
-9.1977431831008
-17.1164363151585
-26.6000070084912
-35.5113983184594
-42.2789549225679
-46.7059773810711
-49.6009804718622
-51.6873929043631
-52.8803006081194
-52.4169466267474
-49.5941680612119
-44.6042720310242
-38.6259258897945
-32.6305321581101
-26.0800784192962
-17.494969884103
-6.59983062955898
4.67589538326116
13.7544472002828
19.6661559042416
23.4887424743099
26.8278188391392
30.2870764610338
33.4998418048039
36.2535565242027
38.9897784552665
42.0342777323522
44.8201148943555
46.3189534201798
46.0096889927341
44.0176483834028
40.5594860581654
35.8398054458091
30.4616687451032
25.4252070688628
21.5680166474307
19.1475583108526
17.8502093751064
17.0151842683386
15.9425693328439
14.1274869282452
11.2746375470819
7.31176022810275
2.55901313920069
-2.27750452543668
-6.43973805529634
-9.40079493883622
-10.9688138159764
-11.4540083805085
-11.6880520713943
-12.484003592192
-13.9464821137183
-15.4422453044082
-16.2274712585248
-16.0631445040739
-15.3548519012413
-14.6960439212659
-14.1125826702557
-12.8686689649133
-10.2727317950619
-6.55283710154391
-2.70764720302108
0.303707224280868
1.978989331611
2.16914683932952
0.948213953558745
-1.52006881965582
-5.25587301055265
-10.4812099562263
-17.0851533025919
-24.0958358915129
-29.8577439164221
-32.7955451585936
-32.1666662156076
-28.4032797263226
-22.875007542805
-17.1753225274333
-12.3990645566906
-8.81401692521198
-5.96899618369914
-3.16888913262679
-0.102648930418994
2.8843548167677
5.14111912332215
6.31443193374914
6.69051647344134
7.00776889739793
7.74705466344177
8.53783863490872
8.62786616674614
8.09463508745861
8.09473759182935
9.56224159332328
12.01069084137
13.9066052127204
13.9550012891179
11.8940406220078
8.36173779854433
4.15759781351051
-0.423460287101578
-5.35834048778142
-9.94479383501248
-12.6210859224152
-12.1944797956676
-8.95339065483434
-4.17732618826713
1.17024755665905
6.8379895365186
12.54992917467
17.3500671378885
19.9653139507682
19.9620311079849
18.5127053462197
17.6419946135927
18.4232579004076
20.1246872292473
21.2451959686437
20.9687726106756
19.4357210343693
17.1655886523042
14.6709174645248
12.3682891250891
10.4463381137197
8.7209198483496
6.68502705519065
3.85193677575958
0.250593192945054
-3.40837466653649
-6.21139188077095
-7.75265952641499
-8.44125039837051
-9.23161062159174
-10.8938338702476
-13.2300201556767
-15.1567180286079
-15.9248775989697
-16.0009487230843
-16.292675206779
-16.8902479423207
-17.1871333482618
-16.8727665613162
-16.0986976650972
-14.9145996094924
-13.2090667651847
-11.1373364329592
-9.19676100542733
-7.96332134484478
-7.90528583762177
-9.09948956079282
-10.8470995388506
-11.9290166850179
-11.6549571318061
-10.5282132626471
-9.6213642362575
-9.37467800539808
-9.12827854929185
-7.76641471989876
-4.78418361188918
-0.799557440110395
2.8947992107457
5.22009832619803
5.86211031447759
5.27013603834695
4.28920885337462
3.64293044221834
3.68563645284993
4.7076890947706
7.2460993594284
11.6997670621696
17.6581047656222
23.8769732270668
28.8939328093333
31.6007613460139
31.5205103812652
28.8220684309812
24.030530941832
17.7611542597392
10.8590185642289
4.46127367001654
-0.589516217258153
-4.31766965998866
-7.31104362853837
-10.0623856887569
-12.8349323983285
-15.7655926407676
-18.6509191084344
-20.7966433908643
-21.3702837925383
-19.8556455254423
-16.2120752123918
-10.9299818445813
-4.97054403637153
0.721107362162204
5.74797045029617
10.0955057418465
13.5507747165326
15.6176036549329
15.9141470935944
14.3541078346983
11.0300734154655
6.19776748266666
0.398134409175517
-5.50119992951267
-10.4447868791581
-13.5276685141092
-14.3734867484319
-13.2047742434166
-10.5455200128461
-6.89142282140532
-2.57729204298415
2.14141672983899
6.80230145539593
10.5527937664421
12.5743132220468
12.8511096141064
12.2492921498039
11.6429274853252
11.1365855640292
10.2555038224111
8.73382072925603
6.96747505440276
5.61726867063731
4.70123379526995
3.25410417656384
0.220853605780216
-4.34856806093319
-9.33686854578064
-13.7329754912096
-17.3190530939485
-20.1737936711844
-22.0849349227494
-22.8182157942308
-22.6886698549358
-22.5217931863731
-23.0221751319107
-24.154791775052
-25.0245196049002
-24.3803704903967
-21.3245843412186
-15.6180702147192
-7.60927625196648
1.82139152373928
11.4645422005947
20.3613472057365
28.1529959440794
34.6681120581275
39.3951065150906
41.6383108831875
41.0603631445253
37.9451811283901
33.1058921425885
27.5790931515283
22.1839791623562
17.2581734067957
12.7606068500109
8.43779708779858
3.91837944754151
-1.02234858843845
-6.25879518908933
-11.6448348603489
-17.4146590832861
-23.8493587367735
-30.606286440012
-36.7096572947856
-41.1506006286672
-43.3155910587091
-43.0216328963064
-40.3874024059412
-35.6208619143474
-28.9130381265167
-20.6822337250067
-11.742543662747
-2.80639123535384
6.04985367531684
14.8263821577842
22.4862565174147
27.0479280654175
27.1414792321491
23.3470802531727
18.0073607873578
13.8564399590859
12.6091967476576
14.3888601615092
18.1406929485511
22.4642110979963
26.189033041042
28.5073876702708
28.8818689081246
27.0410005639356
23.2085790610518
18.2111779296843
12.9741988090554
7.84764727297382
2.79539234581902
-1.77936564443674
-5.00513587707806
-6.48488774683748
-6.69794157228388
-6.290055442786
-5.48335240052325
-4.34639254486402
-3.2009406118784
-2.59883371813827
-3.0978755543943
-4.94394940765517
-7.72678477410593
-10.5628517792838
-12.9076169923626
-14.984827470195
-17.1997842446593
-19.4307767963929
-21.1818159027047
-22.2361707363004
-23.0099736481923
-24.4089919093188
-27.1710386246282
-30.8568336153605
-33.4671453751586
-32.5552961912837
-27.0631464834163
-18.1699664135277
-8.48089442071105
-0.366615628646689
5.23986396074769
8.79701864676555
11.1822140851459
12.8999798446887
14.0724506265541
14.764258356114
15.0897050994067
15.1329906175762
14.8761907872756
14.2021564267111
13.0126648091778
11.2994628160419
8.99536871019832
6.01244390519295
2.7701817569707
0.302259213486856
-0.82598324208555
-1.42379377291048
-2.69284855957618
-4.46750320902551
-5.21271949812598
-3.72755054504901
-0.115274375527991
4.97427214649598
11.3318090001051
19.0571442996754
27.6852849126407
35.6366084869977
40.6648133625623
41.2512694594775
37.8495083634322
32.5770612964253
27.5089757944736
23.3600799247375
19.6750819340051
15.8199679738569
11.6002810643899
7.1768198783045
2.67175443706999
-2.02328482365898
-7.08780476523254
-12.5528647854073
-18.2263431650394
-23.6680199020056
-28.3088585514387
-31.8608343821749
-34.5183553081985
-36.4466099173984
-37.243840853012
-36.3212196640876
-33.6446846285546
-29.6770106293578
-24.8166465804189
-19.4281054445681
-14.3194297592193
-10.6294743459127
-8.94732495026393
-8.54611244412489
-7.67498250703662
-5.01773229978813
-1.04507349891782
2.40822038888814
4.02238578492245
3.97411597682338
2.97854226015371
1.18510975528165
-1.47466655442257
-4.47572501039481
-6.88751968785352
-8.11538582748264
-8.11454862903907
-7.15286076048891
-5.60641415865251
-3.76809480899174
-1.70408459296174
0.674111948169209
3.5573137682209
7.32374608472092
12.3213807299682
18.3432522624672
24.5896143051646
30.3475348344443
35.51783958423
40.3391137604664
44.7107194843577
47.8703286657793
48.729610727839
46.5682471662433
41.4708117123938
34.2016933049079
25.796854367218
17.1607912851291
8.69694004613387
0.251897340572834
-8.37228838193483
-16.9738552503259
-25.2470967654387
-33.1211356542681
-40.3252391445251
-46.0470589838304
-49.6333086318134
-51.2592134935853
-51.3300056456464
-49.6458174013449
-45.8085275695646
-40.1239712706397
-33.467580395242
-26.4540695796115
-19.2489135499885
-12.0361629888049
-5.14825826099283
1.41135939688558
8.35710841636502
16.6609825925584
26.2655865464191
35.2103622558069
40.573044244358
40.6940951095166
36.379342035445
29.9048808303432
23.1409783800129
16.6329366739304
10.0568124045622
3.26103363719939
-3.16970302457049
-8.37530301417289
-12.062380637705
-14.5345705129267
-15.9348095646123
-15.9561622729209
-14.3918761707444
-11.4245510164178
-7.12361283991172
-1.13896492819224
6.68414393578683
15.573228302997
24.0293612663064
30.7385531112731
35.1769582952426
37.5026087316988
38.1704044405079
37.5898234401651
35.6898027367709
31.6433328188916
24.5061567501735
14.5791256302283
3.86395295817585
-5.36566772223733
-12.4339683426741
-18.4062275230311
-24.5400092793511
-31.0100795562912
-37.0111757290682
-41.5925284797632
-44.3539172594742
-45.6611947692486
-46.1879451844076
-46.0563554833917
-44.5365600711739
-40.8065218358019
-35.0031558806653
-28.4201339836785
-22.5555939359719
-17.8372020620253
-13.3189436042762
-7.73674960299461
-0.708007257359207
7.20878820327843
15.1805352994377
22.4165268773296
28.2737543194539
32.6236537503982
35.8001327146992
37.752210593937
37.7682336871326
35.6171773544396
32.4229858444424
29.6400559601902
27.4403833727169
24.8068094691924
21.1472464407558
17.2359736660191
14.3806665960266
12.9806084743565
12.2120044406877
11.0760261750924
9.42102539985197
7.78115228333158
6.55251848557406
5.67268040034109
4.75705126615983
2.95362865356658
-1.08989581684606
-8.24356077941
-17.6099338743052
-26.6664876259581
-32.9837032577942
-35.8235577257988
-36.2242080807541
-35.7393064719223
-35.0969540003141
-33.9914677637396
-31.9728891515041
-29.1261805046621
-25.6935423590749
-21.4244210671324
-15.7724230305734
-8.72975229748102
-1.20801873937956
5.52388127886541
10.7418854274016
14.4880000104662
16.8749326226362
17.5719080246974
16.4243031574669
14.2283232568937
12.1434488283615
10.4819162941905
8.82548942479529
7.19123449003591
6.22393410290803
6.23358969816805
6.85020039415307
7.73003909556755
8.85467685350594
9.90925916257361
10.0423371827339
8.71742294345773
6.52308854106826
4.78593581738139
4.46506710936276
5.61500355230263
7.79153374671726
10.5074602781922
12.9453646672571
13.5939995395418
11.0253704970268
5.34377920542578
-1.56944363050028
-7.46858468310617
-11.1483728724286
-12.5728967494957
-12.2369371704258
-10.6860523575795
-8.44032295927666
-6.162599598951
-4.69311208718589
-4.60791793707934
-5.73209457455953
-7.42087510662793
-9.3495231619365
-11.7041751853211
-14.5954379246794
-17.5567665958761
-19.5370049393326
-19.1635711410535
-15.2749824232295
-7.70043046765922
2.28111753768734
12.3121986699128
20.0375680578058
24.3745593329323
26.1812100555997
27.532214051193
29.8940293175891
32.8435147240509
34.5555578828569
33.376351487359
28.9788185212227
22.5524221236398
16.2638789084512
12.1284831090229
10.740117989236
10.9211953819757
10.767999869072
9.1380292456185
6.19014299049129
2.59884141493832
-1.55082354386231
-6.78850701855378
-13.1606071304977
-19.6657343027063
-25.2912598513289
-30.3098389797001
-35.9211264043308
-42.564278064456
-48.9607956033791
-53.0055469992901
-53.6299492222442
-51.8134546142365
-49.5760338850865
-47.7680909884584
-45.074650869068
-39.4564576210148
-30.2587529957906
-18.6094869897676
-6.24599819351755
5.49397255021425
15.9148541298333
24.9109978321036
32.6261599285134
38.7370903110501
42.1349722491348
41.6532019502436
37.1055234062547
29.4686896501035
20.2502518862566
10.943981428308
2.87918259186992
-2.9872636039438
-6.51975663922604
-8.52524230309575
-9.95630735369721
-10.7372901699909
-9.70847713260049
-6.07527161444766
-0.599163388419654
5.06283503711235
9.93755444638399
14.2765823239141
18.8104380423896
23.8938889689294
29.2486340418682
34.192956910099
38.0236451916111
40.1600955531126
40.0103056149186
37.186820843389
32.2999727477363
27.2250124968105
23.9003021177001
22.6973336498701
22.1829891623045
20.3850515165361
16.0833579766345
9.16001605971827
0.33104731688229
-9.13502920878661
-17.7002513654717
-24.1512812073074
-28.3265874179135
-31.2583628710378
-34.4227115912531
-38.6872872523005
-43.6689010357998
-47.7296717918819
-48.7339893449311
-45.5255007494771
-39.0794828591779
-31.8608531718465
-25.7093416786427
-20.5652536118719
-15.3327650423194
-9.44677812592534
-3.26472828369453
2.59523149188718
7.67901327025429
11.425549712766
12.8936473040355
11.2153886277364
6.45540168612003
-0.255553054528701
-7.59733594845944
-14.708913092741
-20.7421508666907
-24.3360095982047
-24.2041648333461
-20.1538825015722
-13.1507737510254
-4.52046463626786
4.6061970334557
13.2777769012647
20.6889555555607
26.4201381480654
30.586052789381
33.4690992281851
34.9036201145048
34.3052180809744
31.5985997647752
27.8923496285441
24.8336768474202
23.3506848950623
23.2119519450284
23.4990361444306
23.1297077690253
21.2546238585332
17.7747701803218
13.5072998389061
9.52258433535004
6.3305826753764
3.73241973333261
1.03472940170405
-2.74669911342915
-8.23962266102602
-14.7543876466328
-20.3106253296148
-23.0769581763389
-22.7894597557657
-20.810997571171
-19.0937242765481
-18.998899992101
-20.50576316922
-22.0938695550592
-21.6262423582341
-17.9993637560947
-12.1940083710537
-6.3561451434592
-1.69348947111068
2.21472003883914
5.86739262715279
8.51057869226198
9.09232341476883
7.98459429257952
6.93782781343087
7.45629133848679
9.51850003558119
11.5434389514855
11.4755813476635
8.49792469417655
3.94823006284715
0.125854227242059
-1.8463792470525
-2.53289493802052
-2.83965326804292
-3.07958523586633
-3.48091754275897
-4.74438520619004
-7.67374153082934
-12.6855427588512
-19.7716981102293
-28.3242217413573
-36.7375112138599
-42.7023638970651
-44.4271439730971
-41.7360263740589
-36.0236312376529
-29.1011628972025
-21.8661038739596
-13.8331118095787
-3.78182976909956
9.1139657824985
24.4178135156523
40.2389172983755
53.9055779257712
63.1679887045049
67.0271055227439
65.7032954805323
60.1522649496675
51.5798840953479
41.0766348875192
29.6244577864872
18.4283314166497
8.72597821684066
0.844581958144082
-6.08404484102865
-12.8451598853212
-18.8658270375416
-22.8133920971568
-24.3280635494271
-24.6715922005245
-25.6175289429618
-27.8787614595946
-30.5414227638899
-31.8641523021958
-30.6378881771312
-26.8984230025803
-21.5185679348508
-15.3483718635502
-8.7947670243258
-1.97710523634289
4.98246671357601
11.8857217103935
18.5790507731203
24.8621461545031
29.9303336378287
32.1227982123604
30.0319863296925
24.1609811244936
16.8714919551914
10.3211745700056
4.84391349268234
-0.507249259609895
-6.35602616887131
-12.1640549158755
-16.5949712428076
-18.5486672029476
-18.1032853856886
-16.5129178271074
-15.1021173064476
-14.1403588397381
-12.8452449212878
-10.376684885488
-6.76754106200312
-2.96070070685171
0.0774169147806617
2.32562467430229
4.69918856353193
8.03603419269203
12.2001982795177
16.1414276032144
18.6511111570864
19.1197099498887
17.8079469328946
15.4563873087108
12.5531447534788
8.93688707851192
4.04005740737617
-2.54079974882845
-10.5092265094687
-18.5854346229795
-24.8842548014921
-28.0971516449342
-28.4988084879375
-27.5201631190472
-26.2479621289135
-24.5662047256409
-21.6888825694036
-17.1119807577544
-10.9180280075818
-3.46471188804211
4.91365443655274
13.8368194273072
22.6473042846081
30.4604770906156
36.5244738340489
40.4071401595987
41.8070033856439
40.4295671514526
36.2334325053981
29.7106277834267
21.8185147624153
13.5756474271987
5.52218130666952
-2.54709329324499
-11.09927717363
-19.9523463094191
-28.0224882728393
-34.0260708721039
-37.2192073454763
-37.5400590708209
-35.3903380003771
-31.2765496103581
-25.4612460539623
-18.1346384061436
-10.104188659494
-2.9245132856438
2.098776948092
4.90736919811287
6.53140526854363
8.25341271164336
10.9668665583779
14.5838228198608
17.6217879394945
18.1266429918743
15.7606135125814
12.5851591664795
11.16214881701
12.0724530423422
13.5874160796737
13.3658004797521
10.0464250447262
3.57900012116384
-5.15951145630973
-14.7346637250407
-23.6086688441163
-30.8413548719308
-36.3336407452181
-39.9687083591745
-40.6369646901789
-36.8043701925702
-28.2960014424816
-17.0859490209586
-6.05827309177077
2.93039105646589
9.93985727892259
16.2346903720388
22.6717765390421
28.7738080368263
33.5326345197132
36.7167542269775
38.6399292635873
38.8771647740656
36.2961560586307
30.6142733765693
23.1506836967548
15.8098321015929
9.96309988000904
6.37684734268168
5.26290277719773
5.84559691238767
6.48572356733064
5.8942240176761
4.13243040373362
2.21199105662408
0.933866252177804
0.330434399654218
0.0309399980160696
-0.243466558762216
-0.721257972753759
-1.82387270073892
-3.91352484010286
-6.77684885046206
-9.75627681513815
-12.512802473124
-15.3147671956373
-18.3825380549367
-21.1753151493051
-22.5470016919826
-21.6048041741261
-18.380804627823
-13.697572338122
-8.54076909935405
-3.82749957963331
-0.660320136151105
-0.0670575124960799
-2.08127352076634
-5.65779624842218
-9.92119051222008
-14.8171789398365
-19.9993779267965
-23.8792887334977
-24.7191845941477
-22.4145057089044
-18.633558799143
-15.3658759228649
-13.4714784167449
-12.1129066578279
-9.32761508588019
-3.6991578855866
4.12666731087111
11.7733080600097
17.0139150776732
19.1620436576799
18.9854122304456
17.8543736760174
16.8461002711784
16.092335471996
14.8492596344773
12.4358279245995
9.21205853334305
6.60994254661052
6.13905663714218
8.19151335236289
11.6560981205561
14.7087173174596
16.1370624023841
16.1307852917829
15.9058086326384
16.3320543935813
16.6993232252321
15.2033347323894
11.130844607424
6.12347027591823
2.46444328864425
0.393128468539875
-1.9221397249439
-5.80458446877891
-10.3773225297935
-13.5948023165499
-14.2944610759812
-12.9989011857753
-11.0763802678791
-9.3706917973115
-7.64402090503051
-5.25588312076038
-2.04317438403387
1.81058730992759
6.44418658690643
12.1062474618541
18.2212294458633
23.3580343997726
26.3530559002907
26.884279505635
24.647653893491
18.5909751535995
7.76150259175206
-6.91683427345875
-22.0922910927678
-33.6271536616406
-39.0208080396364
-38.5048811209172
-34.3042433380812
-29.1164860506412
-24.7698288756667
-21.5130954638581
-18.4141963889686
-14.709588966854
-10.6952672576724
-7.15324563969307
-4.30698239307517
-1.70020053058849
1.32530988805805
5.45831405549546
11.1982187129564
18.0993452079032
24.3538745525119
27.5953722229279
26.2875373292262
20.5419683421925
11.9703551132156
2.76232800801666
-5.44405130888115
-12.0153422380842
-16.8211838829307
-19.608927748053
-20.0655237787174
-18.3932988147005
-15.7329978264156
-13.875494348535
-14.0811839601485
-15.8655474640538
-17.258247834139
-16.4819656577203
-13.0276888337187
-7.14584290467798
0.796196928788281
10.0166441129238
19.0903214508648
26.6069223497536
31.8469064663833
34.6752459765848
35.1455280579487
33.492154547226
30.444066654765
27.3124799129458
25.348355739535
24.6097321481544
23.5396921927667
20.0356931184476
13.0870122576668
3.44777996043341
-6.99423220213763
-16.3641611191061
-23.5379206182206
-27.95377390583
-28.9926257062603
-26.2383622232446
-20.6742288532585
-14.8227574349465
-10.8012097000822
-8.47669911729661
-6.15026990973485
-2.72435097371227
1.52789985270628
6.05215717933032
10.8025267145538
15.5774770379164
19.3015766883203
20.71116647521
19.6663771910393
17.3069913311709
14.8507474887681
12.5857792531423
10.1130805864673
7.08654984406642
3.32665012158596
-1.44978468860146
-7.44536338444577
-14.3478243857712
-21.3806769592448
-27.7003131675884
-32.5705468018809
-35.4169187497937
-36.0892386458937
-35.1035844519535
-33.4942163638787
-32.2555074866737
-31.5551065657887
-30.230820663033
-26.3856343608852
-19.0221812080387
-9.1854060613696
0.670058298500578
8.41335913513892
13.4360614727487
16.6165156510207
19.3970467987222
22.6257199740656
25.9578895630555
28.3155204527337
28.8737880471334
27.5644563134327
24.8803433937854
21.491312601156
17.9758226267831
14.7630986769862
12.4396812288398
12.0353675130725
14.4455916734348
19.2320444478134
24.3251793201938
27.2465901854247
26.627680439526
22.7801677106934
17.2479166414347
11.7268794955339
6.93867437969627
2.40942359035512
-2.61279881033787
-8.26437887904413
-14.1855547597549
-20.0817390930177
-25.7308197893087
-30.6107286833296
-34.0095916244442
-35.6687344631554
-36.0372477591544
-35.6062524762656
-34.1424898200217
-31.0039901217112
-26.2618073571742
-21.0571286532775
-16.6046144928136
-13.1249324819521
-9.90838986208263
-6.09618271888404
-1.2497054110969
4.38996216769422
9.7189822496781
12.9549468665982
12.6098348820322
8.88468495976406
4.22463922886405
2.01728049414045
4.11160779755122
9.35038283586522
14.5652901670688
16.9951456830787
15.7974580070307
11.6984281968322
5.89816554500636
-0.366474048180887
-5.54818903918613
-7.7996885594042
-5.81391060079113
0.29274871824505
9.16605201575659
19.1331349978789
28.5382153156845
35.5566000007238
38.8032277091298
38.489919033613
36.2903593814316
33.7947413901381
31.5820283088014
29.6415414542304
27.6874601145419
24.7439505118356
19.2394621345449
10.1661967821371
-1.94328440810701
-15.274820861028
-27.7294221299361
-37.6669405942917
-44.1436208048479
-46.9700332813433
-46.6793566426711
-44.0474763917004
-39.2433935789407
-31.7525471595955
-21.8041456042447
-11.7610729161392
-5.14776588490532
-3.73706701167371
-5.88909497569773
-8.05110274196071
-7.70551823750326
-4.84496772808279
-1.11684720081741
2.02488498278601
4.42749577847966
6.73089609752729
8.90166864962218
9.72631544860216
8.199062646637
5.08660214619566
2.43835439350242
1.49083061542853
1.45148944154137
0.435042827201914
-2.60197188417012
-6.91335081783374
-10.815923480173
-13.2993924249418
-14.6445834641539
-15.5829258771302
-16.2336651751381
-16.0632040449874
-14.7173866870613
-12.6353640468622
-10.6558610952623
-8.95456158151253
-6.6205997370472
-2.62806949181662
2.91276303333941
8.85321765126277
14.1426952401204
18.330515090047
21.1173658790392
22.1814312786522
21.7323110016403
20.8434829952356
20.8617794514168
22.376302553765
24.6752502626319
26.1588706529787
25.466618529005
22.5023674018906
18.4523568677503
14.6656855893636
11.4443586812995
8.02529060180089
3.79331395970696
-0.680594914606984
-4.08836836997317
-5.85106021505312
-6.70533455719179
-7.57675784129719
-8.32121513557079
-8.12008309711008
-6.84319010470919
-5.34091039423569
-4.34341494078421
-3.56724158631702
-2.08875560621524
0.670560204776731
4.50494070436833
8.75816187303903
12.6939782014133
15.389204990965
15.7147024655467
13.0800313229064
8.23424918024937
2.87012607951387
-1.64498153686833
-4.9582552535028
-7.50374298268537
-10.0727920716811
-13.3188446447848
-17.1062894941936
-20.3728202795149
-21.8704021309207
-21.0081830006246
-18.2003464636411
-14.8989659986484
-13.1221613100829
-14.2075638671613
-17.8637767100582
-22.7049644726666
-27.2987167127702
-30.1688199867486
-29.572166435814
-24.6088291936114
-16.5170928314975
-7.94170621375688
-0.888549311122195
4.10079657533678
7.28952345422854
9.36912788492267
11.6609961929269
15.4647639448717
20.4733826833405
24.3254484860445
24.5326182454292
20.985932985582
16.1901939283703
12.8805471864848
11.5873227486387
10.5577062003316
7.81366710981638
3.22126235820703
-1.18588457878314
-2.77665342289887
-0.509194444699941
4.04770045708832
7.78956049170118
8.36983531055828
5.75214908757566
1.84907664962132
-1.22017187068223
-2.70592065875294
-3.33687852463926
-3.98250752003682
-4.40199417369464
-3.59731932093095
-1.30076110144962
1.37952663501736
2.94342444475513
2.79149274437698
1.57140231590844
0.809773976904885
2.19690487430437
6.31669871586973
11.5318178205949
14.6429025036699
13.2998142720521
7.83209180515276
0.625739027163408
-6.15273289933651
-12.0241259188957
-17.4320394347789
-21.9619280983963
-24.0327454515409
-22.5847753303376
-18.5196520434075
-14.0107774451189
-10.5704703910699
-7.85157189257667
-3.88317240665384
3.56391209908143
14.9985094267531
27.8544518702882
37.3296653082392
39.3628388829281
33.4908298981067
23.1373471535068
13.0280232343174
6.01425214595715
2.11009748767676
0.0813015512111392
-0.807947784955788
-0.764009036468489
-0.349859528059061
-0.690192754192489
-2.84816151899921
-7.06034599872866
-12.2330220156867
-16.2250132868199
-17.3415082412759
-15.9656927089219
-14.4012402847459
-14.8653396835414
-17.7335892500306
-21.5148666920894
-24.1003227418769
-24.1912574372285
-21.9518656117131
-18.2340999067903
-13.1175648252706
-5.73083318334441
4.16139864054938
14.8629691379464
23.4876431104251
27.8292016332775
27.3724551683288
22.9553113690565
16.1058066061813
8.75953695454542
2.8468646376708
-0.748485003468726
-2.85197982089964
-4.90155045423687
-6.99668805739325
-7.67318748268069
-5.75191557820346
-1.63642114354324
3.43124905827257
8.54658643525974
13.2697568601232
17.441143497819
21.2995690854728
25.0516911659266
27.8572813601328
27.8356235241056
23.6028867090407
15.5556881724711
5.46818628330956
-4.81595993852514
-14.2054692236905
-22.3903396301088
-29.4035203995381
-35.0693874317764
-38.8313528730206
-40.1630147599101
-39.0482542539568
-35.9768034752806
-31.5646956224079
-26.2852885829073
-20.5926243535622
-15.1890384210932
-10.8213399094595
-7.53207705001437
-4.30167433020994
0.197041888899991
6.4333106991574
13.6388556329083
20.3641810069988
25.3013101281764
27.9191399574269
28.7053134214686
28.8129216924175
29.2605897833919
30.1865661666286
30.5663300355031
28.7530357482486
23.9281491533217
17.3526292618
11.7432440932617
8.97622967265395
8.4905681592766
7.98901484961844
5.48043474972629
0.719939130694204
-4.93584692988945
-9.93864338090882
-13.8914525105421
-17.3481949171367
-20.2321415512933
-21.0375508060389
-18.2823065345042
-12.6636793713262
-7.17611191804676
-4.75768806043659
-5.75352234965398
-7.62147880964556
-7.18571640894152
-3.42695949126558
1.72753430765766
5.24941469269215
5.64411950300691
4.01023205877373
2.7990500085377
3.56524467985041
5.78445456800086
7.71016706836716
8.13837926735558
7.1865904124684
5.67300818013001
4.20869255473602
2.83112142293635
1.10548137418857
-1.48998887548039
-5.07870677712704
-9.25909434024364
-13.4529109219111
-17.242912320199
-20.4913749732264
-23.3997807730866
-26.2343290194788
-28.6239682088563
-29.4938312145578
-28.267732126937
-25.7617987538429
-23.0905189688855
-19.8747619728182
-14.429312698156
-5.88653859597023
4.52345832247096
14.5583067522228
22.8780010254715
29.6368835275465
35.5066952656907
40.4609570835854
43.5171599041083
43.5081682624552
40.0356913062993
33.7885289611551
26.1430358743092
18.5122542278323
11.9036333625732
6.82610518490428
3.33239495556704
0.989810067057481
-0.999931161184862
-3.30974633556897
-6.06743318227754
-8.99232866291701
-11.6824695492295
-13.5408988059442
-13.8232506177168
-12.2624523665902
-9.45788249724558
-6.28850153647307
-3.21815675429327
-0.509456107167002
1.26060653557642
1.33319711145662
-0.769414651684285
-4.99302840154018
-10.4897184757695
-15.4867194775617
-18.0849221127827
-17.7119732360385
-15.5785168444075
-13.367345073174
-11.5710736789553
-9.4051113827412
-6.37638399450849
-3.55242811257802
-2.71161730549353
-4.015451122034
-5.02097764106573
-2.74195668221325
3.22170684273394
10.1214470375895
14.7734755151684
16.349269827015
16.1909586799972
15.4255309226525
13.6595151804461
10.2326366026775
6.0023210639904
3.1011208063404
3.03966299442354
5.5629433165922
9.16249850464905
12.0354845825607
12.7203890384517
10.7760786727651
7.14587565708443
3.25202695864834
-0.429529807435742
-4.39361007708167
-8.80675553492105
-12.9367495865268
-15.9840479240343
-17.8532259517648
-18.9252716311567
-19.5662078122327
-20.1337630297402
-21.1041700065967
-22.6494672490319
-23.9355620464226
-23.1877120465331
-18.9239397083538
-11.3191271710524
-2.28071844755953
5.90991387413095
12.0334711571693
16.0919715892213
18.3798448772229
18.8670695757774
17.6622322543783
15.7343643434591
14.5977990247361
14.975965297047
16.0510865797037
16.518611115543
16.2706275378001
16.3936689369626
17.3855025449227
18.047844214096
16.5982687678374
12.6170884328247
7.57903290749419
3.52139587643882
1.29690229268762
0.0625634154340031
-1.6742188036617
-4.63903112816533
-8.32120235485126
-11.5651796599779
-13.4817794433806
-14.0533652123014
-14.0052642716506
-13.8955745079182
-13.3679222453124
-11.6062959881017
-8.4121132239072
-4.48441002274043
-0.895533791748418
1.22308609300501
0.805643750825328
-2.52020130776254
-7.74321616968492
-12.8161642857295
-15.940198337892
-16.5615701865667
-15.3447431708442
-13.4373578679184
-11.7189968176171
-10.5063877373465
-9.6886281674101
-8.87031309358032
-7.43544214240729
-4.93488709727309
-1.59084716533093
1.97098960867429
5.56826666164123
9.51254577409599
13.7451147066845
17.5642139826549
20.370973829928
22.1539766332623
23.2044799067992
23.9218102256025
24.886031252027
26.4294330083083
27.8337772891981
27.3218788392599
23.3101192097393
15.9691451850505
7.63539107319617
1.42350461159242
-0.952216093083968
-0.170126393618383
1.69939570372017
2.94721911887526
3.13731562090186
2.84675920715413
2.82664624973172
3.27555005555278
3.71512887178464
3.39906149647049
1.65809749659862
-2.05675631734316
-7.99070717909103
-15.634346635358
-23.6940646136412
-30.8596818767598
-36.5852702338701
-41.0047287500709
-44.2387906151492
-45.9079567904531
-45.165086567045
-41.1671587909734
-33.7908844587429
-24.0571529364347
-13.7583109593317
-4.55709311853297
2.64808644908639
7.62881463252395
10.2461409180084
10.1663368194525
7.39286581412969
2.92827143500605
-1.57863110404073
-4.88440611090355
-6.45972363861571
-5.92291359577652
-2.92720507756901
2.18433119211317
8.15830527677345
13.5752290425569
17.7037714031067
20.7506501455487
23.5098463514458
26.5403465798319
29.3732831314879
30.7145546357295
29.7077781707958
26.889393057261
23.776356606357
21.6364935094627
20.6263285696018
19.8442900954327
18.167215269223
15.2675628382545
11.9084298729675
9.22396580160411
7.86435494009962
7.83746856611976
8.68925240483908
9.47953180595696
8.93844923867051
6.19959856612915
1.54272295485868
-3.62023826284904
-7.55148732529041
-9.19225180682273
-8.60225091523708
-6.52515097848484
-3.70517528273761
-0.761064817911272
1.56136252856558
2.45201565405528
1.38202205539537
-1.73091184443363
-6.49716135326298
-12.050769647274
-17.3942168683938
-22.0319973471266
-26.1419221243903
-30.0964484107204
-34.028375908602
-37.726039892618
-40.5386655127687
-41.4439954369232
-39.6412682517865
-35.1644906549896
-28.7618549933703
-21.3162700118264
-13.566251887463
-6.11603039080649
0.707916690246283
7.01885040181867
13.1307284702475
19.0779636482725
24.4320308224252
28.5857507143892
31.2057606359589
32.4097974583064
32.4601929275878
31.3583478852607
28.9161717704167
25.1232364521903
20.1594759757963
14.1512868009375
7.23212727676791
-0.311051471062209
-8.31381423556228
-16.9580656680355
-26.2236362441496
-35.0753650535062
-41.5081990548226
-43.6172324056378
-40.8263771534636
-34.284721822802
-25.9893593836289
-17.2740713240601
-8.13861302893431
1.89891046243929
12.5406836437372
22.5344011657868
30.599653460151
36.228362066805
39.5085174941296
40.411579968898
38.6790934851494
34.6103543551893
29.6104152022225
25.4714790119568
23.0891278179689
22.0488879193475
21.2579638104282
19.7019920230382
16.834749915878
12.7384609220397
8.05216483140679
3.59854456478456
-0.0017570039859647
-2.49879706170007
-4.12697585165385
-5.60897743051724
-7.66716486719527
-10.2899300225926
-12.6727988577743
-14.0818305098619
-14.7468356254223
-15.8367597885921
-18.4517618824835
-22.4709877634159
-26.394996960741
-28.4946596239175
-28.146099575198
-25.9593183486407
-22.7263480195738
-18.5716215408171
-13.40038935273
-8.17256343766438
-5.25049333913611
-6.69294749030349
-11.8891389896376
-17.4051673593635
-19.6736887662312
-17.6953364867813
-13.0814478173223
-8.07671203609031
-3.88147983559764
-0.385439919990717
3.02276173501795
6.4919219360742
9.61017146154517
12.2222428397693
14.844071627583
17.9294286295516
21.1862275369656
24.0689523326547
26.5012297829639
28.5576116587856
29.7917241818106
29.4530177952979
27.1475106990141
22.9320491763084
17.1450320928028
10.5467131502459
4.26321544467606
-0.828709619000361
-4.48632310443637
-6.69696946387488
-7.19250749471084
-5.69536431727142
-2.59998777865614
0.858837249681799
3.31428887810916
4.14301237929883
3.60071170369668
2.30670029971247
0.869438219867462
-0.161422376158676
-0.435234116998996
0.0085999700374878
0.806755075035314
1.3536232046782
0.78715715344343
-1.50678069574597
-5.00479278339104
-8.2647466511612
-10.6258983686425
-13.2795783494249
-18.0134027615812
-25.0046631737888
-32.2464943016395
-37.1322442028505
-38.4658929993446
-37.0407454396941
-34.42696484876
-31.3108012294751
-27.2133833500103
-21.8167643645904
-15.9785057463715
-10.824054437458
-5.99648603838212
0.477387036578
10.1077412887308
21.7705709633971
31.9772702417257
37.6529129866576
38.590687026481
36.9726524620162
34.864491409096
32.7483524053739
30.1070390641466
26.438109702444
21.5903454455786
15.8880896863582
10.2425647757956
5.77388744157251
3.12536975740118
2.17679807479609
2.19394675929837
2.03025261034635
0.467239289364311
-3.09504870133163
-7.97580266643283
-12.3099518094008
-14.2190924342053
-13.3143501867369
-10.966251985357
-8.76137753457351
-6.87727716996567
-4.42490435888245
-1.13914722286183
2.01512372314679
4.04130131881335
5.15856810507121
6.51679344597162
8.79543819109572
11.260646318144
12.3559846784141
11.3777884984632
9.37171923764381
7.92963956383441
7.25510667821646
6.13136994688164
3.8076098828043
1.05498600315511
-0.944346357080642
-2.11794456801947
-3.57428270512534
-6.47154829611976
-10.9081198651213
-15.6506309368009
-18.8976887873615
-19.5434876493011
-17.9593002565256
-15.7655345668791
-14.7694044411778
-15.6464541662574
-17.3578623089252
-18.0197030471422
-16.3836557114553
-12.3661692185437
-6.68570505402755
-0.817761077741793
3.00666513911366
3.00817545655286
-0.436179738997986
-4.77551893178519
-7.2615274609763
-6.87497399571226
-4.51385354913648
-1.65666669290778
1.05171051309424
3.92136306581929
7.09222948343287
9.80592409985554
11.1981827501001
11.4232288454646
11.3786915181582
11.5238905860968
11.5693861472511
11.1805982400039
10.3914293275309
9.36017381904406
8.16241318897406
6.84125499073241
5.44267264645396
4.03027430002521
2.72254987625608
1.65487256668918
0.955166010200077
0.79618794221437
1.32014702530467
2.47478836991398
4.05415579502962
5.77081335885951
7.04928486990858
6.99250111511396
5.01297296461775
1.48494912820149
-2.46834486649948
-5.76228680651954
-7.85797415420631
-8.74491797029352
-8.60428518454529
-7.47271938259006
-5.3461088071466
-2.59335717546339
0.179290962226128
2.85357367180179
5.86634858100117
9.25894864757194
12.1826400784491
13.7269617759539
13.8032542190478
12.8858433586332
11.3659400519518
9.55287241865713
7.85085615806275
6.39376217099678
4.64939466616038
1.7451948888653
-2.72592394796612
-8.2003266565151
-13.4218751371602
-17.3161204978815
-19.5923049506379
-20.4576802896299
-20.0448836489938
-18.443850991697
-16.082220994431
-13.6838878572493
-11.8592943277487
-10.8623041364557
-10.6447831264307
-11.0492072610392
-11.9434536729407
-13.0847837656146
-13.8764227511968
-13.5257559790793
-11.556376942382
-8.0304785648393
-3.381220932376
1.66098314395762
6.10020703386902
9.11024950818446
10.6609188472484
11.7143293717791
13.7405969975902
17.5803256735826
22.2239910586608
25.0133840277235
23.8977104030383
19.5403340559313
14.5816034474173
10.9227183176678
8.43349468934432
6.17683826230124
3.91955877567616
2.12943019272693
1.10243135827889
0.467706369347444
-0.564636151897597
-2.39279024977737
-4.34624100862824
-5.14176853179896
-4.25754499265634
-2.56089762225014
-1.37095234572169
-1.18007903804472
-1.47138284096206
-1.53419316208906
-1.19644617555379
-0.765692177537405
-0.420306682788787
0.114686467375865
1.18338998408137
2.65307737597089
3.9161260834763
4.37197395694594
3.88707876460316
2.91601897843737
2.10817899461383
1.62793302921776
1.05978501349432
0.15340872499074
-0.827013963972452
-1.87927099900448
-3.7345672383258
-6.80539955087772
-10.0927857249021
-12.000283058904
-12.1486042704681
-11.7086605359868
-11.8515606200259
-12.3503416795694
-11.9195265419254
-9.68368431259078
-6.06568441086523
-2.25130270765882
0.969322798986429
3.56592382212173
5.61764867149441
6.81182687812369
6.74471779895299
5.32280797499819
2.74061618480322
-0.545269316072274
-3.72359956357946
-5.91231126537788
-6.72102418266699
-6.36776536569492
-5.20914884687336
-3.29343160215084
-0.446764764615435
3.19479332851154
6.86916175156437
9.67109160032822
11.3302839261612
12.1493504901261
12.2141268730573
11.2331898887241
9.26463427754187
7.0329308391513
5.32848168624225
4.47814422681886
4.4125806763825
4.79787929953582
5.05207134183777
4.60470594476554
3.30246618460046
1.562235719938
0.184223711591463
-0.189345350166261
0.16910881755397
-0.062464402444675
-2.12548156184787
-5.84027095255341
-9.77067437802275
-12.6544643699898
-14.1684411791333
-14.3568751079492
-13.0471264884541
-10.2266285548325
-6.70085272704645
-3.92565600626522
-2.91034592037622
-3.25764145882216
-3.50298985688532
-2.47607924728659
-0.118905049751934
2.89568752743462
5.72130213512942
7.39168727773554
7.04798055349942
4.6539806493455
1.30630399304205
-1.4021489352262
-2.35234887286868
-1.49474816539041
0.173727129147612
1.32459488422835
1.34399051999191
0.839105065127698
1.14970890681862
3.26798266662509
6.8930384762318
10.3736181005798
11.9122634605067
11.1107988995393
9.19407415762891
7.66894874252124
7.00164387873432
6.58414082208934
5.64502122247884
4.07158303985683
2.48991547711651
1.56092561103659
1.18326729727239
0.590726567647952
-0.731394724279584
-2.62791768025674
-4.86928073606862
-7.52240597587006
-10.326081471479
-12.2757548037309
-12.459195750921
-11.0844246552977
-9.22638164207123
-7.65485946648136
-6.29313150026779
-4.91183626474863
-3.98407928265256
-4.34832852697194
-5.98897011283344
-7.67638027308477
-8.09386995295806
-6.97517684303229
-4.97013393848511
-2.80614779883195
-0.73056119920507
1.61324289074651
4.78319975202013
8.59773556633082
11.7479030749382
12.9089263722527
12.1026904554233
10.4535992160626
8.82268949348612
7.15142763996535
4.87388888589567
1.60503135709106
-2.21817068769935
-5.13296463833056
-5.66004162932982
-3.88874415735286
-1.5305305298921
-0.0641831811583697
0.604128555024995
1.31941386086445
2.21215322106074
2.62996819883404
2.15957785254452
1.18703283371528
0.436064642061836
0.134025352032736
-0.247388237451242
-1.35587374207062
-3.21986344936485
-5.34637991946299
-7.31072968857214
-8.8315165121859
-9.3960140426059
-8.34752008568625
-5.57829249988536
-1.98141622890941
1.0284555522366
2.67576445403729
3.55322301659853
4.93498454927886
7.24795196026398
9.55035936139132
10.6690481024009
10.416237667225
9.42701606688047
8.2227923561286
6.81151631354231
5.01790022610081
2.94997704232063
1.12898986219768
0.119287608125263
-0.0147913901162762
0.251015218232893
0.457342777890332
0.569258254947875
0.745400854957353
0.864102268905831
0.372476671272157
-1.39782324797132
-4.57857822373307
-8.26693836671611
-10.9546915461663
-11.767576989616
-11.0913368759264
-9.80145566048309
-8.26715876227845
-6.38789690194951
-4.17728129232793
-1.86017748562924
0.46589128816537
2.94796874983521
5.64187948204273
8.05854907341988
9.23104018879577
8.54867836521803
6.49624397494338
4.22213033027948
2.35947497197787
0.58338228990125
-1.68486245569018
-4.45355394975299
-7.08932881003587
-8.91870962489548
-9.89029345787168
-10.5864989275512
-11.4293676324518
-11.993818840502
-11.335388156163
-8.86606410546302
-4.7505348491501
0.281705270975016
5.29680078569477
9.57934659065435
12.8473401839715
14.891583276985
15.2303079601847
13.6914168988722
11.2135496805401
9.25715378675918
8.22038369631149
7.07986036858621
4.81024332133732
1.59991485835528
-1.54516368930202
-3.90322676933572
-5.4028171216821
-6.08082279254919
-5.56555456542342
-3.47933946419212
-0.407053826887128
2.05077950130424
2.61752846806764
1.46539175280757
-0.262181732070292
-1.63870521015327
-2.32353772002342
-2.17278938927838
-1.02916601563474
1.06376258124038
3.57379985103207
5.50880878411254
6.00137961645582
5.02440752551577
3.33294108290518
1.68927681046433
0.475929572125157
-0.0443092911128079
0.288706620383703
1.14946170426242
1.75750443699222
1.38895629104716
-0.369241862718752
-3.67405265485105
-8.27461821408279
-13.3125982615238
-17.6150758487149
-20.31012339823
-21.1747489627685
-20.5554940161325
-18.9738065818691
-16.5807847497008
-13.0105053243194
-8.00485942764571
-2.0525176365344
3.89180230769194
9.14233026509596
13.4175823845426
16.4451826968239
17.8123942980361
17.2427923065008
14.9532991179978
11.7928875251711
8.96395821904735
7.3972012093473
7.25376369114477
7.93008503439836
8.50051132151176
8.34984771650091
7.60273031921638
6.87717926085095
6.57631026077547
6.65500960157418
7.04370906777429
7.78493555395313
8.60317381145751
8.82361374820081
7.89679869804586
5.67409112219228
2.21874782488852
-2.21618446795617
-7.07495926072671
-11.748080356963
-15.8521504868987
-19.0107098954752
-20.6473963294178
-20.4336535562106
-18.8103699838635
-16.6985547986982
-14.70516721527
-12.7507613041177
-10.375206086409
-7.37762258771181
-4.29633165979463
-2.14253892820822
-1.42196418551508
-1.55728288282978
-1.47068097028996
-0.527432487255768
1.23820809671823
3.51864394939171
6.06671208759697
8.66121148665664
10.8248882867556
11.7616493016096
10.9324655704322
8.7931157422522
6.66914822710511
5.72624872452084
6.11257671398344
6.99670390573498
7.30218924276158
6.59284053093183
5.40937256441139
4.58964402185822
4.29221697967002
3.9953065077389
3.29391352809371
2.18999616134995
0.761441417642974
-0.828928092990213
-2.06370947808002
-2.38868922132706
-1.83997874670252
-1.0224200361562
-0.527236487764013
-0.564527725432371
-0.957377721729325
-1.29336625967957
-1.32637321057375
-1.4044683355027
-2.22412526254091
-3.99429800052654
-6.07070170326391
-7.48587436780445
-7.65691235485509
-6.6745531975865
-5.18677170104923
-3.96821103217989
-3.4305091472148
-3.53759924589113
-4.07359655586251
-4.75586848206457
-5.1816577515151
-4.96738289190077
-3.98280529148951
-2.39141544127813
-0.5560736555059
1.17054394168898
2.82752611385715
4.91101984935851
7.66859554960219
10.3820590007065
11.7632921338268
11.1272205339871
8.9722240423038
6.44869630880226
4.39755400386098
2.84080941682068
1.30301642453571
-0.465197067327756
-2.25897198767865
-3.84343851001804
-5.17525979695913
-6.06298207728013
-6.05729263245098
-4.96949091944196
-3.18783646652987
-1.25462937518795
0.559531330038858
2.07585703922823
2.95710658934419
2.89195026810585
1.87926849293516
0.317683190998847
-1.05930170978755
-1.59611080132009
-1.35433408003013
-1.07655506802489
-1.26036446166748
-1.58399784803189
-1.47035195923954
-0.880420714934553
-0.304715694621279
-0.177465086641773
-0.471957334776142
-0.824893506190607
-1.00819033747875
-1.16665866910649
-1.45869630016109
-1.65734769938397
-1.43252663428582
-0.895862941450941
-0.489377744087247
-0.364285905552826
-0.129008266125677
0.770760824653771
2.41650007011972
4.02087661881069
4.33897625300308
2.84548423422396
0.397834073903755
-1.62777065268038
-2.70882228575685
-3.32375801897185
-3.94414684863503
-4.38453851079654
-4.13833815941145
-2.93630064615926
-0.818892150661262
2.15270200233169
6.02940375525667
10.6135822670207
14.939895102964
17.5187960929331
17.5051399157405
15.4925085771796
12.9311480756258
10.9706048260004
9.93531405027008
9.45409581908444
8.81442027055418
7.46331737330057
5.35697202459083
2.74011644575999
-0.322684498319948
-4.06630967549034
-8.88301647113161
-15.1759034433505
-22.9924878879611
-31.4784280466037
-38.7911816840925
-42.7757232055205
-42.0359843915437
-36.8894031706534
-29.4818017317532
-22.4112392933074
-16.6938057562713
-11.1860248872359
-4.15708991556967
4.79067320913817
14.3403802952961
22.532178014806
28.0074302063995
30.467868204735
30.2271784383663
27.5410377677887
22.6152213162295
16.2188385939602
9.81264292529922
4.7816514313794
1.75318432699714
0.706009303351401
1.28009953514165
2.77711427352262
4.27007343999742
5.02863403571694
4.78473801740885
3.65173953002943
1.97578023036396
0.206486148777363
-1.25646897911317
-2.16684513741648
-2.52072048041139
-2.60204306044275
-2.66465219790762
-2.38126185007531
-0.935510993415204
2.0006322252579
5.55278121935784
8.18097814397584
8.90915343533347
8.00023887966454
6.53936930039857
5.36792585825219
4.39123106995257
2.96512983594439
0.76996114911404
-2.00104005309888
-5.07849080001652
-8.19121912975819
-10.8010398977549
-12.3268679816185
-12.6894849099735
-12.2974433117109
-11.5403334482401
-10.5377978219325
-9.22965269893866
-7.4823799022873
-5.31381578807741
-3.19774386244569
-1.83658392627871
-1.40683527284376
-1.32866253733315
-0.958486528235665
-0.214517545663892
0.56769052968252
1.05317386645778
1.0725570829342
0.6339833467193
-0.107187419871776
-0.949087911433527
-1.68006918241365
-1.98744634668999
-1.43711753826804
0.316966582572301
3.15318049042229
6.24104853983999
8.43462168046886
9.24848022787827
9.31422284959871
9.52775710325567
9.9084686650951
9.67095945254056
8.21987697653834
5.674278295997
2.60736311003354
-0.334897114004861
-2.65270858222806
-4.08937495455912
-4.55159643656639
-4.06946778191675
-3.00495228481751
-2.03775996014716
-1.57638198080904
-1.3321825031641
-0.763023536150764
0.258836288270203
1.44081119675359
2.3661959375972
2.46218229126656
1.10307205775626
-1.6964499042442
-4.87120797587275
-7.04889428027366
-7.70111461760396
-7.36439585843374
-6.79987664412756
-6.13856101628943
-4.96525289707998
-3.16255471616499
-1.31307930869285
-0.00774754634151
0.912867198118871
1.95025623795316
2.9392330834422
2.95492650007625
1.3425540325865
-1.3408677415786
-3.50110206648322
-3.750983163027
-2.16011859494299
-0.17982990171155
0.802970173687427
0.649162987546258
0.210807666535556
0.41744338236368
1.78543598090409
4.19605419909966
6.75277647141553
8.25745426127978
8.14955408924158
6.7937759497183
4.87028467113216
2.85169215451367
1.05533154916151
-0.251164994006851
-0.984191964331814
-1.30494106887351
-1.48171053584138
-1.71403244788544
-1.94350008450244
-1.80236573807256
-0.995216671802268
0.232135909072563
1.26635214723349
1.7403742861782
1.70986591513206
1.33037397244182
0.655878072071754
-0.308505125361139
-1.50789688766724
-2.67946365759244
-3.29317685781782
-2.91198382968014
-1.6694127755122
-0.213927103131084
0.830943988040797
1.31344649924514
1.63043322892187
2.39350039533069
3.77039555294097
5.13891143304273
5.66816746222679
5.21902944039118
4.39479105326092
3.76811647057766
3.30802954798397
2.50822577522128
0.952917309044022
-1.14043495061038
-2.92986898641133
-3.65420740599962
-3.28617010095156
-2.39136508647672
-1.58369827109939
-1.33777327067773
-2.0222494213116
-3.66970667128016
-5.75065153792061
-7.46025139313631
-8.29884330409636
-8.394952186557
-8.38131949334
-8.85439730466253
-9.72307519797017
-10.1939849671448
-9.5668771814479
-7.77934558944203
-4.98660835966178
-1.05863316737859
4.06444032690053
9.70090218525645
14.4449374550531
16.9536573443662
16.8522829014937
14.9851404992648
12.6171785671969
10.2518052609215
7.36154134041978
3.25527009415625
-2.04832638302324
-7.73022483308466
-12.607939842292
-15.7249229938378
-16.8202036741311
-16.2058116574919
-14.1435276596897
-10.6540473259114
-6.05547110851978
-1.30002968822397
2.51405533866867
4.92480905720999
6.42272796408837
7.98972684963108
10.0645344649736
11.8714264083146
12.0891047649947
10.2920880871702
7.38573384170875
4.57103367522094
2.36756532059517
0.755876890561177
-0.309999989964516
-0.822297350858203
-0.789827129954936
-0.257900893373612
0.487744804537413
0.860558703714599
0.479947283057572
-0.390886398945236
-1.22045934924614
-1.83705578948019
-2.37655233737215
-2.7549097498367
-2.52057434634466
-1.31818334789175
0.586803465574608
2.38058506835026
3.40225051292735
3.67307348274511
3.59114007578705
3.33037758543313
2.85760381719527
2.31480400042676
1.9395666694017
1.70460759093292
1.36628625276199
0.772912746785392
-0.0383295791458793
-0.850122579280563
-1.31789927205486
-1.32847228897056
-1.32051707891678
-1.8650511288359
-2.88742757677937
-3.6608165969611
-3.60634344392066
-2.81528567143256
-1.83029304410567
-1.20388683716992
-1.19043106359942
-1.59069088171373
-1.95469899059097
-2.06973917813996
-2.09789956295913
-2.1976538716725
-2.27574975031658
-2.19081546760989
-2.02145021991397
-2.08765764378093
-2.72316290771975
-3.93005012442148
-5.31361280794437
-6.50830599561869
-7.47795471889322
-8.13782446578061
-7.97278527477943
-6.51319786462949
-4.10443329613143
-1.76569261000208
-0.145658833503158
1.21953998539709
3.42380957645727
6.85978413943199
10.5190813821209
12.9267753360285
13.6233944876297
13.22470047847
12.1954599335552
10.3498989495864
7.61462885212581
4.52632256963842
1.78366768809412
-0.159352994023139
-1.03792117918417
-0.933354778447568
-0.585212343064969
-0.981749831900056
-2.40202395146782
-4.12226463572376
-5.10455584920953
-4.80667078530123
-3.49046255649243
-1.99827131761604
-1.11335701939276
-0.989967877183314
-1.2555949282387
-1.52224257833897
-1.5682842694886
-1.23073318640411
-0.465166969260426
0.553501094898745
1.52673435108299
2.09504858353166
1.82026042795546
0.395491673158317
-2.02213320327828
-4.76177308654548
-6.87427794629096
-7.52392261576166
-6.55028559611795
-4.75389322364316
-3.3130126419198
-2.83860122725114
-3.14169008666345
-3.66848039042046
-3.83366873605251
-3.19400798642793
-1.66292042375074
0.544747127100497
3.19139263177054
5.93828029374514
8.12413346536333
9.16428531710461
9.1974475294184
8.93018688825981
8.86790969785293
8.98585254052058
8.96289154205404
8.40920222306157
7.09612375226449
5.29353083683498
3.69134742052475
2.80864613150966
2.7047930629922
3.21124998070906
3.94550015937677
4.07887599368613
2.67814903871459
-0.457871268870709
-4.50229927418319
-8.17807266949801
-10.5396837564894
-11.3307189585031
-10.7823742827092
-9.14485091816539
-6.52499500023265
-3.19581393044466
0.232387464378008
3.17602409204003
5.43959035540635
7.07033583239151
8.01939828831338
7.9945816198727
6.48873276849381
3.0582595157822
-2.16373202426498
-8.29033267689096
-14.1492643047903
-18.8010249165299
-21.6409702785699
-22.4043088773656
-21.2662555171572
-18.7713024287078
-15.5978122793371
-12.3096413466712
-8.92910598357983
-4.64193859205288
1.40006934900056
8.52058584858301
14.3506599129644
16.797005674425
15.7821653650336
12.7512989053404
9.18894537158453
6.08093635571852
4.06835779458877
3.37427777202935
3.77127538228822
4.88640782997336
6.34188519407099
7.61703366086332
8.17249289549254
7.87538383007327
7.14020825232609
6.52185588659745
6.14375138388117
5.57856370507894
4.3999170524812
2.77980501864206
1.32915240317443
0.446314256220378
0.117233412722622
0.211790222985154
0.58178273596003
0.964766653479476
1.12599429547386
0.990326362271869
0.484572521132246
-0.446767090142364
-1.53987860601051
-2.33252778046539
-2.72311701999914
-3.00733514035733
-3.29248624746071
-3.33836962091182
-3.0609157079784
-2.71580115813745
-2.44492452209332
-2.04550830886066
-1.33623562370305
-0.475746456220172
0.148995088186643
0.186696902769436
-0.456372207708568
-1.51241803476383
-2.53626495922041
-3.20717203447177
-3.36835277239703
-2.94489598886124
-2.06342848053878
-1.12447054659971
-0.522635637403651
-0.328657754001648
-0.313626359191562
-0.222506975116013
-0.0427289102225645
-0.0389468407644739
-0.411474111348523
-0.968154341830668
-1.43211985481551
-2.04081585604318
-3.38382734746034
-5.54496432309884
-7.78427653841604
-9.13625053746246
-9.03566828231913
-7.47191092574998
-4.94888681047795
-2.29107464480287
-0.188924257375139
1.14310426476351
1.87790813168964
2.29870307617072
2.568500728033
2.5622127491119
2.01352245783228
1.07151312609393
0.526881062000597
1.09834610459522
2.61286385546359
4.26456022835114
5.54800406119049
6.56848356213429
7.56235910725095
8.45499087482
8.88034719212661
8.53317370400256
7.55210774409029
6.46681998018699
5.63443589934326
4.91054545996067
4.05170912570286
3.216465480436
2.8308719539403
3.05123787485508
3.46965582158162
3.33276677128099
2.12739747784466
0.017911604705617
-2.3852973720933
-4.63042679245921
-6.56507797028445
-8.00103720367055
-8.65275064925618
-8.41959675227001
-7.45824262070982
-6.07685668293427
-4.74375616370355
-3.91814725304048
-3.62745888806453
-3.46968053180465
-3.15052209477123
-2.66127505928958
-1.86084793782465
-0.394296868788493
1.70314800354732
3.65484335826745
4.48197322745276
3.82351252509847
2.20978669548355
0.6306830164483
-0.274289688648438
-0.73901739317481
-1.47853445968741
-2.75585434006127
-4.06568425351461
-4.75205159206364
-4.69460048730939
-4.34036798078536
-4.12845069566988
-3.84860928108712
-2.7501580404222
-0.584303872999242
1.73070025427332
3.01896659973142
3.22746251296624
3.32204788380474
3.96607742541277
4.87073604436169
5.36952683736907
5.17739875203962
4.58805766033129
4.12902712456496
3.98881023995401
3.84152858298264
3.36937334900493
2.69635380667951
2.05396504585533
1.37026430230108
0.509144332424204
-0.40386917063305
-1.13372481983422
-1.49394211905498
-1.2297661201745
-0.143814394058039
1.47847758509949
2.84584907342222
3.19800932720282
2.29102018448537
0.541806721080522
-1.07851641247802
-1.56936263987767
-0.704893644100006
0.758685357138656
1.78577837012801
1.7684541038952
0.609354056152456
-1.4144052116012
-3.73872357953627
-5.78801455906537
-7.31677160608771
-8.47562789185927
-9.6752165144926
-11.324925848519
-13.3578145422972
-14.9688132271106
-15.0987612623924
-13.1877135492079
-9.37095038923128
-4.2425473080748
1.35474672418135
6.60784789289679
10.96841474091
13.9140357863062
14.7373388714419
13.1875812401502
10.1959726636365
7.33041023859453
5.53716860363356
4.76944379007357
4.57540613527179
4.58347411484095
4.59310796202448
4.57566071219858
4.53727207834709
4.29796980387579
3.63871691513587
2.72047434012657
2.04125286153955
1.87066915025916
1.94378450583593
1.71774469153388
0.776479369329696
-0.868617487724802
-2.70986435277235
-4.16197958308755
-5.12371662649764
-5.85989656404778
-6.35945772940892
-6.23398193388025
-5.33361786076026
-4.10999209971998
-3.19813452773393
-2.77058488028235
-2.41116102222867
-1.62334141481562
-0.386321471149402
0.868399082089346
1.67829957598775
1.70616084875409
0.701060854891488
-1.16394434574306
-2.93289839749378
-3.38806006195576
-2.11854817091884
0.114957510568196
2.02172455739547
2.74643118315455
2.57914922850661
2.83718764346676
4.57977699848805
7.31198393117406
9.42477148124655
9.90360530341698
9.01023815430244
7.37231907472892
5.25997318336995
2.91821922438705
0.764347606472471
-1.18786867071104
-3.61662619530119
-7.24869159530114
-12.0761507617753
-17.1605948476929
-20.982838700942
-22.2031032708978
-20.5167520821074
-16.8816903420907
-12.8338201463514
-9.44739379222023
-6.64065297009216
-3.32037796482634
1.50518669436519
7.49464411780944
12.9783190901924
16.288415656633
16.9853064547458
15.8767261303334
14.1072711487861
12.2754669968576
10.3561527023217
8.41455300746663
7.06633091583501
6.88911200888303
7.66901134674051
8.682609519956
9.39486783820754
9.38635280161102
8.05560295830506
5.1108728088897
1.13212466282323
-2.89781059772967
-6.44156217564671
-9.42979660534023
-11.709247882305
-12.8992822821724
-12.7823364148973
-11.686764310366
-10.4503891253509
-9.78125523808369
-9.39215831826097
-8.03039313961185
-4.8175981811163
-0.435276061938754
3.37973108737173
5.38697359908895
5.64542096040894
4.98382393092348
3.97029081020295
2.4078600558142
-0.221742569017375
-3.88714466845665
-7.71548669370492
-10.5244916560121
-11.4741442406691
-10.3597352721605
-7.61299287531359
-3.96756244477149
0.0926517472611099
4.40264807640108
8.50430500326986
11.3353792486305
11.9091681579535
10.2713312877632
7.71499924284649
6.01303797886243
6.07505104940729
7.06415496631647
7.11304952865592
5.15090452364429
1.76734260191478
-1.68606924166019
-4.21771117813755
-5.32356331280978
-4.82498857936131
-3.12395093150501
-1.22106384586672
-0.0258455160757604
0.25671811894824
0.0317141980479576
-0.0537109335710396
0.618584820395734
2.28118581286183
4.54208086991725
6.69670464052785
8.22981268224303
8.9195954105485
8.79836437784795
8.32929388805421
8.33627327615809
9.29132487350289
10.6093665262144
10.8981076864926
9.12841495574842
5.57913803223788
1.48336885393651
-2.25915204768234
-5.78802854112886
-9.73241169043676
-14.3449829385701
-19.1998065178484
-23.2927785753985
-25.4854443381313
-25.4636311225058
-24.2459111223784
-23.0705604636349
-21.7488779599014
-18.7518846994494
-13.0097055823788
-5.2005005035461
2.69800923602454
8.75820472097536
12.0415613506315
12.568249675739
10.7356316567548
7.1837297380287
3.32832391168622
1.26242953701606
2.16161113882497
4.87823960963375
6.95623559251187
7.12936314542219
6.17253263489604
5.33116615203744
4.72371665463235
3.60937314535871
1.81569450242952
0.473310766950409
1.06482762832469
3.64066534731796
6.33840568640641
7.1226519564617
5.84958009887258
4.24438256994802
4.00867751989736
5.27768477704839
6.74552509459939
6.88118233825487
4.94669659776045
1.15146760580532
-3.64717867674536
-8.07081707175209
-10.5232864355276
-10.2214042867266
-7.99961784795228
-5.54864189248218
-3.90331427571231
-3.04600970066681
-2.46673870417617
-1.30734980079844
1.60680289080455
6.79685293881078
13.1156567270185
18.332613518924
20.7854772077713
20.1883177523576
17.1883471125608
12.7754134564489
8.08699694659995
4.23904709142947
1.96243981567366
1.2167737861029
1.11521140748933
0.510037393527569
-1.07682520405684
-3.24177543262469
-5.5003682326886
-7.98938400847588
-11.2093829671644
-15.2857168045336
-19.6095546931894
-23.1957457211036
-25.4590040708531
-26.5362514095941
-26.6797715383211
-25.6718644784212
-23.2179827803136
-19.396981143265
-14.0837368713499
-6.56829692790934
3.18687731433836
13.187680881304
20.3284478774118
22.8103454789083
21.3033325122603
18.0190794972638
15.0530913558188
13.3202314415635
12.5464039012807
12.0078462836862
11.1403526106162
9.64636797391834
7.64222900671842
5.87993389915952
5.20991059905832
5.47699570102552
5.39086872406388
3.75933187288948
0.48196149571793
-3.75597475368036
-8.23811021528991
-12.5096007955987
-16.3749246691207
-19.7029861851181
-21.9110287248099
-21.8142592682293
-18.5469834027061
-12.7048282073224
-6.2148051092131
-0.872831817459621
2.99267930785373
6.35383518966699
9.95394664793289
13.1795588147189
14.7699751113375
14.3544790027467
12.6547965320081
10.3378858760582
7.47033845547559
4.1585449361012
1.02449612829644
-1.14278399003656
-1.87136906812701
-1.25401591800051
-0.0658548912581573
0.541074509299475
-0.151904192361098
-1.85633543784712
-3.49823100286649
-3.94138239359423
-2.66464067099815
0.0303020692142316
3.46274163642055
7.18040142928727
10.9643970172271
14.3764118264437
16.7208784393827
17.5201564417067
16.7314425945904
14.5371524071893
11.2900078178029
7.59790372725636
4.01270958869134
0.558984815475198
-3.24472842116335
-7.98863321338242
-13.9713502146617
-20.7314891021756
-26.834479137726
-30.6127472950132
-31.3907131446239
-29.7808014814277
-26.8193927275824
-23.1393266959773
-18.8986603149887
-14.0244420859277
-8.29631097330826
-1.45914271426538
6.29401979552501
13.7572322250104
18.9806509224472
20.667619696781
19.3863112430201
17.1301676515683
15.785796422234
16.1667259276354
17.8712532345657
19.3268081189383
18.4135429978452
13.9932506959579
6.88788654580212
-0.980029636091614
-8.11941299804224
-13.8900095888672
-17.9919928952533
-20.1801476577264
-20.3462627054552
-18.5806743244247
-15.3030378901017
-11.4264413617345
-8.06057628193023
-5.80925770886398
-4.39285285616044
-2.8712621434872
-0.197452035497624
4.0499853284265
9.15648254351248
13.6972518278011
16.6353476493338
17.8494199485008
17.7608976567616
16.9273198308746
15.9278678048461
15.0783745438388
14.0759262187291
12.1837482093854
8.90259475429351
4.46409672250205
-0.248854917444711
-4.24582085104398
-6.99221823041969
-8.51872414638512
-9.14109071557171
-9.26482654358574
-9.27862100662637
-9.25447894217043
-8.8356279704895
-7.73587176929468
-6.20454656982814
-4.79157446067688
-3.95617558144466
-4.01840545321315
-4.94959187529771
-6.01983897513182
-6.27165297308422
-5.5833958368732
-4.69354820238192
-4.06142239268316
-3.40998491257507
-2.50638496432076
-1.5736898459179
-0.713336172556642
0.34418742312441
1.72688013289388
3.25205419090689
4.79060009637691
6.26969669047673
7.39196209341601
7.81900477666764
7.58686575445618
7.10585912206295
6.85949208659304
7.12599134825143
7.73027228738187
8.02217219993121
7.30413202473541
5.33442992718913
2.41357269412831
-0.886173758699946
-4.08023770241364
-7.00971936432565
-9.64634653491015
-11.578243208952
-11.9948751469378
-10.4375534198244
-7.35680132174697
-3.7705949420349
-0.54672483151952
1.98148693696959
3.9025550111941
5.19582758197922
5.28464432834887
3.46791887772562
-0.0479284695597531
-3.96755069331973
-6.99985591567624
-8.74937569288789
-9.31527133510053
-8.54918920153518
-6.21963904684465
-2.65179782135225
1.24675945271399
4.57608282158879
6.9429421784974
8.48478572479954
9.42064031672737
9.57716020449966
8.63091874044817
6.90025941512443
5.43344141640354
4.99763073820328
5.2388360361795
5.05591974740873
3.66839524599995
1.25731691591198
-1.35422483252657
-3.6304212291378
-5.81808456106308
-8.33538219971942
-10.8574044766552
-12.4017880913865
-12.3279823546185
-11.0752027328175
-9.95411698867785
-10.0487749900351
-10.8972547932442
-10.4279623975073
-6.85911256859694
-0.634918939089238
6.01078186356314
11.1318605526062
14.1203530825856
15.1522904189101
14.6276826646723
13.2971546012655
12.2312392414135
12.187163477889
12.988720826899
13.5879173805933
12.90458851116
10.8749405788837
8.62634290515607
7.37175380767324
7.26499718903263
7.53569335942819
7.31171043518126
5.8619951330974
2.49090448636347
-3.08518774467383
-10.2345703098019
-17.5334835848042
-23.3441190658051
-26.3407492104054
-25.9038870520253
-22.3705149201298
-16.9678144663939
-11.2972874000768
-6.41689392010984
-2.12698556240057
2.58373061766652
8.18856596946696
14.0975424725799
19.5121362836234
23.942393747012
26.5226589610223
25.804555469983
20.9795116901871
12.7794690822342
2.75148268910967
-7.82262814305865
-18.0453997714419
-27.1077408073377
-34.3700935633766
-39.6067671890647
-43.0419017688724
-45.1013080506376
-45.7572389563009
-43.7670015557354
-36.9033811625023
-23.6939886930284
-5.29298349830391
14.4385467944818
30.7689057586463
40.2521077192705
41.903829350417
37.3074392880341
29.9291506925682
23.5934525515151
20.4236615898432
19.7130667329215
19.0958613804519
16.9944519097571
13.6505876147645
10.0237541448415
6.66032854645495
3.93256120228311
2.45905935694625
2.56090601305307
3.64869828204551
4.63224551329149
4.84055790906556
4.37923104287919
3.67184074883025
2.69106921466932
0.72329980339457
-2.85481427801341
-7.61871781236955
-12.282809744927
-15.7714517937649
-17.6845594951085
-17.8791824029282
-16.2305669408382
-12.8771067577772
-8.2472889400273
-2.76000110561292
3.18901775034128
8.86269873504237
12.9706777328278
13.9424882349097
10.7103657543933
3.74115736413534
-4.62090925829205
-11.3189312071312
-14.3818746230274
-13.6040079751902
-9.90745680826988
-4.58300958380295
1.09294924643482
6.11518846092163
9.77498383178156
11.4829156136694
10.9503506173916
8.66724156473582
5.83290846611933
3.59581736628157
2.38770191455925
1.83464642152697
1.14433859348221
-0.260828250552588
-2.36627780538595
-4.91905826740913
-7.98703485288649
-11.7118044879669
-15.4715714187644
-17.7461207027586
-17.1553129727888
-13.7019470827609
-8.93087003465442
-4.64493494136954
-1.33698627373305
1.88613545685281
5.7380481045232
9.52046944070361
11.7079574880684
11.4347243438196
9.12777018216739
5.89198100638399
2.51179707490293
-1.01494083278787
-5.00097908747551
-9.04705135416304
-11.6966604358512
-11.4909652422291
-8.28992787353026
-3.23585236154831
2.2972751806436
7.19423684939593
10.436248302407
11.4420256414121
10.8220883751003
10.1986914788431
10.8188216673072
12.3855483225623
13.412973690265
12.7051484432248
10.2968284632984
6.93295042982436
3.10254235758005
-0.971452338687242
-4.76274132969225
-7.54573263358693
-8.9798819046504
-9.15527342734679
-8.31689001093499
-6.95518241489612
-5.76947017770101
-5.05406357300604
-4.41455908205311
-3.36581273334194
-1.84571325124345
-0.0041298090909828
2.07316191572508
4.30118456408704
6.55751914883114
8.64606465671345
10.0520267377142
10.0248445311283
8.25986050067426
5.14397049647069
0.972909054763437
-4.54703919277394
-11.4746497471662
-18.7338380308789
-24.5781806672241
-27.7306790758084
-27.8313896825488
-25.145146565257
-20.1476732528222
-13.2193093843486
-4.57516414156795
5.39816450744456
15.6466747475808
24.4112495564403
29.9854943352254
31.7754093453134
30.603933044103
27.9028132710726
24.7550272670794
21.6552879305653
18.5439042182973
14.6909549538103
9.19820377296599
2.25937360986145
-4.52100622536294
-9.6142299109815
-12.99313930507
-15.7893089146468
-19.1353527073111
-23.5990785324017
-28.9850874785338
-34.1894379277567
-37.5979798818734
-37.8294493510317
-34.0644673729789
-26.2618779163255
-15.7273415915535
-4.97023543884782
3.98531008550631
11.152475292847
17.938046054343
25.1328634587455
31.9212423858214
36.5195753411654
37.3725893700696
34.0928476731123
27.7610823516582
20.3550171385378
13.7642104214215
9.12173043593161
6.5141514526785
4.99623469406874
3.23648439269092
0.523812585994235
-2.90265861678487
-6.44085516263978
-9.72287018010853
-12.6481113586894
-15.1375194061129
-16.95580574574
-17.7509211651486
-17.3425313959999
-15.9070158009528
-13.7036617556414
-10.7119254310529
-6.72531211636948
-1.76273175372602
3.56230180364313
7.91688704517982
9.84669364772433
9.09450437302849
7.11389006881984
5.57248425723199
4.40237104541097
1.9509718699949
-2.92468251448032
-9.39690012921784
-15.2773134965359
-18.6675283567006
-19.0736366408522
-17.4174463365802
-15.1343803773251
-12.9435318099751
-10.2058618553332
-5.42721437624821
2.4668158388145
12.9569123800459
23.7008912406397
31.6672892098241
34.8904332094999
33.3005923839259
28.1693547637672
21.2317652931257
14.1944615542799
8.29093018589325
3.84063591903595
0.32058467185379
-3.09494672471865
-7.05423529294352
-11.7598902423822
-16.8245156849329
-21.2765721296923
-23.7206112317373
-22.8906954766501
-18.9046323751291
-14.1787112679224
-11.9953642434211
-13.1703630213181
-14.5680913294766
-11.7984165582935
-3.48489626863833
7.31125881660893
15.7080721835067
18.9601464551522
18.1584062440189
16.389143084356
15.572061635401
15.4334427236626
15.2548898378987
15.5377996256487
17.3068708740553
20.3485702598006
22.8602596679896
22.6956748145803
18.7078683310171
11.3144588972948
2.16613441197355
-6.9774649240876
-15.3434637446367
-23.0986600471981
-30.2797424327727
-36.0384345657753
-39.1063829162649
-38.9809827298358
-36.4446048308583
-32.6339977527246
-27.724024936587
-21.0519768604893
-12.5647102849001
-3.49192363697066
4.62299057989423
11.0053025836052
15.6077667406771
18.6097048015441
20.2868556011126
21.0221437227661
21.1337439800931
20.6495958307967
19.2220841711233
16.4812962644531
12.8555222937788
9.84108141009037
8.83118067453253
9.66752927077463
10.8465616493137
11.0895381334346
10.1925292784338
8.40080882794246
5.55471782392117
1.0811690825924
-5.34270738538745
-13.061656502888
-20.2672514983202
-24.8801605024109
-25.9921185806557
-24.4097473872369
-21.6767480895804
-18.5710078128143
-14.4309589429524
-7.96280406974832
0.90804292021386
9.92412026124763
15.7565116589427
16.6205221862005
13.4357013910172
8.65075047384469
4.48045317753684
2.02258857877713
1.19731829196816
1.21861857364725
1.40000414971366
1.63356948418738
2.12603693406938
2.88628769420188
3.55356463884368
3.68363035975255
3.3797250541739
3.62371164596585
5.4329179966265
8.50655418489916
11.3375598504405
12.9041432314029
13.5726098901329
14.0610520352585
14.2346548562521
13.3331572587343
10.8438957734111
6.76584735317953
1.403361453123
-4.75354020859515
-11.073045361271
-16.7787909123017
-20.9037263800709
-22.6200636437561
-21.9535754256144
-19.9338778015222
-17.751363010173
-15.8815678365771
-14.0504786951346
-11.7841730398224
-8.93695276585109
-5.83993717539502
-2.9734465228769
-0.612106851676611
1.01498533466236
1.48142694552991
0.599091671243422
-0.977307932619806
-2.04961726895359
-1.80301031153954
-0.269395026252539
1.81934565635213
3.36172219697218
3.45895496712133
2.09455789974885
0.201036525535032
-0.970435294618842
-0.480542460260337
1.86615389255439
5.19341265923823
7.89552411230169
8.85170938247468
8.30769657831183
7.41615051555301
7.17139704772396
7.93464300494852
9.60602502051484
11.9297797791748
14.7482692375058
18.0189027765505
21.3891810803933
23.823756900853
24.0272295048589
21.3755179699463
16.3347950045923
10.0095256969806
3.31501503985145
-3.59282552762549
-11.2099990376382
-19.9760161927384
-29.6016449096619
-38.8761569685565
-45.8241567122246
-48.2097197705213
-44.6220349691724
-35.7089610433239
-24.4293958070153
-14.6246064552221
-8.47100424526496
-4.74073037862327
0.0135641807205772
7.81481291911486
16.9823173040028
23.9731770986882
26.9096280292262
26.5107750873335
24.2841289440736
21.0872517735017
17.292059168899
13.3272439096345
9.8378772687843
7.56592306802789
6.89805527516532
7.43066816709429
8.29506853478783
8.9038103466261
9.03386956975165
8.40932486796968
6.84912793672406
4.75942780050893
2.79076470429646
0.895656180381009
-1.71615545993187
-5.47346508255688
-9.60047193362563
-12.5615073001001
-13.3650652510124
-12.5106768817172
-11.5932307446428
-11.7875381238936
-12.735936567078
-13.0161420946776
-11.5760946258047
-8.58813943021569
-5.03594977337796
-1.72271091015055
1.13488821390983
3.43318412716366
4.79534548674659
5.01713015247413
4.52425320756884
3.8483664190074
2.90547185085314
1.34856601846658
-0.606744367748979
-2.28346882513957
-3.30186582899851
-3.8028699700054
-4.10231345116415
-4.41153049938808
-4.71436440879204
-4.83761772079486
-4.81640783585344
-4.93619931080593
-5.04168392548319
-4.23028067388639
-1.87150504956739
1.37957418309484
4.2274494968717
6.10373391647902
7.31813142682539
8.30197067307421
9.3804039185229
10.6987337303932
11.4755057408761
9.96541304063635
5.42929143738069
-0.0686398714474994
-3.05540091833346
-2.17284842888108
0.329403938864183
0.933495336931405
-1.67908424077362
-5.75764526666582
-8.60825635873179
-8.76968718977458
-6.04501785682092
-0.555010807374137
7.10905636395941
15.0584496386159
20.5491447626735
21.8483880729153
19.6263268057024
16.4173632290381
14.5705276940097
14.4835004029987
14.8019354665455
14.241945302596
12.6722680669766
10.2613656288332
6.51239854727406
0.961434700751484
-5.69984303083397
-12.0669326042668
-17.4477798439274
-22.2922282119609
-27.3312786135827
-32.7917698457368
-38.4598234279037
-43.9881402841197
-48.6642403839278
-50.9315870237536
-48.8576389173564
-41.8547302510466
-31.8037362185689
-21.6867272672421
-13.0226493153747
-5.21230246540625
2.86052153429327
11.5583597120622
20.7674620968504
30.3032136286576
39.4070751399212
46.2274973497828
48.4821828862557
45.1695131757669
37.8015654895662
29.6091566683219
23.1706577462902
18.874962491199
15.5996440663013
12.287005718312
8.68385236492657
5.22971589726395
2.67806911413494
1.49224377100499
1.36499123387323
1.48821400125025
1.21744674704469
0.323466627610451
-1.0630288400444
-2.47994074864699
-3.46239732435141
-4.08549925149504
-4.85413829871271
-5.95084389263816
-7.00371708937283
-7.6735683239742
-8.01507070861376
-8.19153547063551
-8.35099998326389
-8.91993514987142
-10.4727366316892
-12.9354919946182
-15.1477054729841
-15.6365512108753
-14.098621171407
-11.9977285043535
-11.1358858207635
-11.3862369052252
-10.4430447430275
-6.2979101360243
0.494249414288096
7.41832561642549
12.3596100200767
14.8989903753776
15.6885629351512
15.2304979342529
13.5174141381297
10.7503863582434
7.98580977974294
6.52016345372506
6.59686474854594
7.20501887895495
7.2282897312578
6.35889668231802
4.94524727750981
3.51585383474158
2.50695371608723
2.03424230064475
1.85187743862894
1.58616498322388
0.734149192859563
-1.5764839563665
-6.2697659822716
-13.4660273205029
-22.1323174222945
-30.5074620341641
-36.6329950062795
-38.9522423997365
-37.2425651236652
-32.9471036903944
-27.9425468699875
-22.8848819682107
-16.9675881063106
-8.89758953380917
2.21204503860502
16.1450956447516
30.8291149969514
42.4639662111451
47.3178196094286
44.0964469391516
34.9035923481892
23.9654135635093
15.1092094891829
9.92474678638457
7.77973271411084
7.10493203275783
6.62230058958451
5.92906830222162
5.41746804226418
5.54426973703074
6.08552197869254
6.36576629695539
6.12566727312332
5.64372783656875
5.05190069877671
4.09273193145145
2.48585945090459
-0.0016609886204481
-3.74738746160607
-9.03845143792774
-15.6121897432572
-22.5033263640876
-28.1181702251954
-30.6807756143547
-29.468290420349
-25.864956996298
-22.3865066892561
-20.1271287099383
-17.675248017854
-12.9379068616653
-5.4733516574166
3.41404258302601
12.2161816028194
19.9558177654035
25.5270641585286
27.3682012447091
24.660148141897
18.7563549786874
12.7462472801453
9.3063248503714
9.08572678776655
10.8453405534908
12.5113757638069
12.275807318815
9.60033531107553
5.50817508452326
1.56604080767362
-1.45414834855041
-3.75947275566568
-5.82156953665438
-7.96710055154318
-10.3781841245838
-12.9935926230928
-15.4731768749124
-17.4191747376249
-18.5144467618774
-18.5654100222459
-17.6976105436955
-16.2941113923209
-14.3872108429517
-11.390876571352
-6.88561686110596
-1.51179989703928
3.30986576965852
6.54184906063274
8.25355125947852
9.28347645126425
10.3381463885252
11.3897316011228
11.8821871732401
11.4091218377081
9.90697137403578
7.20057351564502
3.02844587752561
-2.0226446973813
-6.11299306945109
-7.34125409844389
-5.35621426030722
-1.66050572351648
1.58687517374196
3.20601789156318
3.75323554824839
4.64168177473299
6.45153512734895
8.35069007984433
9.20354280708712
8.83805649688453
8.08450361138266
7.88145434819052
8.44852956206253
9.15853575918642
9.1816356105289
8.20202289338803
6.34770340510979
3.66573751392109
0.107606978575942
-4.20585175827336
-9.20745067385442
-15.0312441496905
-21.3021407808881
-26.5698824359101
-29.1753300426459
-28.6721872632108
-25.9325032498542
-21.8239120954514
-16.1269053988709
-7.99104970739698
2.4863635939947
13.3227118869232
21.748629058051
26.4393412027692
28.2601259968057
28.660986383945
27.9925014605686
