-10.8519100439799
-9.12330526941415
-4.68982985966433
-1.96960405854171
1.56200262201417
4.31264489291309
3.62399859096288
3.09278355012738
2.60861944211446
0.28654896432779
0.480187390042439
4.09183748844674
4.67815593876867
0.241146752295072
-2.75587205598467
-0.217053834927595
2.84606123235447
1.29128456047612
-2.38289415476337
-3.83426394528756
-4.02718941083465
-5.61077114143203
-7.22415816548798
-8.21468285810335
-9.2921597344738
-7.46017849187291
-3.56228153402732
-1.54602798248471
2.26320619706108
7.55356393385332
5.19327032222489
-1.82558239764624
-1.23083106903499
5.14065789966802
6.16392391453206
0.712650141772604
-3.29348578011201
-1.4622352353434
2.30887574506138
3.03294534270931
2.99923253565708
5.49998462768
7.11879772479056
6.82165021577907
7.54596718465922
7.20754092962683
6.15632116280046
7.5902973919105
5.68593173435789
-1.89952119663274
-4.78602810551655
-0.21337610503691
1.61146173969758
-2.83968963459752
-6.41339253680132
-5.48230450413036
-4.02087691000731
-4.74367088486193
-4.85121058185599
-2.34315950899209
-1.32213344943989
-4.43962566746469
-6.0037333102529
-3.32960469289624
-1.45613323487329
-0.959384541544503
0.0886733409757422
0.957904694602592
3.51930350438628
6.32741164771905
3.59293473555136
-1.75232957503488
-2.28589691759875
0.0718361423125178
-1.17616958889957
-5.72930369512797
-8.69557011937554
-8.42557289487744
-6.58727842708215
-4.08809874371858
0.320199032925774
5.81780060587906
7.93746333525278
7.61954303087322
9.24851523445376
10.0395441660452
8.7974006590418
9.44057539208216
9.00841160318985
5.15061704153907
5.05606756170768
10.0427524699879
10.9697863571384
6.48807280996545
5.81043362773035
10.9278344256578
13.1307669938271
8.06833413994795
1.78881395372091
0.147374282096086
-0.289746601719178
-4.49587714721482
-9.11586472249192
-10.3249679658674
-9.58805199446575
-7.85039388902977
-7.03302516356856
-8.24168268460983
-6.75442013130438
-3.18928253351881
-5.14176601254962
-10.0140660983247
-8.38885181881492
-2.62160514559867
-2.31453691204637
-7.5925160975415
-10.4287703248793
-7.57932905984917
-4.73041437428024
-6.55123675663256
-7.68072420943435
-3.57079097839186
0.223101888671974
1.86129897550486
5.24460576066541
7.31541194311213
6.16123690827955
5.67003059209125
4.56352151443232
2.12639505424956
3.20481504793034
6.29791615387145
5.03095936678843
0.990370167539561
0.565669633820943
3.23235198781718
3.40395854231967
0.0009302506451841
-3.62372026348431
-4.99584513412511
-4.72762176306424
-4.98064571493511
-5.2524186799934
-4.62445898857413
-4.0287914986776
-2.70865783507222
-1.769777662388
-2.48737309933219
-0.490184051256928
3.51999936234159
2.72143294443099
-0.470176282195283
0.701355262465793
3.4003366155108
1.56059533072786
-3.69867010243864
-6.69070413687608
-4.69783470659115
-1.80582778211525
-2.24065625825631
-1.9424349402684
1.85964483030726
3.06675441022136
0.985547717760806
1.64159983272952
3.74802723796408
4.82968510098523
6.87563494790509
7.95208743179462
7.63208100921945
10.7396643275356
14.8618565985038
12.4400499771064
5.66662292359544
3.18946438700378
5.61297203610913
6.19339174190593
2.51575193781254
-0.853688392889998
-0.958283027836805
-2.0097332155719
-6.24441427833027
-8.37621339597675
-7.71662274243432
-8.37629124145348
-8.88070285151207
-9.01370301352334
-10.4013615856679
-8.29500943923308
-2.52313010615127
-0.504520901687276
-1.22932830298737
1.56724060626242
4.8891068858412
2.41734195845383
-3.8891911819517
-7.23578072593386
-5.3867952105044
-3.46888491857287
-5.82601449955747
-7.83596667745029
-5.09705684763196
-2.00406816553478
-0.384329408529737
2.53201806318352
4.32681065403526
4.5879549275595
6.48827797659495
6.7015776024304
4.23803197511208
5.77489444266039
10.5268840383426
10.1502959033645
5.35758546197604
4.41399282710583
7.84224278786422
8.81317627741049
5.50648668662281
2.72544888418441
1.75169430351153
-1.98610669039941
-7.65207700310242
-8.48259257407277
-5.33171184402937
-3.33432913507144
-2.21661253035631
-3.26608781712041
-6.69800873551161
-5.0705760194672
1.50235526511758
3.28747642544781
0.510595334607996
0.2357380448192
0.53924853457246
-2.58190686094273
-5.84300740198662
-6.20360536723323
-5.33185235156336
-5.66897675065454
-7.04371216401717
-5.81505556318815
-1.42045766255055
1.53696658043526
3.01497239503053
5.33441510795116
6.09946821768786
6.47173231206058
9.06852004357284
9.02722260510505
6.00204521674199
6.99309825300946
9.686270273652
6.44719813244096
1.34183976569245
3.49291278989743
10.0731293505069
10.1757536930406
1.41297043513702
-6.94535788306305
-8.14106076169726
-6.99996983478153
-8.71311933366997
-10.2871517095549
-10.2616829087464
-10.2053811777512
-8.55582196813808
-7.09330211248628
-7.42848274296646
-4.13228328654044
1.03042331731114
0.0675926856802838
-3.60492822874286
-3.16036438326939
-1.82871677370102
-3.73141698746066
-6.4205819259883
-7.09856847394244
-5.71661784936554
-3.8104105447845
-2.6356166414775
-0.609154486613511
2.09566136903947
3.55228764375858
7.36010620117594
13.7102453634326
14.7727907637805
11.2123323186521
10.1633785548735
10.483232427537
10.6471440068216
13.851944055112
16.268222187969
11.5998948184557
5.47949136315747
6.80726032046641
12.6789196515427
14.0414884438541
8.13000228269669
0.289854926415049
-4.41757460241012
-8.4085948870727
-13.9045569086695
-16.6726301411333
-15.5532235785041
-12.8639003949806
-8.67781534146048
-6.78588652143016
-8.95936361548244
-7.93252959297237
-3.37070357992041
-3.70328492160004
-6.92095723499028
-4.97829601162911
-1.50341191289944
-3.76844296302733
-8.77153759180285
-10.7142227259017
-9.32756460067858
-7.41522574375391
-6.19237369461754
-2.6825296331289
3.09489411479592
5.82030394361096
6.19054030671443
8.00810286910518
10.2321938647807
13.9787056556748
19.0749101364798
19.0399350917017
14.8398538990235
13.9720762221703
14.0404813428501
9.13354636936241
4.59068633421514
7.30917863747674
12.5239212010943
12.3858466737327
6.61685780992004
-0.0611725397406348
-4.89864576961503
-9.43616522620412
-13.8142396847456
-15.4164289064702
-14.8662142967479
-13.2541502219158
-10.273513459148
-9.48173751787588
-11.3953066840881
-9.73363740412026
-5.17795841618462
-5.09959618266074
-7.78401513113768
-6.48864560824889
-4.3458708396448
-8.15478558753687
-15.152764730379
-17.9846582190884
-16.1196243570717
-15.6579368540713
-18.5003953992938
-18.4150110799124
-13.5505109045614
-8.94064305380279
-3.80052526179104
4.11299591479632
10.6337201376743
14.1060420920514
16.0218772870632
16.4584999514039
17.7305838354348
20.1320071879213
18.5019490042681
12.1400654092959
7.73418473995199
8.70109350349735
10.7347966289627
9.09409687571816
3.71464714435564
-1.54839134239833
-3.68171048180064
-5.68268027072313
-9.83904841950132
-12.0838740708933
-11.1468469187286
-8.91016518175254
-5.15862141622586
-2.44409187933558
-1.24454276624293
2.74317978803973
5.66948545993176
1.6639643297426
-2.176272487734
0.665505525935799
2.89319292307685
-1.69161764438599
-7.63814382873787
-8.26263532972648
-4.09243668411104
-0.760693848537059
-0.878492749662862
0.425660275833622
5.30000627606383
10.1244772722153
15.9065060505298
22.2427901512496
23.7055545647939
22.8360799563564
23.4062326660045
21.5698947330688
18.9901479222792
20.9097454296866
22.0353931055146
15.5494879889468
6.67621945226527
4.16353324779348
7.73678219533802
10.4966638638893
7.2260401472399
-0.80223641976898
-8.79664015237257
-15.6206368242364
-20.4414744463922
-20.4590852940277
-18.0161595582383
-15.6517013562496
-12.4239375381965
-11.0966438943238
-11.6810744479254
-9.41729215911574
-7.23378700532701
-9.87726976437526
-12.37901897376
-10.1264286186618
-7.80657790651164
-10.3987297419468
-15.5591778889264
-18.3006461115771
-17.8876039723215
-17.5445680039864
-16.7170007877763
-10.5748243607812
-1.57805810815864
3.59827751698094
6.73865631480148
10.0705769767247
11.3561388688449
13.1094858785892
15.7382414792249
14.3074129826083
12.2030146271121
15.3135131606767
18.0019737641641
14.0649921807974
9.28236573581185
10.4047231470195
13.4811739935798
11.6716594707816
4.98475531823042
-2.12294482541379
-7.60223049604925
-13.0993819040487
-17.384199297522
-16.7089574208605
-13.0752331991757
-10.3664902024347
-9.03121121907357
-9.61717892449646
-9.46912511056336
-4.9578895082396
-1.63792643246944
-4.42091231637585
-5.97570046433779
-1.16200458296442
1.7678764240956
-4.04108258442089
-12.7201200649683
-15.6136810039437
-12.2064614903767
-9.25132997852148
-9.09927139998397
-5.20147377236348
2.82052715911414
8.02303279870971
11.2821067999922
15.2783187960267
17.6106930233246
19.3484868260341
21.1837045793236
20.4101518866592
19.5830670534951
21.6177019730094
21.4017599169862
14.7736174748242
7.27272397828224
5.42433161129513
7.46657951678402
8.06071473837378
4.9112704614298
-0.656168589150857
-7.22826478800942
-14.4956563775306
-19.2619977050318
-19.5233593477096
-18.4980326047302
-16.134348253045
-11.8734378447383
-10.5027976613994
-9.85342834431147
-4.26435134262603
-0.0121755268384993
-2.46524408851658
-3.9175220507733
-0.811167211977891
-1.62301457578986
-9.29827671125537
-16.2039648055559
-17.7604099278477
-16.834999666323
-17.5003543029513
-17.7970843425307
-12.2950820142363
-4.19277331983442
1.24236969478855
8.40477822843657
18.0452275553654
24.1295914109652
27.4190288833961
29.2036262427428
27.2258728420282
25.4329831613118
27.0040428574477
25.5394740909196
17.3972524170091
10.8186635348506
12.964680782895
17.9241001437687
16.4081194701339
8.23211446924281
-0.620084069219396
-7.14516441153568
-12.631045098873
-15.8717498722992
-15.1556392003205
-14.0227166413021
-13.7007668680479
-12.7050959569516
-13.3547991792247
-13.4892043575926
-8.82964439688336
-5.09585912805089
-6.32110231877747
-5.92831095477506
-2.06231564255581
-2.829127869528
-11.7400246715295
-21.3665352472356
-24.338151092821
-22.334016820127
-20.4895907664401
-17.869128428882
-10.7870777273459
-2.5871726342745
3.12954380328333
10.0586400641309
17.612441201685
21.5619125992762
25.0065386204088
28.6777650554224
28.0335886507885
26.1086173669021
26.78672256033
24.5031689143275
16.7773102107345
11.7193689826598
14.0766190730234
17.2728761365025
13.7827985488362
4.27192961799986
-5.34877894238369
-12.5027516226617
-19.3821401472452
-24.8400519947085
-25.6418875417045
-23.2935885893842
-19.5155725932202
-15.8773075082327
-15.3639406047489
-14.26137911004
-8.46612196162626
-4.6853287283639
-6.80642729036558
-7.04174802711288
-2.77287071228388
-2.51473733349132
-9.90125814582753
-18.0688599307515
-21.4594586045517
-22.5920727738907
-25.0616489068893
-24.9962438287722
-17.4858315384516
-7.46178682159355
0.00711806233372
8.38306784498952
17.3212811103688
22.7730121116999
26.9053263221673
29.7970511650297
28.3462689692527
27.0201564278019
29.1780392447324
27.5288059397487
18.4785836397365
11.3590148031829
12.8556666627725
16.9929702758161
16.7336651923957
11.7443915274009
3.80453825895398
-6.85739791456901
-19.0697753656962
-26.676961190665
-25.898163728836
-21.4080110356608
-15.9710963203064
-10.393639739349
-9.30185443514996
-10.4574877504931
-7.77882818041902
-5.39217616626241
-7.03536548262558
-6.38619205401113
-1.50986118882151
-0.667451764012678
-7.89376905560015
-17.1456747426478
-22.0565422460733
-22.9069949800812
-22.8660364026574
-19.8888360129774
-10.5682062624985
-0.0436378761411222
7.7491431646311
16.9822898570451
25.9135410983068
29.8118793675536
32.3420477207784
35.3441893331876
36.4855753884961
38.7065480706951
42.7358873575529
41.3491146692626
32.6632881763282
25.5581084051211
25.943136296527
28.5486145394945
25.816241189978
16.4459647122264
3.78016693814189
-9.24458419565328
-20.7715353965364
-27.1062960514556
-27.5425379097136
-25.7534797578089
-20.6044945257151
-12.7340436144417
-9.679804178379
-9.64055473218716
-5.5161029329081
-1.61062331876006
-2.30871212699293
-2.00820005905963
1.13461579419612
-0.386015553451982
-9.88665768063009
-19.8731909910545
-23.2414100100194
-22.3339418773147
-22.0606718342401
-20.0213182342737
-11.6828880073267
-0.315647708792153
10.5120908243098
22.9810274023795
34.6359898711988
41.3037648620624
46.4685462892459
51.12120075217
51.4767903570147
50.2752840063776
50.7070670513452
47.8362652182017
38.9891229282381
30.9064489779101
29.0771021883837
28.5881374496498
21.5566771874771
7.98857852121598
-6.34793270154356
-19.3090932056876
-31.8872457408029
-41.5037137955261
-45.9728396155157
-46.9097550777155
-45.1199833365564
-44.1612565467013
-48.1035819024453
-50.1015725072181
-44.7664997976108
-41.9613252711833
-47.3790843249696
-51.764557165292
-52.1150221064833
-58.5024533374724
-74.1752013935208
-89.8809059283578
-99.4058809601626
-106.62993493935
-115.756629873876
-121.556083426806
-117.108567771808
-106.108799397366
-92.7851162085077
-73.0458880637367
-48.0742658201128
-24.953698513316
-5.67535176439404
7.63639782759619
13.1900526852249
17.1456810026522
22.255515080978
21.2139290553262
12.6695781641184
6.02713522944436
6.2776832019083
9.0903295721583
11.778389431464
18.576372229659
31.9940201469132
45.5884141153737
53.0360747249449
57.3677614070152
60.9093077591932
61.1105423643725
60.3211737084464
59.9709833670953
57.6794209904931
58.7709471189059
65.7265890649168
68.573752094168
68.2376786775377
81.4583203524067
109.640449840503
132.693912830586
137.714881325127
130.388845813579
118.589458127455
102.099954407201
80.4722803566121
59.4288658684526
43.3805781041331
31.9812400266834
30.5799392180746
44.5491028778582
63.4206260454916
75.591024902574
82.1247729781244
82.0612636503155
73.5577019333138
65.9799977730664
66.0341897119611
66.6599839695678
61.4595866006088
54.6299764263342
54.9954888775438
66.2371343626079
78.8717917998806
77.3381575376028
56.3526990134599
20.4299721032701
-23.7387794684662
-66.3464019110417
-99.7668146761303
-124.565342079357
-145.303585273346
-169.520235760427
-200.200204469963
-224.263106583045
-227.979239927129
-215.806116933365
-198.339349551895
-178.749986182698
-159.535796903262
-146.025111051218
-139.038206280282
-132.877603073797
-120.794932237257
-100.048172213014
-73.9500796724118
-48.7165180019024
-29.2259219670202
-18.2278182295669
-13.5612606683683
-12.9451435171824
-22.6769001299884
-44.7412075561934
-67.8938321269697
-82.5090793909635
-82.4140889919671
-59.0977722744151
-10.611036554698
59.30331634637
149.214559577034
250.660352329283
340.01014309542
392.691449140304
402.345734164405
381.921816358388
349.945967069267
316.815291555924
282.625895637207
245.144936123272
202.423745442297
156.065886570297
115.91413773042
87.708277490428
68.5190054560641
58.5021365694421
55.2177342872145
49.2696939710499
38.1028521549682
23.9488968287839
0.799116189603766
-39.8418919507661
-97.6625247306692
-167.176132886665
-245.22820197438
-326.501874821315
-395.369934959235
-435.585681673415
-453.973103347115
-476.191306434158
-508.636060921632
-531.560776875986
-534.136401883627
-524.025974902403
-509.488622358769
-493.974380885804
-473.420290151706
-437.506685204941
-387.304061752928
-337.492474162534
-293.464786022072
-244.931997188917
-183.095838601095
-105.95897938668
-10.4387516477419
103.438586979559
222.648915565513
325.278555552236
392.78282179069
418.478749067941
410.779512272019
390.733242857098
378.340392695198
375.785309066791
374.67581410238
373.593968994747
373.53698873651
371.924959749383
368.950528944216
361.705707315149
337.254594310134
293.507831697157
256.013122992151
255.129753356689
296.718320147939
358.456127250601
407.076222539846
423.173130523687
406.035262728403
360.212354691781
293.168816569992
210.904570514638
111.335392082984
-1.81746654069171
-115.368199541255
-219.314488010384
-303.389409504103
-364.709718774479
-430.459815155792
-534.287272133567
-664.827755725247
-768.496807701509
-801.620434803936
-756.612743173024
-635.779090823127
-431.411492909134
-157.282392515522
128.092357439724
359.240900023969
502.530902509599
550.578121078272
515.984706009888
430.89441788593
322.935584019106
202.589046555456
75.5178113485564
-56.5950954984737
-191.037989112058
-305.942140007937
-370.954020518533
-376.394290907421
-329.799130695931
-233.279178885093
-91.2120937780211
64.6853940983501
186.595785173646
253.555921741664
286.017609346688
315.982552123412
356.77647894356
395.707761594561
403.912685434361
367.157411217824
305.807365562195
240.900530915592
162.968156685982
63.1260170064894
-38.8458956940287
-120.245645396158
-175.715221283557
-199.204343290217
-179.961204006294
-125.01941352087
-56.1665983318544
18.7352526932543
110.442897917462
221.475933683045
330.517776421757
418.144367025594
492.815760121462
567.075915688872
625.281244293791
632.965669155408
567.204284231109
441.447955878269
298.292989755585
166.716542798036
46.0021464727691
-66.3413195053025
-161.761021335715
-240.641839574948
-324.323112320896
-431.596603525747
-549.540920637645
-645.350750586851
-699.218698545653
-706.642676624817
-669.103331474563
-610.265922551807
-574.340604468288
-585.503805206361
-632.724861706064
-685.818794427067
-697.465989488961
-618.017801516201
-438.892232636662
-208.74238042919
-3.55434770983741
122.521686694145
176.593813836172
208.509651513702
245.298134995619
271.045489240749
266.703670286664
233.280745589972
180.39380588861
117.213315184864
51.7772471689502
-10.2115318485992
-68.2547701717467
-128.062997917117
-188.120031079013
-230.541492382892
-236.972621568291
-198.357634231808
-121.458155530493
-44.3880775250784
-8.19828233088656
-10.8023013573673
-30.8059472715149
-72.5012022019727
-149.097419263192
-246.868576080046
-329.248148193055
-366.868862552007
-356.781082298787
-312.349256727122
-244.391762679501
-160.482034020068
-63.1186030395295
52.9769814934402
172.985132768212
255.243460644297
281.648859457581
275.649327137111
264.666035619439
267.702740003165
316.689585012905
448.248927848951
646.337836286448
821.454834738082
888.184696060712
837.733915234409
714.192653392903
560.8242497716
399.953884661859
231.702637761989
54.0303798156406
-105.393228092524
-205.709923588376
-238.008271040578
-213.901008745728
-135.120438324921
-14.6679816556
112.010770422247
216.523630287038
283.248727506558
298.798243750722
263.306275124279
203.236667756526
173.227893232807
225.417299979679
344.556470392071
452.350912723057
495.934869294529
479.719837379217
426.239164998343
360.436944893241
307.086003430563
270.807912460356
229.517857626567
153.05896664046
32.5818836270706
-112.591874769103
-272.105013951645
-459.177289783481
-669.931730892308
-870.988172228371
-1029.21804579367
-1110.3540043582
-1077.15077091197
-952.767200515145
-842.691354134413
-827.132722480407
-881.513474582335
-935.107548201735
-947.958291310585
-919.669989244331
-869.527933933772
-820.733110436906
-784.40998299901
-736.462963328102
-616.193089183733
-374.062378734316
-23.8087484720732
357.0741321338
690.309671021947
960.869435618244
1185.05994963877
1342.89988759782
1413.61043464528
1451.99084014938
1540.38654133322
1665.74322410703
1731.61657021507
1688.15056159556
1562.99653920531
1386.55814245658
1163.67835717415
902.402519642219
624.895078589037
349.867733350272
86.400211929781
-160.341110816802
-399.605895103724
-651.496835117934
-917.819879946307
-1181.17775291355
-1432.06097312912
-1673.87715372712
-1895.29481860723
-2044.73536236101
-2059.07985295049
-1937.64389618876
-1752.34017648006
-1568.99514037303
-1411.78936315314
-1293.95822958541
-1207.91017574751
-1098.45353456542
-904.764950594483
-629.089505128106
-348.687473879313
-150.394181812336
-44.1216955040137
46.5071896566727
213.495729072951
504.845887481441
912.553414813805
1375.57331390156
1789.21444417708
2056.79733526068
2155.64323839054
2130.34164360696
2032.30106269698
1891.41927219322
1723.33137002146
1534.20016237857
1319.18671532377
1070.83540098663
798.507262321388
543.25405183935
372.514188595211
329.609573104661
373.381221237212
413.678895957464
402.229952473367
335.888679024974
213.426443170336
45.7174341332033
-141.245502750432
-346.885463923757
-593.591053219421
-874.340007309677
-1131.81766455336
-1289.10962606034
-1300.47935335762
-1167.56071717482
-900.461103296811
-511.146475634628
-68.7150579870372
307.427752702617
541.076616615773
640.465754429352
647.664008001026
587.32740985438
465.680834169919
295.021446669176
102.207424463024
-85.5430364084592
-256.900810069244
-418.249970700532
-575.733326012756
-721.64047442494
-845.993300649139
-934.876552467763
-947.708458651214
-849.729976889285
-681.091015560781
-536.081192598316
-469.572161226467
-462.137091131156
-458.308675415992
-415.334476916578
-332.901709430224
-243.020254953814
-175.474035473147
-148.566489141648
-174.837740201138
-245.187339233709
-324.611593573904
-382.11052765065
-395.339128224187
-331.955041264377
-180.239419108249
9.14528544712464
156.32391873369
228.829669943525
263.064631148188
301.214576346983
340.433287038781
368.138483929172
393.225349830358
415.872121971406
416.545636648125
372.854986540271
256.005198825012
46.7514480740772
-219.804845913156
-457.489537932235
-592.557660878079
-612.683547995524
-547.298600014767
-413.429373399699
-216.729551081943
9.18223535185385
224.50257680261
418.30702637651
578.485863782
680.222128441647
719.176868033362
700.784213671059
616.993372341801
469.34165530388
280.546419509144
87.0136871623528
-55.0864291939303
-101.00781220452
-60.8606295707052
45.2522222265647
243.246397707817
543.350314459339
865.400935836654
1092.47182905368
1165.05319724504
1093.46821142608
923.551488858186
714.568166296818
515.638981987832
332.874304910153
137.163394399066
-80.9443159787579
-294.764981083092
-471.928021346985
-584.479593243116
-616.573987426054
-578.335199231628
-489.897227536679
-370.420630645704
-248.568039894267
-157.911307956195
-120.745955898637
-132.437853608961
-157.489158871386
-165.864570978745
-176.775396451036
-235.156168223762
-346.162559774878
-457.677132964074
-508.62029493876
-491.156910698498
-449.991334571157
-416.760892026884
-384.725115766499
-344.23664877587
-298.382610616971
-254.222954973137
-224.121859774767
-215.454355520017
-209.711746428032
-182.052066483699
-139.425971928071
-110.128013017348
-108.649209945509
-117.68103199337
-83.6751129836453
38.5047450238542
207.203129563739
317.94604387313
323.965515446691
275.408179154035
247.535452762724
266.146231277672
306.923694578809
359.448434900734
430.628137638762
483.297221195708
467.549692035883
394.021675029643
300.120512108238
199.694090412725
110.034740954798
54.8600195192479
17.9114649331627
-46.6624355394554
-156.217493241295
-291.856049765968
-445.620254586599
-634.731496407952
-841.427452022219
-982.550873214093
-987.474016972427
-878.071309160908
-742.102180929866
-635.779468503926
-524.872201370861
-318.281430129039
52.6692117900579
555.795827344599
1040.10868135933
1343.11035650178
1414.4233040007
1315.46340528339
1145.13135780901
980.001131569482
849.325854571591
744.199349473677
646.292927217414
552.469461795275
468.641477668333
390.917177607411
313.873643407496
238.311635421924
160.952616758969
74.7371744376204
-30.7193025704411
-169.368248642584
-338.243702821194
-503.919352605851
-625.589306229193
-694.369132671325
-747.255996328857
-831.749414557107
-951.248282238848
-1064.78782524885
-1142.53908326494
-1179.76319450499
-1158.74872687592
-1038.7096452604
-769.269361505809
-328.811211609685
197.962551597267
634.967933112986
862.22509576357
900.21681829646
845.116085994443
775.970667740216
724.419418455112
692.571434216093
673.595906538388
660.958280636972
650.62233382658
631.327324668109
584.386339174801
508.619629194379
424.16034787902
334.361437688895
212.392222720698
40.5995049422238
-171.409718320555
-410.375543771139
-662.487415982462
-902.076258232279
-1102.38434142821
-1251.13621981972
-1347.33866165453
-1377.5308026954
-1325.25782102918
-1226.90275081054
-1154.96809223818
-1128.22788104396
-1104.36969713194
-1048.00233106118
-952.649867214387
-827.107600934826
-699.514328447746
-602.554856700344
-534.893122040734
-463.410197340781
-355.724339163794
-189.872966840696
60.3466068924407
431.20321538013
917.669559461803
1420.98700477995
1817.59868098478
2060.02277406259
2156.87866617406
2122.66685873464
2003.19202987722
1888.41257512415
1838.66742686234
1821.14421481383
1769.49244423436
1673.28832029931
1549.73693418175
1382.54448206748
1155.43698089905
896.721724530876
652.087870380193
456.324031656951
328.199537780329
241.427046167568
125.665690049945
-57.8030125994426
-272.53627167847
-459.529967620069
-599.548112099962
-718.801997729901
-852.943103167521
-1004.28316942792
-1134.41737139825
-1198.43166628844
-1174.13861236079
-1064.13053893001
-892.270727704609
-699.381646006117
-526.912599168548
-405.414569824207
-362.490242867711
-422.644850310773
-579.178829403244
-771.033594220601
-906.74293485508
-922.240097468296
-818.474280985125
-657.351883330747
-522.093364309008
-452.75202053028
-413.072857415609
-343.330493683568
-241.441887689998
-157.537026968052
-120.005960962363
-116.017925381784
-133.586559244332
-176.833926545856
-240.849255819888
-303.954724514123
-355.695171844407
-402.76866823838
-440.359150748228
-455.135319280401
-450.336885404901
-439.589406769145
-432.88349638879
-431.55217793254
-416.850107405365
-355.981911086554
-237.23974736772
-92.0484232880773
23.4441357699123
64.2913657062611
24.4307908254223
-55.0522136861411
-118.27817995626
-149.362516246169
-175.516930589589
-206.654011637173
-205.61287685054
-143.338991263571
-32.9252194093089
132.832901817608
398.978943909353
757.503389041765
1123.09193083989
1413.47605282969
1587.9339502444
1643.53138468724
1620.43738075933
1575.02441767026
1545.07809514672
1536.41652745792
1502.91895420586
1372.68226684058
1131.81521179534
846.592193525684
601.665362989427
445.894170972041
377.961047285001
359.799171742703
338.171918271647
258.539002676173
95.0226922056979
-122.574070348207
-342.39373787997
-538.723347180284
-705.024403109756
-836.356711843593
-937.054517768667
-1012.28661556811
-1048.31391054956
-1024.82234209129
-941.448838364946
-809.513882954619
-631.837107644658
-427.475656659858
-251.131351431465
-142.508356027518
-81.796809368371
-29.2650336974112
22.630510349089
64.5291889255542
92.1185864174754
88.6861665148666
34.7112369732157
-53.199762423293
-129.004595796058
-162.684068098058
-163.98293742513
-169.08520688278
-205.08347409084
-265.697904412674
-329.512718524307
-388.390442179329
-444.882818081381
-501.349256595551
-562.155415829658
-638.167434373327
-739.840326987008
-845.686499919966
-889.168060797297
-811.228210646601
-607.889713032477
-324.392991035531
-30.6598443184423
235.328232275173
508.238544297683
829.343316839698
1163.49831558454
1421.04740897941
1548.35735993817
1583.07674542405
1599.74542872656
1606.43965722187
1550.06492194089
1410.23046151849
1211.38620263344
963.500053019418
667.387689226554
359.765975893033
98.9104339526837
-89.828994646089
-238.593764788496
-401.75059384518
-593.105432010694
-775.046119159849
-908.19168231368
-990.151281791514
-1055.86909533323
-1145.44630117497
-1256.30728061676
-1340.22133019349
-1348.91217566026
-1259.09330455855
-1075.1471630646
-833.499637179999
-575.863553378788
-312.269879990828
-45.8739526108876
186.777744278018
338.457299955853
387.376623471335
348.631081197425
277.087353734743
238.511914358232
260.752739354949
318.712935214717
366.029504015659
379.297493283491
368.551095505551
357.037408762957
358.184919018594
357.608931474769
330.477742575957
282.059934646223
240.825875484219
222.485724124412
223.986692397816
224.95379123629
181.810518851824
58.6546028572789
-124.459594853913
-309.000855073631
-459.732946671564
-570.250327072044
-625.584781389486
-614.510509391277
-568.145515006708
-538.096679670153
-546.304380760713
-576.584161260246
-593.088033449973
-559.359138373788
-458.117628612434
-307.41530758031
-157.875945223873
-54.4753647876286
0.101008250525264
25.7994194964445
29.4613027285385
3.39436923257031
-58.8725896355579
-130.430811574711
-144.01893444374
-59.6149840076587
98.3375772536115
299.218810090266
542.690002187838
817.511401488159
1068.4777128304
1224.92870491588
1249.60752122811
1156.24856811597
992.230588911514
816.897654358737
688.090236963042
628.304847874044
595.454003653757
533.675045601718
445.761118587249
367.10942476069
298.203748970908
217.494448673327
142.832252403582
129.122752133206
184.853167087471
227.177930076132
170.80926436186
31.5198722487676
-112.850629980154
-225.665494413053
-329.026206643275
-448.25754549643
-577.386119752126
-693.349333332866
-768.937350844356
-765.099777825189
-662.184209984897
-517.792896902034
-426.287262547118
-404.964583177985
-385.805920235672
-308.527437924979
-177.53404413289
-55.9429624856224
-19.362271492852
-101.727630758089
-286.007347851228
-527.686401959396
-770.588007694923
-959.817530724381
-1060.29530425355
-1068.30217658558
-1003.24642000647
-886.841536394499
-739.497760818085
-585.378353092564
-418.661573035019
-185.91155463585
130.7129067778
465.666520847088
772.165603186983
1065.98194385864
1323.0193299271
1465.94979604306
1470.10561609877
1384.64800328201
1266.15811789512
1147.4154429551
1038.38960401953
925.424309169418
792.149146077106
651.803673531684
544.606528506604
497.464492237678
493.6949149768
492.866951781407
469.886716262189
426.507495360179
384.804871360908
358.510825320785
315.433740622727
205.685945586743
23.6658731411408
-200.505761627909
-452.713171012818
-740.014503068845
-1046.76461702882
-1318.07291408044
-1504.71841339571
-1592.13164985464
-1565.8688873824
-1402.90685476439
-1137.35278116712
-874.054148455194
-688.173318916843
-568.323549927573
-472.967491378631
-367.339735345787
-218.903546582753
-32.5488190279293
129.8335193363
207.875154018633
204.189864106943
174.325244158767
164.453184741408
173.164122935321
177.004076417028
165.172618932952
138.472164024642
100.007191055594
55.2782988968159
12.0205653621535
-25.807636787887
-71.1340449295868
-146.747440439306
-244.823569905975
-321.82393202815
-357.062700018912
-380.840194107679
-436.023992940802
-541.077887453959
-675.080417359962
-783.737899687329
-818.022675070875
-752.927223901363
-578.114090141118
-327.684266110547
-83.2735362203679
127.216188439707
378.122408736872
726.903049337339
1105.14419770708
1379.91083440594
1488.95985480666
1480.46712576382
1430.31837618815
1362.29245556324
1264.48674046029
1133.33373185206
972.93814686525
792.849084518633
615.798649384714
456.452409788842
307.637534109778
166.376772474724
48.3530213440079
-39.1901976838973
-121.450761554239
-227.793777276157
-342.341215834564
-415.339309392703
-426.891765821459
-411.794428029668
-424.398181488783
-485.777952411957
-547.151393496759
-527.168549703739
-413.387682350344
-278.267418643053
-177.900025670488
-102.754646408347
-29.0653889358816
39.1298678708778
78.9857339376227
80.2690778201308
63.5434913216721
60.8732758749471
88.0669442123696
150.347584730313
253.020333470754
375.965041675998
462.651004026609
474.366849519592
439.897423966345
411.547777409213
382.892366169186
306.474731947246
180.316818735083
41.3918827360854
-102.556653682431
-264.021804876383
-434.453237810747
-584.368368751957
-672.324775532872
-667.008066886225
-580.706796612877
-459.029291990095
-341.527768901713
-254.231227589997
-218.619625362232
-232.675734202297
-263.546696982361
-286.426064682129
-306.791885756879
-333.952993814181
-361.135035386744
-380.544431282469
-398.738614437118
-426.716642660001
-456.484901502384
-439.415162343259
-301.49655391383
-25.4839552906962
290.750561592758
513.875056604563
606.39326146129
637.371525720936
679.431170458339
732.451441257957
748.351199790985
702.579807308396
613.556138367013
505.12338049768
393.616369166609
306.618039234168
266.035511294683
253.197125021671
221.563364907314
137.266583855413
5.50021094115694
-128.68709330126
-219.448886488817
-263.740736368515
-295.547923104295
-353.779231355474
-459.568740673718
-599.466900802522
-727.360369967975
-799.909273675754
-806.919137791951
-759.796029549753
-671.214911424207
-555.629854106835
-435.772711984724
-342.059421594479
-284.274737950233
-222.086400823019
-106.493357503826
54.2736809638915
205.44963175974
304.599635219341
348.257268918228
352.331912363473
327.958091300104
290.014672671681
267.082536937866
273.381474882392
287.921071013108
283.019546918224
253.496717098688
208.542131890136
158.858233527448
114.721834321773
81.0707136709314
52.6929303420826
16.6526118992157
-31.3687800641607
-77.7233288498939
-119.026627289559
-174.020422544636
-239.545341980257
-277.172406672153
-265.407804313382
-227.028186241948
-200.21041442926
-210.412365136856
-261.810379906692
-325.367483337786
-333.208204340795
-223.061429855604
-10.0217754464305
219.439591869423
387.913444365892
468.089308504451
474.621867041986
448.527051145001
424.16863577092
407.12967138628
392.447243832858
375.936729790271
348.079522107493
315.495176673207
309.263333306745
337.860926655976
369.252658985889
374.953534093764
348.425640241034
284.450475225507
176.253632529535
35.0339613986684
-91.8272736096936
-146.496968442967
-130.43123830184
-98.3558371485548
-66.7830882033178
-12.1453250391304
53.6018378979761
100.978521160926
142.660055189396
199.415443035048
239.663811501907
205.159507541993
83.8860853302223
-73.2479928436268
-205.453437813134
-284.577825426945
-302.540992173876
-255.927714052865
-160.697706183651
-49.3643390278966
56.4862170575957
144.810842863087
190.94907888713
163.233189137657
47.5493342205055
-148.581573220378
-409.553589888564
-695.612910723169
-914.091144074421
-979.211006103779
-916.768008745646
-829.813956197037
-763.263257687192
-679.919210774682
-549.617206673098
-391.117029472342
-233.67929194103
-85.4073715022834
59.376199651113
203.070697733774
330.705616696207
415.37767247209
451.744719401045
473.036641660236
517.279781614818
594.859276232089
703.639360520581
837.249359884879
970.449808897448
1070.9249458499
1110.22980703112
1059.30263984041
913.42418297584
706.303526779109
470.21855201217
219.79255416692
-14.4548831939287
-202.218999870427
-374.369646792782
-595.538522247882
-863.903913497245
-1095.24005142072
-1196.48211064
-1111.67170475639
-841.883634292737
-476.191582620325
-163.570584816105
-4.48984630682029
18.5667197382969
-14.0267436258906
-55.5707789153509
-104.986849779907
-157.498420432685
-187.694135555495
-172.361807407227
-116.139109849122
-53.3622563894102
-19.0579370775494
-21.725842470481
-46.0092527449639
-66.9095088449291
-62.496855947333
-32.8399861378817
3.01334819990745
40.7881630232831
89.7881934820556
129.405462021389
117.830281471477
64.4584582380737
46.5380683779394
116.738783345239
215.765275519828
228.218963107137
122.397490674529
-26.5504069069435
-136.780681542554
-175.372657179651
-140.643046423495
-45.3422867079878
86.7796001618701
222.37239277508
329.393391438788
396.330653612216
423.745702681154
403.467227520712
331.866593065271
229.228722031355
134.942595984122
88.1259715857542
101.175697083038
156.880834070618
225.740933293279
261.360168126886
212.528993063945
76.8949664229176
-91.2657773429724
-235.403829289713
-321.975961625005
-333.210990289836
-279.861696483748
-207.032707582527
-161.524173333842
-157.692143102928
-179.930747383425
-207.143584058349
-223.872900551244
-218.434646298606
-194.951212499799
-180.21856379475
-193.366845967391
-228.084265426172
-278.51117457351
-345.319842564442
-412.650264001848
-453.404372129463
-453.071230035727
-413.246766855548
-345.1009253621
-260.731837855346
-162.371653846565
-54.7947178789395
38.0068648784472
93.7199483005288
110.89142143665
96.5180023820625
60.3341336862407
16.9192573843043
-14.778107110125
-3.69192026103137
78.4729550651302
220.861436168776
376.712463428023
507.885727678153
620.991754900823
752.520560975269
906.129323265006
1036.38044960669
1105.30717407679
1097.72645136536
990.307781761075
777.590422227782
516.075952607471
283.430563518025
105.6379111885
-36.5982242963616
-148.495645100383
-208.680374601567
-222.205123257956
-248.650258198466
-336.936618154257
-464.208719107299
-581.109736092916
-671.756963081612
-732.269007606729
-740.802550070824
-687.758148447056
-607.290655833813
-551.888278352632
-546.38727188237
-577.866016334959
-615.179012118182
-613.628719692866
-508.403383818203
-253.366050416614
116.318965843041
496.21455436647
784.464325418176
921.09798569991
899.861813632778
772.750362443945
615.283109704594
478.186702210552
374.936077167719
297.579010032402
237.505863949781
190.720891972916
144.928192920576
81.4685557357549
-4.01554936190921
-103.225763565106
-216.201870836132
-349.267974017662
-495.056019135635
-632.258585194345
-754.559216754661
-885.294433615292
-1032.41763244747
-1151.40954103349
-1192.48726038905
-1148.29978578295
-1033.31006948084
-856.310835625537
-618.553228826147
-326.383046524897
-9.91706995133
286.737659628574
538.654250773247
748.420859399044
930.393754746648
1093.19298916514
1226.75035108685
1308.66915498697
1323.45746553358
1270.28904300251
1166.95575772141
1048.99699868837
944.538556226536
859.308575257209
792.053726978864
734.72043340211
666.4467544186
570.484056625469
440.668484940759
278.263315432652
97.5510363850759
-90.9982298899327
-297.845643697246
-515.320760824101
-694.183699293385
-811.302669506344
-910.912746753915
-1028.07888838103
-1124.1616698887
-1139.22141684268
-1069.16773117337
-957.403543368874
-830.184223541012
-682.354878584414
-520.265504284717
-363.577246665541
-205.308463462923
-13.6747383256628
221.318101470365
457.587753307557
628.352497193717
700.066241862398
694.073945966413
654.24399073159
604.952511011462
551.19138746945
506.758903156073
484.772811892761
461.198985744319
386.950087073945
246.386469781749
80.1918122328978
-67.800615534208
-204.098288895861
-361.74638726047
-553.616317543884
-760.818767384854
-938.400682701185
-1046.25695605946
-1085.80888600513
-1081.07979027695
-1041.10922571627
-969.678407245806
-886.691987411803
-809.938587263327
-727.020339025711
-612.968208454114
-467.107811324231
-305.02797462941
-130.027886382546
55.2441651745849
225.030939119382
352.565582560047
431.493070257724
453.556795920029
412.105388216833
330.122478801844
246.6007128538
201.283991599363
235.0876339588
355.381479386878
513.36694013929
655.142611299441
772.020985345202
874.550031058648
948.470312296718
961.860789523092
900.456359443919
785.55710235973
656.61604819941
541.972478249537
453.189116138195
389.942866178952
345.388977741468
321.02541585844
331.269572598725
393.664843744041
506.722244304607
617.027687834945
642.745784183648
556.049681102331
400.405758528312
226.067878037671
47.3919324503232
-149.191949437341
-374.884906351272
-603.962890789785
-774.538773281346
-843.600420421488
-821.265172025799
-731.858919626605
-577.319224864048
-360.89623576465
-126.134754516532
48.7733232232893
105.674788939573
43.6647361451717
-99.5449653309537
-269.933339101466
-402.976178942063
-449.92568330121
-408.297768265362
-313.595908596006
-207.852904511673
-125.974824233616
-96.9770855593281
-130.623688295693
-201.331141777438
-263.535510235643
-282.993483430137
-247.426733409892
-172.131239680455
-107.992134947324
-99.7384871994801
-130.961099427113
-155.809929793666
-158.39178701328
-147.047573130105
-138.421342543965
-160.37311547071
-222.388834150658
-287.690732028364
-311.658016605031
-291.65202811624
-247.851704211479
-178.543440705939
-71.5300929109097
60.1687723102087
186.071540814075
280.951290324516
318.485320805538
272.704328942097
150.614854667443
-2.75443007282903
-142.138611288132
-241.633829990714
-294.63602801251
-319.783356080583
-345.125478994191
-380.807777853975
-421.669796711527
-452.272052549186
-433.179935826168
-320.233377491286
-113.476720930114
143.894974435002
408.7124294551
645.117735675418
804.026453030229
845.471192839821
800.506592371419
771.321083765459
832.037694532992
959.814904405449
1084.54773229204
1163.13748141524
1196.2465937812
1203.12265263643
1181.45077577252
1097.00072103847
923.695395923688
676.574387712467
400.148556043699
146.50570350024
-39.5275309152875
-150.616208006035
-240.926605283993
-386.308546582278
-593.909661540571
-772.150661057662
-831.879234506117
-788.057327248705
-714.710606588391
-658.202123368213
-632.190515602419
-634.346475053019
-650.434883232515
-668.470294455663
-679.499542084056
-666.298855368843
-615.334236027908
-538.890378066126
-469.570000387362
-438.286318861994
-466.030497405311
-554.663965111127
-670.283463583811
-755.353112698308
-759.812210782378
-652.85898761502
-436.093142529279
-164.29292217397
78.6691082888856
246.443082403839
354.501902943359
436.767325727515
516.675730514472
613.14401370145
726.600635651912
829.342639158773
892.445173208885
907.991962396582
885.167978750709
838.345883098986
778.821489359457
709.581100173511
620.485548643766
487.096280705001
279.851543992057
-14.8363742646442
-374.30733493768
-739.878968294661
-1042.2389656695
-1239.62806667156
-1335.842950234
-1353.41203133917
-1303.21774095829
-1188.51676392738
-1011.06052476727
-771.913886135267
-497.558022629585
-249.282972102869
-64.1389528866535
91.3914093437717
271.697696299729
485.780729943632
708.244918339111
920.16640102341
1100.65473245314
1210.44849233216
1232.520199215
1200.50792984925
1158.65460022127
1125.988343348
1097.88787776705
1057.64874413222
999.872608513399
934.046734406063
841.541077241061
666.198773784966
389.799324769219
83.774595642083
-154.424119791168
-292.696809751914
-366.643971727955
-418.161217911704
-460.646664033971
-486.724064076228
-487.885795576975
-475.218729302775
-480.843741785291
-523.75385215664
-586.344847133595
-641.140187472941
-672.827727393914
-667.901688400309
-629.289522906236
-590.098500534691
-568.965890944811
-542.011018402825
-482.678896257917
-392.265734157137
-287.445859222095
-189.773732643981
-125.227111636234
-104.983790033832
-101.378778563366
-78.5902776179502
-46.4123966861782
-33.0651895093132
-29.6379620908969
-15.4569559877285
6.68361473049509
39.8817629364359
101.299012194756
179.755775376768
241.285336857037
271.293105868214
268.570681294691
234.616094053644
196.749584163451
196.31541946825
237.358365741465
279.163013362599
282.885713645181
236.787113468625
134.756268470297
-29.1099477260498
-228.691073051658
-409.676095591025
-539.393633106963
-616.509164919829
-638.988999906976
-600.483206563445
-496.36677398981
-320.079058146705
-93.7625438266131
117.007872564847
259.036768697764
328.810371382979
341.522668481711
307.773409218948
255.301197378695
238.689803428679
303.369495794519
448.562475727493
629.00787410505
783.829933527546
866.711350762577
864.60874067238
798.945472175855
702.358461965694
589.560899277045
457.690706596295
301.763733852808
114.957944349919
-105.767243224933
-343.308505387005
-554.234213938772
-668.432806994891
-623.677737203109
-446.206683748442
-261.933594524611
-185.097488497656
-224.711942974008
-308.439432681055
-363.906045851299
-375.03968988295
-374.364781141835
-384.321180626839
-383.102468683304
-338.465168201532
-255.26547118876
-175.872870641545
-133.501462045778
-108.079156747974
-49.6419999982442
52.5069282453208
159.157590191467
236.016501548402
277.011668964629
279.485130065496
230.854006485699
117.777104240625
-55.9392131031232
-250.794941492905
-401.563300273233
-459.048406131666
-423.097463483394
-336.028081859989
-243.902695725031
-168.15603458794
-107.854259198696
-48.9629768875337
18.2917027219027
73.7871842903454
81.7666812417827
37.1301718483054
-27.5116392445027
-71.5436453574304
-67.7162569172371
-14.9383858421455
67.0462611718172
172.300280769671
318.183483260953
504.916348432297
702.74715257181
890.369714297475
1063.10018416677
1202.17356855282
1274.92615751056
1260.88544136028
1155.77513883773
967.95669837443
734.546954760253
516.527249242122
348.644141505055
215.191680863635
74.4876491055774
-121.079566976379
-391.498238667293
-683.093061261999
-897.230859905665
-982.886119701093
-974.605700817455
-941.723261953426
-927.878777201385
-938.669038243523
-960.515254464906
-982.75577822452
-1006.6754593305
-1032.06021434661
-1046.28903791502
-1036.57776802679
-1004.21686538131
-958.339365438319
-894.690618420281
-795.201758067165
-655.835740294567
-492.749043829846
-319.074945183759
-136.124712707037
58.6410810846866
265.60311103724
481.059864922973
702.821861978998
929.074268126254
1141.45281298192
1303.73722721704
1382.44548407023
1363.56572260471
1269.92230718397
1163.30010663706
1095.21156611289
1065.66617234891
1045.9431992838
1000.04770900957
894.800080920773
738.477465288841
573.45541074232
409.965813854637
222.395319674163
2.71786866029081
-242.990140559407
-526.908272620806
-850.784734595674
-1172.17512127693
-1433.73672769881
-1593.74187414818
-1621.44770750476
-1501.89010337894
-1254.63594723858
-930.019200999435
-585.288040266885
-275.1453945953
-41.3084223559471
112.273012968004
200.798213323929
221.874865393823
184.208986071883
144.106165313196
165.445434899974
256.657669217852
373.975910616755
473.665406590757
536.002252112038
560.101344951059
564.883297553386
573.903183155184
576.07473576811
516.518572715724
355.697503784043
138.449360555606
-30.0270805237864
-77.0451079025984
-13.5395005684183
88.3284394465989
173.423190275868
256.724528720257
361.497061252436
453.122601195851
494.33874354927
507.69608974551
533.844046129044
570.021411593513
576.523590038603
514.065802049807
364.471063623709
145.655667446191
-84.8998851826593
-266.627140116759
-389.601681563104
-500.759420916928
-642.479265370045
-800.573279035637
-930.655060359358
-1010.27342592678
-1049.98482980607
-1073.16233959677
-1094.88214361118
-1115.67194793281
-1116.21848413755
-1051.97875392804
-885.563142475643
-633.212685413165
-356.200395539604
-111.467667234261
79.0765658532035
225.870076123723
345.394308754653
436.955570202233
495.522094848087
532.439598985801
559.608327728581
572.934821721094
567.99800737462
553.332669135781
551.562840504698
592.557646800786
680.037625497468
770.061915080783
805.258855790222
756.406031205549
628.637656214103
455.844129012831
294.321139503438
202.142851371192
201.156802376454
248.449900086578
266.340600360107
211.719182878002
96.7752388782392
-45.0822880469352
-178.684243316324
-276.33075271396
-340.693240566051
-395.955363416777
-456.739130028791
-526.724229170199
-601.479452341728
-662.372210674892
-691.443584565983
-688.940356682591
-667.266183907757
-638.370928544436
-611.220218098054
-596.281664889921
-601.85998149386
-613.971759832839
-595.148553353468
-520.960833760636
-397.862259370933
-246.970720124888
-99.5112465743278
21.1680068107662
139.110121357967
299.617636369956
500.021545202159
691.580597025341
827.983684822391
885.009556687343
863.397363005737
784.373280203667
667.860213795806
521.744748002233
354.182488782719
177.088873983775
1.55877239717187
-153.131718189874
-258.179085714587
-300.305008845895
-301.06535321264
-289.907660450012
-268.09184379709
-233.577324851905
-207.227109282845
-184.48687866178
-115.128149636485
27.1158681892317
210.670679778789
391.759477618711
536.8102968079
613.550033226662
620.620524750208
609.195095810171
626.497553399895
658.175585658664
660.030071351199
621.634880200246
566.339504629113
505.452808253008
426.22525325461
315.521029758561
165.246199038589
-33.5425507524158
-281.711671202418
-562.270822540583
-831.142128916908
-1019.54825195189
-1075.22864059416
-1005.97620504707
-864.650844463806
-692.642228685728
-498.533136563323
-293.273942613713
-113.32065686238
7.59540107496584
74.1566493434256
130.404860547331
224.335230111888
363.797295144836
509.121999376006
615.767632465614
674.49190394015
697.964012848551
688.598897942096
635.108893073764
520.968234416063
344.040490054688
143.658734565422
-28.8694110262665
-181.269888012426
-377.300262463603
-647.252685983871
-931.38357368742
-1128.60905476428
-1191.74450405445
-1151.98901357627
-1047.78624458284
-882.789935641687
-676.702993150177
-487.333712796957
-351.086039752319
-252.346154981983
-151.427596023723
-14.8389669617849
158.375049850433
332.250244184372
468.627322091077
554.020786970033
593.587418040673
602.053850884103
598.334293174538
590.167822718845
567.597152102783
515.477039573334
425.400908284708
306.175046561172
187.716947185276
99.6800676099462
40.921153427466
-29.2177597528228
-165.627124922396
-390.62557297773
-664.176656856019
-897.731025918968
-1004.02134974208
-949.349867320452
-763.251584091737
-508.474821695766
-253.206570415754
-45.0252065905091
110.242052099306
228.795537476704
316.912988568614
379.196069575162
436.049523909266
508.699268571293
595.008251956816
668.446903853743
706.928634653348
724.93951763577
755.030358447577
798.830237979633
831.854293321264
837.896806806575
796.32083151919
674.619091861064
475.617387109001
250.57413664561
46.1104813120572
-123.486739753679
-248.720449695548
-307.902059354501
-295.609374711696
-243.49021395954
-189.08248999185
-144.88901916745
-123.332762763862
-164.927796239907
-298.673042627098
-484.736481393434
-623.848280438675
-628.362684769823
-494.799042491518
-302.799307453997
-130.124522882914
9.33917266830744
135.518482082746
248.196786791073
324.397578279929
348.570101050924
326.854082122188
278.193870447272
217.339251512427
142.785270495439
39.3150158803155
-105.231633026928
-279.45760937773
-447.561713074076
-573.229022372221
-640.407910180529
-665.565044149223
-690.195198080933
-729.231853256802
-745.105302200905
-701.151130413038
-598.003176101086
-451.338716183435
-287.502823249728
-147.382986062431
-52.0276770874301
18.171248126854
92.6040239142201
174.392050365385
242.542050379962
284.404404227654
314.786107238131
354.252364176536
403.306968310223
448.571319972507
476.947605736722
485.225372914239
484.525544773887
479.945002061236
459.889222441717
416.790328679697
342.735728432509
219.511858291627
60.1133963839819
-73.9290669426309
-136.256365903427
-141.591896378073
-128.502472278792
-113.85396676061
-98.9705140681433
-87.273197135155
-80.8108606119513
-76.904594513938
-71.5261109595146
-58.8764273250954
-31.1531202343905
11.9387274497903
53.0804953941171
67.4982608732607
41.0619442166231
-22.3552078118434
-100.531560718222
-173.277775483855
-246.257692500612
-329.219291423681
-405.522318736793
-453.62079078444
-478.409227079658
-493.195610306914
-484.888999393112
-423.825142883677
-306.733717854986
-170.743040436972
-58.8117014397402
16.5971561102015
70.6784486907507
124.589594445734
190.576878726012
261.262013819901
322.029928452489
380.710844769519
460.890170711373
572.807558939343
709.240428739752
853.41420818413
986.86873276783
1095.2114602656
1157.55878691329
1138.26754854031
1006.77698148161
767.920632853612
472.601845344185
200.039859281374
11.2619597687276
-91.8893545505314
-148.283433274843
-191.762143592733
-237.623195395716
-288.110506318465
-352.411063939734
-467.149709673835
-655.537483516474
-868.461964926318
-1020.61700943274
-1075.81067252348
-1050.5890248475
-961.99545812205
-825.618093002468
-676.839609591447
-542.373837967097
-411.312715308187
-264.708109998451
-113.69092734179
9.68406526792471
85.5650053189541
117.80526547358
125.415698144374
126.412110118943
116.261942119719
81.6220485331579
43.1465685120835
43.5776682980238
92.9895855973309
161.749123614026
218.729888269537
250.87988866508
253.716545653887
224.147292798844
166.874614646731
104.518375601305
76.6044994468573
112.26260698569
197.234183927559
279.482192036889
314.366503248857
301.352308344609
264.041157224292
204.64966183266
112.61959660271
-1.83170094823494
-114.338826662396
-194.059323576873
-202.007406405793
-126.993879147355
-14.2547221618533
73.3778081079547
105.425289541704
85.1321880215657
36.5873283154286
3.08324554054116
24.1874545173499
97.9238731621182
182.893438216965
240.46227288517
251.934376793235
195.473533541244
61.0738901189803
-95.4535313707202
-182.680344169995
-174.08510015043
-126.159851026049
-102.578068831234
-113.392805376903
-127.324593381748
-132.295107942448
-157.977841709098
-228.47652902822
-327.316286712282
-422.471334243206
-496.456047139616
-540.727524130599
-545.649154515213
-513.386301999324
-465.286465800631
-412.89028928119
-328.766016749154
-179.864457579084
13.7055508110736
190.444178913914
311.577946039966
386.755881455862
446.092944080032
504.466964171112
553.07503584926
580.51136083132
593.959321378287
611.825730189424
639.725180180442
664.125856742744
669.205365540604
644.7351112558
568.348451145063
404.36995630237
148.789474646351
-142.217565826497
-388.966010359625
-532.992423078084
-553.590079235694
-477.107140336793
-356.927745698759
-229.203200895632
-108.41824069608
-10.1616816615483
51.7355716658508
74.497206172502
61.4973046984049
25.0717765118509
-8.23052553797626
-14.0145516041155
6.05657406941323
23.7234439624747
8.00575543426008
-52.2417517908945
-145.464110023313
-239.883801855865
-284.028652433295
-239.169084237473
-121.30410775917
16.5020201770261
124.221662595577
166.977099263903
148.687626888735
120.003549622887
121.270455076389
140.624836629744
138.693194728071
85.1610144149118
-13.3920531295113
-103.120094031406
-128.015355520251
-90.7152696860536
-47.3682681968348
-51.8469374144136
-113.326611573085
-197.149601966763
-261.47136204759
-282.580701771736
-256.617131748972
-204.052282860409
-154.950582891968
-121.140229349354
-107.777135664888
-128.085592330803
-176.717208586702
-222.188332940688
-242.735033503068
-243.888461765637
-239.666555449814
-234.523406244844
-225.486380035011
-209.675412373607
-178.889421505231
-117.062797529451
-21.5597871945583
83.127327293505
169.353680722917
227.824313721494
263.509263345508
293.291216840908
333.230304259405
376.743988958205
403.708085505418
403.569087916703
380.681388387509
346.595904577016
308.629201928251
266.394830122692
215.153921754262
144.080433406069
40.7130675756809
-92.6002135137317
-233.839333507108
-349.52638359285
-400.453540285423
-363.994931805013
-264.164245071836
-151.13165074579
-58.4587984123361
-7.16845233210385
-10.340314139756
-46.7953985550054
-73.3562010506396
-73.9050426738195
-69.5314592383489
-86.0407324558785
-127.094690269255
-170.717229889731
-181.453641034415
-127.448628828899
2.32063314854427
183.292551684717
365.311672047536
511.376449687531
616.351070268454
685.933788274067
711.425647222522
662.037631288073
517.054109209104
323.249505562941
179.302794733751
146.0581162749
204.988451465657
286.709703840836
314.266374244956
247.322619975622
101.716557721885
-76.9182555269842
-253.713382016784
-420.712577010788
-571.69750581786
-668.525710804498
-665.74831537442
-569.726890564347
-433.060219410071
-299.131173677554
-187.700530590031
-103.401078271318
-34.8768220975569
21.5920500578415
48.219848199062
38.9137348681452
14.7624196567856
-5.46324372998413
-19.5455097283065
-25.1560275058412
-17.5910225066828
-2.80879567826748
9.49342752255677
19.7045053811064
24.6210582897542
-3.61565324078006
-94.004921851573
-224.144491818867
-324.996532582992
-347.320579771338
-292.367777486569
-191.29212227925
-86.7809075753817
-12.9964301411773
22.5403630870801
32.6612447713421
37.6964632727027
52.2193086425939
70.3425087957223
77.4315689542387
77.6425584985893
88.8336663810374
114.414378298326
137.983718494005
139.537101631274
108.568344530101
52.6769005496554
1.64795247031151
-5.43784084953158
50.3561894891362
144.242913048129
222.211136334311
246.651734073738
220.15209931784
172.104111585414
129.377119526659
94.5000367368459
60.987670600016
39.6647741052385
45.1827144991292
73.1390370555099
109.550933183108
146.106074881771
179.256131897009
204.154208286024
209.120193135498
178.728200020437
105.550914035556
-8.91153132863407
-155.632723499163
-303.154570716202
-401.847718130804
-424.312353332967
-386.71410586486
-330.207917113333
-292.20953787214
-280.697406353708
-269.04430652537
-225.232968548226
-147.029437012827
-66.2693594352991
-17.4560764260561
-3.4599421710819
3.1746583102004
28.3549884648377
71.1102882020733
107.539548511524
117.474037050772
105.877088939306
92.0463946074116
82.4594914867133
72.24001581496
62.6136346119082
52.1640971271943
22.8313317312961
-49.056345912084
-165.443472644882
-287.82968465385
-361.855640020998
-365.955258545058
-318.581966231544
-249.879938491779
-185.091913648881
-140.350654426212
-122.798249908771
-131.894222870716
-150.19114508352
-145.472257714263
-102.199658732972
-37.8529702891157
20.7923020228206
61.5898713210014
93.0960961503028
134.81124487912
186.61950366598
225.026956031011
241.856292208716
251.217088620587
261.283090540503
274.697643227093
303.204721713236
354.54907107389
414.381555186824
455.999349855303
469.469573420922
480.422029208957
519.786275443392
564.203182606381
550.244088143391
460.347767544955
341.85064714728
241.678748159455
169.000213944215
116.232011399822
85.3851093935125
81.7952374907362
92.6110703962079
98.8103996592695
99.5515359085207
86.6258152075659
13.9901428787634
-157.042430970507
-392.52216904894
-601.485526826553
-710.275538556883
-706.815151159461
-624.908312010595
-510.604810886587
-410.342071281978
-352.71249561233
-317.584505328461
-260.243950376175
-169.81914098745
-67.1452263760879
32.7590893073869
121.820937841372
183.288795954468
192.261428924165
132.511354662151
23.394740534518
-78.7512912660992
-126.852144371727
-124.274596755555
-110.69894685564
-116.601739522837
-140.119866814458
-168.293024369701
-203.506521667943
-249.460430267672
-290.470149666546
-308.816561860489
-300.557135793969
-265.393234545849
-204.275703670657
-123.277675758125
-36.54280226678
31.5480412583234
66.3938605752681
82.6928797455831
106.609501417813
142.758180237765
168.653887832308
169.527350914315
169.101597589559
204.049507028302
280.850448595438
381.551266672891
490.727128709442
593.895172601728
673.483305348774
723.124291069134
746.01853697782
738.03547098508
687.986943619401
587.147401066002
438.152645557432
263.925441229854
91.5520208607049
-76.1261279303494
-244.467368335112
-386.322078633183
-452.467924570343
-428.194883606931
-362.761458405402
-338.988145951022
-414.791058586759
-580.610313037856
-759.810886619974
-860.497364555009
-841.954954385874
-731.904762540665
-587.697038869946
-455.093658831827
-351.740044949382
-262.124815659688
-153.400388592474
-16.5943336036913
119.292502616016
222.08367571082
284.932227900503
318.616360764741
334.731115104436
340.119493852224
337.57101969772
325.580868763307
300.997825534221
265.764971376946
223.875501747095
169.832984312005
95.9365455784661
9.07204207735802
-82.8617264296531
-183.320890309823
-278.526663842157
-329.636165921798
-310.694753627722
-228.799906977213
-117.456542267003
-21.7540714157434
33.6486674230983
62.5755386343105
88.1728763676773
110.289210595649
115.407800572464
100.205464728342
72.127127735834
39.322082661717
14.8422571258628
26.9671246338303
97.2014111146979
203.79917538957
302.523709115809
374.303497544118
419.188717895316
433.83161255757
418.48454700605
378.775309462681
315.134496287157
226.679639259594
130.881712411906
67.8150053986173
62.2557656834996
85.7794008299103
80.4719139539348
14.9857703111755
-100.463800288095
-235.189809242004
-350.499574423878
-415.975692962561
-434.255498966044
-432.142077776494
-425.596203003744
-406.959020481127
-367.330892013431
-324.753581229635
-307.636877933909
-309.720248175196
-297.224468291983
-255.829943958486
-199.338685734422
-142.592467061004
-86.8839131075641
-25.6609860832698
47.4413088786881
136.718690393206
244.177876407335
360.086375974371
453.759371033879
489.448208413183
455.555221532778
378.793281061045
309.58745636255
274.370183161811
248.290812145277
200.461852082136
140.711500424473
96.3305536847227
71.4314516032184
47.6525280162305
9.58438664929116
-41.779213008607
-97.1041084500039
-151.145268133566
-204.825286900853
-256.968522036124
-292.554084367829
-286.000456195685
-229.989911443168
-153.57226123174
-90.8169236941778
-44.0090631340855
1.1182669066256
47.9382212463069
85.5458809978427
81.1755788258632
-2.75858294425453
-143.704578866051
-246.544028689139
-238.534782655308
-149.227486940983
-65.5584742417086
-37.2089816428321
-49.1434165481249
-58.9460388173838
-41.5340077521214
-2.52484179999635
45.0615397596196
103.76948174326
181.51046081371
261.218281356526
298.066592927621
264.549522027992
182.559899200481
99.5045827271498
54.1097868107653
53.9538107973713
67.1538119438218
59.156384598379
31.9339027152377
4.63931627955316
-17.0676969380692
-34.1646516241785
-39.6500267799389
-21.2186255426164
25.1375712566177
85.1041909615773
139.711828355408
184.018759676631
214.654357532257
216.596797101754
175.798360085448
89.8279564028712
-21.5823161825974
-115.964301036067
-165.552532571188
-179.82781577447
-178.203589546837
-166.268732515753
-141.430332769867
-103.459883279392
-58.2486301705421
-21.5938252528297
-11.8325471999465
-24.6872437869104
-30.2522475946062
-10.6558741846644
13.5767722674724
9.16736171910804
-32.8300873674852
-100.758350181673
-175.547048960265
-222.920255580609
-215.710378787916
-174.130626864244
-143.358913349462
-145.110870871953
-172.917490878909
-206.495064399812
-227.020808328708
-231.975734296581
-228.283328097621
-217.240281216179
-193.68832351446
-152.015443914507
-95.0534648914604
-36.0482521715368
16.069506499413
59.7584520539888
85.8690225097616
87.2486656724737
79.1553082531221
81.0592663475426
97.8705148768844
135.537121439784
201.410762686083
286.965717047461
370.346699589799
423.39512152698
421.688637801026
372.289291397134
321.043668764486
308.383095242241
322.93460110761
320.625798829117
287.066376511747
252.722736219303
237.112393581813
208.239357529443
119.732259607498
-34.2500320680825
-213.214138857606
-358.579028286996
-429.628668450744
-425.396292379526
-375.336437623907
-319.862899153174
-288.388830443365
-275.914916429148
-255.436039777486
-216.195664960409
-172.364360206929
-141.179418285853
-124.81118354649
-109.749968872597
-80.339647361643
-33.5627062245098
21.822442565376
78.0627737578806
135.670080541438
201.595652467766
274.16007929446
330.854926119549
351.634432406554
342.407986853691
317.970889664224
287.048116700587
255.162817289885
213.717100305005
141.652401174432
38.2473122673842
-66.3276330438643
-144.644077922875
-202.865963975327
-265.534295478389
-333.317816591299
-379.300824181827
-391.516609345299
-383.55580643735
-355.458855771097
-291.543971748305
-201.912301555084
-119.661492675119
-60.7563699227674
-11.499012267263
52.4946828707926
136.603703715356
221.796642698659
293.299410355649
349.89882483999
386.385845273218
395.332336025424
381.107592735163
354.580245331336
318.909135422148
267.372223145081
195.129779165101
114.766657612316
46.5613158666291
-8.34946712233776
-53.379644594589
-74.5382105050478
-72.1994536510631
-72.9026441557923
-91.3427916943144
-120.868356034526
-149.572539266365
-170.257306969514
-191.644885557747
-223.279906786801
-243.313314227679
-216.172315300938
-142.862590835127
-62.896822392175
-10.9971250991406
5.56784560345967
-4.70030056946229
-29.2555999583307
-50.1751101629735
-47.9808650573256
-19.6696311248199
14.3559966155271
30.7266224866883
19.5658733862928
-17.0364699709973
-70.214226153262
-140.328391934173
-237.597137063704
-344.561420049814
-407.99495475822
-393.979338334787
-328.499970030506
-265.538718262067
-229.588798111235
-206.653107463803
-178.492607010502
-142.505789846261
-103.818072383282
-69.3984460149044
-47.7678693973356
-36.0950163194076
-16.651485519074
20.2512745077046
68.3186344764825
120.817379719769
175.935227668437
237.654070991588
313.907817755618
400.10051237401
475.032196751187
522.526485874498
545.207403254412
551.927769137667
542.686635444541
511.122621622565
455.869266630109
387.743095636804
322.962478793493
271.21929510656
236.237217265987
211.640345938485
174.128782386135
100.842467405508
-14.2764912106016
-155.017646117055
-277.102587548999
-341.232196957579
-357.853803451482
-362.841688327405
-367.819200178953
-366.160927349145
-357.161401745048
-335.111348646865
-282.701630037938
-199.168814076826
-115.949939448035
-71.1751366102583
-76.2391345902226
-111.819052851889
-151.134698681319
-175.030079362076
-173.929054142347
-151.468649625355
-112.124436833006
-51.9075942049651
19.5301992979083
74.7765391960999
98.5378889131977
99.1014280115977
92.372873493624
88.6114850725805
94.1100667263036
113.134004062216
143.551252684135
183.303265228708
237.392553192182
303.098219509102
356.12327561684
369.753835308988
344.319556705851
300.094143688229
252.856114533883
209.486778140846
164.238400722214
104.083369350174
34.2380385709997
-27.5060000018967
-75.1834005754958
-107.156598110891
-123.312213532037
-142.320558719288
-183.949680177288
-235.267261594134
-271.033470025083
-299.034346269355
-354.320584167831
-446.706615777188
-527.462699270618
-527.285328469616
-430.068869632329
-285.234160309985
-153.483707879313
-64.8313799976472
-14.1061352149729
17.7820157291816
38.3940759052303
48.2165692177081
53.2177516019328
55.413100901636
49.9663716533478
37.2528657025258
22.9535985899055
6.06526746007101
-22.9309571522594
-64.8042582432598
-97.5337928590087
-91.2907195984685
-39.1794042560515
33.1515875186584
90.5014884915987
116.665466062419
124.309097517941
140.212702392179
172.715162549716
203.552142503178
216.864575306825
208.918737358229
171.5696503275
98.1702987904781
8.73032595784268
-49.6959482069978
-45.16835487525
2.76045144199705
50.0715641196734
78.8826234515314
100.62183252499
128.935708608635
167.570743642775
207.882726638358
231.359253829703
229.905911554271
214.438048372662
194.571368616587
172.634611085636
150.341380219987
118.141944235201
59.7504619964264
-23.4138531390258
-115.393469856085
-207.105524102161
-298.65166111132
-386.029472927301
-449.948132583191
-466.225034749851
-438.206649105051
-401.685738370862
-379.976840674366
-358.652499107126
-317.876069142413
-258.059052248454
-187.504945387202
-107.011953342372
-14.2268728599018
77.1539225545648
141.788566446103
172.949240342385
182.68318107197
182.417986283917
186.29779304109
210.313585422136
251.508919389663
285.392409809113
293.249881963365
282.188754206882
272.274338615883
274.765375241042
293.617920442035
334.173636565835
389.409719818838
431.552063751266
438.380851990693
406.699417529762
335.552109949586
234.293561292842
137.425731093986
77.6069091586266
55.6749788905509
39.6988717450455
-13.1292506298525
-113.63680046731
-226.025195711082
-317.677682509369
-403.897930745636
-517.57440126113
-646.927267730143
-735.153895418651
-745.815965938448
-694.896527135165
-607.775074039176
-487.126213283872
-340.247521630806
-191.005095451973
-51.8360686572025
79.3736562705054
206.388151443851
336.003025763768
464.982399196569
572.730772420109
643.552749795926
674.309584114925
664.793907498931
622.331561485421
565.585739840469
512.309181265665
461.235488213383
385.634049119141
258.946317537459
90.5271025237582
-80.032672698927
-222.209922379901
-334.561091800527
-431.577594223889
-521.416791269352
-599.762708328778
-663.62610255369
-707.911045147038
-705.08033858848
-631.343109332751
-513.595314805381
-408.266464552829
-343.106495469919
-307.271514098145
-280.243141712558
-246.790922375247
-195.135053414004
-121.5285771335
-37.034200853439
41.1227792610538
108.837754855444
176.632786222656
245.236950098985
297.179273127615
319.904829299426
315.984095698467
293.727667912007
263.255659667119
232.987858431523
209.524059102366
202.836014911255
217.06263660692
240.665703799998
260.813753357317
275.727855459316
286.069618559832
290.624927955003
289.397019895271
278.629170273202
243.71381551357
164.228504433963
44.7733040190669
-58.0787062354707
-83.6198743014361
-45.771597552139
-16.274211915303
-42.7930482725099
-118.782565088621
-209.64842094291
-282.228076584603
-315.759880830854
-302.961241600555
-252.197716235991
-184.509541770685
-120.929207518309
-71.2852825507475
-37.1401983478491
-21.1536881062585
-27.4540370711483
-57.6406687186333
-108.347849265726
-168.804778458927
-223.695012077005
-256.973001039839
-259.250378826611
-241.629654436118
-219.876146218641
-185.204967313602
-124.66797041345
-52.9210801533697
0.525971820144766
16.0940485291784
-3.98985528444001
-32.6272153668909
-35.7510210968781
-1.98475295807903
54.4456314728849
117.858777944617
184.593412847557
253.663257933807
312.263819248418
340.089780946101
331.79959285481
300.212696888622
261.640712069925
235.370614356064
231.964926310853
230.187825353421
200.569590040599
149.549089165987
112.628382989564
117.914036757629
174.612780697101
277.00995699456
398.513333841668
497.664792353258
548.107180261159
549.400551356807
506.911127176527
426.891275868326
331.594830934688
249.324623978246
181.434568640037
104.372765273547
4.00703015153075
-121.552616190189
-272.181185522261
-428.685023152769
-558.671749300222
-653.08545138791
-721.75788407742
-752.059901316392
-712.048840848518
-606.302813570303
-489.186341745356
-403.800092376568
-345.838318472655
-296.656476023357
-249.780816671421
-202.340323351758
-155.651476218443
-120.831938063637
-104.119147677051
-101.464237471736
-110.570850860102
-127.496195227091
-143.682036837984
-155.379441496709
-157.625348718069
-139.262599055025
-97.3728198326395
-43.1350507142445
8.97374215334202
53.6882173008003
96.7936326133402
141.019682400781
179.775192485643
210.040799622811
233.619600401796
243.82549309486
229.527878901471
189.215504413343
129.549247498442
66.0142559439932
26.1047226459868
26.6439608951313
59.2985636937776
106.930063517777
150.472990794572
175.498255673428
189.537986897011
207.336481150245
222.047201431421
217.83464393401
200.967143482606
194.40508089141
203.861606729544
209.983200023745
197.889290758732
168.976930137231
120.164008385295
50.0868237549072
-13.4444493289222
-35.8486718774076
-17.0814954201175
18.4440788204087
47.6476211903404
54.1547042342117
32.5331885462137
-16.9997392044475
-99.6223127492841
-210.130968539076
-310.977145144741
-353.751812980265
-325.495236960576
-253.710128628817
-171.809005195439
-102.38910946816
-62.6282796853025
-57.4602278315084
-65.8525322452453
-58.1122982096987
-34.7605309087866
-18.9267002733917
-13.8964804544314
-7.44208573664706
2.69242737140099
14.3511020943367
25.6853358551339
31.474762421972
26.505433252724
5.49415597695588
-33.9123731073702
-81.3268822882092
-116.535277941936
-124.195381679028
-102.812117371833
-64.0970608756684
-21.5033014843835
20.793527939035
61.2108428615752
97.0099580964927
134.428804158535
180.897511792599
228.533236928926
259.817130446446
254.298587919429
196.614951537854
105.355738705572
33.2141080398754
15.0585190309189
34.9652171900591
51.4302450628858
34.7646826486531
-23.2757528523015
-114.542911233965
-217.889867784489
-308.291296757182
-370.400683548041
-399.554975236751
-389.91960892687
-334.474253360719
-242.379217918512
-139.974093409721
-50.428887094713
16.0051652684737
64.8639214471873
116.042957283009
181.961073057818
253.505444478717
315.56249944153
364.021019301683
402.901284483132
430.12432666525
433.956114148799
406.156596958018
348.43001505155
267.955604437162
182.75011543035
117.058597819399
72.1919554224381
25.4486163090946
-35.4180847230136
-108.28307139909
-194.146399256491
-281.028292648377
-335.202199168323
-336.862374071032
-298.032029025229
-239.655591865716
-177.305061193604
-122.051606940538
-75.5314762941957
-34.3504592044849
-4.31601782216781
5.22308526404965
0.24107644609012
1.13747776897309
20.7626188687413
53.1303914214239
85.6666273822352
105.963785016707
95.6575779300283
42.7062970497407
-37.2602263261418
-106.642806503031
-132.517130878087
-113.8780152975
-85.2938750161497
-83.6494653552488
-119.912822487857
-179.240002559288
-230.092351614535
-246.776618177353
-230.749123992247
-198.068866085585
-158.514992145231
-114.216418385428
-59.0135921436334
17.0735061368787
107.265361556527
190.41003898947
259.558706057391
320.231808696873
368.947752434164
399.927092562277
416.667956431444
426.86077950337
435.486099600013
436.376869668468
411.770456572116
347.002250215676
243.099011610784
117.226494821035
-8.60283172933154
-121.312329651217
-216.648824583575
-290.664350518097
-342.582221140484
-379.710870589994
-407.300270768798
-424.24858842789
-433.030073592819
-432.856387232961
-409.616295442773
-354.950277448364
-280.216772687861
-205.643349636663
-149.379338145669
-115.119454881
-86.5259677976897
-46.7928996853997
0.911114187885028
38.8934803923393
55.375482067509
55.0821536653052
50.3059847836299
45.8840899496546
40.6754568011954
38.7267409559639
43.4574494715146
49.1433247946502
47.9192770636633
31.9516116020453
-3.27712744668637
-48.2532476992563
-89.9550623418654
-122.521277968187
-134.085014317899
-107.585332197554
-37.9784104956483
65.7692151467704
185.972552043191
297.374435094726
378.21278735923
429.657919142878
475.442606144444
533.748848457738
592.718125281544
620.004342167355
593.676798998046
514.50883612915
398.541775766231
275.751580038125
174.89578812141
90.5094824827098
-12.1848327120582
-155.996999758311
-325.803126127381
-472.878032603021
-548.341470878195
-541.758240823768
-486.153205167464
-431.299948269243
-411.483880791892
-425.640950570897
-446.294635470444
-450.058618844668
-427.859631195676
-376.445621827442
-305.304999472743
-232.228198843192
-156.658644014326
-62.2132521154462
56.2949432406647
185.182900271794
304.332087798376
405.653395427509
494.79244664956
569.36545900408
612.939163155525
615.735379795922
588.598637245553
552.175374056139
514.56223056459
466.44135944989
399.150552034938
315.391632622471
215.891693700759
92.9373591392361
-48.663431747234
-184.872835031272
-296.326534476446
-380.309421810561
-447.504546656387
-515.260355304099
-584.427203185805
-629.75911905505
-623.398824826784
-555.443512026747
-441.017901334401
-314.080647928695
-202.474385083542
-113.752265488437
-46.4171584737672
0.23223671930996
29.8706758902523
51.357108206096
72.0609906872261
89.7053558016161
93.2927404606946
80.4287297815338
66.5272053168865
61.9608556580784
57.3087200634694
42.7692243391931
22.4052497771356
9.60498991664668
16.9363526644175
42.7038312010698
70.2010485965482
81.6747470215006
68.806111484752
31.1552627693363
-29.7977507848004
-100.655692169933
-144.172628041127
-123.064343617584
-40.7887829859752
60.5153008095141
146.503417653301
212.853149076565
263.01377408435
293.026238640152
297.538105695608
280.024413272794
260.090232072401
253.639947310155
247.73745285848
223.48101107016
184.515986053738
135.806423244125
57.9926156716825
-68.7488572422798
-216.934565864555
-318.582772001907
-340.108215730566
-319.825123450302
-309.596554957171
-313.93710740486
-307.88302074412
-282.263719038422
-250.577968767637
-231.189730025464
-227.909904687616
-222.01595458066
-194.593884218918
-149.468661871638
-101.816893157313
-56.3541759985097
-4.24500238927445
61.9654197115554
136.818887806343
208.580304209077
270.523303095358
320.057346379669
351.515960971193
360.71208063652
353.669751821146
343.377532629035
342.698110738279
353.092660249169
358.321336118899
343.45163513138
307.076417115295
248.613474988325
168.256085309353
72.3452480136943
-32.4652522990831
-133.041586262647
-212.66474677219
-273.716134320613
-328.826214708967
-366.570397651056
-355.458372789759
-286.194985873682
-190.155082282835
-111.747900688339
-70.6105225887277
-52.6773465940035
-36.4042180511501
-15.2465259738694
3.58193684565226
3.93812155242145
-22.1376270592474
-58.4090852349192
-87.3037222674673
-111.581502866701
-141.864259481016
-183.699824041688
-232.059359657069
-268.514305314197
-273.845892796527
-247.878179108261
-211.729074585353
-185.861630662568
-170.150222386594
-151.167255730822
-123.665174006947
-93.4261256597321
-59.0766966208598
-8.98915633794601
63.9282263000485
159.876332869367
272.18744188834
385.281710858261
488.67190797132
579.015848858538
641.970361208135
656.607070602486
616.026767664631
531.607570052707
426.289243798896
323.949581023285
236.093146860338
159.251056307192
85.0457988162824
11.4536471400965
-53.5867586555489
-104.963493980029
-152.688685320062
-207.564165947712
-270.087033774701
-344.108760344047
-430.412241584724
-505.572499338014
-540.608681608923
-529.148106332867
-479.802706913907
-404.595606097616
-320.454966140519
-242.714406773287
-175.958838932527
-120.109561983557
-81.0286127698186
-64.5424282761235
-62.8651484561641
-55.5050299766031
-24.5547976878823
34.2160309099147
113.779118218434
199.756112174348
275.629766199342
332.465712222823
364.38826025148
363.438610783243
333.973374916672
292.763014123506
251.190399215084
215.840334331579
197.117981890365
200.483527625153
211.830097750993
204.58521069783
163.814380382827
89.8396018010381
-16.6015561797122
-149.052218413805
-277.40809489314
-361.677645238308
-388.83763640859
-377.087106250039
-346.180879904579
-297.500350089811
-217.04598704695
-100.98422139647
19.4687688387903
100.358894942705
125.817376973478
107.599548591612
66.3698920129049
25.3674532267981
1.97203448950152
-1.65423680938649
4.23536623804836
10.0026452863631
17.0037661412234
31.9745512169778
51.9930029502625
64.0898050953286
60.1815728114198
41.0350204112187
15.147841751968
1.86346049777499
10.683020100502
26.6303062822215
42.9542367173213
75.1079634542605
124.57860859659
163.908734857409
163.645220950879
119.694190498081
59.954405079536
27.1179270682914
43.831474418479
87.7640140986004
108.245335015479
75.4916167224802
10.2832583100106
-38.8353874700625
-37.9709233917181
17.9221686402799
106.188515589337
178.673946908169
193.560645320117
149.695009425996
76.7944186942736
10.270413770673
-30.7807019953607
-61.6942585322394
-114.321971789189
-199.930434096179
-300.335391153773
-384.74546847413
-432.21017149851
-443.028293348596
-427.974805575871
-395.122576190037
-353.15415941312
-311.425397498551
-270.078251890412
-225.052779695194
-175.414285010172
-116.70955421946
-47.7816832853792
22.2903296566968
87.8898770811079
141.085488891558
157.989922679347
125.155827839141
69.7455728360293
42.2338230463214
67.7641552436538
120.858829043119
155.240603496805
150.201532218927
116.736691040915
72.5705902035788
30.989595913868
1.60536650963775
-15.1858196423871
-18.1807049798848
7.97898421871381
71.2637211727454
152.850683557984
224.903797312816
272.850460597279
299.766696811565
313.239977635387
308.67906058048
277.371366974234
226.196907368657
174.926610710374
138.102384014657
114.212060599269
90.3661863075555
52.5710422998513
-13.2209922518577
-118.605777580037
-255.600091951862
-389.52003419088
-480.648244724909
-503.356084328541
-448.583509554441
-333.583285347711
-202.391284604935
-99.3852790780462
-46.8071677107216
-33.2791523871961
-16.8745291829217
35.496350306354
114.086555180263
186.710926791606
239.178243677436
287.295060237613
359.411721077603
466.486177373164
583.40066047504
666.940390745794
688.436438452759
642.159864315472
539.889076944351
402.715411303104
249.303746459616
96.0474710354087
-41.8740230056975
-157.297532756981
-246.364914619857
-306.135640031637
-346.707420041436
-387.36891335965
-433.863995697531
-472.275705720866
-488.742785802342
-485.372471635159
-470.068480905748
-438.387182987746
-378.373440427987
-293.379148184298
-202.903796266282
-118.296197093875
-41.4045289227316
19.6426613373183
58.1202850837118
73.4644254277358
63.079281545452
33.1127580756277
3.3325384386609
-11.5198505326719
-10.1782337108779
2.95252355382844
23.4282957091472
46.5024965534962
67.6627091082025
86.4883096029262
107.440949281671
132.63493539396
156.016487067626
170.003383441622
169.804245405865
148.210500668435
100.264222113145
30.2393727826773
-45.8235810912875
-93.9995009623225
-88.1712203114838
-52.4973966728422
-39.2658763593903
-71.6254348575325
-134.716996436926
-200.103789198759
-241.427686640748
-240.174501636985
-192.57245731644
-115.193617133124
-35.3038059561609
25.3574141320572
55.494310766722
55.9496936588532
44.5841371560159
46.0205536057944
63.2134594129857
74.1307014657927
64.5405419756632
39.0823407031788
6.32632950473194
-19.9252043081438
-23.1127221246528
-2.53223107659809
24.5622455101713
34.2133193408701
9.83916659725771
-34.946308840962
-59.0330470957203
-40.5615225847279
-2.70766793295359
23.3582026874373
39.5295539681631
68.8550433267595
115.131464673673
153.567582258159
165.208943482765
159.325784830694
154.51135928834
157.087722334425
157.262424080588
142.650362301919
122.128343573256
117.468060204139
128.298566938204
128.675957913364
92.76777051313
21.296787291824
-46.912278945578
-68.927698954854
-42.9320021838322
6.0407602473152
60.0570979489156
104.875818458056
134.165978046406
168.764797074726
231.306653844498
305.087720696074
339.851079088073
291.945203911677
170.363921350055
39.9110654141881
-49.5909735424981
-111.644119817391
-175.958594471467
-236.455203888832
-270.481322826345
-277.515693188899
-278.787214487509
-290.08352027762
-307.304664014842
-319.154315323925
-323.179974420856
-323.006706658468
-320.006584668548
-310.550426600241
-284.724826781029
-238.151234241959
-185.913465581979
-143.687380841169
-104.529214719959
-55.5374934048639
-0.811052968711712
45.4154295876472
74.633075531788
88.5980971356893
95.5321347503946
100.96446307749
97.88728943266
70.9752506584276
18.1002738073734
-38.5486512704073
-72.4011434945986
-75.4699379201816
-53.6187009412883
-15.0389479487192
24.863355581845
47.7301997607393
52.7300242910451
53.1126615536434
57.6005280580311
73.8292441098696
111.124177247382
167.840872524624
230.60654115899
286.539463448063
329.092386273291
353.238970287774
353.253374436531
332.783598211973
305.346267635254
273.090788644078
223.638698688667
157.306701427723
90.7609296206843
29.5241765059107
-38.0140725052797
-122.066572918807
-214.774351497896
-285.557837708281
-309.656631855645
-302.101350812894
-294.54651171042
-291.275007932596
-275.68089762104
-239.756465941801
-185.361817361914
-114.266937858355
-32.8354535227446
43.2175666075172
97.7587751201058
123.84039118914
120.03948552111
88.477648664663
47.5597569831238
26.5632771523861
34.1807154468905
55.6170457673889
77.6799116403206
89.9932961797347
78.815675129956
40.6352502600173
-11.4291196160795
-55.7670981002377
-71.9918503945374
-55.9643047390782
-28.6861011468272
-17.4629823542263
-25.0720535195578
-28.2620017107503
-8.43424197737653
27.9102402891027
60.7803398466908
70.9534268176756
34.624833208049
-65.1081735783757
-198.943211856048
-298.271616723901
-321.16102308023
-281.812938544506
-214.763818993679
-137.135598877275
-46.2637382377935
57.7952232787848
158.869200159262
235.592166185212
273.200804545575
264.886239989116
215.470237652224
148.324328365134
99.1294468122333
88.7833483419719
102.245680442242
106.9087315366
89.9033399542287
63.087860614444
39.7056754907235
28.6667675805718
41.2833428331017
75.8798922881523
103.897355010402
87.8868914810218
12.9348531033879
-92.3066356013938
-168.013835449051
-173.440618846575
-125.210185321134
-73.9319038079666
-48.4847605611912
-40.0547285143848
-33.9653425495488
-33.8544732682918
-46.5768932045393
-61.0971260939872
-60.9903148328996
-40.6813517795596
4.38181018763497
72.6574549261102
139.059865320656
178.207601714368
188.751385225489
175.651258944255
142.35491839829
101.352193751902
66.6940558658302
43.0896008035879
25.7239182956687
2.64641249908299
-38.8437499835567
-99.8389414744447
-160.355620664754
-192.534809178867
-193.677668891317
-194.96804440086
-223.443692993957
-265.776496545783
-289.340288532726
-288.694553417044
-288.138766278708
-304.243733265662
-319.872852478685
-301.015442895554
-234.873269652874
-134.751812307311
-16.7979215331967
106.067417981204
218.425494526113
306.277364750342
364.120031902106
396.268562451672
410.096675537305
407.293405005182
386.129450155161
349.91088964668
305.016082964352
258.966660606858
223.812654021286
197.512807718821
152.453818128591
75.2679161393177
-8.30981387697517
-69.5249894870661
-104.142731356968
-116.134747860762
-100.783935215307
-59.178333426643
-17.1637827459474
0.764451832842091
6.26477602684702
21.7928046743511
44.247094922359
57.8913257684115
55.5070126878876
37.2038586511495
7.69457519556541
-23.1429386421329
-47.7334870490746
-65.532056180045
-78.6180900647998
-90.9127491525778
-103.346879110933
-110.690303618479
-114.368346829382
-120.835567093734
-124.460392198155
-116.386257032655
-107.6490806973
-124.529592224154
-178.664787920596
-251.440097773547
-314.168101567468
-351.5408008807
-353.939616605063
-309.936593943253
-227.020740097468
-135.430913804059
-57.3038150063612
3.95827891945404
48.2385976752256
75.9379542791311
87.305219639306
81.3116966252664
68.2427852564499
65.4416203861504
74.3697911388947
82.3430766833152
83.1241618510723
82.65611142661
91.837595703508
116.653569975592
151.263170041099
183.530315731211
202.14256837124
200.093032475771
185.50769920689
175.990065404398
171.994368441241
163.028403897418
153.911439207487
151.707756438468
148.334991107674
132.604635959686
95.2998635278561
31.4059427222451
-48.4001387042821
-122.620605491204
-175.912663334734
-207.034465461792
-224.185180364911
-234.287319296196
-241.373970038723
-252.652352264172
-271.961796487942
-289.225342856016
-289.537386609326
-263.67390289623
-204.369494432991
-112.943821521087
-7.75197487452867
89.2863113106711
161.385171729121
198.323303742936
212.067133029862
232.352051801831
272.580065915679
317.843059687112
349.999856770681
371.576363146715
395.701453809245
420.966835968841
434.373808805951
432.970956748177
423.868999020456
409.11531918919
382.936983451939
329.532382526845
220.020446927111
38.4154674921662
-192.329632610059
-426.316984853828
-616.066188072906
-721.607412637636
-729.992971586505
-662.802604351601
-557.003150886395
-447.531996366919
-361.297977262889
-309.036775899869
-278.45090024807
-243.686309142308
-187.118931388267
-112.278144318793
-31.7205869050611
51.9334385610317
138.240212078725
214.580998843459
267.400873017623
292.898912274295
293.808166712728
278.314493623795
251.44378242855
212.587219704338
168.441500684967
121.991772684449
60.8704757803385
-11.6557272516335
-61.4657100871637
-61.7695118233262
-20.5086556380054
35.8643371838401
82.4922588588719
101.928677840071
88.061281709997
46.8551567485724
-9.41790183443902
-67.913110347588
-116.032640084937
-137.210448153378
-113.437141447001
-44.2076383900577
40.00182720256
89.8762369267732
68.9287464708278
-13.218282864253
-102.557178445948
-144.142131578614
-119.985068064437
-52.3189303642472
20.5844879086177
73.6408728840182
102.578940323781
113.056953893762
114.080282507661
110.307813614773
89.1147493753878
33.5420815101466
-51.3412772767872
-145.4676493165
-225.321786793345
-258.973025778112
-233.369866554321
-182.54150412508
-152.40169458164
-155.169298530422
-166.954214560082
-149.245070324022
-83.2264782716593
7.84545299337804
84.9345205185683
137.172013780357
183.937328195009
242.559641774575
309.918393207826
369.610872243639
403.723612635558
395.80267105829
335.798404196476
235.386020765298
126.276453006111
38.2384234535599
-7.68037298011674
-4.09062051011505
29.9689291631367
64.2578453442128
78.8353784523449
56.9240361428914
-15.6764423025074
-129.211967996682
-246.101737582845
-323.937704261428
-340.024604745187
-305.956610117857
-255.828418640912
-211.136291159584
-172.2498743938
-138.681907357897
-114.979455690043
-104.288995232126
-103.431095279606
-103.069327388296
-95.6742102166367
-71.2541550962038
-14.316220597126
68.1228727966839
133.987589896034
145.158193671104
107.355485232164
63.5180937483053
50.8823645123912
67.6835447287353
83.3137127688209
73.5165310450836
37.6862104287366
-10.0526449647119
-50.2036793661629
-64.6720527431129
-50.6312778159585
-23.8423609638524
-7.78628866292187
-19.5308058217561
-53.0896911811124
-84.2253534618671
-96.9646080082117
-87.8713373570965
-55.7795917177626
-12.6756950823611
7.57917629716296
-22.9038694565122
-89.4047015854752
-142.234112191726
-145.099354151541
-106.465165635168
-59.2111681719688
-23.6275712758006
0.503465625328773
25.6992199936053
66.5475615081894
123.035083677621
185.948197997842
256.15126042925
331.827740116366
397.042847094074
443.500618357676
472.936055850215
473.822430527669
423.075720607421
312.478578902737
166.959951469058
33.5859094361351
-53.4298071980025
-91.4368365057993
-93.8920453040392
-78.0425797935054
-68.5155430478964
-86.7444202542176
-138.500823880311
-220.113727518898
-317.319817482827
-400.804951458072
-444.322257392809
-443.184139113001
-409.45071236209
-354.721276803321
-282.749182893648
-203.304887969773
-139.724907421603
-103.347814388782
-72.4711219605625
-18.9918106600145
53.0955241062414
116.506277664717
160.729795166905
203.579243246599
258.536414724625
306.622145624015
322.688200004986
313.424805300036
301.241180851258
296.08689035169
298.251739145134
298.088680314292
280.183175442112
246.546010062113
212.928992637747
182.155528334129
147.574529635739
115.204598210448
94.3812829378234
71.4828213786414
19.0245465186703
-72.9487521030419
-187.229761077495
-291.390873899479
-355.520829985156
-371.44818969668
-362.617829252589
-362.002879294178
-372.45560816141
-372.491565682796
-356.875448056846
-333.334392665492
-297.632866146871
-246.310828633874
-190.315180392053
-139.285595109127
-91.9945231420895
-48.5404713929913
-16.7438873589352
2.31177779866254
21.6067186014587
50.0499387774221
79.8006346784117
96.9187402569659
90.6676880770322
55.9298137578101
3.8745116560934
-40.2772656603922
-63.4962437561117
-73.0730063647275
-78.3986037385657
-79.8738864803564
-70.6418063554659
-49.258419730075
-31.700830303029
-33.5157040560269
-43.4559501369132
-36.2694091886112
-3.77920736016723
46.1758684578249
110.636584992607
191.052154561461
275.258082324286
334.542109422006
350.37351213236
340.969332541362
340.230254141115
352.01012470652
347.218835786552
299.942146512376
217.400364092808
140.018756826962
105.43464105281
115.98458387262
148.521908281638
182.867644931434
215.519492976937
249.528458547833
278.612492702097
291.027444351696
276.310622751471
218.504479331278
107.256015131996
-28.3800690548941
-123.202727340163
-136.02650039004
-86.2804434821985
-22.7152843855206
12.2990205605982
-9.9358464071014
-102.167549817379
-260.659598207043
-456.598570070836
-625.995624085258
-700.120176632345
-656.974768018872
-530.655014784445
-380.665210600979
-262.551904651662
-209.15116992123
-216.515878844324
-245.563028660225
-248.116602598168
-203.274226193803
-129.379710774099
-54.9969046443394
6.69967660869279
53.1598577435934
88.3371854981606
118.136865062327
142.476022582436
163.404785432252
182.575038376515
188.417035477603
174.306957725879
158.641632020525
165.056222289086
192.959887749156
218.446950312723
218.772853783721
186.980426039724
127.345113909487
50.9580977900962
-22.893695001235
-73.6745458502107
-94.3449217796436
-92.7972117157318
-81.7052845332116
-74.5636212400556
-77.7646101787999
-81.8346664913391
-75.134523224058
-60.349801943148
-52.1742631419367
-67.5585138408263
-109.554764053754
-154.141312869621
-166.297364318776
-136.032670608672
-87.5735259539643
-46.1330574942982
-10.7609739261464
27.6646581621781
59.4986449071344
72.9342990506048
83.8694305606013
118.691098325037
184.218061592623
271.219350442415
359.044234756676
419.972986697105
442.568484158834
435.267184209406
405.608934595198
353.046074670969
277.216564446412
189.838405134172
116.742453670296
78.2685265135526
67.9040405315286
56.2574160633758
13.3175944848844
-70.6378742349774
-172.681216459725
-254.365300790099
-299.745787206019
-316.850087166829
-315.82925140389
-310.016818674489
-308.634022346632
-300.291026425048
-272.476601719253
-234.853228068054
-205.303251683032
-190.816040942918
-188.56968465468
-191.575834235161
-190.530158542866
-181.946064430524
-176.28291527034
-184.089473736734
-195.521516317122
-188.781189951175
-157.048657076139
-111.393895790235
-57.5607403053254
7.56920697209226
79.313483279806
146.821094726832
202.200623972591
241.99848861763
268.245386809185
281.693091812938
278.627802195024
260.599531118677
232.040882737701
189.856157541286
128.774109015103
52.6980426784684
-19.0948794652087
-58.6544048333482
-56.8649959896445
-37.4871943758598
-30.1250678948944
-42.6271988906286
-65.598452518322
-83.3410711135834
-80.0516988980126
-52.4839356812775
-9.86622073336259
40.2860703913475
92.2527171842017
137.69153679606
172.152011290792
198.0643918386
219.310562200724
235.029541509266
242.708234605274
250.590584039375
272.618339855753
298.634758491337
284.823444703875
198.394733197189
68.2022636644015
-34.2120537007845
-67.299608143058
-56.1366354966819
-49.2125192758175
-60.6752898962707
-76.6260056676108
-84.247388741788
-70.54205182681
-33.3774159333632
-0.459521526014859
-3.21104008122795
-44.4141536920953
-106.441103480633
-167.451690050866
-205.707448311265
-211.489358857694
-198.156903727438
-186.956802271866
-180.586864931731
-160.464937475563
-114.500310750294
-59.7140071509148
-21.6415905819217
-5.15865853015474
-1.59532658218624
-2.3350570857877
-3.14335922283043
-10.8474143229121
-32.6999521488178
-62.5711572778093
-91.8126236924959
-117.266463176214
-134.51865040047
-138.348622453964
-130.049211599475
-119.07331617292
-113.583189012565
-109.114668654592
-95.1437249135824
-72.3106733934911
-49.399625978065
-26.2983427621965
3.41025613140185
41.5339553977005
85.5266951829778
125.391560586297
149.264910307294
160.548410007691
169.176548720119
173.311328499247
166.934033576647
147.145946828024
108.844969568907
52.5799079493452
-6.24004637438247
-52.3346380222094
-88.7504893018399
-127.26640098303
-162.629604471434
-169.758302084132
-136.33024451382
-85.4006452229153
-47.1886596852672
-25.4494276668091
-7.80522914037429
11.1144358420239
21.4183394172173
6.86484531607013
-28.9210266174935
-58.8532527111151
-66.8600834368114
-64.5228655051426
-63.6275309629874
-52.300125277037
-14.5478704882598
41.0536065793224
89.2517742834816
112.013497649222
108.307012865972
92.4102927101254
83.2472709190031
90.5708957652783
108.393747621806
124.296826426849
138.494162510332
161.154619666054
190.164382826909
205.891559220991
189.85225706177
148.987788140665
113.235794572498
96.8101750813244
74.552006460055
11.6560146688775
-87.1412985457218
-171.251078687469
-192.712105552285
-146.154531696276
-56.3124198583012
49.0752296040562
142.48969664482
198.43599842414
212.588421859548
201.526429052328
179.256373614816
155.69230943323
138.412889021215
119.681343139625
90.5823445822826
57.9988537053057
23.8232719235008
-25.7723921676929
-94.0190511993945
-156.802349154272
-187.100180935062
-185.350218577894
-170.00770199128
-151.939468676362
-134.045681275691
-120.73373776392
-115.271163527761
-119.476182972722
-139.01686459299
-172.434086464183
-201.537623627332
-210.717598230208
-198.627397988071
-168.454621908916
-128.73504201011
-89.1957925334368
-46.3791778252001
6.50891947968416
58.6739738214465
85.4725869081352
73.4846411704886
37.3879312195236
7.38164841054074
2.36947979942657
19.2284155864814
42.2004188739212
55.1007409626777
47.762567904841
20.4948017688252
-20.2477757048115
-67.8230542354853
-104.169212532409
-103.754789797116
-63.8239956180249
-3.73155981833095
61.480557276899
122.993817296757
169.163154174328
190.021518820795
185.406641025633
160.620272072621
114.115926763046
43.4403735977774
-35.7342121404734
-90.7934204317991
-97.2271816818697
-62.2023691760989
-20.3174621503071
-5.34609534233258
-26.9181767547607
-70.5100405697673
-114.589109370215
-138.256658437675
-124.520917342412
-78.2673959083924
-23.038481314412
29.412578979455
82.6347012527026
134.663914508699
174.105076343055
190.771033157815
180.814642658576
143.867929595624
83.7461042461914
12.1377408198606
-59.2731268702697
-126.967027104447
-180.818694737264
-190.7749577582
-139.275287074628
-54.9819296646452
21.3401886169888
80.7399109216565
134.493780119244
190.244836094378
245.828231084104
288.709053031037
305.615457467899
296.616025732302
273.647660285006
245.163918294285
208.124469465777
159.764313119863
109.872517045554
66.2553418652315
13.5345355527984
-71.0902941970555
-185.209364178852
-302.372212081437
-391.347383040387
-428.925571026818
-416.130228476496
-373.489177269147
-316.490871247952
-258.006651363172
-215.309479324396
-191.224979951552
-171.171568071537
-146.420523839457
-120.380975141497
-95.2013821760072
-69.1858868468897
-46.6563327877807
-38.8561970497146
-48.3493021019698
-62.0777474504404
-72.5090580377734
-90.2274074953115
-120.689949023011
-150.38740068375
-161.43153819124
-140.977307271701
-92.1050413720694
-39.7623659758731
-2.56117518989521
26.1262755298128
60.7910966351588
110.239226849212
173.233153342639
233.936315317794
272.257485902906
282.704356596151
280.283472659719
287.686870201453
312.171387452473
336.485859738965
341.607685684348
328.102926965854
301.651599263852
258.665198238043
198.041540183705
132.092167874984
88.9483698536039
93.0334592506768
126.175201123951
136.931679927212
96.6363875993946
22.6575216169139
-42.6679185798672
-62.3485423180627
-29.5472039432575
27.5808520735845
70.8484609748681
84.1401435439634
79.8828886035991
77.7693917468442
82.3409589578252
86.1506305755385
88.6011101115013
91.1364273218958
80.125253073564
37.9720242721616
-39.7732129322547
-143.265218717274
-247.480841796138
-325.932468230413
-374.084331722297
-397.783468782412
-388.060659434563
-337.147271171288
-264.755316036908
-201.30422987261
-158.210028566008
-128.879099454458
-104.633859843287
-81.615194312005
-57.1618347739596
-28.9303721105982
-3.50399186630904
11.1291623430871
19.937438602876
27.1392916018344
26.5744071731343
12.8377604857488
-17.1713797045645
-60.5992045817246
-100.073748139629
-117.479829785269
-111.588096855156
-92.3493929453362
-68.7409908099579
-46.0972139945022
-27.6969510142494
-15.7199806676938
-9.37393324854184
-7.98279404531557
-22.643783612064
-68.0701842022965
-133.016297667531
-184.311271361359
-202.993104839647
-194.052394795195
-173.188736316072
-153.402139302171
-130.385871327246
-90.5582710373615
-37.8579466145658
7.59979785690503
37.0460554481186
61.5274512405712
94.191746914267
137.871778489284
189.036788244502
244.19313781005
300.725600011689
356.748954405887
414.660463340528
475.850644079425
527.238493714727
548.564343889888
531.790843680892
482.94979154681
417.334278960384
349.506526991901
275.127165159686
178.977502006426
65.3564220738176
-38.4993904214814
-114.276264777679
-174.56292523811
-238.799638978414
-300.579744924398
-339.721795068754
-349.952430346159
-331.676587056273
-275.653434015732
-183.456449470911
-86.4957620984126
-19.7851611476448
2.63439204886796
-10.6733786339256
-31.335272609294
-41.0295794793305
-54.0735069287205
-83.5148406860701
-117.698311085171
-147.011979810048
-176.499536917577
-205.107242068295
-221.151861557441
-222.067251155807
-214.401530675111
-192.820325252217
-143.196778699012
-66.5247995047916
19.3874137944852
99.1278431202274
163.163883118912
198.278763162547
199.214543715654
182.922674397998
167.706401539583
154.80843522283
139.761281453368
116.485111494567
75.0739867401306
11.4256955560583
-67.524963125785
-145.550417121268
-199.653242338312
-208.734815381394
-166.224461857357
-85.0518171567627
11.1817029315193
100.699694462224
167.189124242887
200.245911523749
202.744377202859
193.74650468988
192.537561105799
204.95027411771
229.209012057316
255.693792872073
262.743916233721
235.181057023064
177.844723173247
99.6923833226735
0.315336668756033
-123.51503573688
-266.106696157414
-403.674108139517
-497.551039424684
-518.819723718715
-472.968237505797
-396.101444404327
-322.884469105138
-258.269858825829
-189.988947956502
-117.651624548666
-46.2048259094749
25.2135216811819
88.981813616884
137.008911667988
178.224644503308
222.947691314919
270.765272852256
317.131678957263
355.240687645822
378.333819637764
383.161037312021
369.018400322624
337.192412886429
289.611369247684
231.314004646566
177.343958538543
141.996797322068
115.315731181311
72.0936051299377
2.82140328578397
-89.2258491133934
-199.231697522064
-306.687661174405
-382.171271398826
-413.755246396925
-407.932900434988
-379.714224465214
-348.242312546761
-326.647677134152
-313.005710951281
-296.567765806624
-273.134566875061
-247.683127617214
-222.635025543336
-194.713053325548
-164.255123280972
-135.527408553372
-105.616203049642
-68.4983740279979
-27.4361978730963
16.795418044484
73.6411393592885
141.773107386009
207.743746767342
265.318899931866
310.947002180225
338.139549104855
349.98893156976
358.489228635829
368.631808971445
374.175922277715
369.984436428997
359.881539007184
345.297705990466
314.406690953143
258.183978182154
189.783742591867
128.602778007303
76.0342687901054
21.035076075989
-45.6426251179248
-126.472001104228
-212.002281547995
-281.737975895957
-315.670301827694
-309.107493925222
-282.015768431925
-264.226177961703
-261.735046986809
-249.669931125277
-209.975658547602
-161.425913331158
-136.051627716119
-139.64544585796
-151.190610827575
-152.171806018621
-144.092519713863
-138.850667094062
-143.788823382771
-157.52009373547
-169.114506242877
-168.769743577293
-164.533426043101
-170.693060243536
-187.138215395599
-203.730144945372
-209.424317571708
-197.591665357724
-172.860297746671
-144.847384271393
-113.956191498557
-70.3624740335086
-3.69917815211712
90.3464656302181
207.923720926824
339.337077262374
474.297715495323
604.534863732751
727.891191296588
845.865390147381
943.763047895084
989.328842819146
966.067185573416
887.096697965775
776.821984808559
659.430572615916
553.23073162293
463.401065395255
384.109768276439
303.695934637502
206.828083559754
78.1497680891405
-91.1277571050024
-292.847237218993
-499.054715261882
-679.385463790102
-813.407852526209
-878.482306702853
-855.613698396959
-763.61508800823
-657.076755785377
-582.51661871646
-549.919894182593
-537.772841676045
-522.574991627915
-502.226897937937
-482.209811789138
-455.997158326299
-414.20185737293
-359.573232220667
-304.002092870454
-256.001248790575
-215.495226553345
-178.760014304472
-143.050004446342
-105.299439889333
-64.2739834431997
-27.2362393540975
1.82707814934891
37.5922361290169
92.251875468191
153.90292041443
203.94283940958
237.451949759088
267.062025541147
312.994367735768
380.618762652094
455.830802097973
520.367498041291
561.500731740806
577.007190696351
573.87705982895
557.917087865466
532.018922223624
503.621631184464
476.364208842441
437.591831808308
372.730365846422
278.923297846704
156.775286631454
12.749793551383
-132.575767451632
-253.175890496995
-329.498123161895
-359.882537126651
-362.522943227047
-355.685409262868
-346.759909451602
-340.675743965064
-340.229726111717
-341.141870508124
-336.933748684997
-325.132489364388
-307.220538852698
-287.718427529359
-269.146593656689
-244.737630523862
-206.809846479087
-154.620534279118
-84.6200934007278
4.35935284754554
97.238168881682
177.179283889148
242.590724124411
301.410779463539
357.17524208054
399.92057771571
416.965864297465
412.316537002653
402.960198905864
397.649844871713
387.157926829294
358.381138325934
313.473650524343
260.424783691166
181.66379467392
42.2759052909315
-153.771136526819
-349.131229556837
-478.043934954263
-502.092564783798
-433.919099676335
-336.199863334584
-263.700211884905
-223.268383734389
-196.616697203539
-165.35520940067
-119.821005393922
-64.5117505589841
-12.2846660032523
24.8402011844954
39.4216366043045
29.3522684096151
-2.59440170075768
-48.2640230847783
-93.7258494241946
-127.306616511077
-150.884587017847
-169.79127235586
-177.475634017347
-168.800956383238
-148.370095032487
-114.257551480475
-62.0552885017674
-2.69973994025713
45.0672572302833
67.8944555942259
60.9885955222294
37.3595914041727
28.7802211487536
59.8056949521813
124.137949991468
194.57863318134
248.700896758299
280.262282340833
289.016816305321
268.160477471487
214.165922475392
137.653293885879
55.7369069292995
-11.5540740819875
-50.2250015773062
-71.0092397658309
-99.2441603963634
-147.7368394517
-204.015195810088
-231.216070935965
-198.558727275199
-120.657740457974
-40.7206722201111
21.395199880379
79.4263323878571
148.995772820958
224.482721761022
285.912987430888
320.231477791261
324.974978974616
296.262231220684
237.510726473365
172.110911084186
124.108187015546
99.8341141417818
89.0778930103086
66.526816695776
10.4828221722315
-72.5924711508309
-158.886131961067
-227.183239380451
-262.161853536157
-263.457111550031
-250.208071321513
-246.970038151659
-273.451480825154
-334.916106922547
-404.375284524692
-431.027080858383
-381.24454883854
-264.898932669097
-127.124877529292
-14.7262338792411
59.3370667559218
110.809717284011
156.017039428163
205.253849337875
258.308422807058
302.959927659246
333.470602850783
353.206057112788
361.889234982455
358.743837963885
348.477611514967
337.921927600933
330.237927328784
318.707019664406
287.553261733763
228.683646825159
151.799011156252
68.5789503858539
-15.5272378192375
-95.369754488446
-170.437189184141
-234.549629854336
-263.481708998177
-244.537101142895
-199.692695992527
-164.467573748257
-162.176299117708
-191.366806108452
-231.201437599259
-262.060826261046
-270.358369115492
-245.00008347237
-191.611025095508
-137.804173706222
-106.42429037843
-96.4887109223362
-98.13712058495
-106.732690698345
-119.512413221768
-131.876240630106
-138.64459620337
-139.244156774925
-133.950768848639
-113.825858804368
-73.4632876820693
-26.4540309299153
10.7663056977833
36.1880897718585
54.4711159358982
67.329594194903
75.8738411296554
83.0938172301613
91.2688978563382
98.9910675277264
102.080816480095
101.302252504145
102.73171796253
105.798388047808
106.977101878
107.658906698543
100.991026386628
75.205784096957
32.9543968628658
-16.556070329919
-66.4547740381377
-105.598978639463
-126.477290084555
-134.294904917237
-139.732042754175
-149.654689692422
-161.675943989522
-164.475840905679
-145.541046667566
-99.7890860019326
-31.2491445701015
47.886001827617
119.430621849634
174.493007550437
224.542910872576
289.881073357351
381.215571086093
483.451641425805
560.721292585122
589.291043308238
573.605696090009
534.255813678436
494.988784346935
468.088118736263
446.217964336299
415.181976363853
365.211382777337
285.344194942615
157.479413389252
-36.7314462005976
-290.117521955479
-538.327975129769
-685.088069613673
-688.862646961828
-595.627164505374
-484.623343627107
-412.663138916076
-392.257202667236
-405.891317694231
-437.139615756929
-468.044756353644
-471.119384060557
-435.406656533591
-377.11425884052
-316.02644747539
-259.119400534207
-205.57414925425
-156.389010458743
-112.267945653126
-67.3066026846051
-15.9580991256306
34.6288526560181
72.1387960701067
100.736026762231
136.150532020371
180.913055911801
224.160650731843
258.268160502351
286.465198416833
315.519934790945
337.349132168338
334.086825414923
307.444420702206
273.016659228162
225.607825003497
142.605301808479
26.0302481049651
-77.8210959710346
-116.362386498646
-86.7752600931353
-36.7198512616731
-9.37936361715677
-10.0648144500486
-23.0215090936144
-32.8158801041429
-33.1982481465478
-27.0526698724277
-10.3536723383222
25.8881230330533
73.2257539624432
118.539896051954
166.437226990867
219.338699371942
260.044871996787
273.77731464101
269.129759573339
264.016506993072
259.811941866314
243.622303634451
210.942852141212
171.349304017228
134.430274952651
101.262619038742
64.3971320413175
5.43207619511618
-94.0697100760849
-227.366012884453
-357.329178097569
-437.788338537175
-442.912241290159
-385.71745988645
-303.49731476635
-226.746672354055
-168.49259750478
-128.818797018118
-101.024747991175
-78.3986249529814
-54.1970024142283
-21.0222847762262
21.5218973282307
61.1226117910245
80.3351637965788
69.9672213878173
31.742003325722
-24.5582994631663
-81.6490390408853
-120.399564647779
-129.863388348538
-118.438199548246
-109.000399352106
-108.6790726507
-101.692769811334
-81.7671376747538
-62.4699841653378
-52.995118628089
-49.0406227513732
-46.2164065506626
-46.8813853160032
-51.2244355974363
-50.5126569079979
-36.7309116117716
-13.8756168358999
8.64875958187107
28.5252075190073
46.5995729683704
60.6031641104278
68.7569222637369
67.0318870928728
51.0178966189005
27.3077772157359
7.93736424152892
-0.292555989981557
6.26224761890547
26.3302947429384
51.5035312915512
73.9400751839096
92.2133719617491
109.218647905488
121.87615683687
115.868365316068
86.7289588886071
57.0759911301906
47.7337676918358
49.0262678006577
45.0096387001529
38.7971152121036
40.5136668087243
57.8160044429646
90.3867645145652
119.340191122489
126.675761518093
121.864915106681
127.21832101518
150.387417594711
180.82785877521
203.628271101918
211.211102901813
201.02923281104
168.624470181714
106.458257558667
10.3528119002048
-104.676972817788
-196.938177336444
-225.03543478467
-188.46465662948
-124.605726556079
-72.0326631490089
-55.6848260176383
-80.994531568332
-126.320364885527
-165.280616767089
-190.255137026637
-203.955985292456
-208.139604837968
-202.420598514438
-186.251506445026
-164.377737327024
-142.342716801254
-115.414885803563
-76.3623220599904
-32.4448152768804
-1.29526295762118
7.01125645530798
-1.48352727078537
-7.94285341581632
3.14470751418125
29.0081888144759
55.4978281242218
67.4138606504856
57.2384973608405
38.5283518390587
29.544606893616
26.2355901223519
19.5503331494501
17.6277020840941
28.6943183714503
46.7505070674396
65.2471480841048
85.5709485900723
105.98843722771
116.120581765818
110.265582257561
102.334969551041
115.155629071005
150.610407458634
190.71144510618
223.991600195565
244.16213347464
243.063298011996
221.338053100014
183.266348980585
127.754489462781
57.7206966060514
-17.2273141311213
-87.2255116758299
-140.330063447921
-163.860403230117
-158.704725091783
-144.577892326565
-140.727383671855
-147.285608807209
-151.45570622127
-144.18216496674
-123.024044075529
-86.8652238565248
-43.9371826404436
-14.5088977781295
-8.87970809209824
-19.2212216420366
-34.5213082176115
-43.5845824465302
-37.8536783700224
-27.6657518101463
-37.8060042705451
-74.7702531201912
-112.628528420662
-123.74987680514
-110.084472205996
-90.0643024036591
-69.8582833609601
-44.1492768773811
-14.4774461846922
9.58864222574124
20.8054268281732
15.9046268933344
-1.22140904064093
-18.2852776519244
-28.2848221050236
-32.343899863029
-30.7050968190137
-24.9826488693443
-15.6698722002852
1.3092111777289
21.5181825234309
34.3048533192034
43.3053898975527
61.147429842647
89.2621238225529
117.999460666111
136.223682665711
138.515187327951
129.462127566795
113.306071744248
84.1148974433466
39.5428632881392
-11.3396748864158
-60.0287305485141
-97.6864513112123
-113.797117335498
-109.58368577876
-94.1721149183138
-71.3530941211706
-44.9749857720733
-24.3394241465382
-11.8172577573223
5.7473147277842
41.1638358413772
88.518882908443
131.000155201545
159.934758781024
177.014301365145
184.727137309582
184.709639586355
179.320487272395
165.864984299321
137.554088220732
92.2171880744754
33.4631414918257
-28.737205754471
-83.0740882860253
-129.92564212033
-170.788092928762
-191.481048387246
-181.116018072509
-153.016381294882
-131.026040684456
-128.662191463665
-144.561434041247
-166.398737341216
-177.235494923297
-162.915501663486
-119.482562668524
-61.1482439750486
-10.328110132006
28.2801982732617
62.3770237723251
90.4708339098126
111.155134966779
126.994855674995
131.263813435471
119.066117552627
97.9521480452418
74.8608814431637
51.4450989958808
29.0730695135011
7.51907761808189
-14.5922594508788
-37.1374877067879
-60.1771940386455
-84.4692859884592
-110.018418226402
-136.19514180728
-157.370011641781
-159.830394386548
-133.293950474574
-81.5704495356824
-20.4620848182889
30.298497448946
66.2215077486705
102.703655436762
146.087154691504
182.47651385452
198.047514789091
187.586204088825
149.509478721695
87.8988669029405
18.9745036524558
-33.2848396763898
-57.2817328089994
-65.4207595698697
-75.6765485756929
-92.4376850828374
-117.65927032257
-154.363976981676
-184.12206106695
-178.144246869701
-133.965318112352
-68.9192510293376
3.7205582669975
75.3955556347012
142.502354859449
204.035048727983
253.385347374848
286.747528982758
310.584443484614
328.693196457063
333.061788541703
314.6498144959
278.340122048564
238.688128351593
199.598390873173
148.16733665467
70.2668689457751
-37.5414987736665
-168.690385540547
-299.803558557949
-387.419365480394
-397.553097405643
-337.789562989097
-254.474144931272
-201.407769026417
-198.152548565802
-216.936914607842
-216.074465645611
-177.552202537905
-114.30530990075
-50.2534730591849
4.12523619815483
52.0047967836942
93.1720089531842
123.070836968514
142.126640946367
152.498073161053
157.8200158966
167.127005100607
179.829898718036
181.421514634943
168.39458798887
151.190936911579
133.919264298422
114.803391643674
91.5175699113264
57.6525058921011
11.0615414405701
-37.586386732443
-75.2646432233238
-101.420225636221
-126.378234603324
-155.725853852541
-180.359802214108
-186.952881661296
-177.255428922145
-166.092496205796
-162.200513467296
-161.329527076154
-151.777259522542
-127.625691505693
-100.116019538394
-81.9707105096444
-71.1076062757654
-62.9252255050289
-55.7620669409542
-44.5989061809006
-29.1586759045689
-18.4098270768931
-17.9868780225358
-21.3665723965713
-17.429827041474
-4.2608974074849
9.2177235263497
17.8175116992456
28.0666395785811
43.9861787339873
59.0459446027306
69.9083369942014
78.8024049028609
84.9311628770521
87.7562624644497
84.9661276481681
72.6120909012666
59.7693907234057
59.7728601039653
67.5037313226989
70.3732195497979
69.5220594362763
70.1611875935605
63.62592323185
35.8187931545266
-13.0027607563545
-67.4897830775577
-111.17125164238
-132.586780774129
-122.076981577054
-78.4490309679648
-18.9522310970181
35.2038765599735
76.1807507964751
102.318535656825
116.249255773708
127.377955301045
137.064800669793
138.500264014667
131.450136215422
118.559633258006
99.1634371544368
74.4975421739902
49.932651117042
31.954119378654
22.4867090476432
16.2727672278356
9.23081428656385
2.71273665712911
-7.81330695042572
-34.9174709870182
-84.8055774825107
-149.331970249754
-204.822518535155
-222.479941040521
-197.550135723623
-153.710865040095
-109.504446050174
-63.9028335669954
-13.2484157720368
38.5727090625027
85.0639793000854
123.692700926461
155.756744601633
182.020694166138
203.887905457369
227.079626484312
254.200396805879
274.368514098541
272.675971345435
246.511251057258
202.600302816157
147.926856965047
87.3823338615132
24.8798068399155
-32.1858847435976
-84.9111577692106
-156.272530427947
-258.83995466053
-358.850634657062
-404.685193495152
-382.148212134398
-324.644444887923
-277.113040527715
-258.972973957203
-257.031348761035
-246.329354411745
-213.639370460292
-165.882680654781
-122.847262882118
-94.7496793765514
-70.4894439028442
-40.9314978581755
-13.6332339798344
5.08450780960599
15.1471274068835
16.9317574272638
19.1620209385199
33.9655580408222
61.322129143102
92.7200259258824
122.833153121433
148.786677983653
165.965790366646
173.206114363403
177.901868174335
189.4846252743
208.262615868467
224.897765970484
231.309764348984
223.159040728326
196.403347566751
157.617369546947
123.043487333043
98.0931876189716
79.9721360486439
69.4132655382672
62.3668095287597
51.622943269427
37.6085546155826
22.3653655246128
3.17019465067403
-20.7694511800063
-44.317446086548
-62.7311245489064
-79.5361706608179
-104.908133148705
-137.533186945802
-156.151363507495
-146.016752625309
-115.986300361211
-81.9821423161482
-56.5088190745595
-44.5934951432308
-38.3153666966337
-34.2344311755397
-44.7119751409182
-75.3394514922359
-117.555913513516
-167.15440383247
-222.007814103627
-267.36383308069
-288.213509898179
-290.723135073411
-290.978114976605
-289.53967176719
-273.001319308987
-235.240199911149
-183.788323907873
-121.668890555294
-42.3172241783699
49.502197816624
136.092414849678
204.590095151859
251.384612137344
284.422581778701
321.096047127188
369.960604834137
424.166092733303
471.948609788468
502.472967471907
510.102192262464
500.218641616667
484.924848959376
469.832438161032
448.277334371304
410.736897742925
356.128441303074
283.866877574139
181.637985451398
45.025009428964
-101.025048058757
-224.032208536632
-311.637093122676
-367.250502808466
-395.535888876132
-396.394603264746
-372.092618975828
-339.425355307482
-316.299268418509
-297.847622365981
-270.750319271026
-239.988055071667
-218.665240483616
-205.912084054261
-191.307110717712
-172.23153445318
-155.649748018789
-144.164102521587
-130.565985166775
-112.179379091213
-96.9401146376273
-88.6506338143125
-85.1711809015706
-85.8990832079507
-85.0590130399008
-77.7033512349663
-72.1457263962378
-74.9127647849356
-79.3559475902778
-79.3359624983545
-77.3084299948094
-76.2940693474943
-70.1736344292291
-45.6980775248694
1.84564161113791
61.1261024099693
121.185330441387
181.641730989415
237.938462713823
280.78482495806
312.094597478425
337.570358620691
353.937146957329
353.320084223748
328.343553127596
282.198012572302
235.05900519316
204.955731614428
190.74622655274
179.194974507583
155.327296227096
106.283669969551
28.2953922526575
-63.887851106037
-141.74249945186
-185.639893867668
-201.741339232039
-211.149296728475
-223.694598493682
-232.684781465454
-229.070228513125
-206.732445034945
-167.324633750556
-124.724747409497
-91.9892179136218
-75.4612549957296
-81.7988427779641
-109.118614196607
-139.484561098655
-154.714558297456
-152.927982175837
-145.749057192646
-140.669631599958
-131.423449224398
-111.029695398222
-84.9678861228625
-62.1754863836734
-43.8708918669259
-27.3119589083255
-4.97760154590403
33.6477175562336
83.4157294328074
128.825867487802
168.596478985901
207.483560684363
242.294368566207
269.7634348712
284.999683012191
278.868307464355
254.525398987029
232.732696924855
226.95347537175
223.817909619281
203.400138751071
168.60258427459
136.264555193539
109.49086728672
78.2251699187595
39.8578730003812
3.15424475755951
-22.3160749185883
-34.8649808310735
-45.7538133086412
-68.268099117161
-98.019074662926
-118.23325108208
-117.561319392336
-91.7179661016539
-46.5252751626833
-3.97647368464066
16.5707884294423
22.369003745761
34.4705729404176
53.7338506118973
52.6088755147674
5.13004806708666
-78.2556186174166
-159.48501868014
-213.579450579953
-237.226857881085
-232.219835972244
-208.00519074126
-182.454805974093
-169.43501885618
-175.425667635712
-196.701116366008
-220.50999311795
-242.175414775059
-267.587925506794
-294.031216326896
-303.623125144019
-278.522357895411
-220.56481302307
-152.609099461203
-95.500186026954
-51.4327801200581
-14.6912451658902
17.9278329945813
52.7585990859055
95.8756111509024
145.950215765466
202.348947130649
264.122312288363
321.832928831409
368.032054708308
403.168861433074
428.887128255094
449.997599498436
472.105564366086
490.412931734916
489.53896501612
454.778007922995
386.024034734751
304.276862290292
238.171805560088
200.755968199082
181.777939981877
154.669285614468
90.2100667003204
-16.5496414957389
-136.562262746238
-239.408504970343
-316.850625722348
-372.941895178461
-413.344740207898
-434.739358274625
-425.057400234372
-385.616306427356
-331.547413295558
-274.725356335936
-230.890918547057
-222.031690979666
-250.919843352192
-288.251627337145
-296.727417740449
-266.876003812039
-223.649922075298
-193.246790761793
-174.647911668766
-155.376053417145
-134.434618139885
-113.06837116107
-89.0843745364427
-67.492753647889
-51.5470134923089
-29.6695404748535
11.5471617701759
68.0530378437045
120.338018114064
155.114720510883
177.482951682431
198.404781197704
222.88053882431
253.473583558346
290.786996417685
330.489050244452
370.468489466296
411.095397180177
444.254357061583
459.195494759816
452.830903811109
425.907266582907
389.557075798726
365.565679302037
355.544957609122
328.798047114801
252.648773057666
124.374667018335
-19.1551568460065
-121.623265522513
-149.524663192257
-118.100490871281
-76.5479325867566
-66.657220946324
-92.6197654536633
-129.75124907314
-158.478428193818
-184.562024430427
-226.634184522404
-292.031123171877
-363.778018600739
-411.220502950725
-425.339518224021
-426.672436339063
-426.495706463836
-412.429268245387
-372.272282659703
-307.153183975288
-232.775788055857
-172.972667514062
-141.444422859726
-133.911679775266
-135.979077151643
-132.910387985308
-119.952542261029
-104.415320419067
-92.0560766218628
-80.2369560348933
-65.6114866838692
-45.5416437664893
-19.5226608252105
4.30037434815382
17.4770257497727
20.2849205194091
14.6491510132398
5.23529053654656
4.4136527892381
18.6566872687485
43.5077354605725
81.9584221488537
149.56330569879
250.033728008351
358.054025480581
441.528191471714
492.435441288803
521.92840634601
537.131709267306
541.259292275503
544.620283548833
552.136761167984
552.18857408067
530.921558200741
482.155217483043
408.812803590482
323.39377610248
234.611366858669
142.755432272995
49.5530061267048
-50.0625322573691
-172.455792714765
-317.742971029152
-451.201431511144
-527.741508442536
-532.832799655433
-493.280452372666
-447.49992669152
-415.454281295512
-401.826187264951
-409.59671994471
-430.153136624925
-435.620821011023
-402.421801908631
-331.283939564069
-242.173726763806
-159.053804996659
-92.3624005942172
-38.3931474594135
3.53182212343994
28.8962335259988
39.9233863419759
44.8883838676195
47.1678966756673
42.0639740432813
25.9391252119602
5.55209492622226
-7.97930958323238
-14.911677114409
-25.0921448969252
-37.9487015713906
