8.55551030388374
1.79170091313757
0.234863154604
5.51195459271365
9.35060177738835
7.86991068639401
7.32498956524755
12.0228306527352
14.8250735917446
10.0553731283719
4.62062464587635
3.19245842232471
2.51378752397803
2.93979201013159
3.75283135631317
2.15514059210014
2.27660687710232
4.14993598212073
-0.0391502250638227
-8.05989129443524
-10.3965595848501
-8.0635287794847
-8.38216731173049
-11.4742955722333
-11.8819979751982
-8.14194622464031
-5.23982470869638
-5.5538744091246
-3.59607845074473
1.70698622482354
3.34615155057458
2.39476159731039
4.82967317842104
7.14857990518791
7.33334912589805
8.96187834294457
8.0410906434623
1.41135130537213
-3.84651411960242
-5.67981025171258
-10.7265860253545
-17.5629253523723
-16.9770835950451
-7.88140796720431
1.44954333301046
5.75215349078603
8.94092787317883
15.2048531134631
19.4967844969796
17.0855793624821
12.7167052130073
8.92680139616544
3.93464870858198
1.5328417128104
2.27506923167789
1.39276924297299
1.55475173109292
4.86347374849292
5.57457755536509
3.84212911233117
5.19242167460316
7.05089741450268
3.79075117819882
-2.26292099068027
-4.99868673756761
-3.8520965078299
-4.10360983721618
-6.87471549301313
-5.91254480521487
-2.13251399227075
-3.84505094764133
-7.46276822804088
-6.26306562431466
-6.9469105829159
-12.7385968517713
-17.3172842999214
-20.1777817942585
-21.9681799603345
-18.7624051423003
-13.3088911245276
-12.8393272158959
-15.2332884790485
-13.1926920224282
-7.35280702773315
-4.10498207020261
-4.73915839675286
-4.13686916095651
-1.26496137428179
-2.9815627740862
-9.73247234920539
-11.8441285331309
-7.49792633913049
-2.66650527014737
2.30475519692881
6.74667375524399
8.9446531272863
13.3094966326346
18.698380919986
17.7096943287957
14.6768121531108
18.6291499368396
24.9590280155349
24.8973339132972
20.6755635740061
19.3562712943432
20.9819498544521
18.9050697946925
11.7080153381358
6.6008116006389
4.7183662099318
0.472295582556446
-2.85927301375039
-0.455035166885249
2.32284509151013
1.59748535492421
-1.17447620092882
-5.00490187830062
-5.43428991088511
0.218297856630464
4.40800089828632
1.52228049390705
-1.57142686422826
2.23685804442162
8.39613133884075
7.60695837117359
-0.799173422044251
-7.34340334513904
-6.8054072323869
-4.83584291460443
-3.95659529683773
-1.20255988144024
-0.625565999626445
-4.6518382858497
-6.13413238500329
-4.35801169207552
-3.05140334295843
1.21234201835869
6.04988116968996
2.83706120235711
-4.54274815166925
-5.88984870105881
-3.16561055740578
-4.54707912991855
-9.45966858783333
-10.9429934915079
-6.98585487669717
-3.38820922016872
-4.35537460956982
-5.89511564207499
-5.39926884330585
-5.96668761160181
-5.95425877436111
-3.11011566291352
-2.65697419371714
-5.37926695915571
-7.22350992435876
-10.1910158202906
-13.1048231190262
-9.26305472124784
-2.92785234685872
-4.40178037826869
-10.1070992322642
-8.85391464916664
-1.57499315219479
2.42797057156451
2.38228058568336
5.31960564272344
11.4424484688248
12.7749652892538
8.69724806128184
6.66657718311029
6.00722588412493
2.80498000169646
0.881020803838525
0.959247166726618
1.06893886954717
4.76309181263285
9.1829078840047
6.59162822792477
2.39772683567133
5.99815544664232
12.229942821322
11.2920955827066
5.17266778030295
2.0434610750757
2.41266834686685
-0.441282436318179
-7.44594820993048
-10.9809471357589
-9.37372237509707
-8.32605829700276
-6.55372434399948
-1.65435493603155
0.667907337292032
-0.108096749111343
0.78026134282048
1.14464068768526
0.993844177480365
5.51179997719187
10.4597805962051
8.30101592552176
4.01109315169552
6.05945065340217
11.1096063376209
10.3671430842995
4.10989608043333
0.510583004256994
1.79947686064649
1.26974699084832
-2.46726949372852
-3.61179033216561
-3.47799766114941
-5.73339840846911
-7.09732659313545
-6.62746245071017
-5.16114898762369
-1.21451256706815
0.123641681318203
-5.41232179518593
-9.33738310688166
-5.9464188531931
-4.17503532735887
-11.3461493231432
-21.3123274173962
-24.7406080065159
-20.2981853693474
-14.5778382566032
-12.0037656239376
-7.88370860713656
-0.296708808529849
5.89863545467188
11.6693049241918
18.3101098067943
21.2646983390255
20.6714910424642
18.6162811736029
14.0880479001285
10.2222667610076
9.76660673572609
7.51778227442481
0.36029448613749
-4.78237082552656
-1.9578927916689
3.91496119304384
5.39131487969698
3.51855971537344
5.18707386738773
11.203792526945
13.7932466034822
10.5158032014398
7.37312758911855
5.66716352309685
3.04237010913479
-0.266299679168597
-5.45089721405432
-10.6588694603845
-11.1417353303974
-11.9368201229548
-19.5962818339264
-27.3127852734466
-27.4162671280918
-24.8057167101161
-26.8786308525726
-32.273994146582
-34.5773742638002
-32.5581102526567
-32.5853645937466
-36.590674737607
-37.1625744288574
-32.4405975865711
-27.7057916220775
-21.3534439304676
-10.9792786753517
-0.933475216766346
7.26927777548845
13.9966524847615
18.6803261525897
25.5676772927949
35.5925731045853
40.2223966955757
36.3718189386862
34.1414710253255
41.9388219512369
54.668278888716
62.075690978362
62.1881088243515
61.3166761372264
61.4139836706514
57.2834378915199
49.8682655947605
44.6123192555469
38.935717507905
30.7459989360063
23.6703432942306
16.528143366422
9.67929113027351
9.16997993334503
12.2657527679109
12.2266294826508
12.8233543760811
17.9739342366974
20.2118054348875
12.832568860655
1.98390049763478
-3.259910326703
-5.93109555294424
-16.084159610171
-32.7675426033934
-45.2418325355708
-52.5995964209292
-60.5907186186008
-64.7161380248996
-61.5037127727589
-57.9824776660981
-56.6868273459301
-56.004355920295
-57.3845119349759
-56.1882572266349
-46.1888250066961
-34.7119715344373
-31.7853284918656
-31.5200547137275
-23.1307143643567
-10.4813916628612
-4.35268662366958
-3.59686819106825
1.60859542640861
10.8150929524825
13.085896905358
6.4542875520037
-0.831100638799051
-4.74431118466705
-3.71435820978718
3.3828458760471
10.8770934064991
15.6475637880186
21.5404226899316
25.9989445897774
24.1364551641094
21.2328523350496
22.1650985516638
21.050840498854
13.4296730286387
6.02414643609082
6.24625098478818
10.1967605307906
8.83152471991162
3.0118735377356
0.567330765157229
0.318317350212231
-2.11183278928803
-2.05591713427209
1.37283958659936
0.622635743186582
-5.43052499340297
-11.8616898952825
-15.0832037828342
-13.4637781078359
-10.4949347787596
-12.1952140480303
-16.9823089565622
-16.2983727506797
-7.00672717989072
4.56342838578757
11.5562265115807
14.5800083638576
18.8074797730791
22.8565862363945
20.954486653419
17.0100472642178
16.9129475847269
16.2640027899872
12.8980347555412
10.0277422712821
6.98319278934506
6.49533189764105
12.4011639524069
17.1004702662783
14.3014375191241
10.8709179088122
11.4916949247057
9.87838226330146
1.84934427549408
-6.4810058138043
-7.5030716532914
-3.65246743983425
-4.47385256497641
-10.2223894894998
-12.4283782993105
-12.798225967263
-16.8376610549706
-19.0161058628157
-17.857127080605
-20.0699813602571
-24.1049201373219
-26.0165205956789
-26.0766612371029
-20.2122638211774
-8.68617025154157
-3.4721626787712
-8.62552881400733
-11.736299814252
-5.09193101171759
3.20398541671995
5.44686453671154
6.69433675018572
14.2057950639527
23.3513445087587
25.4463486560487
23.8270432188658
24.8836688032278
24.9291458911861
21.4505993829701
17.4553644282429
13.6711146738758
12.6056165370181
15.4847902466208
15.3710041153539
9.60905115909912
5.33359851628604
5.64909751526001
5.06118509483265
0.264798286028641
-3.79474696265561
-1.90201395336704
2.08966672070831
0.178277402483855
-6.18422206457233
-8.51123463620049
-7.35106698750541
-7.47873197582202
-6.24503194983214
-3.90411959312161
-3.92991512462909
-3.34688713361423
-3.21924708885814
-8.53908584300127
-13.9077599478522
-13.8943404083894
-14.5185532120332
-19.2260675555967
-21.0588825606432
-15.1722696675156
-6.82447638481963
-2.81333055049486
-2.01544535043895
0.162746196870272
3.04721904655162
4.41723054132797
6.76771890939479
9.7631653160093
8.3759333923886
4.6818976077452
3.42218936689242
3.07455616630952
5.01043912649657
11.121672888814
13.6974569872319
8.32363078144787
3.20606655618032
3.26223407066044
1.69251839782404
-5.93198554476795
-13.4278939483074
-14.4173603702941
-12.2814588549575
-14.0711295578855
-17.1980177628864
-14.2481015025952
-8.12228598404384
-3.85910920169163
0.873591848361545
4.43799550832643
4.67822594007871
6.6901291657793
9.4533548655779
8.32327079572755
8.11104845797891
10.8027262753411
8.63280085726533
0.760975616826692
-2.74518112087737
2.77378765721274
9.54509796087537
10.5988694982049
10.4026104127206
14.358814582438
16.4851849176936
10.6046353613854
3.67553748196863
1.78536275179932
0.229243272539634
-2.57016500534502
-4.28884857834648
-5.81167110816777
-4.78130860976053
-0.658215482275459
-1.76873779625348
-9.28074642699719
-12.7720531140718
-10.1133553330557
-10.1258840053304
-16.0005364856736
-21.314898875131
-20.0633172162737
-15.1783921063179
-14.2383510373024
-16.1230410812782
-13.7036902418467
-8.34783081853383
-3.93591516756747
1.65330495664942
6.54864015167566
7.6530910363898
8.77519598127233
9.91832809995778
8.13821653419404
7.96545096440486
11.0396348714806
10.6162421686199
6.21641898819557
5.74541229854983
11.4584856009834
16.5437099022394
16.0182283378946
14.0833113027545
16.3212165594646
18.5035110646942
14.2377178833072
8.30898440608268
6.11590908187437
3.82385216359024
-0.0060710116526326
-3.10835632308159
-4.49820613216952
-1.52315683437545
2.93851920937259
1.18759723101126
-3.91090982307878
-4.31793568127935
-2.60710694270989
-6.38839934700959
-15.1484412107887
-21.3747184167168
-21.0490878850587
-19.2726230729924
-22.4639879728959
-27.0872531639339
-27.551813565132
-28.0418042021324
-29.5906888280538
-25.3857998772093
-17.8595271958201
-13.2245077969117
-9.89104713370209
-8.36148439430442
-8.99892465247529
-4.89119446176656
3.75088753563733
6.82608976046493
3.68241438667782
3.96537706097384
9.81704983353279
14.3899396284959
14.5352292814231
14.9900286864117
20.3387556411437
26.9414209002418
29.8277529956127
31.7717141181276
33.8006895815811
31.602478428945
27.219832470384
24.2665766918206
21.676653750145
22.2990446776943
25.8558801401121
22.7868063025079
13.2939609380092
9.47054702175958
12.5470333148509
11.7980845865424
3.51332458688859
-4.49752186851266
-5.69395742860978
-4.98927825600718
-9.78550256433449
-15.663542014854
-15.0888888898951
-11.0672206537105
-7.38091784902772
-2.5391848905845
1.48836879180078
3.83998630522157
6.54545497104737
4.53050496769665
-4.25097761395305
-10.5924414984417
-13.3715050538462
-22.6000728203599
-36.5096729588348
-40.6758731492708
-30.4290459153098
-16.4438038567905
-8.50413425075614
-4.44876803306928
1.3262109893143
6.10487968425651
5.9520780610237
4.91699023724117
4.32470655745608
0.285317640795846
-4.61341036340277
-7.65770423813372
-10.0191731138018
-7.78014354211183
-1.7185983232189
-1.47145374403827
-6.2722897360802
-6.59401724422181
-4.04782659899212
-7.20899882035545
-15.1355538143427
-19.0036502473446
-15.1522839102406
-10.5170628352122
-12.1474803817789
-15.634506841295
-15.3325717387149
-14.587143479825
-13.2257596635889
-6.98794067443489
-0.799992891283972
1.09065831995569
2.93680265900409
5.32118637477537
6.9429120746058
11.1779892721417
15.4365678703152
11.1602955725214
2.28443495586118
2.72326631293509
12.6899872013324
19.1097545673541
18.0721655708408
18.8172144658685
26.2627387982441
31.9109041726282
28.0576329551417
20.6545794619618
16.9971012357724
16.0696202832661
16.8243434550084
18.1412867340208
18.5794081705274
22.2586212480053
28.5219911914322
28.2967742595179
22.4616843373801
20.6358774096834
21.087299608783
14.8459689605584
3.17749885424708
-5.11137687539909
-7.64848978483106
-11.2245155124842
-20.2579695706168
-29.0288420691645
-32.6172586907519
-34.4599555221216
-35.0190819879601
-31.5381457695106
-27.9468641794651
-26.4067090282713
-24.4655268721377
-24.4930388752251
-25.0017109722092
-18.3193939152854
-9.13877190301217
-9.38145213368981
-14.9954131351359
-12.8489050528719
-2.87062359524473
5.29429352823352
9.13356897890541
14.5056147578291
23.3916995147309
28.9238309807626
27.007774845196
23.1984519746226
20.8435678815183
17.580986798742
13.5249399180249
8.88372318870653
4.46305837195499
4.14769035509276
5.15047796503992
0.856528940410846
-5.49634700514578
-7.29168794116722
-7.1999825912229
-11.9617804499229
-21.5457889120228
-28.8676842574802
-29.2226351145016
-27.3189197006242
-28.8137358712045
-30.0984224624198
-28.1255092837006
-27.2578696495657
-26.3709103138353
-20.8871144568974
-15.0238478452305
-13.1380628605622
-15.2398456862276
-21.6974360508007
-26.3404629563502
-21.3654865608101
-12.9715161750659
-11.4220630651126
-11.8577568226799
-3.24100969534562
13.4881651858569
29.6305126439998
41.6951679740221
52.5443376834716
62.3843042268147
64.6871543379727
58.3500640770988
52.3295995564795
49.2708024295683
44.4824642498757
38.790242682182
33.4896097510736
28.8893724145633
29.7075285851799
33.2091382650153
29.8856260010726
22.9537672201792
21.8315345764503
22.4281901725877
15.2161838875662
2.8497846961474
-4.01480634552664
-3.30697357097545
-5.08202323548773
-14.8948788767914
-23.5858685123139
-24.5481413232128
-23.4483998364342
-21.7971988529916
-17.3943694150446
-15.1922969566425
-16.4268932316435
-19.6111424696318
-29.4431470493533
-41.738131361293
-44.3432638726982
-39.6497052129419
-39.4156637829094
-43.8325986783255
-42.5020399404475
-30.9732624003664
-17.317962099291
-8.96091444817351
-1.2658684625741
10.1727565990154
18.785661357118
20.912804602263
21.1525464510758
19.0904993887082
13.5885628080065
10.2652971334162
9.38804540901819
8.67481922014086
12.6624536890054
18.8460718606839
18.2608173371244
13.6444358589118
11.3337413626353
6.96134713935528
-4.38157529661542
-17.5500496652877
-23.6798546645966
-21.3546670413762
-19.3322838475392
-23.6822692365088
-27.458438849053
-24.8760676853243
-20.4575275266777
-15.108432295414
-6.95416894904837
-0.614417890621268
2.46943297963761
3.08981790082545
-2.45244726812968
-8.56535047287142
-3.74994369056239
6.26745798756003
6.87982007806607
0.0390311178027876
-1.09151681594534
6.87559522190193
16.7215943271179
24.1359791660189
32.5435006439259
42.7657075495846
48.2822591029369
47.2296104158892
43.7111982151116
36.5209268155577
24.6957206969749
13.7544549439105
6.14092979547531
2.66904298975895
5.6855522126993
9.2329962727932
5.70094069043625
-0.161513998928902
-1.85855500788016
-4.2633050518683
-13.8467456131743
-26.9581694387298
-34.9658434811982
-35.9076652507286
-36.8314425973076
-41.0127415862995
-42.2774871581879
-40.2023943087439
-39.8384919732085
-35.9248564576003
-24.4593284041907
-13.6410956923157
-7.44030967264406
-5.75308018233849
-12.1117753302313
-19.5658809425745
-16.5761085384064
-10.0799047163581
-12.9498283940959
-19.9849540811819
-17.8740990598066
-5.88156084212669
6.28380873193051
14.3399071578027
23.899595500962
37.2756468297907
47.1206428171963
49.9731846358478
49.6519138815414
46.1550973010852
39.8404717328963
34.1741645197147
27.4165497975483
22.3490288860395
27.6866325092227
36.8115159510902
35.7431538887006
27.4921928617527
21.6535412207214
15.532382673248
2.96839037958121
-11.4501280959656
-17.439167235662
-13.9216786910662
-11.9821952837788
-18.7429913390505
-27.2587423716476
-30.9173992037025
-31.1434873843956
-27.0706856375421
-19.0135673476928
-12.956546753323
-10.5069141964378
-12.8490636888058
-23.7685669409321
-35.6529971318313
-37.8638432779124
-37.7534601006859
-47.2566613154315
-58.829162002748
-56.2021573293951
-37.7070640698563
-13.4456640491344
10.763397165788
35.1589302345133
56.2230592513408
67.1701874123362
69.3105249473553
68.2058297396083
62.6904402980348
52.7229758356681
43.7021704224402
37.3203412444873
34.3431602898814
34.8492203883129
29.6149903928082
12.1187165044121
-9.29130076948128
-25.9115605530557
-40.1185022242898
-56.9783481218948
-74.3698463349656
-84.5966885949519
-86.0447868229239
-87.2275232981361
-92.0931145020658
-93.3900467371821
-88.1121798551498
-79.8275861135449
-66.2252913916498
-45.8110845969656
-24.9692453653204
-9.19132164907969
-3.5097760379798
-9.32147418026217
-13.8564753176876
-6.94956996951441
2.42317482556018
6.23613430554423
12.6309634845389
29.4453541696497
50.5416732229472
65.3789818439292
73.5504754837877
83.4686663989924
96.7656439083774
105.540169460615
107.880696172896
106.94657012094
99.9167007418369
88.3011350034188
80.5721397784818
77.7267729993954
79.638980124551
89.4860803260021
99.178792069695
97.8270926149307
89.2409814607199
81.0435904359904
71.9404870502599
58.361973367274
41.1907358911971
23.9040524539972
7.64992470453627
-11.0851888887813
-32.6267634929359
-49.4579075597774
-58.1469280345187
-62.2279868332183
-62.2175430298891
-59.9911262513509
-61.0683684006268
-64.7226811691432
-69.0322969230847
-75.3426703970184
-77.2224512431616
-67.9304447646558
-57.0860392835169
-56.2223301180026
-58.1480325316383
-49.624490979935
-32.1657697826859
-16.4184014956899
-6.13813299458244
3.23173995749121
13.5554165947593
20.5222729589694
23.8921685782345
26.6943961214878
26.2182074647059
21.1679130145387
15.3556811101258
11.062715344148
12.0802597325976
19.8773888856617
24.8963651461765
20.8075884062175
15.1531109865014
12.2107789184515
3.66661096510988
-15.5157412071822
-37.3618101507185
-52.5670136889364
-62.1531729475181
-73.6991640884932
-88.9663644728146
-102.018027276444
-111.24736911763
-116.699198103954
-110.650293402045
-93.2695373919083
-78.8712576605669
-75.808724721503
-82.2498972344013
-92.1236150375012
-94.3233123811374
-84.0004770640264
-71.5600274119335
-67.2007916444726
-65.9198994657482
-56.463177611069
-37.0945442867478
-15.2398265633216
3.83632531433297
19.9635884425274
30.3660749297522
29.8000566211935
20.0911814509918
6.58354362847799
-9.42280824826312
-23.4206980142484
-30.3623498263346
-34.4529626159985
-37.7156106500422
-35.479840609433
-27.8827510238546
-14.1987861509869
10.9130747163713
42.4543193852348
68.124441738028
90.1616814085119
124.7804503388
177.556191898432
231.561399109285
264.057027256459
269.800185051613
259.831016073311
241.433039104145
218.620458159765
201.281756081961
190.39581291175
175.87464941353
155.199063590052
131.099922381155
106.043655037861
87.4826278403769
76.7666233095759
60.922326856022
31.5947539910574
-0.888821931038271
-22.3474525032534
-33.1375200404602
-42.6178749225164
-53.4877378605994
-62.189498053651
-71.1859580324112
-90.2060766957618
-123.732771467032
-165.235185201472
-197.40711001628
-195.691167135661
-153.139393626814
-94.9961322441255
-48.7521638919048
-20.3085432900985
-5.17692095622649
2.45382056943369
7.74679008261763
9.28356087648858
3.19168544057544
-6.63136967941313
-11.0563251488623
-7.80389298423668
-6.04387794387077
-16.2891047289327
-36.4269731964964
-55.4879823697877
-70.0054703454708
-81.4485130616254
-86.3432509099085
-84.5314582303325
-81.7179085973212
-84.0736442512652
-100.328345534812
-127.385089150848
-140.321929932867
-126.090278770364
-106.483287969119
-107.837523950733
-131.457311038976
-162.876281268257
-192.046665680054
-214.636689920927
-223.121788939735
-209.992654103866
-174.585861966423
-116.396774400225
-31.1485565551276
78.3767208019668
197.569966833816
305.703121539387
381.241054495194
417.372012692811
432.056691215159
441.964512959361
440.863790109293
421.633001742867
392.863996285902
362.575942780189
330.513253980591
298.130802578055
271.242344768944
252.119613267403
231.048090954587
192.757471701702
137.171497568261
77.4907410696657
16.2508955899039
-51.3636819615693
-122.045157477125
-191.365944419642
-255.94480528552
-309.369005470847
-347.310609890648
-366.329253340375
-369.783422109969
-382.116860220174
-428.505851986794
-497.383291131488
-552.999748341549
-579.66412215827
-586.207083667781
-579.842409547661
-557.180684628668
-514.031721615475
-459.709776953282
-417.476769413663
-402.850117058377
-409.483483444677
-407.808057804639
-343.965493270308
-175.643646049267
70.656022207715
312.707261529757
485.866246483857
579.8141039851
618.157883181919
622.117672775093
593.507913092784
527.74337104278
431.952951210451
331.547467238631
262.347265439304
238.287627441943
235.64489257112
228.394693835803
209.380880438816
173.748501856923
120.783859956865
55.3124287134002
-25.6748639250884
-111.957005060914
-166.260817872872
-162.31751752776
-101.124380892865
7.6977133088457
140.010612249632
256.278090421183
332.515587016762
370.965141332734
377.705992205044
345.220508805695
262.992263636473
142.645957857664
14.1170068757522
-101.179754773364
-187.358248699901
-226.53012527589
-222.178165536038
-194.283649265633
-153.113590864424
-115.130010882629
-105.507204994286
-126.788890372773
-163.771058478835
-187.785370928457
-141.021327739693
11.4124265649552
220.725914871475
403.055891420183
510.842782464721
534.416482143508
485.59365903586
392.333775023136
291.81404793583
216.237353207924
164.213321765443
99.8628494736925
1.50594223993108
-117.85489037554
-235.244491713961
-323.209992222825
-357.01448935894
-340.747276400692
-301.329214868197
-263.133003381697
-223.552490681764
-130.417404095946
69.31471943295
339.52525298785
576.635449259718
711.106412943733
731.994771511835
652.853766550692
505.460275178513
335.313124081097
177.308671144633
47.2227483048976
-50.3217569740434
-118.332826915529
-173.369087435416
-244.774418577642
-342.524762388217
-434.004662778512
-478.521351398595
-466.446516205123
-417.669796457213
-371.815233799397
-368.211989331718
-400.099632817592
-407.436896899769
-350.923498532156
-272.518152113414
-239.15884874009
-247.131371406056
-238.74709090565
-197.54700366311
-163.641058421496
-164.019281281285
-186.794285636774
-214.533458668412
-236.260841899328
-242.738324778054
-232.638186804606
-207.095776794094
-163.730792081169
-104.950169795385
-37.1269008177722
36.0590865788647
107.405508305114
158.679956101577
170.457084027385
145.524718377109
113.821043134346
93.9398741459943
58.8332700779842
-27.5511606561094
-156.024866338414
-291.104218818229
-416.578676275682
-534.671826073093
-644.932015754501
-738.157662247206
-810.836253747835
-873.15016296353
-920.454504268479
-920.960356443871
-847.00857034069
-691.478444380523
-470.680137714228
-226.756174390792
11.6173222900895
265.144267346884
555.483188719085
845.308204075896
1077.26222078372
1241.68854332644
1364.71629076617
1463.04835472498
1526.92933797074
1530.21787348435
1467.04556785705
1365.49671145467
1250.41679262787
1123.5158981041
978.954035813176
813.705924500062
638.659973630723
482.759199010899
361.942263293615
256.097487686143
135.630046343195
-6.92604248539003
-157.944687245383
-297.419988030681
-406.284416180205
-464.791536898996
-465.708723081795
-442.920286055078
-454.626250956979
-523.11244528117
-611.336986160593
-653.222693130402
-614.507890828995
-535.877125068932
-480.493164865986
-448.658811745462
-398.179893067163
-319.610579529149
-238.231804536468
-170.947941571226
-112.419703282605
-47.6955987288842
21.3241478479755
62.535626028735
48.47964644132
-5.50184977520201
-52.2915991221757
-52.2891446307013
-11.7883309420621
19.6297472248805
4.01571576470356
-59.2039336468858
-162.910061370525
-307.697641773171
-491.729177393176
-707.018821185046
-935.73134221735
-1149.95127424768
-1330.03822800379
-1470.83922472371
-1555.98288311367
-1543.12343112353
-1398.28025605631
-1149.20963440578
-870.472036584226
-586.264054028251
-244.202244696163
167.198753265649
559.842640349534
853.423622411937
1054.01230445065
1206.5697266864
1334.98091728895
1431.72949648845
1484.82741579226
1508.08904293287
1528.84436800328
1556.08749462471
1582.80610528449
1608.74877805477
1648.14162133046
1706.94255472971
1752.05055501147
1735.30712100149
1650.0518542808
1527.70031422915
1389.39447158127
1226.62823432526
1009.82612238199
709.736404697074
329.590746754939
-91.8435308811111
-505.929476192034
-867.911941462159
-1149.91560462196
-1351.82181631788
-1485.31780113911
-1551.03043366466
-1531.68268667519
-1412.62042829705
-1219.68396907406
-1016.50346551958
-854.0123655973
-745.833519463781
-690.075841595914
-686.539750815836
-728.882167176273
-789.444846385185
-820.025315005177
-787.95322962383
-708.77280192276
-618.344227521583
-529.664912141629
-437.718925064003
-339.718185602718
-241.236914735964
-161.228511108616
-122.106387150946
-125.58692358153
-155.304759525146
-199.446958752144
-252.867176457437
-309.438302013504
-358.698051929124
-382.532320178286
-374.233803894429
-357.663061463814
-356.03524317284
-354.511432751376
-318.188446110794
-235.910920898097
-133.428655047754
-42.614720785523
35.4650020874145
123.524937075753
230.541400853668
344.336232587198
455.720398757484
561.300330169861
639.908442020967
658.237886548282
622.035642578945
597.986479273736
659.384279252076
824.50752229106
1048.46898758116
1246.12477171167
1335.35669908514
1295.74182480504
1175.06258709047
1026.53308554682
869.679473731706
707.308432845875
536.702684597737
349.391571402047
150.294372742992
-35.5929916138121
-194.488600020586
-341.0253167572
-489.148408376576
-631.774667445353
-763.356849853292
-889.895890506764
-998.081069887951
-1058.89119144624
-1082.79527749116
-1113.32221515573
-1155.00832860557
-1161.33326112259
-1076.22252490668
-868.170200852761
-581.440460744242
-336.094055144441
-215.041785957171
-193.110094631849
-199.200908474225
-190.761748800202
-166.792482469343
-147.108262698453
-136.988714943159
-108.742775543987
-34.5853967074369
74.8531848743153
186.376380842485
277.705317128874
347.617933158511
428.995264728941
591.43676724772
881.80288031875
1244.75042801479
1547.73551299348
1710.1914068759
1753.37040489245
1713.41539987987
1589.50471269697
1387.60022755145
1139.75062479091
872.393799537568
595.404892264185
312.506724277555
24.2908941245152
-266.323715330346
-541.339692512073
-761.545222925602
-891.923390344258
-945.034114297854
-971.881640600774
-1005.5911746518
-1047.18495370004
-1092.6720419023
-1134.66190464623
-1142.17507045192
-1058.80972318077
-845.977879249534
-551.50276011683
-299.446177748955
-175.372129781171
-158.168259412675
-175.232862800571
-174.145679065215
-141.440913612125
-97.6010524082052
-78.0677423646198
-95.6524878713866
-108.144155737254
-35.2597397429621
157.289736798546
402.667411241489
603.328619818785
717.342345614938
741.063701553091
678.291989187353
558.247403274894
438.142239803978
380.246235125967
414.149610761841
502.508101901685
587.235883577208
653.107457651088
682.798400337987
621.476632003116
451.286586000133
231.200903744839
38.043057328972
-93.7701947416649
-177.576555869458
-234.603304519948
-261.445314179772
-249.836423898906
-211.087556908254
-158.472224733227
-92.7079703107706
-15.1276397145417
64.0501371045267
134.85793485052
196.2103214761
242.841797489598
253.817972743727
214.266741305153
131.605094611263
21.9577274034027
-93.6113469935596
-186.93111165961
-249.358716067183
-305.634741261777
-377.554807754808
-461.244883022594
-544.766898768189
-610.770205932127
-635.455148588212
-610.574825774372
-538.763699716172
-412.582425446829
-241.081922732655
-74.8901064534249
35.0191797627628
80.2287460439502
78.6703370216089
41.7518306078165
-27.414487425134
-112.511075674582
-182.681624691478
-224.277704040404
-250.474362801358
-274.120057272257
-298.120469978146
-318.95342574181
-320.887022766277
-294.131793377869
-253.537409321482
-211.236634726791
-158.509201886802
-90.5846927277978
-19.7416635984643
33.1908447089371
46.8597032424034
13.9384141655606
-55.3352208732767
-151.074695481078
-263.611882495426
-362.776196168254
-401.254865039563
-349.99254684466
-233.144592015666
-115.21010085848
-37.9941277855576
8.74580740748207
49.4420225632797
89.7199602912032
120.873337211961
135.822574418059
138.167134130999
129.062870416342
96.6009302325252
40.345698219811
-11.4835769231577
-27.1675850837543
0.198528444113432
58.1022374464098
133.152402042846
202.826604783594
226.34223375468
195.100244412074
185.869117913376
297.935411621947
531.671422865461
781.719941174437
944.948856679832
994.768641179285
967.342335884929
911.460054520344
849.684898317222
781.382301691194
713.177527413903
657.571574991307
603.453951189697
523.724343793913
415.444103009366
305.846068722625
219.357883985882
158.64687567248
117.311828160062
91.2119822513926
70.5183314446253
43.7965807151231
13.4270124022838
-20.6066227684892
-78.7469158838375
-179.206751378677
-320.818929293316
-495.527153876912
-689.78611861475
-872.449359496131
-1002.66382484538
-1056.40860818362
-1041.98870441406
-990.419129205009
-938.415981088064
-917.755817639689
-937.955286542581
-978.09726890752
-1017.56124622565
-1063.14708373049
-1114.29499377523
-1120.01089084682
-1016.7104655793
-789.329620449676
-464.086720775534
-83.7815268353509
295.102516403189
631.73086160776
932.01049995991
1206.36826203325
1412.61328018698
1500.3772923533
1486.42609652511
1430.65568565411
1368.22339569586
1297.8459070859
1212.3239473662
1118.2279146865
1029.05477268593
952.344594377107
885.929463203391
819.577434224643
739.86758795326
635.689206927029
506.443440418016
364.3235610267
214.787761254296
50.5181869611823
-125.860777784876
-306.384180902092
-498.719796031152
-711.003119264771
-933.055996884801
-1137.79485843902
-1275.44919139986
-1287.70159204546
-1161.67270205916
-947.155790200062
-715.847479465949
-533.251165567696
-442.837748721402
-445.618477168544
-503.821071145987
-563.177858619981
-588.387212820722
-589.655129597231
-592.791105252609
-602.164595602565
-614.489142545761
-629.069494126497
-636.892871945088
-636.79732648914
-644.78242759334
-646.455051619101
-568.610259289028
-357.829226317452
-61.4948043183639
236.805658600107
511.654514157737
759.037634858244
940.126276160049
1018.5556179896
1000.37947071281
916.042113779474
802.628886764045
705.620185183179
653.335930039782
633.070822818767
631.876072231091
665.427069702441
726.062462598313
754.356552673332
697.754090638555
565.389760751714
412.852119145639
289.296040130305
196.430734490859
88.9155408503778
-77.0772902880386
-287.862575240167
-472.958918499393
-575.62243390873
-614.812452920769
-650.46226092308
-706.156849024326
-766.971842674871
-820.139162717416
-849.966317465065
-822.13180680466
-710.886987164372
-528.060644306099
-312.799906437772
-111.263700040545
36.796467612067
118.488615363418
150.63642736129
154.434100876318
142.430702188688
128.505756445649
129.498142845727
150.698552110688
185.180693393988
226.148052466384
262.886295994545
283.255781011419
290.515481276817
288.01463078828
261.624114401611
202.932719474663
117.189259355813
9.17971675580453
-104.664771136466
-196.308596344516
-260.934613258745
-319.454683838396
-381.892572814841
-441.77658086101
-491.401239184536
-499.159496620147
-396.661087403375
-146.33761621201
181.260768200923
455.195948258812
623.642857652433
737.81814207203
837.807513689126
909.134681974449
931.858538628567
896.188515917417
807.098932991286
700.360318715424
616.064289588431
564.40138675143
536.139002341147
520.71081904012
503.945171278791
466.803002315377
389.611198813785
260.076057456155
91.6478022818276
-72.1861171204459
-184.620914314065
-234.181231738528
-268.44336069535
-361.443485026231
-544.126163225947
-783.972429641732
-1013.50625838262
-1164.79416806057
-1211.12742030538
-1174.18473643728
-1070.11002565378
-882.149006690902
-618.756300925582
-362.80637994846
-206.479260824273
-153.408375225337
-141.877726899847
-141.129114972618
-161.672429401883
-189.154370507666
-172.72008285076
-83.5934394880192
61.0819592326224
225.087279817315
367.935835778016
465.529880389124
530.42479191452
577.988653050189
597.361552463771
580.145651566876
537.272199932636
475.547101371667
394.166019521307
310.966590119516
259.124944964866
242.760654535929
220.579344255941
156.54895141068
68.5684049655893
1.80027621494689
-24.4107304544299
-20.2824135387117
-8.76961028740666
-18.5377505784466
-60.1887851712899
-114.502277551246
-163.719747628855
-213.529012335212
-282.86259825521
-394.83319991618
-565.750383716316
-777.437208214049
-967.742341546018
-1073.34731702124
-1073.31672645025
-962.894096222027
-726.149615654103
-394.622259851703
-69.5119422326729
179.007976459699
358.270811994803
478.069008725232
523.542773728756
500.091431475266
443.944784509695
399.314064718485
385.281647477797
376.057789618605
351.687685101873
354.496848772057
429.19115047199
531.701212409084
582.10016733844
583.615409605204
599.157682815174
636.821805565005
643.006637982823
580.550868242005
451.033649791533
269.223017976553
55.990635540767
-162.348410549296
-366.473377697914
-540.933095193857
-665.052783650254
-735.535235032201
-775.766811733979
-799.068575679866
-778.821070382626
-661.516851296866
-429.957264005275
-151.951540142156
73.4386313715337
202.593976559731
252.063432218972
247.78567340549
213.448685246565
204.494309869782
297.459564981527
506.358690839777
736.415052111252
871.968185218799
893.868992425121
855.979985731945
787.46989670219
687.212383259592
568.903700187211
451.149179811944
332.261232806867
205.253002324048
80.4131916878446
-20.3432417247239
-88.3912223196489
-143.663176342254
-220.843203796903
-335.073212072322
-466.118276769527
-584.797281509052
-683.532838333825
-772.640885322797
-859.497762098242
-946.711100582347
-1050.15675630279
-1183.25371678387
-1308.86713690051
-1343.3842916027
-1218.13791794193
-935.532948088329
-579.666984036384
-255.499117691035
-13.7045477810525
149.799652769081
249.94665316198
294.254932349837
291.008875403319
257.796784828427
215.277313636998
173.316947287511
133.492508051762
99.9269709527209
70.2341514866701
31.4990544772222
-14.1460231108259
-44.1960030629163
-45.9985488693946
-22.3067148533294
38.0877095508732
168.793134364469
382.23036556777
625.998579108297
807.318683857093
857.565934410583
778.096781806308
634.324722610114
494.926067677807
393.135939009408
343.285362066844
347.156806550509
381.910855928388
412.555201616583
420.790755750652
410.424573794095
387.886490581267
355.321867112425
316.794077632024
272.818201002679
220.164742735195
161.953883403274
104.78063476297
49.2804028943831
-13.00664586483
-94.7480263130758
-204.21788390458
-337.162644831487
-461.697693861787
-516.433747831649
-449.926761658011
-266.708714018938
-27.0640113093655
186.100986213687
298.917068626467
284.180636497195
180.231571348485
50.3483213065399
-59.5714247803715
-116.41071044743
-99.7055336551346
-20.970021144131
78.1524218566334
152.15615063196
176.182103005906
147.607737973144
70.7030056728764
-44.435412073206
-168.190346227139
-265.279732222725
-331.646151881606
-388.77359144722
-440.922036096527
-467.491682545261
-455.988611469888
-434.72076661275
-460.345349746847
-543.590191679507
-621.408899303137
-645.107069903751
-635.925533509407
-621.723704076474
-590.358671865359
-524.635964506293
-430.63077133709
-327.569883972197
-239.077776515508
-188.607776952621
-184.275550373682
-209.772690533099
-240.65321565876
-270.47514422628
-303.764890262107
-322.664011250613
-298.676092765707
-228.430308282664
-110.289146981702
80.0006783202393
347.805431051762
647.40242397712
897.458266570922
1022.33759498458
1014.21984470844
941.651528716848
865.251794751146
777.383067280419
642.750372123298
465.815051131585
299.042390532085
193.151305288169
152.038942570402
143.825362937045
145.436231338244
156.777015173887
181.513208432595
213.519975710359
232.608686066726
214.998897018631
159.332604208652
84.0187927979468
-5.49853678140231
-131.971048172051
-324.472463938974
-562.150192226897
-746.676628327751
-779.917741821128
-664.839083579483
-481.186032385534
-269.092002733225
2.10698799707536
327.92434921575
604.488862370999
732.239483698674
725.102860797929
661.455596421867
584.427755252314
492.042633542681
376.43246569052
243.683791755029
112.620898221269
-8.95194405621178
-138.399374273673
-286.356541577426
-422.474696275734
-477.336636097725
-376.271160417244
-103.564628272331
253.753671094384
557.661222716523
721.801032091893
743.589191594598
649.965119549318
439.017639853949
91.8395077409304
-347.30488435839
-744.470446108491
-975.687970894176
-1018.51662560618
-922.856967112837
-744.591651992384
-530.087661248014
-325.791329350666
-170.654360333502
-78.4224309500999
-36.8948580890003
-15.9431786317562
27.7221038735418
120.892145022343
240.275748724066
338.363489115184
385.687817815722
362.788365907996
257.497329718849
95.5563253062184
-61.3913637063849
-150.718759437351
-139.968221655503
-54.8339128098536
33.3651112494641
71.1014926964008
55.2611583710005
10.5263626363256
-34.4720809044822
-58.7235957022283
-52.2498721841595
-8.93313785223398
67.1314640825503
141.52290692279
157.465470060248
86.1854957017614
-29.8129688212094
-110.102529580012
-129.306117594345
-149.845606378674
-236.338987813519
-361.788295132133
-431.256212338401
-386.791230837082
-267.190452623749
-155.788814996106
-75.7801463513481
19.7155351524987
150.633223647535
272.80883507399
344.115992512249
367.775145821091
368.782542126222
360.726645528817
336.147413038441
280.667878854792
194.546639976372
94.5806048659674
0.127479989401659
-72.2508130703295
-113.344655180462
-127.244527511518
-124.510751997319
-118.995181556851
-123.550078531395
-136.794076805575
-154.920843656845
-188.897874778267
-249.989857062545
-332.532213040701
-415.080309030477
-473.485480423743
-498.663080824329
-504.256983806464
-513.460715434896
-534.542066133515
-552.292661390325
-538.523736102342
-466.160487339794
-330.622634071587
-161.34440380419
-0.0877203631295183
128.009503857866
220.410904743593
279.087291165529
293.860853774678
254.717545539341
164.935064415914
34.4761397429374
-109.216847887985
-211.700938997286
-231.278376836173
-177.542428697745
-92.3168822818319
-11.1479078580304
54.4833988044923
126.987342365538
258.2804271106
469.168309005585
682.345483409943
781.236591889829
744.283031312516
648.983890747978
551.570818792652
443.341882245131
316.668461965228
200.573487367627
134.094232638994
133.195304221402
163.580802810041
161.746512928559
124.063507681017
149.066456031689
340.415645905956
671.490782669842
992.034705342369
1181.89256237766
1243.59974394871
1215.6153622674
1075.8605175807
794.613994175288
416.998885883562
41.2072928125819
-244.547230696907
-405.633764541859
-472.805473494441
-485.077793354585
-434.985096544676
-311.910587973727
-158.352318852768
-41.8121880846369
0.68825276291334
-26.6864501225895
-98.9374341353548
-186.843266531596
-263.38250187577
-314.133925619183
-354.610813257952
-427.42041175925
-575.271803772926
-810.21622388677
-1082.257478233
-1290.57160968767
-1365.2126242461
-1320.30118994097
-1215.47850722886
-1104.78229846002
-1017.09669064656
-950.190319549618
-891.436238400089
-842.356361309486
-796.09533082564
-711.535227583502
-560.560461074687
-385.84066414628
-257.244832627422
-187.480209116634
-130.732423612203
-35.4290435359439
136.454996646646
402.232615254914
719.533491349448
991.08552975529
1153.47981221331
1218.99916705858
1219.370961629
1175.19529708642
1115.82804804579
1065.93838800595
1017.80482488979
948.682262675157
850.953396031216
731.845446677264
606.602863146533
499.017954769696
428.203934276574
393.345588206513
373.392472472037
342.757690592014
299.485013586587
264.312226430137
239.654324182671
185.2921663762
48.50874989007
-167.136411398261
-374.993348068067
-471.588174766626
-414.701554498773
-250.06567656486
-87.9537810308779
-19.831774330937
-48.7526721912244
-115.036537763234
-163.058157092019
-175.295514775879
-166.88024162923
-160.598635486941
-164.868824539642
-173.259923454524
-184.697294623065
-215.61107973969
-287.327031523204
-399.473985110745
-510.995135646045
-566.020422944449
-547.036359911309
-484.067483582267
-429.251343442131
-430.028495998993
-488.340224866426
-549.526962252955
-558.525023414964
-516.878345184989
-471.199932897153
-449.356079972453
-417.325151791168
-309.796728339015
-110.839498207404
112.730345483863
276.720260235238
356.954607135591
389.148503483818
413.559528201015
439.676419003107
464.214744395875
483.867776455024
470.819594628456
384.414384970704
228.738439946279
64.4496054227805
-47.5784804003996
-99.550361373421
-128.358009228439
-164.61351995856
-206.330011198264
-235.86631163354
-236.954276581156
-197.892546819909
-123.944697260227
-36.6951919990318
55.1587680365245
162.943169318334
295.639478372484
440.520940864417
547.705552404218
548.588499451932
421.39062853399
221.108061927959
29.7158865948501
-109.344625112983
-208.687658734526
-291.711867154274
-340.690833925913
-318.827636512836
-231.91837898215
-135.312616508238
-84.6039331529983
-89.701991059625
-111.194981223468
-104.711990055661
-65.9371091297301
-21.7347295583046
4.27796396362346
9.50747354154837
21.4776996066552
81.5142179047872
198.639911158306
337.370086189127
457.619787348774
545.272145054769
604.148987253716
639.617024715496
649.08187322995
615.79446260428
526.971227321391
402.397263615179
277.679892016185
162.757818366209
48.278743793423
-50.3086712590165
-93.8459368339861
-79.8480986698915
-62.3942155999307
-92.5826884462617
-169.539608903696
-243.492090786045
-264.509980596251
-260.708736048666
-312.842906880394
-407.917483190642
-425.662218072628
-314.550510964133
-164.357095506528
-69.0004796058361
-16.3088990199642
49.9290704782128
126.86778540232
166.655052427601
161.896902846025
150.739172920989
155.276135010826
180.55470321171
240.664411675568
326.746636584867
389.14576167764
381.308288709432
295.304166818654
165.387678536788
48.7270049501649
-21.770214645271
-62.6526327581389
-108.976429897751
-178.462452948459
-267.274652677501
-360.710948665823
-447.028858787396
-527.918880543737
-615.622372606593
-724.248123047674
-855.071222703675
-973.868796445853
-1023.82932299394
-980.806636262183
-873.26147569043
-743.792098958324
-601.447229795599
-401.27949296674
-101.378972553197
241.136644995054
501.98581427422
625.668803083121
656.445471439577
656.466337554715
654.201859178927
653.943048164992
658.964253112498
676.786579237269
702.506696505693
714.352145512028
694.796628613865
640.50194543914
556.83481955637
447.032064893238
302.873065320633
125.355232337851
-71.2949895227272
-302.926542781836
-593.082030431452
-883.004559760792
-1047.21845098147
-1025.53216494558
-882.651440221663
-721.049269004857
-587.872509209266
-485.893050063723
-418.808741847395
-390.322045160283
-386.34392953224
-383.94442559097
-368.246321091037
-333.102913493931
-283.691071277802
-240.509032986058
-217.102862878267
-197.617508317179
-155.860995064857
-83.2345017870991
27.1194503319282
205.094114215815
457.871670271736
710.439952126034
863.63545870845
903.511582230123
894.259683646901
880.821127858259
849.894175195182
775.432494728366
662.415007116964
545.588221793947
456.580514816049
392.629902898963
328.441944452497
257.762593266525
215.488332239646
253.749964177442
385.631757240415
570.905164414316
747.173426809083
830.920578806948
733.102558644748
434.204664677753
24.2849145368312
-350.376594735762
-583.038777151382
-658.75502096313
-624.357523551119
-530.061566548511
-406.208221539559
-275.001548590195
-156.895843060125
-55.7394374555019
42.0219909389251
147.560943059907
259.808700105575
361.107397237748
421.325952361703
420.59043646651
354.610137730555
220.475365735688
29.4016258329874
-177.800029772283
-373.32107841462
-577.920064783344
-796.410947756948
-964.482103786274
-1028.66338999593
-1018.68130612638
-978.825370991747
-892.014734506704
-730.110945659289
-526.278052839651
-343.538773598465
-220.129329456498
-176.573762355417
-212.504124036833
-289.416754385362
-362.136689348951
-401.878990479389
-378.953319029933
-272.684280728886
-109.413791850971
40.1410515445416
123.004101305293
155.393062279054
194.067458477394
268.546002597683
357.262051399344
418.697798795492
432.368740268268
409.40500935728
367.207531959367
300.681052981864
201.896183895394
104.541675475366
57.3096403041856
62.724161945178
97.4984200233922
160.287660746195
251.557025751113
345.218587176723
414.040679014001
460.355729790365
503.632127803894
548.285149568991
583.616475058342
611.909709807456
645.49755566032
677.750323959802
685.290478594069
652.766344998501
589.837976628767
530.127452687851
494.231905680215
461.898151278226
406.416130591162
324.384235382221
211.825227078586
51.3315789173421
-161.576759780026
-399.924729932129
-619.644435052606
-787.964877409449
-898.719902190048
-969.273584439159
-1022.38169996359
-1052.31314124677
-1014.14895901281
-878.966573647367
-695.449081184989
-559.009583329452
-513.689099153247
-512.819817137827
-479.059228192868
-379.120476580352
-241.32308166531
-114.149832316184
-18.272948670218
49.1384052411462
86.4074395756545
91.2534812174837
71.2946531249939
32.6441641938891
-24.5378089517753
-88.437400387037
-133.386842487205
-157.398846929205
-197.943598124899
-275.683889359268
-351.433414871922
-378.175225167359
-363.146626487002
-339.033598103684
-309.726534126541
-254.98246085261
-156.330164606654
-15.033847675541
136.366184708171
256.803537110627
329.376158558785
362.721522585124
381.753087401265
413.431753669321
454.822727167147
467.662751333838
438.200920819534
428.208063264152
520.43230315096
717.549315496786
938.729856443762
1115.52419262646
1240.70502604598
1318.63850887478
1336.19902425458
1289.45269317189
1178.878403426
996.046114512617
754.074219295185
503.250188127675
302.267787993447
180.406524439374
118.001568769831
66.6379391194561
-7.2580570973601
-102.515435393384
-201.921682782284
-304.364215304768
-430.333712962894
-592.163025428329
-770.858388292677
-935.51230531528
-1076.01741709771
-1199.41059873509
-1305.61531564139
-1376.88207573405
-1382.52886362323
-1302.89089559338
-1152.34204445638
-967.651001247707
-778.614661626039
-598.882437564625
-436.859460525579
-294.525630084848
-158.738850884948
-18.5851947255933
114.859929453637
226.062862393646
321.768090214632
417.633780468214
506.532179051482
567.409118673266
592.169534994253
581.652751750326
542.553024467783
495.127194047178
455.217990671299
423.928364042662
399.634096518138
368.160984475552
301.686702664694
193.69804523888
70.6842914107936
-42.7464689496764
-153.53822648923
-279.756714286536
-410.310267057677
-510.997748920163
-556.739119507622
-528.728677897119
-418.912610649899
-269.380654610842
-149.816471174124
-82.7394533209541
-47.6803333400004
-35.6333360812841
-50.7449711310359
-93.5411782951983
-165.837512729219
-263.70406981743
-366.203291470468
-442.969126207382
-459.158134788502
-381.906291770218
-210.266082675669
6.55301833426525
201.380885474824
339.695967343969
426.257863670403
472.197932311452
495.800882147872
548.458743550844
673.675867514632
836.909981289687
957.261012417027
1001.82614839444
999.017493841062
983.083109403551
966.3685759198
943.64762176453
896.052058936792
799.894897503584
649.792999361333
470.73041393252
295.615441405268
137.829637591126
-10.4319518817986
-170.05235594737
-367.564894689437
-606.069379068366
-837.270996270841
-1001.16889404821
-1087.76774662668
-1123.20403253332
-1131.17069621008
-1130.01904062479
-1118.0393717494
-1062.65870282659
-937.854460258984
-756.082595958125
-553.4874707913
-360.295599254461
-183.669026688614
-12.0663015482473
156.677241451787
300.111973849532
397.472530850746
450.000652890542
461.094439260476
426.530134823756
361.686983672371
306.594250528997
280.445535465869
259.313834434808
217.52391572804
155.521974309726
76.9952494225587
-19.8362320106508
-129.885979980748
-242.574984432257
-335.098634905092
-373.107367787712
-348.873383661944
-294.563629443537
-236.327016649391
-166.400328264834
-73.2435820963614
29.6213433616659
109.955980236879
139.08398889006
117.912701781616
82.2903280929715
73.9543706859772
109.295944092217
172.289255540241
239.484041689096
307.356199120968
373.170811341414
419.513951097804
450.055571677286
495.862355249476
569.093055724325
648.561480511568
714.502449841883
766.082221837191
784.28689120312
707.373689104163
496.235091299137
208.745333991477
-47.8772662588157
-219.970886785454
-309.538178004756
-317.727168645368
-253.252811765277
-160.07712824045
-92.3917190466163
-80.0362785077978
-125.801624391912
-232.116102263935
-415.692362849482
-662.211733142198
-882.056111066871
-965.791329388521
-887.790279314518
-719.391918653732
-546.931447153889
-416.698270943779
-350.46974533039
-356.114496931464
-400.021045932319
-416.264975495437
-373.723915043246
-293.258816521841
-190.188993724622
-53.7616489731086
122.460090500415
325.216136283156
513.03333055683
630.215795656449
661.967285415581
643.295816432398
600.140418904145
526.671793922198
426.528189860728
332.584974453319
263.169307940402
187.796911467319
68.724575104507
-84.5866558167897
-233.942391697823
-363.182124448201
-478.459034799146
-580.334702111558
-664.204576749486
-724.163780540403
-743.559808846429
-701.750863387084
-583.028986960602
-382.638102224925
-128.403497717915
120.409195128481
319.57651970722
475.391398709534
616.73728446902
736.494039603876
791.9520180146
773.331989403208
732.23074756769
723.272133792198
755.751055004092
809.240651606967
852.555149129579
853.108502986218
794.568601154316
666.577388815754
455.096879541613
179.432636321585
-95.0444532000476
-302.37655487784
-415.169797481511
-453.990822075913
-472.812881430315
-513.434403626903
-559.853587501166
-557.39873123786
-495.033569600494
-433.487530027393
-418.232650553691
-416.555496403011
-382.624179331024
-319.180622111905
-242.382316736078
-156.24638030918
-74.5498382157492
-16.5558669589941
7.76806362058035
-5.67665819875969
-42.748448335063
-66.3503454392182
-46.8038005099269
18.1556043548672
106.234941591689
172.577902472402
168.109953477881
79.3281834608957
-63.4409468907822
-221.543296267761
-365.189193176579
-461.032011446595
-476.823279225018
-412.875430771722
-321.294925212396
-260.281446144249
-223.415456486867
-155.543264306594
-31.2231718460713
115.284054364757
226.461403055024
283.277996595246
325.516247836505
392.380193422267
468.775414856984
511.349516320354
496.151834339308
428.404054779591
331.720541336688
237.757575543477
171.275672600049
134.69759803583
106.641184169942
58.9646736854264
-15.1847433979124
-90.3694720615927
-135.53807287688
-144.64576694871
-133.792795577144
-122.055222416953
-126.84147871379
-170.6571078558
-271.662032886867
-416.521876014656
-549.738358089051
-603.604651350567
-551.581436914864
-425.509300007793
-274.475213715867
-124.016229382653
21.220666558939
152.872827397567
250.301458375247
290.566945532028
266.907502212607
216.253596482038
204.42430594725
257.808585002522
348.450936724784
440.381870225594
501.793687814654
502.784818728521
431.989052266863
294.313167812139
105.92068950922
-96.5218769167405
-269.693250226728
-393.442027073468
-471.105508239303
-511.886908626207
-531.360068461855
-543.04706006076
-532.199070852412
-468.58589334251
-353.261573763038
-230.20790433888
-134.224307489677
-36.6423168960754
113.411453967425
309.06803250882
500.208253471559
648.057934824541
738.662007722926
786.257787362419
814.068798328417
823.246632210691
812.069723466807
803.380516491319
813.902856145578
813.856099341733
749.543486767454
601.2343920715
403.581684552538
208.502885276254
34.1038681815525
-134.017818676011
-301.006390720643
-452.128534703245
-570.548792272553
-647.636435795321
-689.642990046557
-712.704505833303
-720.886912227103
-699.299439740505
-637.770401873619
-556.50621970278
-496.03406953243
-477.002295940421
-482.580035738606
-478.388425609055
-430.763819866777
-320.925451399451
-168.183015672091
-20.1554293195942
94.1096193201756
176.18958825207
231.665571858812
258.637480507766
249.114329863032
199.634639469135
129.672375897714
66.4157291415472
15.4926503886884
-31.9425363423849
-86.065367587368
-156.738483218011
-238.77504102198
-308.497727224269
-344.701156968019
-340.384362451846
-299.752796080117
-231.610240859861
-142.041212397568
-37.877019866535
62.331964409487
135.561644188194
175.444872634511
191.476822953474
188.492246365897
159.286776658783
100.515642877315
34.8328050632014
1.13005979294974
10.7879471133028
34.9145082630473
43.2014141759366
36.0223771720833
39.8316539956517
81.5777814656333
159.752752364068
242.019620428139
299.682712314347
329.877577771263
342.332117177072
348.789528065635
360.879644254432
381.348201338681
401.321062411353
405.941849290845
386.468967727588
351.048593436775
309.592435398171
256.495023925086
185.999229209501
101.564933305579
-7.27376312286014
-169.467902226323
-388.635481698031
-610.541352903551
-760.950386816045
-809.586416368842
-783.266915104574
-728.219445471116
-669.904866832148
-599.375276169417
-491.156265190842
-343.273592966732
-190.666818543254
-63.537690170412
39.0009258008216
125.482827530185
204.016742757481
287.959832056195
377.739026304655
462.881751925022
548.775735362114
646.576597822364
736.376574051146
771.67207993286
734.226798279807
661.878820947279
604.402748457159
574.619852941933
557.30023452973
540.302905421419
514.263341384398
460.916482505177
361.716809277936
202.641979335305
-21.1362119956306
-279.216826467494
-507.33533235703
-657.397041615485
-724.148559700916
-722.278460843331
-678.105606084246
-641.503873370481
-653.143360905813
-695.972843460743
-722.065485047034
-717.577491413183
-697.817019844553
-657.255750123967
-574.056921079194
-448.365040171415
-297.666735336267
-141.01044534985
-3.2787010707881
103.410848990834
190.493240755053
260.787175254333
302.128342397765
316.763635892694
322.895560921565
335.547991939543
357.032004140722
371.337554298433
353.269248970478
298.941991043027
236.495141359639
194.79540542705
173.916956365019
150.770609459203
105.001588637119
38.1283871566706
-36.4656933241884
-110.849522552556
-174.376449048765
-213.78669840135
-233.423655453674
-248.346725019865
-262.110234152956
-269.526501067853
-266.378071750807
-249.919173369988
-222.192279113619
-188.166500516798
-142.103432101852
-70.2550051142798
23.8212349206294
115.246998860542
183.117119700166
226.345353433024
256.90296030838
286.512618690164
328.684248643466
398.668940796416
487.723666475124
557.796551268304
572.058368918185
522.779260866247
449.223466885307
410.73184762814
414.622775687538
405.133435749073
330.528700336318
193.686112115501
50.4559791712004
-32.735113735831
-32.8921316922852
16.1586552726524
53.8656908648111
30.0043499200619
-63.6388678222366
-186.683251749955
-290.066295033923
-354.252478059177
-379.61384397737
-367.920845344063
-324.497637372917
-264.933128001253
-216.936303542881
-206.185845469249
-233.619865361356
-277.404735342254
-317.007559173549
-345.480739062373
-362.602379139664
-367.24915136957
-358.170034387735
-341.206676353403
-333.131075600393
-346.502688003069
-373.892663172696
-397.401895556488
-399.85081402062
-369.32574958373
-309.311603545085
-233.605598534426
-156.600412536773
-93.9326425507101
-46.2412317047995
7.02198336742136
75.0944948424566
142.693369229113
198.364007320354
246.942669181468
289.356672329154
314.574229319464
318.779545696846
320.980701313839
350.9463165627
412.53749607511
462.807418965546
441.975035286958
320.507800248883
122.114123441207
-84.0433656288251
-226.112611583077
-272.75941548205
-235.909740339066
-150.402864123411
-49.8010958113111
51.1770690078252
152.462547267783
262.219750229642
396.467721661729
557.189521928678
713.072817201877
829.811825293657
905.5012573288
954.322739943411
975.400478571181
945.979626018289
840.467900865974
668.122541346948
473.588468409203
289.132473333479
121.659887010816
-23.1662577573725
-142.4938855365
-250.102498299437
-372.608386659292
-529.379571582959
-706.657672565263
-856.656745338506
-931.573147960025
-916.135304982246
-830.464354202939
-713.451922221217
-605.997672379872
-536.110808733221
-508.519813843756
-505.521883306022
-496.21785807385
-454.040094183995
-372.058316154911
-263.091815704991
-151.993130539757
-59.761061974086
10.2616438320279
64.1735424728686
106.242004880768
136.709728796798
148.304469332307
133.591643833387
98.8308016655457
58.2997594573189
19.6965872637089
-17.9733863959695
-60.2426595358408
-107.865045043936
-146.938316120156
-165.457668108287
-166.772688544668
-141.155523769791
-69.9969634248187
25.823039031922
105.95356070103
162.528810479358
200.879099055465
213.222316894977
200.395145069814
182.031879694024
177.443971110306
195.510398099554
237.208856933925
290.722091698256
331.490101457603
341.855569308087
321.28480519785
269.537465759271
173.300855244842
28.7238070086914
-126.234463666777
-232.173464641453
-261.282395050708
-230.890960251513
-178.973009713216
-133.722226252681
-98.4934229536485
-69.7598170464679
-57.6354337149859
-74.1244479358213
-110.053081729299
-134.42872898915
-121.871926961209
-77.2698041314468
-20.1244592865676
45.5812409124373
119.698205454929
184.837563088795
230.169323297134
266.803497951242
302.201049932869
331.104813441749
343.841949615309
327.383615813836
277.810997864769
210.224789894528
150.463537676781
117.291022197934
95.7455075527105
41.357248488298
-64.7909881411677
-195.447665505469
-330.240193751875
-477.885719129161
-622.904903426026
-706.48536296499
-688.74083070395
-591.257113413552
-458.452328177621
-303.830167287922
-116.599214969182
93.1737529533485
287.659218192008
432.981018116198
516.541536241194
553.849959629406
582.299022294787
623.776168091089
667.407080959456
695.447640827329
696.045123646267
656.400373499287
576.605838964789
480.618139441962
387.644175586622
284.647644318567
143.711219131364
-41.9996888768277
-250.346645424136
-461.191407758338
-674.012194185288
-870.816038632012
-998.218728604973
-1016.33888460852
-934.888685361739
-796.50873602235
-640.810543867235
-484.437453135071
-339.073031569327
-227.757119444115
-161.902887862871
-123.235061195694
-86.4241374888689
-48.3172826537392
-22.4897319932389
-10.6699376688112
5.12200133921141
38.9461495084215
83.1221071296434
121.570326203519
144.772420278422
144.05816148503
111.396116816363
47.352682925645
-37.6744506111272
-115.678790086641
-143.689978270348
-93.2528977909906
34.1317442261775
217.536940945179
426.608160343649
627.687295117214
789.887041092409
897.75451279087
963.291618589414
1007.85908247691
1033.21947382112
1028.80400471675
991.382676213685
914.352792121088
781.973456299884
590.116866678399
343.158936896229
46.8292429876846
-262.148317952857
-525.403035379649
-718.447416542894
-851.643884101946
-935.995130738311
-980.826705877724
-995.653058779085
-977.558901171039
-914.65890285753
-807.735255321237
-677.877049162043
-551.560520473488
-448.359738697236
-381.232369157329
-351.646042496716
-339.604623853439
-318.785722977035
-287.775129917819
-262.068457141075
-242.254610514859
-217.688629716776
-183.824749515215
-144.878031448367
-115.716970458815
-108.514551982052
-113.565651365915
-114.128880532422
-110.238565551322
-110.772326377016
-110.334976677005
-79.1127353828417
16.820437807973
174.104616042565
348.898648401995
505.285130381777
641.366019756015
767.335358229943
881.281180021152
963.351015180748
995.478864236944
990.09612173299
974.793020776939
955.864635115021
922.917021185357
868.514973274584
787.322239504057
675.628045428423
537.053899378288
373.267257419873
166.490144859438
-101.79305215034
-397.777509205026
-636.549959167345
-761.568390484111
-790.113197741177
-767.519261533953
-718.765778612379
-659.814615535958
-613.966980663221
-595.958727820561
-596.04635921619
-583.359460135731
-534.473495551916
-461.295386744308
-389.94566897891
-327.370528729015
-269.100829821293
-216.782511436119
-177.298943577336
-154.407160358547
-141.436128942213
-127.25990142019
-109.866605968166
-89.9118121402408
-59.9659088438454
-21.0786537009781
12.0682744367598
40.8910992116571
86.203139643182
154.358961383957
220.379789634943
241.446462106336
198.224921482958
135.791720550758
137.392936194568
242.010042283231
403.609717625274
541.940631810683
620.119027186976
654.398986537011
661.600040086371
636.271706946372
586.64325891577
543.959801070517
516.081104013195
476.581122354097
399.93508496415
274.288251421421
103.785710485806
-90.0187876078631
-284.764227316827
-456.036374291923
-571.014848906546
-616.278692076119
-608.980146304417
-570.203026181686
-514.826400162676
-458.66736215658
-414.054569024042
-382.939785941011
-353.678089253676
-307.592644672902
-240.35513100926
-165.622298071677
-97.6653032992224
-52.3000547675012
-44.9280350309185
-64.2429012079177
-77.7809212660551
-70.7196489824375
-52.2557588536448
-33.9904026360205
-20.2872520449084
-10.5631488480816
-6.09523891726506
-15.4944704175085
-49.6621460579527
-113.096990972134
-196.634684890052
-273.70616391585
-317.782636543763
-325.474951427232
-306.467555321592
-264.229618596021
-201.506752060088
-125.140896202074
-40.2318809892533
49.6571077265527
143.809754776482
242.041238319401
335.597676463662
416.754734054743
486.916358397631
540.177144336905
568.412944340667
588.639391208354
628.755194975798
687.802782467629
737.767277397901
751.028067778869
708.18794502225
601.329538223604
446.613335703165
283.320148897039
147.589871919501
42.8571033522303
-51.7150890862546
-145.865102008137
-235.890770035012
-319.701789154359
-384.50307648969
-404.176124246133
-371.41819912263
-317.169682665002
-280.575747337005
-260.180450101944
-211.734639746052
-102.414633549631
45.8089576065278
177.708957447359
256.757173662719
281.02883181192
264.201780003092
217.731540351916
145.560879275821
53.1772244644114
-44.2590756320991
-129.583441951547
-193.596885697052
-244.996794522915
-308.571289409309
-391.340446781686
-462.491405676112
-479.902346223684
-424.729206841961
-321.089122764192
-224.853855659875
-175.380906623372
-165.715239878268
-163.920232724252
-147.407545570799
-121.472756021102
-114.643258716584
-143.554753639266
-183.509175429556
-192.609196827078
-155.504093776634
-91.4319675781344
-34.910771449544
-5.64566662922684
7.34578362601204
17.7903629596563
19.9097269682748
11.0181720674123
3.40628868986634
5.98905786487884
20.8599940959286
53.0042135282043
103.288175719368
157.76598316541
194.139358653234
197.760581569616
172.029689005617
133.958749197508
101.162081558465
85.9275013929457
91.8896353413133
111.628504850066
137.432302744357
165.005966214729
183.130590909144
179.876939221996
154.520205049883
114.960649987919
71.8177967457261
32.3686722384822
0.240844216181416
-20.9540647707782
-34.6293338997196
-53.501394168126
-82.8466949606555
-112.10183682039
-130.742167766599
-134.526283664405
-111.969192084849
-50.5696803193221
40.9218800079427
132.088469482946
191.834329171057
214.259750778956
225.215709564836
249.766626971792
282.084573114022
300.131883955367
289.372930653103
244.136061239897
168.21713159323
76.2267695750107
-21.5479245698085
-127.046540234679
-233.409023320374
-315.631700596703
-361.92505944192
-395.695945877651
-441.018098718809
-481.284179816383
-484.892246401126
-452.877434284084
-406.694835381492
-353.000928754046
-281.543791944981
-181.756134914743
-61.8819318604116
47.2449089077962
118.938007767104
155.657247841583
181.913660173054
220.96026170914
280.537277178547
349.923362723142
403.004960509136
413.134974158552
375.054754322685
315.296336238461
272.094477586681
254.699596686707
243.338288461771
224.916560616042
190.662844431455
124.130136796156
22.4776134273025
-95.8699563810428
-203.187512587869
-269.381794898904
-278.847110998371
-247.491475586511
-207.662623696049
-176.485568531808
-154.311375568729
-142.597513054317
-135.2719125011
-107.225316071951
-39.6823926821104
51.7831000256397
132.752330147175
185.514023601294
210.112692510221
207.50114824551
187.582932066013
170.644125334189
165.474370129939
160.082257934074
127.624595270118
47.6053222326806
-59.454271807366
-130.390419320747
-110.213111228157
-6.35669875888437
116.043005374615
196.01567595004
222.166064249222
216.404730579832
193.586355663344
154.9483252387
105.13832420187
47.3288349149381
-23.4334436394234
-107.743708534366
-197.33130742504
-275.30785120474
-322.36794621833
-336.325263073711
-328.717843747156
-308.340454542993
-286.460986124677
-272.541890703703
-254.989153991321
-209.753138737202
-127.530946786666
-21.9865439939513
78.2138529177768
141.170365380752
148.665123438261
106.801315370913
48.5644738419555
24.8116880783033
61.8612734620991
132.44674680805
193.206303205122
225.360362136645
228.625149634305
204.131402992636
147.512046242228
58.4475609602496
-41.3070632930603
-119.381291972821
-166.685853148862
-203.906887473196
-253.511849721549
-314.422661705309
-365.423823519301
-394.033820745454
-413.212469343775
-430.431026981355
-422.426489542711
-370.585617437636
-290.153675409605
-212.168303186191
-163.867943251443
-153.294010738208
-163.336405709568
-171.963688798085
-163.908428331346
-128.854666544413
-69.3756272699796
-1.01976094499871
62.4651413031611
119.248549867914
174.916653789885
226.941783395795
257.373635711985
253.985445825309
239.445303781369
256.627792148301
322.400765722536
420.75162148195
531.232747183787
639.410212077862
731.115215609837
791.17838317424
810.341501869929
791.18979692846
737.834945417173
650.299084281851
543.792552200981
451.06272396293
389.134862910078
345.398434564852
299.324351269736
234.545821648558
135.895973619646
-4.20753022785826
-176.298929282136
-350.78293534888
-486.031341139272
-554.329699973663
-557.069442978742
-510.217609303242
-432.807292178978
-349.247527377853
-291.930887564168
-298.256980126433
-383.132175348009
-509.251278245923
-607.520254730146
-627.014536558898
-561.819387308799
-446.139513680978
-330.335840956891
-249.598417073574
-203.95326598771
-169.996383725916
-136.232181398719
-120.096661395106
-136.334719751263
-161.860755292706
-165.198497026231
-150.884829920931
-140.291149889292
-134.929043001153
-120.317543023358
-90.5345045071856
-58.5261384356181
-36.3774730478487
-16.077824193484
12.1872469626917
38.8645991292728
51.2799589175796
59.5448723818941
91.5509097034071
163.139640437394
263.193544757363
370.003303445842
467.778237767512
535.84230465961
545.287456166557
497.986715958888
440.518833821402
408.917321553735
395.860981051359
379.526039991635
351.359618742436
322.873312682641
307.980213517066
290.734064076674
239.318827941703
157.419282217962
87.3805875853341
59.4501984326997
60.0341094636629
49.5966732115864
-0.288301826529342
-91.3615300537585
-215.532926721054
-360.925518923816
-490.111109536344
-556.721948749932
-552.860425199349
-505.169313182532
-443.497916273066
-390.396645526682
-356.475198133154
-342.344243340749
-340.892209054745
-329.820084421449
-284.104076675972
-205.859743193958
-126.037989242701
-73.8499746823296
-53.6445293496758
-50.7031221625754
-50.791789205234
-49.0036579045305
-42.2022000798951
-27.9794606762846
-14.8431312129802
-12.8323871817708
-17.7632171359945
-14.9432270395619
17.6832559604134
94.2296512413691
192.967904303877
272.358838264136
313.579444644856
326.429164875355
329.322953179165
334.833084516181
340.519574122689
335.963474689115
325.928285249685
326.640199314877
339.840266004352
354.792120252404
361.849032187262
352.25962090854
321.481525809553
268.549581695761
195.454428562312
113.374431759219
29.3345797504389
-56.9562295208885
-128.442507665259
-158.177125195659
-139.402342428839
-88.5849454983303
-38.6775011150573
-26.9041197313228
-62.7301136490678
-116.486190833207
-153.698270361941
-166.198217141754
-165.795523894721
-163.477840237452
-161.502112287801
-167.022488768931
-199.393479831506
-259.090080282103
-308.900305472335
-310.897126751881
-258.815732005168
-173.394629520909
-88.2343959286206
-27.9477382804682
6.83705183387824
24.7980344862624
27.9827011566122
18.9721400568736
5.429095944157
-13.8353325622942
-50.6564695161777
-99.3010191110115
-125.024206879024
-104.215811854277
-58.6691502614265
-25.7968364668902
-14.0203581811973
-12.2035481260789
-15.8191307848709
-22.7996844971283
-28.5647261653793
-24.7667400639954
3.48707762246964
58.4119531839545
116.479091823831
148.282847644569
138.169277168146
88.0666991932729
16.8918497163543
-48.6247141418431
-93.6345823611203
-123.254411923587
-143.995687979742
-143.695402708856
-102.528178652313
-25.8487639797047
53.8166757302501
117.938658190023
172.935694233626
218.839228194975
247.956119941711
261.693288051667
265.421265106135
265.960868236122
270.29074081225
274.735640160782
268.624394653934
243.297969806033
187.352588475483
92.4565860172809
-24.0026752665936
-119.051462597762
-159.009883896602
-150.114990765789
-129.395249173686
-122.97201426234
-126.209638218917
-131.664476326479
-147.596262451653
-180.707791965643
-220.485442967417
-238.135556300767
-212.897315344434
-167.542058253458
-144.63814604313
-153.841193483899
-174.346320762748
-187.615520751219
-185.803470551579
-165.922078146049
-127.650433387907
-74.2581206578188
-14.9323856805282
38.8424839551297
80.6576619797833
105.961818806316
110.028100662483
97.6631798923063
76.9100132504806
44.5819741665757
-1.45077882378784
-52.247634419276
-98.2136218087581
-128.194871118332
-130.609237069635
-109.851085053596
-80.1807097647752
-41.918109638425
13.718312465084
82.0663426042761
150.996609448328
219.360739169177
287.233740930308
345.034664091168
386.561293076868
408.506054659464
395.794113108894
343.464921972757
291.37642200962
287.542599834574
317.445107633354
328.0740143078
306.89016956113
273.728291688471
225.961518206134
145.519668324229
32.7592753806451
-91.2161278149437
-197.830276450772
-264.51707380421
-289.60301896605
-296.547894408235
-315.734709465116
-353.628266743994
-382.82527940055
-370.806993162198
-309.246981501887
-214.706805453193
-121.193633163642
-59.5305832516608
-28.681912558775
-11.6455675286939
-8.92645038243512
-27.0768210314744
-60.312592565975
-102.206838573109
-156.449176360255
-228.427500043084
-308.97041955839
-370.638157524705
-384.78931687944
-342.971476523336
-261.755413425948
-165.771717529439
-68.6716117081025
27.855252324242
119.055168960429
186.896708511535
219.359250545744
230.760802871699
242.714904047668
262.632634395481
286.051095667063
304.151442581153
316.545749545673
332.335039591942
347.015032616027
330.607983962976
251.483105918119
116.181180209194
-19.9163702568277
-92.5574824824827
-77.9181720193172
0.0073252792763207
96.519710195257
171.206753472503
203.323879289591
197.776261032101
171.337435863956
137.694658030508
106.405113769177
77.9106291296365
49.2811560497036
32.4559816821235
36.6452023137323
42.1507912958253
23.1537532046316
-19.8911584104888
-64.2856687451583
-92.1166516188207
-110.660181120618
-141.89708474663
-195.447115591239
-264.302406099849
-337.956395446672
-403.340650026428
-444.395980978208
-453.115141462459
-431.781296754639
-386.425272582249
-324.969916541141
-252.996764512138
-177.138131985411
-112.172177449275
-62.3050322159454
-12.4846204568515
40.0613826766416
73.7251631376621
73.5849145636012
54.1206702373197
45.552680962692
64.094437091241
100.317748969349
137.475241956621
169.921199563165
194.864108274459
205.608835915813
204.283849857195
199.96340759274
196.504558085154
196.215527737892
197.371040125593
187.698094822575
156.443086603274
103.746252714844
38.6152324221144
-20.0367599234025
-47.7014696701481
-35.1871912517497
-7.63687445428989
-7.12094455770874
-45.6489235415478
-84.6621174307504
-74.3113879282128
-8.29241504682071
77.9652716335576
151.324380955329
199.299744573212
221.025031625867
215.753766310167
179.179615363766
118.953734388544
59.5786355093423
19.0090057007088
-4.94921494354562
-30.5608747445254
-83.0819606456255
-173.374906650646
-278.112361412
-350.227122281915
-357.664188788193
-311.142576167107
-249.435265210743
-199.035333395973
-156.194968683095
-112.584265158265
-76.5568305412524
-56.2967100962467
-48.6033837417109
-45.2825427881108
-34.7190382015529
-15.0061029102111
-0.461105564583865
4.10128450367808
11.5652648513712
26.6578602059289
39.3932354892483
42.8014903781065
41.055722794934
48.7353967416032
81.2748977933325
134.99741520606
185.96510152035
209.530661690099
200.021215024673
183.676253599138
195.814137275638
236.247328315959
274.094767189865
286.842262186451
269.282383113159
220.559623667028
135.553034966054
9.65505136990907
-139.606863975621
-268.434300174876
-339.554907130784
-346.530652473117
-303.885448466316
-232.818920492068
-151.255309573298
-63.2444073784696
29.5205695411893
107.802018966893
144.579493533328
126.667111421209
67.4037783995598
6.25107222936817
-25.3822386835378
-29.5298647412335
-11.4897402787733
34.9241999005237
98.1800868130145
146.563203376468
152.717045989962
107.204601513619
24.4189429464253
-65.8569424735906
-143.666988883502
-209.387138841456
-265.225401888066
-297.859917239278
-292.628380438128
-262.811462777522
-245.932034845168
-260.636473987346
-282.878351416544
-271.683684296369
-203.3895148898
-86.8913688933097
42.5230056219315
155.196164519097
246.069859896638
314.7190545674
352.505716089957
356.535097792567
336.167722207289
301.502751602669
255.357741830573
201.010968431159
151.26240675723
116.067766409154
82.4013472966698
27.1430631612884
-53.4615997948758
-142.118859298872
-208.15628298826
-218.030713410659
-168.729135412636
-93.9144595803053
-21.1539506310909
49.5888026004196
126.255483660755
205.948505153607
273.346509828161
310.804704316966
312.803788312141
295.181114076641
285.843986349496
297.543188507829
311.714204868105
294.224287397867
226.817135360077
119.063484435529
-5.12715637483969
-118.111585671224
-198.661230962078
-251.548608778284
-304.253664708725
-378.160577264536
-469.13124266396
-548.007641844516
-583.43252065019
-568.832938052299
-517.582004771794
-442.95770384894
-356.058455971889
-268.600370284013
-187.53143925869
-114.013632969331
-47.6589639924797
12.5130042907912
65.7976261516252
109.509840592821
144.244354679268
171.989335681528
193.748193218288
211.667630632583
223.823243787383
226.712145366519
223.224310801311
210.749365549558
176.733381144523
119.432148015733
55.5618518637347
7.24422876773523
-10.7492943360414
-1.99786804927294
10.1479734964382
4.59805335451658
-15.2161182927673
-34.5223208115254
-51.1681615488231
-67.5411487820905
-70.2355432035736
-34.9996574904437
43.6237985117039
134.953039038062
197.726912721373
214.053040799769
192.888291718191
159.490344675349
133.731447970127
106.139999213062
55.3780945950335
-12.2801830602434
-63.8299383811985
-77.5556837444073
-63.570989111223
-42.3977061631529
-19.9323163240034
2.9459900305095
14.9982933781764
11.5384967024777
6.63457144443075
5.62543870601488
-5.46211844987213
-30.2793084539726
-55.2184647743558
-71.5354356269246
-89.7084848817508
-135.31765994659
-215.914333179562
-298.399968923925
-343.491314999771
-341.750523162115
-301.593330064369
-232.7667062824
-152.569596185945
-80.7225946064767
-17.6608237955846
51.3395854167263
127.200823488121
188.655626106383
215.321274111188
209.657553896345
186.012928628556
152.644853995989
122.84533324432
115.504064038664
131.013408423098
151.760713865309
159.255058000301
146.010661092172
127.715018372791
128.410481633332
146.530872724605
154.855138379463
131.221069013057
79.2175743506798
24.1485877094139
-11.0018562783619
-28.5367623741448
-44.5240534347907
-64.0386313230995
-83.401503229684
-90.1067655858897
-63.3542188145374
-9.36244668080127
32.1681674635912
39.0831744714171
28.7477655742803
29.520891477952
54.5784015593174
93.9986747683711
129.020754542772
156.407095471433
184.273923738722
206.356319117956
196.793783012959
133.977349988354
25.4767041052941
-92.7042421855991
-180.932147177303
-220.810982721532
-227.16252200131
-243.394645978316
-302.648437543307
-382.762397371147
-424.753078964445
-397.057598772482
-321.533113389551
-242.004898232072
-181.319459233956
-130.985793913695
-76.7094682258314
-20.2462248000778
27.7226645198558
62.8344604403088
87.1228823777148
98.9353532445844
91.2205787429447
64.646368892452
39.1321963781727
37.9464714921086
59.0488296482667
83.8850786731522
105.865035802306
126.625200869419
142.363312643101
147.486318745393
144.0775271142
148.672734400855
176.872747544995
215.214088086287
226.649673307534
186.415128885847
109.334166298664
41.3894673277308
14.7150094499215
14.271416842914
-3.7271110339464
-64.2815186729299
-146.422407201097
-199.728596750743
-185.854678844116
-114.203212486272
-39.8816440681574
-15.9446112462831
-47.3491350863891
-88.0813227028131
-82.0969607926644
-20.1469391673974
54.2494168426309
103.05072577202
128.324649117716
145.282090614138
153.732828339155
143.660707225069
110.377597859638
56.0245749187155
-16.621468131037
-104.065362349893
-193.494004684383
-262.584859992349
-295.339385670101
-289.978986319401
-256.921308292167
-218.666482180051
-194.513381958676
-184.386234191281
-177.235330199963
-160.283978826317
-126.116925169955
-87.7784994677529
-67.8500988907826
-64.0402828719278
-47.7870621557359
-0.675143314460724
66.9739781567818
137.421886301665
207.240316141074
281.040995784669
350.589606132542
390.061196379896
384.145315426114
351.541930172067
331.805258607809
352.626036959818
396.663268381524
411.627084167912
372.675791150794
305.25565933957
237.989201862386
166.279610180195
66.8173251265444
-65.9191579489266
-202.126153311766
-299.162946394246
-337.269538406705
-327.233693946593
-294.444282687684
-259.21223854332
-218.489638421881
-158.524719430846
-91.3519727852652
-46.9925482417851
-40.7152792429379
-71.9056753146905
-120.806274735844
-150.86819640761
-154.100871419813
-161.15242208423
-182.401067563882
-185.515525319629
-143.417795054562
-65.9147417882264
23.503520730524
110.19090596034
180.073453569029
216.765181507717
215.703031975417
190.616425648444
162.896262819138
142.903276303674
119.343715404464
67.9905930483448
-18.0270528554686
-106.768802664574
-158.590953485643
-170.181841305049
-166.260406262579
-168.849873007498
-181.424675498481
-182.08929311662
-141.906473059138
-59.9065292113438
32.1376965061066
100.200308572338
135.576672948174
151.412217623956
157.912401748822
149.840076963378
121.258132440352
79.1740788308492
34.9624421335346
-2.14117154725786
-27.3902549357814
-47.7487474697808
-71.0413682510545
-94.0985581657793
-112.175176820904
-121.869492273236
-122.20464719231
-124.954791561718
-141.165970579464
-158.070790314113
-151.653806667509
-113.834927869678
-57.2682454859076
-2.60843678170743
37.651592044973
65.9326694945271
87.4218755091426
98.9638852210762
96.9916934579796
83.1731421834168
62.6932547739504
47.340301377656
47.8610281140834
62.1187398386406
76.7863908056591
72.9359615583692
42.587542766635
6.18481995172349
-7.3762406095777
4.15616956192307
20.8870925857647
33.6635869685425
52.7430871076302
84.0901679140905
110.869853010104
108.41315402423
75.3177968131898
32.8748022553461
-1.91928839656005
-20.7444529736439
-19.4986590225964
-8.19957584800499
-4.6293669691852
-17.5295497417443
-44.8640499496673
-75.7816859875768
-97.6243641615619
-107.706627514475
-114.016065363126
-127.125257878974
-149.455266765083
-174.753958100056
-197.844943560868
-205.088196565047
-164.962677766547
-64.0323659504155
57.4984472601448
141.927582887702
175.307461603378
183.562696574451
191.395241324838
212.973873539105
254.944267244767
309.859831384404
358.921003717398
381.265543164688
366.602333027357
328.203758457999
291.719168675914
266.065609874973
235.921266150305
181.326763651812
94.1330676442375
-16.2015065499943
-117.907476003706
-168.203800255627
-146.657872725497
-85.0551818115833
-52.8208281662168
-88.7316391482681
-166.757555205413
-242.70467896513
-291.127899757727
-304.17413275235
-295.585899846085
-286.913015893636
-279.869142716391
-263.78507842254
-238.389201890729
-213.448105395515
-199.837879732349
-204.530568413406
-221.837139307266
-233.963701506667
-229.069819324642
-213.102682096862
-202.075537924649
-204.258034957521
-213.185820707276
-224.988503027821
-246.472933967843
-276.754278578334
-300.810123938361
-299.282524118424
-258.126990240074
-179.596179986755
-76.4178675037488
46.6638974783828
189.861149822205
342.499386028673
484.426326200294
600.848949595234
689.285842455545
755.501840402108
807.303903576831
848.630260448542
878.701116379363
892.028981946438
876.124036336142
818.768254334574
708.394310192278
529.080663014371
284.0556750482
12.1428940220759
-234.2525925893
-413.484677769741
-515.347082345553
-568.592334129911
-609.620171931548
-652.346651198464
-691.31579523059
-713.016173542439
-706.573084170608
-672.40651106819
-615.501161647523
-537.047243142711
-440.756414389642
-332.511219279756
-209.130695080229
-67.9279261556398
75.8918582781467
195.45131673734
268.409342991871
294.44987226634
301.102962072065
314.621241436545
334.030867508387
346.564512325097
347.730440616337
338.352723629868
320.210611098572
295.533981038477
261.741382391796
211.420229395465
139.210886719343
51.7415564709685
-25.8264671760303
-68.5244456451125
-77.0862875142578
-70.1845804132971
-63.9617547356204
-64.907710631991
-73.7324027720598
-102.18071250597
-168.125554706855
-253.765988988264
-298.781231874317
-257.813775130741
-149.335618749694
-36.1361862936194
35.5718007746431
65.138510355401
71.5702581057964
63.9852303267246
43.4085071241615
12.6263832296489
-24.793210120549
-63.5427021419783
-93.3638931272995
-107.821181796726
-112.254466969457
-119.953218568166
-144.202855811183
-181.205026070347
-207.357624591901
-209.069596392689
-194.061525010418
-170.815395800932
-141.735479669994
-108.388900653799
-69.1900509076245
-22.7304430548133
22.3938033657394
49.7753202731379
51.8459080554451
44.5132063753882
54.8653566557658
85.0690150573695
108.967743516721
113.183460569582
109.574614374528
110.695246927338
121.398390342115
134.228322479899
128.511835740931
101.455195855392
79.2543364907482
78.2766014442488
86.4072552768845
89.7375296716552
89.0564094348587
87.0550579167737
78.242487200496
55.1033635560563
20.2374336804167
-7.6066282264473
-3.52802329046964
45.7512432743285
129.660672417969
213.579760779116
260.776734114482
254.961493848288
197.548397367121
105.656457469528
13.8985740284114
-48.9042740847423
-85.3343775338746
-121.17901620579
-175.854179770254
-247.242719738561
-318.695240347222
-368.315890131639
-377.417105489204
-343.021964746117
-282.900737501444
-221.290435412534
-165.932466057788
-108.429187651423
-44.6136166048594
24.4581198755744
103.170701110025
194.750240552726
291.452485987276
378.733217586374
448.918628486741
504.417887413383
537.98513427046
527.054563813544
465.635851104596
380.208033791717
296.340938027897
213.744519460992
129.910652596074
62.2384443437648
29.9106092972826
25.0211326605798
12.1906544271874
-39.3196548499955
-133.255491212817
-255.57475706393
-380.733867549173
-479.560129426366
-541.3328332552
-564.783375677161
-539.931914863218
-471.454020368385
-386.944115021836
-303.433019555908
-216.116417478639
-121.315795257757
-31.874292228615
35.5480871797834
82.9705207721234
122.564999436617
146.502501082233
135.813252238785
98.8253428392098
69.0661713021356
69.4142989122709
94.9948159189559
116.98955236641
106.909715286435
71.8615876873194
45.2780595408507
43.7426425258789
56.7452500852531
61.1951104097805
34.017715147926
-25.6352773231085
-83.1158168913237
-98.9102283824979
-75.4368758927345
-52.8471072772459
-58.2161317875582
-80.9125559740747
-99.3237128363687
-109.067847648244
-111.036390498805
-94.5472467093217
-54.4162583777116
-2.43567868214767
45.332979890721
76.1776867194909
89.972406123531
102.303945601506
123.517761159758
147.369056903445
161.696754604204
158.635186803534
139.041185049991
107.934256043337
65.8840394199287
10.4837249814782
-54.3449503182063
-108.66556335921
-121.099443675077
-81.5878663727251
-24.439911106446
7.84089083883877
11.5301722354935
3.04642513089302
-13.9611745301961
-30.8100405292375
-24.7178856284324
14.0760377236378
73.2592366144336
132.973042923276
181.081527338822
218.3751401337
245.086980616007
250.464233604637
226.823464098523
182.61796002552
130.41381763506
75.9139071719827
28.0186072448777
4.5523637214135
18.0443440801141
55.7818908949215
81.178526542911
65.5512715938859
5.27374461900199
-92.2141260625191
-206.23033272951
-298.260947827513
-341.673433834933
-340.614666924508
-314.624106621727
-284.775206107155
-266.632367219249
-262.465521685559
-262.224326481844
-252.993055410072
-232.212044390935
-212.049989031267
-201.187347288194
-192.930292644903
-183.217954317696
-173.686215807513
-150.146660298571
-96.5009309772874
-23.7705426416133
43.1203318964921
86.5412264535984
102.647499720118
108.236857595875
125.409610137848
154.944502981475
183.906645264226
210.76960258872
245.114387666547
289.925230030601
336.445006834208
373.431012005115
394.474142841992
393.480286885158
360.140297298619
291.723776367795
201.176858122737
108.121289069604
35.7589890096619
4.92430098871704
14.9742954893779
39.96007650986
40.833991230044
-10.7119252000822
-98.8255866920391
-171.193490553659
-193.787027469999
-174.919333194221
-134.227180058936
-78.9135407997975
-16.1780565809577
39.2700609774292
81.0252722564493
117.636762554816
149.99473820605
149.295598727581
82.7092421939186
-35.7525416983131
-143.430333381824
-180.416469361661
-136.886711184928
-56.4644968239273
10.0117836229873
48.2837298241372
68.0960405821316
73.8194256691393
69.9969248265355
71.9948154314554
86.9490916804147
95.1317141510526
68.6680569197076
4.69718046797773
-72.0265152473172
-138.933159987793
-191.937482213107
-226.563507219632
-239.325759473289
-257.627067792545
-317.413334827866
-405.675981126226
-462.187285966263
-438.513395631955
-346.98846221428
-247.878354294429
-187.449714476762
-168.783354742572
-176.698718195495
-195.328868670527
-207.230589883403
-202.428400655291
-181.567686230561
-144.960192401813
-94.3762833193306
-39.5211641145309
8.42801270451435
45.5886790149644
86.6244695856001
158.137848541745
263.968585696157
381.958009030361
492.063493321915
576.896648573725
622.910611748858
640.631562286231
652.076931323129
659.842743536047
647.977026887272
602.53462534135
525.444153709847
437.197245251877
364.414922708849
318.942715116816
292.458533197048
266.138608930715
217.670981154899
131.787709476317
9.31113682186225
-136.866789921374
-284.25403868855
-405.301873881299
-476.575418333287
-482.760273109457
-435.445799328274
-382.014474143239
-365.030368761043
-391.374178434253
-447.87915726762
-510.563377073905
-543.94358503686
-525.297695950282
-464.606428782626
-389.129469982598
-320.005560036745
-263.185422086986
-215.213380051439
-176.364277978371
-146.623518318472
-118.520239419641
-93.5966786598238
-80.8611789364627
-72.830263450716
-54.798514024675
-23.4855148222767
20.178707189815
73.3680054295718
127.415707541262
178.033362094056
235.048883949778
310.46913069786
394.496407335301
459.563904725494
493.059749775956
505.426412396638
503.217903005387
474.97398051013
411.104318063958
323.498625276822
238.417201155157
173.75679514568
121.547096708406
59.7149429908869
-19.6451382124996
-110.883995721413
-209.31621047315
-304.04896219323
-377.904311909149
-427.550758835622
-462.579388286562
-480.567915032066
-461.14696593955
-391.216013675654
-287.060482519025
-182.049406209443
-91.8183524823403
-6.5117665118476
76.951954336641
142.813021832518
179.743250788539
191.31023875985
195.197120773927
215.828440066369
256.476983031495
294.586361511631
315.665045148868
323.988794096002
320.206682291864
295.558017780812
247.340343090248
187.324567469317
133.893197896188
91.3342679084277
40.0059881172864
-40.7406065884724
-148.421246968975
-256.803093163805
-323.822698715897
-316.142487924579
-239.586339643719
-133.533669199962
-40.5604989078497
17.8600264596018
48.9336795924811
70.5612042992885
93.9893313634948
126.815993377355
168.681603789434
203.929632811661
214.792769567022
197.00934312249
161.686114635975
124.62971926904
84.4296649483482
15.8591042018945
-97.0595082406195
-231.416965417136
-346.578765640446
-417.971417533056
-444.026977678342
-437.903449011874
-407.833846639212
-350.675311158437
-275.111679736757
-204.329875935877
-151.857182593237
-117.259355332756
-96.1071169757824
-84.1347973811108
-79.3292032410019
-80.9243040190221
-85.4054693636204
-85.7958506059528
-76.5878665143299
-59.9583167371495
-46.369815953042
-41.9752586210744
-33.9518509033933
-0.974439624416308
68.4683067848071
174.60684149239
296.751188835656
392.333652191292
435.87063697024
439.424079766638
426.171703060025
410.908846640533
399.679086286831
388.452794790823
365.899040739377
323.583849648143
264.540985311617
198.565499421438
126.124307525133
37.0956518935571
-69.2516283018824
-179.277594680813
-278.241309347614
-348.69333094573
-374.178387255978
-359.465895595543
-320.746050927946
-262.519583371835
-189.36877201436
-120.555329829803
-76.5747735268835
-63.6026208534802
-73.3354700650498
-91.3205807479559
-106.779164493046
-119.066089838176
-129.741293993754
-125.616729478114
-84.6398938881911
-4.36080849820202
87.4616013367536
157.990986098512
198.759704315289
218.143791915144
222.364539805851
223.582625752592
234.880272434041
247.677049830889
248.354284614143
243.846568695533
243.910099921346
242.286677779589
230.898624103556
208.17175097996
161.315093214027
64.5391313885731
-82.9784182792375
-232.074106499561
-324.62016854414
-353.598495495657
-358.050465788563
-368.813276559905
-377.17766967521
-347.540387218788
-261.812438068278
-151.904803682028
-68.3026008344096
-27.25005443274
-10.6240274823701
0.142316132989579
3.89215460044494
-12.6744435934829
-49.2502546627428
-79.7444460343348
-72.3279255051769
-23.8097543154668
32.9664751977473
64.4645453575419
69.1571191662072
68.3015487411958
74.7495830139438
81.5625579384038
78.0544604106893
61.0945839738921
36.0190935243185
21.0529692554469
36.9548419433238
87.5594529910205
158.685845837203
224.803709369584
259.415906575881
253.87124392099
220.694299796282
178.010586545372
138.524281832723
106.825415746304
79.7633611708048
50.949105550782
16.1457984857252
-20.587827520993
-44.5299275346737
-51.2466578804898
-67.1218567176103
-120.412535817358
-203.715635281313
-286.812693419519
-345.480545843414
-371.862440989252
-370.246280971026
-342.525672539429
-288.578667981482
-222.34286794548
-166.558047134052
-127.583508532456
-89.2100924974038
-37.7453413271445
19.0680337062287
65.7339428748599
97.4819802285956
117.334952007624
123.958126389038
113.056681288423
87.2716031023247
52.8024895065236
17.8194357026726
2.20790251626429
24.835585657004
80.4538450470123
143.96328089378
187.573106231552
199.562837727973
195.382098556137
194.80652664754
193.804528326688
176.230157586215
140.401718018836
99.0587309806841
63.2332106555374
37.1210483579523
26.753095377225
44.9275722405205
90.24635435404
130.69719658104
141.526531330046
140.087572915933
151.494947658282
165.593566881253
142.49191298945
51.5877989463697
-82.6017909197292
-184.224356640111
-201.558722543183
-159.306149166962
-117.031685027384
-105.650536476472
-124.584036758011
-171.372835267441
-245.295261361386
-327.35262033886
-375.037864123557
-352.825468019801
-264.06058313082
-141.331670956829
-18.4373812529366
84.8225989974935
164.212801765107
217.258969520083
237.19150222032
227.161815485751
201.457539903695
173.12169889631
153.238676067255
148.642251487548
149.697814835511
133.528554139639
89.3879533811259
33.4621091024217
-12.2316168038963
-48.7573715986227
-93.3548283082459
-152.591144452963
-218.706737223098
-276.920092407838
-305.178137605724
-293.297999220086
-259.756552131441
-223.414974228957
-183.016415247526
-136.823515623825
-91.2028383541291
-54.2030037524237
-34.0296955710345
-29.5705495821842
-23.7999126754203
3.37495710454854
57.1240391490033
124.522815321018
188.892126032898
244.339747079466
293.569193021507
334.713313020143
362.579515494669
380.986075647278
391.660343278307
379.474857612542
331.324224156864
256.357075653054
178.961418031895
117.417817229666
65.5716478182256
3.91930283620208
-71.0053399312178
-145.500873063482
-208.460868755793
-256.887828228213
-288.867283901395
-298.204723385656
-280.346118078113
-248.990223449486
-232.242097084834
-236.359199625136
-231.18785817957
-190.009564460563
-129.111465182072
-92.0822349906049
-99.3756762195963
-123.878633388405
-122.665779768547
-81.4502187879566
-12.9157659126325
67.7892395372751
143.072018503515
190.217299292046
198.670826728319
177.663695599107
139.094435783477
84.2244981968479
14.5473010327702
-54.7771920215643
-103.923442429772
-125.09597010561
-120.498474023576
-92.6813963510583
-49.9699307332908
-8.7505474061664
18.7411705675686
30.4841340540096
37.5037183569173
57.1122624559705
89.9519384108645
121.639142009614
146.208854851059
167.006537791374
183.796442912959
191.944576274792
190.425605215766
185.76468619325
185.313410261341
185.433644607137
171.266760662279
134.040852421467
84.0733637284149
42.9366700233877
21.4683555739267
0.384522703579689
-51.9316937370122
-133.798752079965
-209.330963787962
-247.980051490686
-241.334302974815
-203.785054940807
-165.696608126897
-146.591779819828
-144.385008024949
-151.755917195421
-159.272646993946
-150.009550669156
-116.73285117335
-78.4982504970746
-63.2100522333668
-75.432915695264
-89.5847182238142
-80.8045685395677
-54.2368748766903
-27.971919071413
-5.03512146898372
17.870126021946
36.0275897409668
35.908224663922
-0.0782865683020378
-65.9633476258163
-118.022584815527
-115.854387226766
-59.2270134463262
25.8310615302844
112.646188756754
183.095440782781
230.681400213514
257.958555052781
270.743101673672
277.217578732875
280.637726022003
276.907442461872
269.378340450375
263.626014119549
246.857616419731
197.850601433569
111.036760181428
5.58851683987538
-86.5118937024756
-155.472583740387
-222.6115656005
-296.244473767524
-347.19797003667
-344.794348193303
-294.574611551617
-227.876512361548
-165.297280950673
-102.861601402568
-33.3083491147907
35.1001060414545
89.5627530988995
123.601465698413
130.915135896181
110.455333936718
71.8130403833345
24.6920869481233
-16.453197614349
-30.8681130786824
-19.5133908429412
-7.27038218610331
-9.59260312259497
-25.3059438192748
-51.9623734630714
-83.5585409893771
-103.991994534586
-96.3758879970259
-55.2883014738296
7.12247193806678
67.2610008526584
108.349976230865
127.507293393392
132.488974433222
141.385556767972
170.049611721
218.667401352322
275.847817597519
319.666704964179
327.879315465027
304.571681824735
271.581295805578
234.045530289552
180.572567460117
107.639039856509
24.6318824894536
-60.1669902795452
-145.387376683348
-225.773099032232
-284.376205244015
-307.236875573518
-301.89896234566
-285.180155178283
-262.847833476534
-236.155687133361
-208.712954445345
-184.122981396104
-170.826845336992
-173.781105971106
-185.229334645291
-199.661272310865
-216.808378394811
-226.833485809786
-216.705388162973
-187.3676384197
-149.619690929265
-110.030760267751
-69.7791745763789
-30.6404476496466
3.23766835431321
30.3005364509841
54.7013810324292
75.9244024430482
86.4693844330985
86.4878577007871
79.4345527064821
59.9828436383807
28.3544372617091
-1.85847535401227
-18.8668689072984
-20.005902112776
-11.5953678533274
-3.2902054061294
7.22742609448621
34.508534048099
87.1723616745617
156.82988642687
223.432010574992
271.349097143257
302.275767258824
327.079317892102
346.564010429494
352.760562006654
344.041624045985
324.782560278594
295.663417710101
249.549660495747
180.517672520737
103.380652551087
45.3698344098809
12.2288664617659
-16.2912407473205
-64.1806623208319
-139.193915844556
-221.282628607618
-275.969039492705
-282.251300801004
-240.057421640678
-165.85381375791
-93.5083638588791
-55.7154926919824
-53.72289773816
-65.8620829869896
-77.661411689405
-87.075104945163
-98.629329263508
-115.457035116686
-126.464257965065
-118.587623791506
-96.941368149548
-72.3097643951691
-49.3924103540418
-32.6309434952073
-21.2932589574248
-8.23591501616495
4.76959865788676
6.48159083617658
-3.06737705441561
-10.1855136843566
-8.86540348545811
-5.70522195209397
-4.2186118091472
0.631842743927492
6.64065336109182
-1.93180200329239
-25.9036364497219
-38.2981441752625
-17.1197379551669
37.5257362186767
114.084288239639
190.973827323199
245.810811171833
272.225305200241
274.130806084448
251.71342244822
201.654315081451
126.185228479094
40.9827017797477
-29.2984430203505
-73.5555428390505
-105.537700642932
-143.814083675345
-195.135690691504
-253.856209889777
-303.217906231386
-330.239761339044
-335.537713248616
-319.151026401163
-278.194883445627
-217.671369244768
-150.198976388334
-92.5901399208444
-56.0801522772461
-35.3847175795998
-17.9310060278698
1.62069209683094
21.2254969161507
37.4214366254974
48.4926142347615
54.3063986479752
52.9936041149057
42.0746452079477
27.6063147545745
23.0924033966769
37.6621067513768
72.8122085342127
117.843823117382
147.495095065466
145.143218957525
123.277600694772
111.898650492508
134.032322699129
186.752900781747
241.926259766765
273.46360870398
280.859769293869
277.692541671308
268.767838737697
252.500047682854
230.36399602068
206.655725979233
187.691380049856
171.727191878197
145.569034874976
107.237414063866
74.4430489854195
56.5389206239876
33.4420313570012
-25.5627896070672
-124.748265744303
-231.434719089517
-303.515098098072
-318.659797450842
-281.222334156179
-216.887387547228
-162.48619541486
-145.79773870538
-158.997570018288
-160.4811833761
-120.496578978981
-57.6942093421833
-15.8256368666296
-11.4805132601049
-25.6064265394867
-37.5296832429074
-41.420165648314
-42.4353581703591
-49.4587386755989
-59.0289219068579
-58.8278589337789
-48.9247381388485
-36.9551431585346
-24.1101037594519
-7.45643549832651
15.1292468549371
38.7919899768939
48.2444262329959
28.4335264282441
-23.6543302059972
-93.7003826228751
-141.935934899634
-123.656285493873
-46.3954804918862
26.3091309475137
44.0146859676558
10.1125878421862
-37.0704248761346
-57.6945610578153
-34.4493377069778
24.3143055098852
93.3369071742147
137.487704026917
131.793586737059
83.7649579921267
25.4422847585986
-12.6551620736989
-17.6802551082757
-0.192589082561616
11.3873793367752
-9.97107624361823
-74.6157892001787
-167.891438420722
-247.181605779715
-271.617749689302
-241.023475928111
-184.588556024148
-127.514001309504
-84.3368300414295
-63.3977148605094
-69.9386623393121
-100.346312470954
-128.744222432762
-123.256208289571
-77.4298545060679
-5.19937031182768
81.1071210484123
171.100672319452
250.845850057039
307.98738242475
336.510226175359
344.214164687689
353.26481061536
374.494306377203
395.834242985363
406.902467765446
410.227179038361
408.12552204399
391.662389856637
340.672059193589
245.156758754172
125.82585652962
16.758644857721
-66.4992787873359
-132.272762149224
-190.517051128333
-234.321917196559
-251.283059856104
-244.079489494405
-227.760270824298
-213.828679117383
-209.249307484426
-221.506598659872
-249.982100327999
-285.798529856148
-323.003818547695
-355.522861895668
-375.607149956408
-375.525270561854
-342.44458158488
-278.043951051469
-210.514193555985
-154.821480873336
-97.0713825090557
-31.5554437246416
29.5917985454464
82.8604368537116
139.789452178101
208.028558645314
276.809277276335
322.138057979925
329.945112642926
307.190488714245
265.874730071676
220.22977350076
189.773468815683
174.685117458964
157.149484189228
134.875125675204
113.3920730458
86.3221941437971
57.8782762087323
54.2290891194732
89.773571731146
143.703096752774
184.257832397419
200.983758053551
199.702311850475
183.463086591617
157.532532348748
138.039734734658
135.259755212269
138.241496032259
128.108441172263
93.4989521899154
32.9835426137116
-42.4467962594602
-115.928998325016
-175.891463097959
-219.406302668628
-261.598789106203
-325.346246699546
-396.125343042978
-424.136373690791
-394.927196697818
-353.170861209243
-338.117224232772
-336.111168639146
-313.599023981107
-266.320686318671
-216.421213008802
-176.176346088519
-138.280219630454
-98.3545489185225
-60.7837841329239
-30.5007921348958
-17.3150038322627
-25.9019197319559
-38.4987022506233
-30.0998821913812
7.08599793179258
60.6507362473751
108.303673151316
132.890871827799
131.123025220978
108.004925036326
70.0924826701646
27.2201151043506
-8.17692418946768
-28.0291180923825
-29.6200523359692
-14.148468215053
12.6820829616846
46.924054096003
87.8988236806573
133.203877223535
181.53385574974
231.029615344991
278.218054482359
327.190750446426
380.641849743904
425.462631625729
445.955424101185
437.969665517181
404.791818875144
352.501616230261
288.939258500564
219.709480548252
141.50019976031
41.8050129303728
-84.0296765682544
-210.640882305374
-296.727519294367
-328.427250385141
-319.806899048226
-280.997903468767
-227.060424812959
-197.934468436657
-234.743922697665
-338.881186339092
-457.086077529142
-517.428856721035
-491.282130272722
-408.211060360361
-313.565004724024
-230.795487040349
-162.363066667514
-109.019457450494
-76.9630490739595
-68.7924227011581
-76.4805954913216
-89.443168942885
-103.869915489115
-119.053611778122
-134.875591028077
-150.300178708298
-159.04504098807
-160.048496998199
-162.33781705368
-165.556850321347
-150.261395173071
-89.3141450841904
32.1414684588729
196.447023136641
360.627251772512
491.167027513168
584.920233382029
657.151256356994
716.354887010231
756.355702450702
771.364714638035
766.858891860925
748.447095033799
714.593817100467
671.154778307829
630.300163547025
590.680081238556
542.858461857223
478.459217904162
378.024175626157
218.863095408755
0.389972947326714
-253.101912893369
-503.060765555839
-705.110107874286
-823.473583496922
-849.545199766228
-808.65227508273
-743.065276813964
-680.442633449372
-617.510215196986
-535.516777933315
-425.445487452523
-297.889326411719
-176.852595067438
-76.778451517729
13.0657108086733
105.112203615477
193.189488077943
265.4900481081
311.100877169827
323.036297416331
312.149976317136
298.939744368534
289.604435305442
272.419460266043
232.964988869537
170.144628396843
97.1209512283033
25.4277533152702
-44.5771290726843
-116.514925117639
-194.90832713733
-285.501559543364
-380.684606676524
-458.812762087508
-505.043143781323
-510.298474958426
-468.413609542475
-393.213035818628
-307.307210604854
-217.096433960973
-127.395817068884
-57.1112039961329
-15.8026443971861
10.7607316458331
36.579696379541
57.3475550327679
66.2635239584381
71.2622590322924
84.0148443851117
103.644686613729
124.937305471998
149.386378671676
174.391783765667
190.843451302804
197.806770392521
197.230357647993
187.235831977384
175.47725246643
171.543570058841
170.051463829733
163.885111918335
155.61149320781
146.75472932468
132.884576930494
110.367120891683
78.3942853338283
34.1124289110729
-26.2277624798264
-92.4172377181313
-133.576060746266
-129.778994513592
-104.8458490113
-98.0321870572012
-117.51537334944
-143.953241409834
-154.546129832282
-136.57685440071
-95.867522973008
-45.8403098226908
7.53122628680223
58.831344992919
98.9556416907156
124.64964931228
138.908625178486
142.409418157408
133.207501708273
113.234410490545
90.4707901414476
73.5579166439917
63.3044654931835
56.7576953008237
58.2218916602237
71.7033043476312
91.7512178123889
107.992911122238
107.437406832399
86.5821565669323
60.950699066953
40.4087532636734
13.8462649862823
-26.9471342606296
-73.3117263258042
-113.766259462892
-143.042940922575
-159.822883154642
-169.745173433359
-186.164219004892
-215.457351056822
-243.031405779517
-244.815459870204
-218.424467627925
-190.126188925708
-182.179741572075
-194.868302799217
-219.83347377699
-241.176138341452
-238.275442522291
-206.493277103817
-152.42031370487
-76.7863475812206
14.1027548101314
101.488742840719
174.298206324179
236.424410808719
289.342250109483
325.87144760526
343.097307284613
349.9996941409
359.037357455237
371.510186176054
377.38271026141
367.240495842712
333.09548457746
270.746186372855
191.041987923847
112.228384343107
47.2573199971414
1.15114438083488
-39.1187705298628
-95.3968573606162
-163.758652489908
-215.106997103895
-232.83961661889
-225.990522505568
-210.845288185605
-199.516208274866
-200.502830224688
-217.029357064454
-243.012136774209
-262.156933884994
-256.916576350562
-220.568012155784
-162.552060228928
-110.457325461754
-89.1570399219858
-83.6622416738218
-54.8367674716042
10.845132327686
103.965884974758
216.099916757935
329.817844368791
416.00046846155
459.362648775668
469.283484538324
462.857684979506
449.138436468881
425.668690102318
380.675711376575
297.632645118222
160.90662528518
-27.0410527997861
-231.422799335724
-408.415030946067
-530.865652045785
-582.430630057175
-564.601602593752
-510.254775990753
-458.568207370256
-420.689314399033
-373.428713133175
-286.650644575015
-166.323857225562
-53.7911492716713
25.5971656423665
86.7240790831994
156.416388614635
242.623711845488
329.580679550276
397.164324067563
442.023236590181
468.605091119809
472.601628362224
452.695922541656
418.21011231007
374.391668447881
319.990441442278
251.92898304381
161.972743955827
41.8656148906388
-109.236140005444
-280.821749993905
-440.360225348735
-537.076052416386
-541.595535818849
-478.686789067893
-400.756794877084
-336.517621908947
-279.772013370813
-217.888062000092
-155.608520067032
-104.543900784139
-63.0022107215492
-22.6178658614722
18.0914187937427
53.3023210466488
74.193481615457
83.5934230870341
99.4560490243663
128.076930096685
156.295720019394
174.578897704096
180.913081614585
170.256068121987
142.074136686569
107.99889185997
77.9341946175048
45.580952662445
-2.92148228908442
-66.5760186150725
-124.700828169078
-162.544584770489
-187.694503507095
-210.920285696303
-231.99339854447
-244.515700290036
-238.996019450567
-215.696484795058
-189.252487741829
-164.693556949577
-132.466262288014
-90.3360823153716
-45.3884352798044
-2.44698216134709
33.9294352130986
58.2463794018889
71.5988007481119
81.6676135546266
97.5751519183316
121.558481609389
141.427907907468
147.184834562256
145.313586361272
139.858999711741
126.157350576307
105.890268795292
82.7350483531401
57.6146769522707
34.9587459248321
16.5208424305315
0.62720161194807
-5.57572242818417
11.6467949269179
59.5663432616159
132.953791954662
211.368902365845
264.693978980044
277.56182672436
266.525379087979
260.880435737047
268.478707436572
268.002171028488
240.342678617085
196.736741063064
158.149219330567
127.301509041521
99.1703509237831
74.4434533448233
58.038991052865
53.6513860893903
47.3731542748503
6.83440621351017
-83.9058209915053
-200.237266223213
-300.923142231251
-366.285614054144
-401.572264459329
-414.800576006979
-406.540481313971
-381.3039173375
-358.852146840313
-354.272546044129
-353.029600923456
-331.526246668681
-287.721809643229
-237.861522877402
-200.40104920689
-179.792319021334
-163.272432585083
-141.221924234597
-114.718223427907
-80.3370753213203
-29.2338940840925
38.2197835887737
111.484830243545
180.762518276191
241.107897384712
290.316647522297
326.927832155993
353.923932126558
384.449861906549
431.946127411078
497.270596242412
573.051664540246
647.139465313864
704.73880495805
736.32790045251
729.891135865926
669.37911525212
560.430735578984
430.494673209759
292.435633991075
136.179296976577
-39.9657129234092
-216.590690234569
-376.527379026072
-515.691763175647
-626.247391668617
-695.31551746486
-727.598260983321
-740.642306861808
-729.227001947894
-673.943205576974
-587.033486547198
-500.696873061657
-423.072635407916
-345.539674059919
-266.040591616156
-188.622814091205
-123.256300529574
-79.8337552659732
-55.3750129795947
-41.9752423141039
-39.8704209335901
-48.9046676332987
-59.1565090944067
-60.0825975850313
-52.3835481689797
-46.1796793222907
-46.025144146383
-43.6163713652105
-33.1728005728658
-19.2953152996874
-4.44465278775362
11.2205844998979
27.0857097610531
50.942799831262
89.6260761288937
138.732501021888
196.597872501823
265.469260876471
336.342864160569
393.90335430893
433.835648057869
461.745301530144
478.4937851432
479.098460723142
464.454675799893
443.177436939876
417.913369688584
379.10404468587
319.693061425572
243.532158276253
160.085802491609
82.7703026917472
15.2107369848912
-59.4402835080629
-151.71178589304
-247.627735980519
-326.998072683481
-373.590562211785
-373.866118020253
-328.892177639646
-262.530590547961
-202.601268949192
-156.326231295294
-114.948897988433
-75.5767588196831
-45.5799185732488
-27.3888187391959
-13.3255956445353
0.0622664480573542
10.7809017363971
23.1035117504028
37.3015232332104
40.1492472534815
21.1462621482583
-17.7409869431389
-63.9516615850543
-97.9207827303364
-112.011663261139
-121.097393632372
-138.900619284107
-155.987777623196
-152.594376969114
-124.763033803643
-89.4082333227599
-63.4789735319387
-44.8975579556769
-22.1465623240436
9.16871033393885
50.5252299377121
99.8089495074988
142.883720378428
166.846934941616
170.11772908554
155.245630412417
130.836643936224
107.112251098732
80.6708241150803
39.8682109879059
-20.948406088323
-99.957432179108
-187.330666292599
-264.565147779697
-314.396663047307
-330.533674560841
-316.341715312983
-279.590199375921
-226.971235808796
-166.273554039498
-113.410009153991
-77.7081482222592
-49.219535278924
-21.1318535409576
2.89544818382198
28.8244019951218
62.3622420778964
91.4556067009795
102.600459323519
93.4134667354844
70.3852792018675
54.7505035598839
72.0457022425311
120.474796019543
168.03167216956
185.90471192695
172.920985075457
148.914182604893
130.347691252236
121.067248089297
126.712550280893
152.186107113658
187.597623921505
223.54526666869
260.965244724217
296.697314285953
326.928427275661
347.946073720169
336.045420203701
261.369690482879
131.494769814224
-7.08970847172398
-116.294530901719
-191.946515543722
-238.635562682551
-249.64014311383
-221.794775159558
-166.473115244174
-97.6298707504119
-24.8891453589629
42.0272446224491
102.395722261316
166.78572931276
228.867753052335
262.755590207992
258.952663573966
228.876672134409
185.492724534658
142.072276338653
103.374546840971
54.2372505836632
-16.4681338653151
-88.7932215264364
-134.271364113846
-157.688486146498
-190.986840280909
-249.13467730097
-311.781782413516
-347.684625330613
-343.839996098328
-310.737628371987
-272.818625573159
-248.380203345916
-227.186142587119
-189.83964237538
-147.30437156268
-127.197499065274
-136.575792555577
-160.486089265019
-177.28363090811
-169.375219614521
-133.139554085682
-81.7167865263957
-35.0657106254955
-6.46281714257404
3.36305445511457
3.06683432948913
4.67811199712479
20.6208382940727
54.0420724705114
86.1129294934265
93.2577187947849
77.7626454637162
62.6775361679683
65.5506550749989
84.1752241844106
99.451115494324
98.6219602465853
90.846931854147
84.479620977707
69.9819772547756
45.7119092186171
33.647931532396
48.3693225123546
72.7027721794464
82.6800129079823
80.2004153507956
82.5093266570043
92.1364191131137
100.870603977574
111.029566673256
123.86511351672
127.537495739382
120.634670970776
116.396330348921
119.207467513256
125.926998999623
134.436642810434
136.12926577907
120.158525683037
88.3994874364359
52.6346788473195
19.1231629449467
-10.6610774786708
-30.2351297698689
-35.157793003311
-33.9919413840745
-42.2240307354095
-66.6890524231618
-103.346482595348
-146.376910622616
-182.343541639513
-195.258042776831
-196.499565740947
-211.88858958539
-236.888137647631
-243.214351011697
-216.886325164377
-171.027988206736
-133.983129911674
-124.32800941695
-129.402060267272
-116.850889669395
-75.5535607046154
-29.5719579456156
-3.88146586938907
2.8482511365247
7.26243407942948
18.5651767521142
31.1672299953196
32.5967621714153
10.7282616412098
-36.3353020852957
-91.8829944341108
-137.392430818526
-165.974174221033
-168.670490343343
-139.425013915063
-94.2476418498295
-55.910307574767
-31.1591696437103
-16.0859855436501
-4.40821491028211
13.626953818298
43.797080247892
80.0393834399366
112.065904409354
137.918861414403
168.402249858635
214.005322487101
267.86801140727
317.476504932839
360.769667283971
396.082464528501
420.360563989231
436.567127883646
444.152665442266
438.583831299488
421.919924547808
396.193479391346
355.777711642227
293.263141708841
202.735963206146
85.7057709561471
-31.6414002182358
-101.721700851573
-97.131327990881
-39.8486145927031
26.3848424157054
77.50902326661
105.288220985905
92.4622456198308
23.2475261191422
-89.9960399186173
-212.674425268106
-306.104904617288
-342.697035207206
-336.355132810638
-335.672042970733
-358.781671329651
-374.202504914165
-355.607665750528
-312.629278872149
-269.069417204107
-237.22985707891
-210.731340009232
-177.501336835113
-140.139668915414
-114.775723019474
-111.344737570778
-122.470974721093
-127.866865681267
-113.561881019229
-87.4143888842664
-64.8930688625045
-52.4917003567037
-52.0009406454379
-59.2343723979264
-61.363129363115
-50.203749648575
-27.9602131873628
0.10772558787846
25.0413053980776
31.4849633709405
10.4108929920455
-24.0502179199784
-42.998921219923
-33.8888318893952
-14.7746215133106
-9.14673096835433
-13.6310145266863
-5.01629552833369
33.2326444485714
103.200785117859
188.667661587447
258.794386541388
293.64067656381
296.883368664787
283.889994260647
268.814760890713
254.021444666967
229.028637512142
187.463289590535
137.982907057117
94.6061199922315
65.4303844600389
48.397288189555
34.0205135520049
17.9269161951306
-1.77212316183659
-41.2097338291672
-109.89199068304
-176.897196092237
-193.845585401277
-143.087356737284
-50.5163923904318
38.5410432163369
96.0033753764148
122.939519009715
127.8469174096
112.13208904585
81.6307037714025
53.2059725981754
37.9292031973855
27.6541810117098
5.12669400780724
-38.6112309397244
-97.5209667254238
-159.90027334386
-219.974947735582
-270.652130524594
-295.297158575659
-281.383820683047
-237.225385455833
-188.712752031268
-153.799738194719
-127.084315901282
-100.526155391906
-76.4684699785081
-52.1860084984922
-22.1688918282179
4.61239116673904
13.552018210587
4.62515550812076
-10.7899564895129
-24.3337593691895
-31.6454880618913
-29.2444724355594
-18.8912241793222
-7.75474933778841
2.29472734037129
19.0858311481443
43.7380859123777
61.7180775162657
61.5024281172423
40.5804893542621
-6.12404126282528
-74.951515609643
-141.140492317112
-176.217929230278
-167.845808496464
-124.142533130533
-66.9838137027875
-14.014300353354
32.3900989057425
72.3887176203057
97.3294426042141
101.011998044496
94.422279346452
108.555268165269
174.973550000473
286.883006344253
401.146045751211
488.770194120992
548.835257047543
585.084698296218
601.31130548021
601.177906864716
583.472558356788
548.742785071224
501.038131235701
437.040977185582
343.887759851449
214.491607299858
63.3797583133013
-78.3107722972183
-187.562606685207
-262.539814586436
-310.768061576787
-346.883253962505
-397.213931996004
-471.316873117109
-542.161001081734
-577.559653828877
-568.522213912514
-528.670387435745
-480.89608811252
-429.919058996938
-358.557360654546
-263.160486693327
-164.658888311312
-77.9764834255383
3.11822271868653
83.9856971435903
149.102744471964
177.146881252075
171.405384697305
158.791180329055
155.59737064536
153.407565016785
138.929492694612
106.351686203949
58.3334782508599
4.75514534868474
-49.8481801530185
-106.231264382228
-158.586772731764
-202.058374372201
-235.355612266928
-249.721027299401
-240.315402722608
-221.346144326842
-211.286324780387
-213.164407668025
-216.914892817279
-213.339889382856
-200.539326029725
-178.205141101208
-142.770982457553
-94.6630914757465
-42.7726510507545
4.64904654568825
40.6965533378322
57.6741247138013
62.4268796093501
73.8606606265373
96.8581712223231
121.808877409109
142.074536603228
155.777116417144
162.443501337419
165.696937696954
174.167046740271
196.882768511818
236.246860543224
285.542386476588
335.637005582821
380.100097192026
411.596537827534
426.567661745171
431.050749134584
423.063519490901
382.942346305741
295.430837188336
171.999067194944
57.4125819196329
-0.209715875265738
-4.89946598107758
-3.04341115626835
-17.8900064693452
-43.2162819968945
-84.618265386226
-157.654752647321
-254.727970735454
-340.77608153036
-383.266819679078
-382.364114938763
-364.728944722503
-348.38390843974
-330.367671330581
-303.59456225204
-265.938987534229
-222.697658868819
-185.732150567069
-158.639354500111
-135.165528415094
-112.49554156809
-87.9155301325628
-56.0733160212844
-18.736646901747
19.6785057480636
63.4395246419041
117.211209179228
173.76715992723
220.323798949003
249.843835340807
264.148697125961
269.823805334092
269.324077984267
261.987032522396
251.269902556557
238.525369777881
220.003250559383
194.116769327422
158.122897882853
109.057780768218
53.1126571223743
-1.01759632386126
-46.8929874240831
-72.7950081051886
-71.967764383422
-59.8187593722908
-62.06853996241
-87.2509219769293
-119.513706783532
-136.779521136567
-132.538846982101
-117.330981063055
-103.850642260705
-99.0228851988658
-98.0274703309812
-82.5766968510729
-47.6652360592027
-16.4270350028463
-7.60865215739122
-17.1701962330439
-32.6778940712188
-37.8334894876607
-22.8273642491521
-1.64980693556645
4.8903011174349
-2.47320026447913
-8.80466371465828
-10.596532965152
-20.8139542266677
-49.9188045763471
-89.4472253789458
-123.748516450331
-149.051120134157
-165.520101798204
-168.515551549619
-160.253774020913
-147.96476024238
-132.495730416287
-114.370262952675
-95.9967016185042
-78.8229726031718
-69.7752817655629
-72.722552721811
-76.157758556729
-69.2272870651263
-55.4364748706396
-38.7458559579833
-13.9031645911636
23.9106869707938
68.4223995030492
102.914249887064
117.707648993587
124.10785080233
135.879196294705
151.55705133044
169.441090063324
192.450392731662
214.984994701333
229.160725552052
231.285764267632
218.590799051092
197.608011831305
182.025335196717
175.190247147013
169.441273375733
155.863475643581
126.70018802494
79.729724410624
25.4732784221934
-15.444905979563
-24.4454105280702
1.68666224525311
45.6444707669545
80.829301961304
84.5624711258954
44.3340964120955
-28.1084779502069
-98.9455515629857
-142.657983572545
-148.48062514254
-111.385933644554
-48.1016435050113
3.78698121357912
21.5667390255318
10.6405300642905
-15.5569312695709
-45.2256514569967
-66.3434116910552
-75.961847337585
-83.100742050436
-92.9126646053066
-95.5702486817707
-77.9312251994812
-46.0331529219638
-22.0691244870265
-17.4910769636891
-28.4727798788006
-48.3731754834946
-68.6162028074456
-84.5083171775128
-97.9428841811425
-100.932065107857
-80.8055344736601
-46.4595228887281
-19.8016796456347
-7.33646080459456
-3.11608093570972
-6.57363522514187
-20.2428084195866
-38.6058368646094
-50.6444792483553
-54.0841072427584
-57.7956724508086
-64.0622636854796
-64.5612230143135
-58.9657369438747
-53.0190085979834
-42.7718749629562
-22.0345174915758
9.9413641057394
51.1290057681465
94.9059774368068
136.995877155232
177.895535309841
207.385555539608
207.367733068354
177.257300552073
138.90573740109
113.753805945848
104.401053180892
99.1502102156272
90.9270593459607
82.6611327181999
71.1138230386139
47.8696792809943
17.8993537125861
-11.8712678704253
-49.5210478876627
-99.7844968423222
-149.220229419194
-178.058371658567
-178.309548442964
-164.579169045287
-159.586596779218
-165.454074537684
-164.090059846488
-145.168307096802
-117.140719094445
-89.411965731041
-59.4801906196318
-22.8592954209337
14.2213933168334
41.67278317135
63.6388586657178
92.031188016568
124.081721850914
149.228998179533
164.34810674346
167.493464046853
157.975999785257
138.755587107761
106.701669059835
59.7404071837454
12.0967333084599
-16.6391883914083
-22.1573809784781
-17.6836515097991
-21.7051241502931
-45.2185196098429
-85.606262327164
-129.389186167539
-157.432252929071
-152.925357481076
-118.895639642672
-80.1612381352703
-58.324624597224
-58.3543021398729
-71.3800428865107
-77.8422010490274
-65.4179778597898
-39.2731677709577
-5.66172037546061
31.2895612252304
61.4787011781106
82.2963363064209
107.378134873808
145.293776270842
183.412093136669
204.006461468007
204.841691762936
194.872461782438
175.640780265691
138.082777224053
81.5501618350474
24.7635630540038
-9.08740078465918
-13.6717420222172
-8.40824632079546
-21.7071184176801
-58.3693898953864
-99.05606725107
-127.991946112732
-138.258204356649
-127.668518630731
-107.745335831262
-97.8369501528408
-101.944713569241
-102.146509191169
-78.7125751174709
-32.7451032223308
14.5094249446919
44.9738564836133
58.558941892107
61.6366789125952
58.3061081590943
54.3709244726022
51.3072030723325
46.1572179289734
40.3246481163428
30.6297234888213
8.96532356017669
-20.3878134951757
-46.4471084621142
-66.8768195069554
-83.727866274487
-97.1247146252417
-107.832559797185
-116.56623883329
-117.802974846126
-103.162375926555
-74.507384078659
-45.6493485324033
-28.3462577249764
-21.4801343608692
-20.0034801473592
-24.3408320682383
-27.7093075648597
-15.7721056901946
11.5194973581179
41.2349136314041
63.1572431779831
72.8499377014608
75.2752807965726
82.7483724874087
100.884004975456
124.537268045742
146.933661372987
164.994090848177
177.334642313981
181.613897370859
175.331692608008
160.943432074168
141.242101959777
105.780947058782
43.7670941908754
-33.4058744038687
-104.768083625787
-156.562690892313
-182.907259981887
-192.502661278222
-201.021245263068
-206.586412312361
-194.198043645839
-164.300864713606
-134.363576291311
-114.338608136707
-99.4469633080308
-82.1351568045229
-57.5510987849359
-25.6698586832795
3.67124072137034
13.6752919162432
-5.30658517049254
-43.5628845516787
-79.6611625059135
-95.1124815996281
-76.5050776511593
-23.6161648315676
43.1759234008001
101.377763061434
141.778891944023
164.15186819183
176.721841545237
193.361241261104
217.83349386911
239.2204567904
248.457598307692
