-0.159021825877594
-0.323765898311714
-0.315709277418379
-0.344072815904633
-0.518460245488874
-0.646130330224979
-0.590345068468935
-0.419461699757415
-0.207439025540274
-0.0311062951443423
-0.0073670819073936
-0.0692964652909838
0.0265348868962695
0.300952889716148
0.485997893172979
0.433559492559162
0.251080322662214
0.0347302077473113
-0.18404068336509
-0.269417999128195
-0.0970861720743332
0.214255424136827
0.446178353126752
0.530430166216754
0.491780020360995
0.381655138903049
0.350003048627944
0.466213477279532
0.504004927908949
0.252692211000391
-0.131812465798569
-0.414461761364953
-0.61027437692911
-0.76351902089341
-0.809582555787504
-0.826826823246384
-0.964231865132894
-1.06635950688354
-0.849168235003439
-0.40050134410039
-0.0697373397047972
-0.0017906883182594
-0.118694055847206
-0.316585696521249
-0.446603780184385
-0.405677322121146
-0.332368357325951
-0.377923613288369
-0.379776591122046
-0.140493693825549
0.178103379330711
0.306058131043292
0.267501404202937
0.263604096719298
0.405949979174436
0.705886202088993
1.0678236864846
1.25862694879695
1.14538203875587
0.918678054562557
0.837289267925295
0.893206003382203
0.959843269594212
1.01729874685026
1.00586993964225
0.798262690213985
0.496660134799933
0.37220222823293
0.444015056142198
0.511843386475267
0.511107795683072
0.449720286525284
0.22405395716991
-0.166337960877599
-0.529039480866796
-0.812427799491402
-1.16588891926714
-1.61633338089064
-2.08550288283205
-2.63518361707372
-3.28833171319214
-3.80571907294525
-3.9818117714232
-3.86297054720574
-3.4427574902026
-2.548403226452
-1.19036772590533
0.350172372298023
1.77601570162737
2.80358617661053
3.16678664245893
2.93282991607831
2.54880088124727
2.32856686877272
2.17278543199501
1.90203362557111
1.52986102474464
1.13938788972882
0.798433938119973
0.61484720011371
0.620398092248567
0.666158569680531
0.641572522834237
0.615669562601024
0.60109289209983
0.494618876089365
0.364484432721209
0.389561511840568
0.486736220314655
0.43380236372806
0.255471536252209
0.0721209960055153
-0.182552808924909
-0.529354700188189
-0.785303011864557
-0.901089513195903
-1.0415428208566
-1.19646117335889
-1.15329003745557
-0.8723594904454
-0.491433315587459
-0.0852365767140712
0.244879343505568
0.298466585676116
0.0540096459306595
-0.291723414618502
-0.664874184606264
-1.11874532410736
-1.5340015412608
-1.71531704906509
-1.67831615621184
-1.54305318664462
-1.34744347123757
-1.13598759269382
-0.945142722208093
-0.634885494619729
-0.0552872664604258
0.645827671945378
1.20308005063267
1.60128779832699
1.93386964104585
2.10281588700262
2.01575234543543
1.8235750944
1.63995107974923
1.34600247468315
0.912252384355938
0.531390361292018
0.307124004989507
0.198649128234494
0.218980482386456
0.307478574127263
0.229192846265091
-0.0517022789014866
-0.233547549957658
-0.164331351665151
-0.0526595174512932
-0.0533669793794179
-0.0902279348122793
-0.120135961032931
-0.158140401611257
-0.135055480525823
-0.0707979834453481
-0.163855260130721
-0.460735767312241
-0.760476183901053
-0.974141475730489
-1.18829527579971
-1.36059978647581
-1.34933330472857
-1.16771016126084
-0.903693849204592
-0.580131103204302
-0.307351403326899
-0.285423451504916
-0.471617806731787
-0.520358526236802
-0.187963630986987
0.407643432276841
0.947471182231724
1.13089922748008
0.821007822194287
0.208164104258536
-0.291006397865068
-0.470330208490495
-0.465885188999433
-0.418868874334186
-0.39246993068382
-0.574178184706118
-1.02912126033145
-1.31851064104024
-0.89215644100692
0.226788215675802
1.5037837084018
2.39246165660906
2.54937090823127
1.96122427539223
1.0662902794437
0.392683410346434
0.035859067610182
-0.193784610209957
-0.302463761883759
-0.190231595535282
0.0344381344122721
0.157891029113885
0.078434450607106
-0.19999170447771
-0.529712467610638
-0.630223537219851
-0.419252037956843
-0.146320679350971
0.0208376969237807
0.212243546739647
0.49139925837327
0.6803886198192
0.677589988248383
0.570598608930143
0.396172403927405
0.147964135840579
-0.0320356311966452
-0.0293982162392863
0.0030469790396181
-0.0786381885012687
-0.117906415694774
0.0332654736489209
0.219182487277732
0.264477536983378
0.200769359975528
0.0673945647013396
-0.124191378612886
-0.234430007925338
-0.190671287743511
-0.185555065831573
-0.347408753671148
-0.486164287029777
-0.416395089663094
-0.19931248907272
0.0526796269847827
0.254921422051379
0.269428937607682
0.0849360560298363
-0.107352631910819
-0.277964179149678
-0.616980141814171
-1.01808851517577
-1.04487208842702
-0.610032644480132
-0.137846654476411
0.0516842257802762
0.0187759646941322
-0.0908881553030574
-0.167270913450176
-0.0923139587195037
0.0956172302523087
0.188687346642049
0.138318673020961
0.117385923216865
0.167393021968056
0.108211860598825
-0.168289597214132
-0.625365723141455
-1.22786011577189
-1.83639143637163
-2.12681051040917
-1.94045912903896
-1.47628559485206
-0.899739781407665
-0.109409055224797
0.945477681266681
2.07720469039264
3.01439746538514
3.45275406348974
3.16569628060499
2.36377771455403
1.61891920374319
1.21856696435319
0.985749401277336
0.779816516467342
0.658867540826285
0.566484796994608
0.367900292142222
0.112376053513917
-0.128061076220997
-0.448977051448338
-0.858896252749838
-1.1809252395894
-1.37822181687856
-1.58253226851646
-1.77762430562006
-1.85902469284411
-1.89464686594947
-1.95992752487666
-1.91074982400003
-1.58375582049794
-0.994223201770375
-0.252039338800938
0.416381560986894
0.623342531628502
0.212330009730037
-0.362535188711273
-0.431033054200217
0.223246787468051
1.35335857182211
2.57888888991442
3.40586866224867
3.36792640346982
2.52398934386376
1.44239155325879
0.535994101488191
-0.155822945510897
-0.596626265783666
-0.725424032268179
-0.689205545159285
-0.63404569148536
-0.464549570213905
-0.132111326872368
0.151950631695784
0.198029948895126
-0.0054688080719083
-0.448877931693585
-1.03593126154833
-1.45629294021721
-1.49576604954332
-1.31589902522857
-1.18609209770181
-1.21318078122712
-1.42238109141436
-1.69788362053282
-1.66184685191173
-1.07044972868886
-0.232884294734685
0.351026498058988
0.556077354042045
0.547248128320877
0.473336333982949
0.497683137728845
0.771346264998696
1.17946345585324
1.4390865277088
1.51556337133663
1.58480912478933
1.6163167439317
1.41143810720799
0.992031251435679
0.57036444831589
0.25888176730666
0.0834154954115098
0.0520229241032661
0.0456851328551221
-0.0723390972637858
-0.217426915708367
-0.238890065526548
-0.164434605571577
-0.0379862537224851
0.183676520893124
0.371721790466497
0.263359052341219
-0.105585694835026
-0.41762465839225
-0.538312206644005
-0.569846782222407
-0.557058805368348
-0.502262161068652
-0.472583479043267
-0.444045198240365
-0.326794911249033
-0.227933769667438
-0.30228391644471
-0.410443706528063
-0.358296619816534
-0.268912206937437
-0.291894433980365
-0.261931051872546
-0.0379241885974006
0.170303080766994
0.123673851231687
-0.130586267227757
-0.432425401812624
-0.640107031030601
-0.531061840605812
0.0114819468726062
0.678445649956613
0.976737583630907
0.745617684670777
0.167649788101404
-0.460180006029561
-0.699056365242319
-0.156818982212061
0.972345376356552
1.94068374429222
2.19132268272747
1.74121344344271
0.89421920983884
-0.0270707471725268
-0.763389910787918
-1.21938420842235
-1.38717910034705
-1.1905028603899
-0.695580029599394
-0.31146931813295
-0.362697740612048
-0.673633479902276
-0.930092273275343
-1.07602577739287
-1.03628268702803
-0.581186341911464
0.199027674932456
0.800863194572586
0.911519511838197
0.671439068658138
0.334261395223768
0.0905915282628877
0.0963797658418753
0.293196472008367
0.3687213559374
0.141199999925979
-0.2314867239628
-0.52871414470015
-0.669276883253167
-0.624215256416787
-0.465398966744105
-0.458656421724188
-0.751849570535915
-1.05978197761537
-0.964425111059526
-0.355369825639528
0.604568812685176
1.60665975895617
2.19272231935984
2.08631504586284
1.58118022590664
1.2011618750763
1.09242310878096
1.08998388501522
1.07906343652559
0.963805921838803
0.634905532724355
0.196212651331363
-0.120227827462821
-0.2994021987936
-0.441823046914329
-0.469555055318369
-0.337627873056178
-0.290101162671042
-0.528188557950553
-0.9099708602869
-1.22671408792151
-1.44289197860416
-1.57148450802453
-1.66577474478877
-1.87349721127505
-2.18355189774094
-2.33224628259427
-2.20434389828356
-1.96980699482175
-1.63307915690862
-0.920381843752543
0.174078481985708
1.20028325311286
1.81127889175494
2.10817723087138
2.32984341691258
2.58444646783015
2.88213102195098
3.06780997059066
2.83012937166341
2.08554410076504
1.16074398174188
0.410767781235474
-0.0693232527028011
-0.319692303874759
-0.441946066011815
-0.584338463622409
-0.723179430514053
-0.662224312580928
-0.429835275425087
-0.32136843007459
-0.421603723069204
-0.497724437491948
-0.411939333451005
-0.24487505383591
-0.0874285972480938
-0.0603687932628283
-0.331033311060643
-0.821525284560835
-1.19144945422495
-1.26090116259406
-1.08811702177824
-0.676717700235898
-0.0913514819236991
0.285942026015839
0.137079735660248
-0.318243191396443
-0.614424892612628
-0.555290128157486
-0.191685931099393
0.341979445383422
0.749831601376961
0.726072793962687
0.377621191048691
0.163627967071928
0.341325960519517
0.790106982662438
1.30635153886752
1.70822730221868
1.80164062678124
1.57146694681203
1.21641510938614
0.843871951207008
0.436704764306891
0.109312706590344
-0.0194191390079223
-0.114466819262283
-0.391609011357041
-0.76560257442887
-1.0182179156304
-1.0766242953668
-0.989956168365379
-0.932300441334885
-1.19904020913736
-1.8370337492322
-2.41705007014958
-2.50808850163042
-2.12442526290062
-1.46973431835009
-0.66885906242983
0.0489414339738826
0.408841483940263
0.48873678595434
0.62191398587914
0.910586502081246
1.21627487994801
1.46314536019535
1.59581724076023
1.47175947093378
1.0922714201642
0.70606338547245
0.496995708433159
0.416915361360345
0.401852396696464
0.44317044778851
0.420191417274512
0.199927481234283
-0.120163869789347
-0.369063028149954
-0.568812878764018
-0.790576444453638
-0.979770622877085
-1.10163773205781
-1.17220357881759
-1.10627626127516
-0.856487611097829
-0.603310842002048
-0.506040245962434
-0.488650612142235
-0.49579829081011
-0.617503236341605
-0.812057763490314
-0.903773115006924
-0.904140285641948
-0.939891579876226
-0.94822277936812
-0.817112335581383
-0.623889557947258
-0.435671786854086
-0.187865620633991
0.0689802071755778
0.230136040806845
0.477836523811946
1.05276184135817
1.75436387811162
2.17160896060127
2.25671888757595
2.24218073584129
2.21760798377475
2.13196570710404
1.96182347562805
1.64511499166704
1.11811752112757
0.533503385050339
0.135497206236038
-0.0911054470583473
-0.294755341753893
-0.37481455857023
-0.137093580052736
0.29941311181895
0.617514881513777
0.659888464155325
0.46394571377657
0.188972307975135
0.0698854221925294
0.164459780090864
0.248300229224799
0.215416488991258
0.296223497164662
0.628994290076921
1.00164304080628
1.22005465120655
1.31533609366455
1.28086266678917
1.01838047828332
0.56069239287451
0.0406355905267564
-0.394685274572365
-0.440177027834492
0.178144509735294
1.14693351585598
1.69036083668263
1.443929798312
0.78143726865174
0.255586216973503
0.101198138683197
0.160090949001795
-0.0337945927011561
-0.86937607820243
-2.12636654455413
-3.12041825306639
-3.50300767106279
-3.56599327503578
-3.71391031900285
-4.03533209380389
-4.37680368972971
-4.44234725507837
-3.94829013620562
-3.07050970598297
-2.4769583718424
-2.54786050127111
-2.93170661800874
-3.14455317006891
-3.1037879591979
-2.85595513284184
-2.33194881640569
-1.57293781195173
-0.799713486092726
-0.194489534147356
0.181253261621327
0.401899100907777
0.69906370321747
1.18554066825735
1.5957027946314
1.66971042280081
1.64260677446648
1.93158871157417
2.54602235251365
3.16834439037163
3.5508838626021
3.60250193990198
3.41781696451598
3.29653088140296
3.36939677178404
3.31356794159387
2.83768035080193
2.21715044463193
1.93490904009586
2.02717676667968
2.11126937035512
1.85080911153917
1.22627111623792
0.588256533471767
0.473147611327484
1.03653742355667
1.69700442765612
1.71672566075364
1.05670096455288
0.300314771249936
-0.0755803988571823
-0.0049575254243155
0.306568184218927
0.512465701001921
0.374397052328957
0.0047618391134122
-0.377427570392526
-0.789043903811665
-1.28299068896831
-1.71532419777924
-2.03192274637431
-2.4074192527424
-2.81950872480379
-2.85857451242094
-2.14384017396658
-0.663793876529886
1.21172253971195
2.77274643516896
3.31785265331661
2.82072202627419
1.94564189392252
1.20119842377118
0.509420375138378
-0.302896359117686
-1.11574229787846
-1.68173517823779
-1.78796472189466
-1.38314165949711
-0.850590117149479
-0.823612158795431
-1.40517728255145
-1.95486931403667
-1.95006369700412
-1.65956657906724
-1.68634506234341
-2.22021917548194
-2.9820922673805
-3.58293703889622
-3.77759047336396
-3.59962055719005
-3.27116320978689
-2.88346889134923
-2.37839614852086
-1.86828029916428
-1.56141324005213
-1.358721288919
-0.969492157310051
-0.362501891385013
0.285206381985927
0.889721202073017
1.39308275691368
1.70270911548545
1.93027173030045
2.33245523977421
2.90151600890006
3.39347592000305
3.73946396818388
4.04433370277122
4.31355276382202
4.53315196088756
4.80525144615559
5.14870901723845
5.4326315714846
5.59411923544283
5.58029370423185
5.13780896550738
4.0688671510525
2.59823554111849
1.16437289739618
0.0105410910770656
-0.824097321243343
-1.39457852833344
-1.91258091173408
-2.63427779693367
-3.55979843228732
-4.48831040752058
-5.34318731275633
-6.1173137324922
-6.60892585062313
-6.6102156354317
-6.24469971970214
-5.81873522624872
-5.54586753777107
-5.56402485593816
-5.85058386221291
-6.04313284864626
-5.75631794283442
-5.0433716083274
-4.17810080535163
-3.17596955895425
-1.874375608137
-0.227869629880975
1.69962607881605
3.72096503483484
5.44244199971682
6.58433261665811
7.34285192811377
8.05198626792536
8.65065487918476
8.83322109295696
8.45946510285341
7.53466610091171
6.12187487172224
4.46348003444195
2.85775255325782
1.37652468020234
-0.0090778917913117
-1.18567675778832
-2.07530528744291
-2.80153134850828
-3.43159528133499
-3.84188589547699
-3.97013051277152
-3.82876495378009
-3.21209951993732
-1.86557800108507
-0.0339991906825881
1.57986466940259
2.41431903165296
2.30612144024569
1.43003228187317
0.396799056481404
0.0464570380520675
0.679992645097658
1.73904215638885
2.43685223489477
2.39778668351145
1.71117941805793
0.787297281260622
0.111880765509641
-0.165934257697726
-0.279553277206372
-0.407581793662862
-0.54172624928881
-0.787979371146192
-1.31484702089708
-1.99006748058278
-2.48057811011443
-2.63781717710919
-2.50858507033622
-2.21529146650743
-2.01366785580371
-2.09862200334255
-2.26127326541135
-2.1418026701257
-1.76553456792912
-1.41838628995723
-1.17319271457737
-0.91860302008764
-0.6091232968548
-0.199250597682511
0.368056316114958
0.908972119981507
1.06790409616262
0.76749668292923
0.275979424480865
-0.171596478801674
-0.467565869756134
-0.473047576416776
-0.181409826604702
0.13675089910305
0.315095168609831
0.539777418575776
0.941653446032097
1.31636863621476
1.43977275554032
1.28677590203916
0.901952500436856
0.396662425095308
-0.0473726907853231
-0.446262077735915
-1.02226258964953
-1.74791503222928
-2.2195351878051
-2.08118632602797
-1.26496434399664
0.0502020214623574
1.33446689263757
1.8560503910288
1.38999072683517
0.503681308651265
-0.136066414813007
-0.342810194845459
-0.19309863633628
0.207993167636696
0.63993463406896
0.922391722687746
1.14668643350337
1.40927484637451
1.52253587577519
1.31935228294558
0.98249316998354
0.79742419751494
0.841345401935457
1.07521671856223
1.41692885982827
1.62701776903141
1.49063531202647
1.16027882642329
0.973681139810833
0.990080249259937
1.00033761821837
0.812840185104746
0.318177056665762
-0.439730082054754
-1.15449127494318
-1.54761655601039
-1.71061717223569
-1.83726560625077
-1.87120255674314
-1.7660505165853
-1.73413721497016
-1.90596102499811
-2.10487316214274
-2.15576209857467
-2.04206007782064
-1.73111457693393
-1.25975033090809
-0.903374572613024
-0.865466806447284
-0.978659701089456
-1.00208785338162
-0.919628646552353
-0.765017598450366
-0.522449927582463
-0.277270303716885
-0.109182575289633
0.109410420073942
0.503235680409961
0.960434450550488
1.35985485676204
1.77064785297537
2.2157808322312
2.53379805325415
2.64684098715865
2.67057011137555
2.66728395652298
2.60923032538803
2.59065860129268
2.7390282745864
3.00104679003441
3.31015945491505
3.73620482371834
4.2039290550394
4.3772560652166
4.02010024992195
3.17359879223524
1.97332230638908
0.630459827213334
-0.527404128990391
-1.31743000928438
-1.83918137800518
-2.22324506344406
-2.57644092433218
-3.19410824204572
-4.34413065524705
-5.81307589270223
-7.08284378190248
-7.8697321242585
-8.16373928425416
-7.99955536822025
-7.4859038537345
-6.74769703554344
-5.7064211410173
-4.31290574866915
-2.94084683615665
-2.0224078222829
-1.39657711447064
-0.5469788686674
0.625713256521523
1.70157626122092
2.27647468591534
2.28432269663206
1.95908682610237
1.71264052851534
1.87115529829848
2.38835394857438
2.97889029355949
3.487751702644
3.87757857720377
4.02011725030745
3.82003640196422
3.35985447873648
2.73320488615565
2.03706947619657
1.57946026026884
1.6670191630676
2.20065332186067
2.86844496633437
3.56771454669887
4.298359653677
4.95595392767614
5.51708469479573
6.04874359977752
6.37072062260658
6.13728239886283
5.29192404382594
4.04555673762245
2.57464891773185
1.14547453668379
0.192437428808456
-0.165553764076232
-0.328890886453694
-0.637650678424891
-0.986271258495796
-1.17338878362572
-1.24278633737799
-1.43194189517305
-2.05427849344451
-3.28511748360977
-4.84800207375629
-6.18636087802857
-7.12811587237433
-8.05127586292584
-9.26028430998078
-10.5775318311898
-11.6456108434385
-12.2244285147491
-12.139208021504
-11.3372610210631
-9.99376799626735
-8.27827518673195
-6.19904426372115
-3.87367618866312
-1.59393057413972
0.518836313200258
2.51028643112117
4.2538137342879
5.58208586043519
6.64452813617647
7.67226783863414
8.5399180246592
8.90468692923249
8.59210180292142
7.70059852126433
6.60673002580656
5.8533043237943
5.68428453552268
5.79663562014132
5.80485665595011
5.60467682883479
5.03891100742089
3.76964000180629
1.84300479598927
-0.0870704720178353
-1.3430904068847
-1.69548436079478
-1.29231781737284
-0.522555367489328
0.140456708188888
0.47718981207188
0.584216149064712
0.482815898656145
-0.0063650819303717
-0.863284386968372
-1.73885175228343
-2.37795545065187
-2.80756622543316
-3.05278848778395
-3.05686975935411
-2.85292914624518
-2.46536451047177
-1.78851265731354
-0.818325347540195
0.28515120523615
1.5110649317742
2.958702794904
4.40584937504818
5.32529732021436
5.32779837797786
4.33100959656706
2.54779504840965
0.575679723060794
-0.861674354407891
-1.52095101292301
-1.70702357957346
-1.73207338454425
-1.70473560645581
-1.75824374408575
-2.03164687734426
-2.49250099612411
-3.04259031521105
-3.60560828374716
-4.01876227776575
-4.18730749586939
-4.35227929850304
-4.80967574345445
-5.43127763720559
-5.81434477877282
-5.75792225689856
-5.30673326874848
-4.53276784186131
-3.52006442320116
-2.38752600379862
-1.19389026861394
-0.0019524199451686
0.974311074076942
1.55494761280745
1.83615237440105
1.95014750079604
1.80705392888423
1.4163687750175
1.12973268529525
1.20826552690214
1.50465453263406
1.79843094234236
2.04472054024303
2.23090696142506
2.42266688141146
2.87790215885841
3.70935748620234
4.60983391120348
5.21107852844804
5.44744705689877
5.41624137169522
5.25120514176803
5.17217751644301
5.2547207129348
5.22873414190866
4.87788766012954
4.41509729026031
4.1219926098218
3.92562255112188
3.59179492519665
3.00787905254153
2.16415352522296
1.18905759622797
0.367506264865226
-0.179951061855225
-0.686605826564106
-1.37176147983985
-2.13104074739025
-2.77915729275723
-3.29491968503829
-3.67674388879554
-3.89179978466877
-4.08108409475322
-4.47373195257301
-5.04681855965864
-5.57730607391139
-5.94415214368759
-6.08873039272166
-5.90735560299458
-5.45294997800799
-4.94941448313565
-4.47416859222326
-3.99104995441437
-3.65621514659118
-3.6544656177653
-3.8803787921303
-4.15723455179363
-4.44729426368528
-4.52128422886011
-3.93266104347681
-2.7078634416317
-1.56932207529558
-1.1247082675947
-1.21289725333588
-1.215306661278
-0.676542902933797
0.403763270819535
1.62711513026679
2.58559239274897
3.2272736215362
3.62404302310485
3.56385119904842
2.81958212996936
1.62967083949223
0.457806394424179
-0.490146110235224
-1.12339337336301
-1.16561015686801
-0.410061093350636
0.95660614146063
2.55469359423096
4.10230714162674
5.40574276591289
6.42577753187473
7.42904232301502
8.67112311607888
9.88929277906864
10.4656761532908
10.0664303376667
8.91083106449706
7.59750365940913
6.7581352804983
6.54774130545792
6.42584227329303
5.754170242497
4.53925290441397
3.33799424535137
2.65047072404917
2.58286084711117
2.76016384402586
2.43916445667858
1.09213822612711
-1.05301535211494
-3.33129237497093
-5.31375570787098
-6.88046350134696
-8.02873321782874
-8.96726714060504
-9.9654865843853
-10.8454563615088
-11.0877495040331
-10.5492516870341
-9.57826817739697
-8.44244836071804
-7.15324787953515
-5.78580232180854
-4.51359419431141
-3.34886824208111
-2.09346928669547
-0.451410596556954
1.86726357231922
4.85822275976065
7.94495590180674
10.289900836777
11.4040704722584
11.1860710790036
9.61252394024086
6.88830786814438
3.6707157219738
0.636857091021239
-1.99799074942867
-4.2562644448653
-6.02105921543987
-7.11366404914627
-7.50190660230547
-7.40127258378618
-7.3500525858383
-7.96661465987722
-9.3727058585002
-11.0514585369832
-12.3685100751673
-12.9875927426861
-12.9093461717557
-12.5359102083873
-12.5228964714682
-13.0936517430765
-13.6741020348556
-13.528853666102
-12.4450773043741
-10.5765752897762
-8.05791942129242
-4.97215200722371
-1.36126294631514
2.73856952221911
7.01947000031695
10.8870125988129
13.9876275630726
16.4481224528608
18.4150996063679
19.7805347956953
20.5134968579261
20.7462630975412
20.3565012648091
19.0050358150255
16.7813778394748
14.3471418313832
12.3372398935933
10.97333527781
10.1508769648982
9.54262390955733
8.81261560976653
7.99480221067422
7.42913642463871
7.25191240161563
7.24893139836071
7.14628670657434
6.76909296524787
6.12388530569026
5.54704605910487
5.44560127520602
5.72853521259627
5.83873915996645
5.35617189962703
4.20464176509004
2.45264838363045
0.382060674050147
-1.45763472854718
-2.67763172245645
-3.35051125983269
-3.7723118112545
-4.31022180658262
-5.45644679426664
-7.49685861876412
-10.1386695138988
-12.8742390735568
-15.5357419580758
-18.1276131275133
-20.4180783234375
-22.0985600629548
-23.0789568804106
-23.3001036760725
-22.537942718353
-20.6883513235322
-18.0092205922977
-14.8871518992279
-11.5648581199845
-8.14789760948108
-4.71840943238499
-1.55084981722031
0.712074558017619
1.43272577054911
0.633527324558608
-1.01156292134182
-2.69593586400826
-3.61764964946568
-3.03337244134847
-0.899891006542824
1.72113337729256
3.44321821998035
3.66764782112759
2.82782530376871
1.92374757383573
1.84042419574276
2.60699830553045
3.30575650666051
3.11417538708085
2.23998922101413
1.45142001098282
1.09178547243421
1.00636676782786
1.02634154935394
1.08685300551447
1.13583687981304
1.18857320159954
1.34559008942122
1.75166267274705
2.63787971695185
4.23484940305028
6.47991018197647
8.93389344456279
11.0430019145474
12.3521620571276
12.597606648356
11.9396519333176
11.0242384334596
10.4528906279927
10.292277821157
10.3483511037621
10.5590633532781
10.7747618360985
10.5971866752334
9.81814053916878
8.66153838407674
7.40117432502447
6.09682968363945
4.72994674519429
3.2763646910231
1.77040943499298
0.50565006177183
-0.182190977820692
-0.537382893676092
-1.3279382466491
-2.93231398592093
-4.82577170651382
-6.03035320246023
-5.80178539843922
-4.06915632486177
-1.54772564915922
0.783241024625541
2.50434906933874
3.80716218167902
4.82278133804422
5.43651450184665
5.72347406978515
6.02526980784019
6.57157772809885
7.32298514441084
7.99623228480172
7.95444415876369
6.37915288764374
2.96948997857578
-1.63213560737966
-6.2903897636502
-10.1096487878022
-12.79124560089
-14.6852253038285
-16.5315877609373
-18.8434452821042
-21.5788303674004
-24.4468891728316
-27.0740695845679
-28.8173754908233
-29.1800885628657
-28.6562738356228
-28.4463658040185
-29.0570296770663
-29.7007357792837
-29.1952763560919
-27.0307699253326
-23.5280863989045
-19.2743256661238
-14.4706237530465
-8.83672464366955
-2.24531528337385
4.75663165787603
11.2659959506567
16.5352248064968
20.0047438634367
21.45710878299
21.5358941909565
21.5848533453004
22.6167474116781
24.7547509191842
27.617271270278
30.6566917768744
33.1133741310682
34.2167640814508
33.6283172322661
31.5385646273941
28.4384039965275
24.9121409649433
21.4105087267966
18.0766289545044
14.9519907414713
12.2159143314062
9.85368325065353
7.35710734389141
4.35191572776903
1.33085171871044
-0.804218373388097
-1.77222544823525
-2.09075965227394
-2.41971718884365
-2.97171959161076
-3.47138844425397
-3.73148402739364
-4.26029221402366
-5.82746086113008
-8.29801006949735
-10.5853120529389
-12.0277451333568
-13.0939742871416
-14.4371351511406
-15.9686386969141
-17.1888420929705
-17.8560762215015
-18.0635216073538
-18.0158599130147
-17.8348360534705
-17.4380061788012
-16.7326018892957
-15.9614443334997
-15.5617163615826
-15.6479572839829
-15.8814747835528
-15.7629701152591
-14.8398146158048
-12.8604832636837
-10.0351022272987
-6.98860291679924
-4.26842589469414
-2.09145197133901
-0.593264673320344
0.121573193648341
0.308106037145759
0.531575347688345
1.20432108050077
2.51268799276462
4.64704982224193
7.64066541087564
11.1201836930436
14.5560103168339
17.5932172727502
20.03049377753
21.7843945256978
22.899012936886
23.3234866958207
22.8380394994715
21.4587431133735
19.6453188431149
17.9048938894511
16.512939043698
15.6578902061196
15.3322512539843
14.9805281809098
13.7510782193014
11.2439585243541
7.78448978509603
4.04639459912234
0.568621964642087
-2.50874544262619
-5.27788301585084
-7.57140668853314
-8.95826647472057
-9.45020503012209
-9.73889113927038
-10.4042120553377
-11.36226955659
-12.3714352213417
-13.5142041574875
-14.8402623748282
-16.0711778726911
-17.005310673493
-17.7641015399269
-18.4185667406609
-18.8274712164484
-18.9207136784902
-18.6445670179406
-17.6526949496602
-15.5470040167583
-12.3695295491212
-8.54077556350371
-4.49405383839424
-0.518632106324355
3.33845261571788
7.25077503431136
11.16101543023
14.3947984023718
15.9768824649132
15.249929753527
12.2442732333933
7.88283832153411
3.77515616755269
1.19939462482332
0.187616251471795
-0.0674431730485239
-0.169951652944312
-0.257614861928623
-0.304083806329205
-0.180232016752522
0.258849221586569
0.903705308036645
1.56981516786109
2.43229218504642
3.76071379264983
5.24576930497079
6.09834124136599
5.87473456273048
4.93002404581083
4.07268519813135
3.87145873234529
4.20565750280281
4.545169438838
4.78985987070705
5.47282783840478
6.77192778937144
7.85474011298156
7.8599704523633
7.07043721348701
6.43281177513073
6.30510477166767
6.18416356645003
5.24486472159089
2.86086377808239
-0.858302148215268
-4.80760237374869
-7.61193000666733
-8.71493949284139
-8.49903773441001
-7.56618870029303
-6.27198063396943
-4.77601141943256
-3.28741232114078
-2.3124129765644
-2.46668394391242
-3.70127975951698
-4.9795433492024
-5.17383326969415
-4.11236429420496
-2.56433156816216
-1.60423743538201
-2.08755058205529
-4.13718861365364
-6.88149868519039
-9.05543338709908
-9.96288638659782
-9.74421885251949
-9.03972608839792
-8.68576298392514
-9.28513411870253
-10.5515985469629
-11.3279876941996
-10.6776277288207
-8.76396534270707
-6.36744961682183
-3.81497924707288
-0.757182974447432
3.01536690819858
6.70532559473931
8.73459257698169
8.20733013222329
6.03171400529138
4.10999013682844
3.59771189342555
4.50043181568987
6.54663397202731
9.53318687580082
12.9803682768826
16.2488389068381
18.9843178217657
21.058252224675
22.3177943025193
22.6879551008735
22.2783427027243
21.3177895408286
20.1888929261062
19.2390559296005
18.2157756702593
16.3773664722493
13.6143893293887
10.9052159984497
9.13490926517944
7.86073382719786
5.61207030718036
1.18763240239764
-5.32605315443319
-12.4292050289632
-18.1276218929292
-21.3458128322102
-22.4787315099042
-22.5399239781927
-22.1599857306502
-21.624548279412
-21.3616860980389
-21.8472479782884
-23.1464591495221
-24.7895338512985
-26.0538876363028
-26.4175937068736
-25.8337094955108
-24.4261726407112
-22.0269016241003
-18.4808286544228
-14.3616217168864
-10.8107267444703
-8.55519688420949
-7.32690445757609
-6.08682044587023
-3.7087096180107
0.0918927228728326
4.29278251096152
7.44854651989603
9.11286741134605
9.99877903836029
10.9483318915794
12.3133858955843
14.0701873289084
15.8795866581822
17.188128194265
17.702330805446
17.6061398582867
17.2353972977837
16.9052142132817
16.9475022445311
17.3574919435191
17.4897817716375
16.6290654956303
14.7736207295233
12.4686044229642
10.0711357130674
7.57365447730962
4.97453095433886
2.48955678042491
0.48404373588032
-0.732023991338985
-1.25202803223447
-1.639565219605
-2.34636328102466
-3.25085792037676
-4.06581867931118
-4.83499629876848
-5.67319923926179
-6.38704024731352
-6.63570025010362
-6.18125981811386
-4.95061820073713
-3.17979741044709
-1.38905731301591
0.0882392207313896
1.36881901804503
2.66002790491165
3.9696473066616
5.22995280832025
6.28186587926852
6.76437464769651
6.49374928422241
5.8752256201425
5.53974787901784
5.7255858334693
6.21012623130897
6.43767344797963
5.5444350321193
2.82249064454879
-1.53616870472103
-6.4679786904694
-10.8893813243798
-14.3071043242504
-16.7371239076697
-18.3303281526814
-18.9957209992575
-18.2733875654313
-15.827008033183
-12.1365831419686
-8.28856727492741
-4.92952868233253
-1.83970250763989
1.35489679334644
4.46463377564358
6.80815098916848
7.75314951581231
7.28097615019889
6.11633231901267
5.05307456150634
4.21145444016387
3.2451650454413
1.87371869496314
-0.293615094715878
-3.84874814245882
-8.71387209075519
-13.613057410222
-17.0653263439763
-18.5560957399105
-18.4006444900458
-17.0252149658368
-14.7745425532934
-12.0429914697593
-9.33034285550862
-7.17347323660344
-5.74473751779516
-4.49015786272515
-2.74144500477976
-0.74082715934184
0.67321911605981
1.48700931521309
2.87283442177249
5.96538769073555
10.7621765692973
16.2055572539801
20.9290594910949
24.0433189610088
25.5786696818981
26.1319656203534
26.0608633777163
25.3489000208663
24.1223193464904
22.5836190484707
20.4435042353413
17.2575220748638
13.4225560889454
10.0533443048762
7.70397823614823
5.73517477131597
2.99662183117357
-1.14652445221919
-6.30876092446875
-11.3550011750377
-15.2498214622838
-17.6706941440968
-18.8068774849084
-18.9022594972965
-18.1873834080286
-16.9318242754573
-15.3754284186115
-13.7783160800476
-12.360213659302
-10.8417806449946
-8.41343111432551
-4.74577974340559
-0.778814925456131
2.02574392700862
3.10462269763986
3.24359590831853
3.78336562280866
5.40146135269585
7.52397140765093
9.08538319197164
9.89168944838718
10.7407549443327
12.0474653657356
13.0152831898537
12.5733975646129
10.6133860982172
7.84492124905739
4.80294029120003
1.4135440836819
-2.65821847202986
-7.4371626072644
-12.2744937158937
-16.0975296242173
-18.1994543759873
-18.6298728455991
-17.7698278851816
-15.9614864331511
-13.6703061220655
-11.5062919255045
-9.85887518125892
-8.71508573904807
-7.75566557274872
-6.48412485125587
-4.59537640579855
-2.40013980675963
-0.469057096149691
1.24415063903194
3.37864652662494
6.17050540246824
9.05044829458198
11.3434678396967
12.9317492279804
14.2169036467486
15.7111871068425
17.5171808385553
19.021467760921
19.3038794827128
17.8719184389326
14.7542467544801
10.0981403474772
4.19456382960792
-2.14616774709264
-7.72050161418608
-11.6270361024492
-13.8293437111587
-15.1517469391698
-16.6675187105458
-18.7362588824984
-20.5790818596405
-21.0961033628592
-20.0136087954701
-17.9066955050682
-15.4308067461756
-13.0444086926884
-11.1015724635491
-9.6011205120647
-8.06743875075634
-6.04076149240356
-3.45087048883959
-0.444646400906921
2.74595812230729
5.74751175739766
8.23578721557727
10.1923268645006
11.8481625848709
13.5694992584037
15.7594961461008
18.4384479368819
20.9356229575289
22.4034316881585
22.5054426655602
21.2871082238412
18.8044971839939
15.3630709738076
11.7263867116525
8.6526176811107
6.47382247857452
5.2172275382946
4.72424718219692
4.62541537443915
4.60922868014611
4.70112837916033
4.97140904577081
5.12225754180848
4.73207159345393
3.83416258714042
2.98822384408539
2.79688599467428
3.38338017020121
4.22898719317949
4.6582625900965
4.64976998604326
4.77863278464114
5.04943879287035
4.35004262001948
1.56240247525823
-3.20880499102983
-8.79904842170029
-13.8581570752416
-17.4304000528197
-19.330219900003
-20.2193858323538
-20.9663085171725
-21.8802070895521
-22.7246033436307
-23.1994951251255
-23.1918547607415
-22.8609292794395
-22.5939534674363
-22.5576294729495
-22.3187244919493
-21.204158065393
-18.8543201304837
-15.2130953625014
-10.3958316265637
-4.82811124871372
0.944584030078008
6.80548413746673
12.9908008039792
19.2939975810948
24.6888627133234
27.9100540400426
28.3400628567767
26.4435387499964
23.4218134250474
20.2145907220125
16.7532506397417
12.4852817121988
7.58319319075101
3.0417127405096
-0.521470721804668
-3.51961827245666
-6.665424266059
-10.0867246025055
-13.2829507751717
-15.610926566704
-16.7920999387798
-17.0927603816974
-16.9606255518464
-16.6319279036955
-16.3123610240829
-16.3653877931864
-16.841105651055
-17.1065211730202
-16.3634460987024
-14.2852312310801
-10.9648503602642
-6.69864860616194
-2.03152504576748
2.4164676890978
6.33241001883702
9.67461381478499
12.3956991711981
14.5161396881428
16.2821659369598
17.9966436688508
19.8181229067406
21.6776018643144
23.1346563347344
23.5403685879822
22.7429853868872
21.3963006064211
20.18002674627
19.0151110557361
17.4718982441695
15.6226107036761
13.9683269126438
12.704536911976
11.4967044397247
9.95786792027372
8.2099078339047
7.00580187355885
7.11019227901774
8.40128166596986
9.9599648965906
11.2082673926852
12.3348815639074
13.3463788837907
13.4923784388356
12.1715310997592
9.9727983976202
8.41037974049017
8.68119214882293
10.5848774520393
12.5086748494908
12.6843326660021
10.5766127836841
6.84695947399056
2.18931027857039
-3.23173154632219
-9.37675692304255
-16.0703318043743
-23.1186396465922
-30.1857783267009
-36.6252675743792
-41.7855872704128
-45.4618416713077
-48.0273629299787
-50.2548765862353
-52.8046007449468
-55.6024450728057
-57.8911867129848
-58.9926176369666
-58.6220067838325
-56.4284105725001
-51.9989491811627
-45.6681968877975
-38.6046723347094
-31.6346247962941
-24.560795768666
-16.9800062911535
-9.16224692797025
-1.79177652908171
4.70466092019472
10.3789709928984
15.5972022694055
20.7106423347925
25.8645202560467
31.2358352932869
37.1178921870641
43.2625011912513
48.5335860068938
51.9636052944383
53.8435555339916
54.9855235389754
55.1915728777838
53.3324031079676
48.9890923526214
43.4341318438015
38.7430940252629
36.0403100792907
34.7619050680739
33.7073765326093
32.4470548418052
31.145216496142
29.343687065076
25.9705017195716
20.7054741064836
14.5021048557136
8.50557400622783
3.02874685012464
-2.24356429407142
-7.51804228280243
-12.5985305945757
-17.1452413530403
-21.0923152501782
-24.7012678282926
-28.0244634824158
-30.464735758236
-31.2695194664584
-30.3716890903406
-28.3215062759943
-25.5743508963804
-22.3029381349124
-18.6435682954307
-14.6893497889235
-10.5422789732699
-6.65823332789692
-3.7324769709874
-2.04683215724041
-1.3211125555435
-1.23052624007651
-1.66647777386371
-2.58467984032087
-3.96832375594755
-5.80926445497361
-7.95587564308097
-10.2657430856574
-12.896394292661
-15.9458994300803
-18.8814248830909
-20.9578786972944
-22.1597329522088
-23.1244262940591
-24.137601323231
-24.6610851686268
-23.9119466000182
-21.7494923957376
-18.9803509714982
-16.6564113889069
-14.9096964900526
-12.6729972879989
-8.72870492242383
-2.77156707854434
4.69841772944984
13.0457388886892
21.640738031438
29.6414206579761
36.1194553217747
40.4773653973318
42.7354024261173
43.4428681597842
43.0290384260467
41.0829054515716
36.7640211595884
30.2041232772425
22.9206025717435
16.4899325815188
11.2962843253881
6.78752541562425
2.46561547353323
-1.55921455793847
-4.72175806925768
-6.71129459338129
-8.05082402263444
-9.59809029182371
-11.4625901741707
-12.9962537650485
-13.8731121445268
-14.4805208631341
-15.1439311839792
-15.5725844277542
-15.208485209021
-13.8288313797766
-11.8722927793228
-10.2298986191077
-9.38438685781841
-8.78692405534394
-7.53382328545234
-5.53244438434087
-3.47259186609763
-1.81827623334492
-0.399583938156035
1.10004859229046
2.73225594573448
4.32861167884138
5.70156758625989
6.84046772981129
7.81316420468564
8.19032526607518
6.93693367913518
3.62407700042979
-0.441258515565222
-3.09250595695372
-3.27562468884589
-1.67013124844555
0.348739887199203
1.82845625951076
2.54453329169783
2.65765082972538
2.23397162753879
1.29546456759949
0.337821741804736
0.221034675253087
1.24595659198268
2.85475329616603
4.44687875829146
5.84910086862377
6.80149676625079
6.73442103370025
5.40457432909486
3.31837699710201
1.38287629530934
0.31375441960891
0.121896303060975
-0.0476713575559599
-1.16366638907881
-3.13369413016784
-4.71356184284945
-4.71965543632776
-3.07969711382511
-0.792368227829244
0.75854558124785
0.526311187982399
-1.72424889522924
-5.47368409255087
-9.89509715736592
-14.0179017101059
-16.6141486772371
-16.6500110963994
-14.1999029217207
-10.5651411839654
-7.32243148256068
-5.36539898264955
-4.52198934738718
-3.69538310558603
-1.69952258187367
1.70179401872675
5.86660727430751
10.3077326212667
14.8263426417205
18.3985231467417
18.8879917978622
14.7191682771122
6.76438386794008
-1.82465944209042
-7.83618707120886
-10.0856763713033
-9.38029425981393
-6.84734939082083
-3.04730865590853
1.19593361823264
4.19026810894722
4.49294241752255
2.28589183541289
-0.837412787498507
-3.16787737883376
-3.84473755971738
-3.05921943699581
-1.57408039642528
0.15289085334218
2.34501280427121
5.30354326117898
8.75432102748471
12.0861271777813
14.9353776496775
17.2158030320013
18.8720441375102
19.9268817748279
20.4473627163635
20.1340013632583
18.2798585690173
14.5249017290722
9.51386443327523
4.56912858728203
0.645830706231901
-2.4463243821619
-5.67898232030717
-9.50660052554759
-13.2457536150133
-16.0855229233295
-18.1781593856884
-20.0807783929334
-21.6229184359429
-22.1392047045737
-21.5251176429585
-20.3976931298632
-19.3976296258855
-18.7001533321806
-17.9758585263833
-16.6837829212799
-14.6387210210121
-12.1753587687988
-9.50823600673621
-6.3436504162052
-2.56341217633218
1.07956609942814
3.40568867788059
3.84650126750852
2.96279634886895
2.02912509807783
1.88962250661117
2.09651763608903
1.6697154902467
0.952566367183539
1.94893366555681
6.13242876141368
12.3897863452802
17.7917521484909
20.1449425681497
19.447541486839
17.2862095317639
15.2632953530733
13.8699351876664
12.6812161942001
11.4543402922773
10.5886210312058
10.4278153731976
10.6632856957714
10.6363359903055
9.86667856987023
8.30597562641063
6.41809054001672
4.79271927671958
3.33103243631461
1.18166167562583
-2.13805956002848
-5.95281564499794
-9.10395186061571
-11.0991639177379
-12.414926489524
-13.923593873185
-16.0550841113024
-18.383102427273
-20.1385325442711
-20.9964752236123
-20.957504439628
-19.7864902128358
-17.3758903443207
-14.4613126805689
-12.0288982082302
-9.97401010321196
-7.1278795112253
-2.75856894565246
2.46345283284041
7.04398503494979
9.85341635666862
10.8239099914841
10.8022162235589
10.6985507857768
10.7405434840147
10.7440267646194
10.9089996899278
11.8266318116781
13.7918114469057
16.5925113621953
19.8270058330168
22.9491380996503
25.1790562988954
25.9406993831618
25.5236020799982
25.0361472044184
25.4228661722328
26.4138162604059
26.5858648071426
24.6057045535644
20.1753232756114
13.6418037777201
5.38959731036412
-3.75608960252205
-12.2358444256003
-18.8829274927761
-24.0498970741739
-28.9046728993335
-33.9743122002675
-38.9068119069453
-43.1313347159095
-46.1756415945635
-47.733811320693
-47.8864347271429
-47.0242585413549
-45.3035222951078
-42.3588859507734
-37.7157353687355
-31.4183030316302
-24.2107288360711
-17.0577151160195
-10.3521015296729
-3.6883011461037
3.32173188263137
10.2912238703293
16.7021181380288
22.9661790905744
29.8138908467928
36.5295407226778
40.6915671213666
40.1254842967487
34.9155757037258
27.4135165103951
20.3121786932748
14.6430712452273
9.68745556569949
4.6980504359393
0.0818746892375075
-3.3214305130997
-5.3384220779508
-6.3046069340169
-6.43488131633212
-5.93969349993355
-5.36814754591482
-5.33157127577165
-5.91676503140582
-6.39374725302236
-5.50634756809875
-2.4410157314443
2.29664196330274
7.35553544764578
11.9804454250735
16.5167731023575
21.4448008812589
26.4410522970354
30.5503823981481
32.9732660487534
33.5805510961515
32.7573389630379
30.7121856044166
27.049302904786
21.4176569034478
14.5930728171743
8.30891418475357
3.71366339065301
0.358116655351936
-3.17596074630853
-7.95422373474973
-13.8632383065432
-19.6951370338696
-24.173454952673
-27.0791467129548
-29.0878560173273
-30.570580520598
-31.2050897833834
-30.831632638398
-30.0101971267342
-29.4926942718895
-29.4578595742571
-29.2839050498751
-27.9381827302031
-24.7787547957002
-20.0393498924108
-14.3607641386913
-8.15806057461426
-1.88743706545158
3.58138909932117
7.66764126444558
10.8668577113383
14.1593694935192
17.8669179547833
21.5288999814144
24.5543676740732
26.6178327869506
27.6897524328567
27.8641101497036
26.9192570155354
24.1754149782501
19.3295041757373
13.3962611089222
8.14094328948371
4.33909164053675
1.01768070421362
-3.38974886865724
-9.36516462613215
-15.8453715338465
-21.2879114843428
-25.0512218910289
-27.5459317573285
-29.1436288341554
-29.5214238750557
-28.3214590527821
-25.9438930947827
-23.3173527634044
-21.0444053582104
-18.7665111605935
-15.2431264633279
-9.42352350437853
-1.75530635809683
5.97011423694755
12.3067022939319
17.1487606701544
20.9239524704907
23.6579591314846
25.2478425345237
25.9691014315892
26.2157719671413
26.0132238647088
24.9780808802237
22.6935243750069
19.2463264896324
15.4105744423516
12.0504375978304
9.3946181183533
7.1701327853209
5.22750365685288
3.58922051154779
2.03628668224674
0.136273108093141
-2.29492710665204
-5.00654155861443
-7.4802746186709
-9.11789778662321
-9.53374714162934
-8.92391878690965
-8.00824000400395
-7.54418273634333
-7.97787970098798
-9.27123461407302
-10.749600269233
-11.4056234762379
-10.6330225320793
-8.44527194521225
-5.09110257430198
-1.0659845681507
2.55194035990237
4.51829455366005
4.38368382177272
2.78903652026648
0.957329077268974
-0.0272729142020429
-0.0212999238693759
-0.19315392568921
-1.99768941730817
-5.39827461784663
-8.42946088944015
-8.67432941132238
-5.13179109184446
0.919817866800741
6.52956144440507
9.03371733733936
8.04876398938777
5.57064563512456
4.06132230196991
4.47626628902929
5.81071780842906
6.14631588552909
4.31366060885225
0.892257038828119
-2.49374362119973
-4.89936023426024
-6.69773099540132
-8.51002477610602
-10.2246149211684
-11.3512159302205
-11.6964878398405
-11.3459013269833
-10.3992618409539
-8.8849250733909
-6.70506126058131
-3.80809562577416
-0.572427137799406
2.352693648442
4.71393064091408
6.73918506455968
8.64410405768823
10.6778367814543
13.5412152545178
17.9652543948803
23.6570757110169
28.9921372217205
31.8532482562475
30.934419393571
26.6776141892692
20.9389145036567
15.3055810650772
9.82250631413047
3.69036174435718
-3.18886628992183
-9.89074724845741
-15.4191468629466
-19.6277430611158
-23.379693682325
-27.7538071694633
-32.6824804905703
-36.5278826475372
-37.60914095283
-36.1199748858712
-33.9901362240162
-32.8394315415469
-32.5052941408072
-31.5262796492623
-28.6070484984294
-23.5589139883279
-17.1121554134843
-9.97963655148424
-2.26436634332508
6.10591213886821
14.7011292462188
22.6611429709262
29.1237027960927
33.3797667542183
35.1594466412333
35.1068272690966
34.504945981507
34.2373797782824
34.2685252387493
34.0229282290296
32.8149269060001
30.102806992089
25.9210805571023
21.0693486463312
16.5585914220735
12.8757542829263
9.69271955641922
5.94705633104726
0.428585873195128
-7.01876209935261
-14.7846466541327
-20.4288866408379
-22.5108410599976
-21.5667196075502
-19.584201379089
-18.55667762637
-19.1738280797668
-20.6670703387548
-21.8379503724924
-22.0282447514724
-21.1424906756672
-19.3283920928146
-17.0218731506323
-14.860168537381
-13.0571997605084
-11.0980498323267
-8.34250707620162
-4.70243378722617
-0.680048119230832
2.92005516266537
5.45009777811381
7.01743364117475
8.39798469177315
10.0204772870764
11.4626860456601
12.235404555613
12.4561407362975
12.3983315821479
11.9234903176473
10.6789327098306
8.53941146098775
5.82785364666312
3.36764054298908
2.09104018571836
2.23878922813833
3.13467361091679
3.95334021209833
4.49778830815996
5.17628481379315
6.41772834492057
8.02071654954898
9.00932662410256
8.50174023852252
6.85560499128806
5.53164201676233
5.6788421033128
7.18067434866797
9.08310952701995
10.555076303415
11.3698521196534
11.7341994104455
11.7065332851895
10.7263867767091
7.98160996366183
3.47572638462011
-1.52652789985908
-5.37820951223972
-7.27150754645842
-7.71007922089183
-8.17544336731399
-10.1727366862666
-14.0432887080094
-18.6868523253761
-22.7143178699146
-25.7183937004684
-28.2687488197605
-30.9326835421892
-33.4299020719847
-34.655981708933
-33.7279149899504
-31.0840255499749
-28.0758537009665
-25.3561052720496
-22.3267817778943
-18.2622238646435
-13.1021428761164
-7.01610887784478
-0.222205933069617
6.4613153377514
11.7906773940116
15.2427488082288
17.5591237955631
20.0696659481451
23.6986779175479
28.3251591376755
32.6894804597524
35.0928071614519
34.5524399882731
31.3875280321733
26.7982013804401
22.0208945654243
17.7242520595902
13.9554453754541
10.6801772653076
8.26278273761451
6.96811360780431
6.08925636632588
4.43429356179262
1.9027703679852
-0.287192275199455
-1.34292383917758
-2.19921697199985
-4.60172468081605
-9.08366422305008
-14.0090432647343
-16.7154735260898
-15.8932964453214
-12.8528456343089
-10.1634138858459
-9.17680215312793
-9.20798465770501
-8.79415792019981
-7.17161533247449
-4.68187848029824
-2.25229083513096
-0.554141914430662
0.456481210900139
1.26642030833817
2.4255592480851
4.5493710390057
8.04122049525308
12.3638180363169
16.1118049580495
18.1840284563942
18.4489941112838
17.1868195522457
14.5914520776391
11.0566188805611
7.36858745723992
4.31631827879362
2.31900679277822
1.3556970284571
0.976924053482359
0.589163189707713
0.0562906958564991
-0.19142491182134
0.148026956287029
0.753084317467864
0.965776155243327
0.189572852874677
-1.95920244844228
-5.43009494346603
-9.68278946065243
-14.1267107488899
-18.4638447139787
-22.5095648260193
-26.0371019274298
-28.8672244227684
-30.7833107327217
-31.4735734261649
-30.8938799675443
-29.4172176290975
-27.318985736465
-24.5241531961998
-21.0861609761103
-17.330001402081
-13.3074098405712
-8.73703032498701
-3.62516969670036
1.64743188358534
6.84394293579723
11.8775349920334
16.3671246848599
19.7160924478731
21.6307621363279
22.3431597492569
22.4846708734255
22.7900420576971
23.5500601118612
24.2218631571414
23.9241772328518
22.4585800943309
20.5789936024306
19.1555186567534
18.2102958950024
16.7648824712257
13.6628853747319
8.78646767382229
3.44937423621034
-0.622609731301452
-2.51034512573095
-2.21991558902657
-0.316128919305919
2.02401309693489
3.20208345482018
2.12952813191774
-1.1358321193485
-5.66772271332376
-10.1462254633935
-13.2688173795751
-14.4794381568679
-14.3890414827196
-13.960140172639
-13.2382739325633
-11.2587727570942
-7.28684017861731
-2.04316383948738
2.41104879774242
4.30353750997496
3.79239359405698
2.67128696201947
2.45718654038162
3.29265148357844
4.56135918017571
5.6203126292314
5.79677969544775
4.62239368898662
2.47541855152144
0.461837158762503
-0.49782148922423
-0.0861295974289759
1.65906042044113
4.26904408370554
6.5826885604575
7.29600526214552
5.92739507837715
2.94103805834549
-0.872688271526575
-4.7892624719095
-8.18332241738458
-10.533478848036
-11.4297251626189
-10.7279433755134
-8.86208855110591
-6.71244296308023
-4.92037591353351
-3.57083620726163
-2.57389842997181
-1.95075156436832
-1.74423256692567
-2.02392089451977
-2.87187998210212
-4.08954011309607
-5.22378312411294
-6.09263606341767
-6.81218206892291
-7.16883203220176
-6.59408852491109
-4.92426866909134
-2.67472794836098
-0.618090706551235
0.415896948467547
-0.387085002772627
-3.21510482469995
-7.02124039816327
-9.90457941907108
-10.3195102361826
-8.14193506063671
-4.79792140869145
-2.22187579251749
-1.35276952496196
-1.55603698261816
-1.49286108499373
-0.349920351939572
1.74994862816321
4.09780725656969
5.99487546984091
7.34241558517468
8.71520574913729
10.6474958455325
13.1026917837694
15.9151416431776
19.2055473165518
22.8514645021606
26.0113872997328
27.6369965371067
27.1829700706604
24.7922292293404
21.3100088193462
18.0498583451334
15.9022883522259
14.6194098475488
13.2826717732599
11.2073628204916
8.15968273886781
4.26835754969896
0.168097147104872
-3.20888595153383
-5.38887728421901
-6.77086384004746
-8.28030766975542
-10.7041487764878
-14.0597942145176
-17.4168182556532
-19.6614262162769
-20.5659483759587
-20.8072764446245
-20.9976984462037
-21.1464419427619
-21.0458294547355
-20.718743452346
-20.3868123365309
-20.2184152359962
-20.048663074296
-19.2742513387868
-17.3760680007298
-14.687907954626
-12.1957114487012
-10.4806457304262
-9.39158503490415
-8.70453390588988
-8.33692304671571
-7.80167821200815
-6.09924069035881
-2.42723906139581
3.06442357547258
9.03580857880264
13.5107188811532
15.1886493136482
14.4212285299017
12.7352455691507
11.5821467568312
11.6714435641209
12.8420215497515
14.0201041092944
13.8224545525163
11.8008644904038
8.84655689091867
6.16026418444377
4.19742898731019
2.70121946679921
1.32424949358026
0.0487830299909471
-0.819356346005147
-0.976251798716888
-0.330090515022026
1.20607868042425
3.82170928258049
7.36188679517933
11.055318885076
14.1058406677101
16.2720661050928
17.4401570672212
17.0543715087018
14.666088237915
10.8809956898313
7.19931779037196
4.89638312934438
4.16850325997935
4.1573062917021
3.80716958902059
2.89283361279534
1.97382091538038
1.2355701498398
0.0703430336233561
-1.78842537971761
-3.43138962841019
-3.66827236800726
-2.40237686562566
-0.858513612096562
-0.755114425089989
-3.18939222412567
-7.83211579974402
-13.1194456394146
-17.4072193679476
-19.9109596682619
-20.8161245117423
-21.1312243364767
-22.321271982329
-25.1951524905345
-28.8546098748741
-31.1426691189091
-30.2325210217098
-25.7280780233066
-18.6178005226574
-10.524352224377
-2.83016052024024
3.76819216124489
9.08713956482287
13.2027032913127
16.493658591048
19.5242065862094
22.5715926949626
25.5026283619102
28.1608907194408
30.3577869289742
31.4132436433083
30.4172975346247
27.1346629172264
22.0302578453453
15.4252422498546
7.43633326924949
-1.18162586832766
-8.8793385885147
-14.2571200514865
-16.9734875707534
-17.8761881696008
-18.4071184845006
-19.6042745219511
-21.4756107163238
-23.3600373582783
-24.6303895295675
-24.780658849979
-23.2348247514271
-19.6447485889212
-14.3529693062539
-8.35290111725842
-2.79584252383143
1.69896475033663
5.56356264744593
9.82588118431731
14.7902825601904
19.5401538707318
22.9828474734542
24.8032781346868
25.155842360478
24.1894911628182
22.328874401092
20.425248717902
19.1141360920902
18.2495854307884
17.1448831111868
15.1924288874504
12.3558413742347
9.27713464072919
6.57541054455233
3.80539342870065
-0.290630833413416
-6.09113776235002
-12.2206690728304
-16.7123227339446
-18.5991294992008
-18.3306870609546
-17.2501471865847
-16.7315616854113
-17.2887609434802
-18.3332371697881
-18.8630508988674
-18.2679056770228
-16.5902877874588
-14.4451755858947
-12.7193400989541
-12.0010795702523
-12.2094873183451
-12.7467042611897
-12.7429636207825
-11.2661939148161
-7.88654411795974
-3.14430830396178
1.93366829912632
6.70943200055272
11.0632431515523
15.0740234356173
19.0044135279853
23.1138747503395
26.9069139299122
28.8839935656563
27.60690495652
23.0453726264245
16.7785515749019
10.9947757886978
7.15197394431355
5.15411083509079
3.73750551037794
1.90724930998469
-0.0889339776653151
-1.36436109985422
-1.59798431942065
-1.3338565570729
-1.42031198114443
-2.4119142431976
-4.2579915825717
-6.41551326228539
-8.35907600351385
-9.91679863201753
-11.1300954612189
-12.0673752485594
-12.7398740989041
-12.8920731341547
-12.0108829702019
-9.81635832290604
-6.51064116375647
-2.48299363049532
1.64128736738177
4.61052683549096
5.1277272738416
3.16242973262352
0.0094859059302618
-3.08369892153466
-5.70240857787277
-7.72372636373477
-8.69719142476883
-7.97811037366869
-5.41593015793214
-2.06769369127334
0.0594226968012938
-0.316118785542445
-2.35790527439739
-4.00679477319011
-4.14844021992533
-3.23021036674532
-1.91530535970009
-0.0540838365343754
2.77259754974132
6.29066938820724
9.42595795044165
11.0268476569509
10.7765326903955
9.50922643886712
8.43606294431755
8.00320608541832
7.64418540519273
6.45512897111204
3.92349146563002
0.363389190517389
-3.09221684805406
-5.23319152256553
-5.6236327326709
-4.49881543368758
-2.13288511462597
1.1366314706509
4.57800410811628
7.47374814395036
9.76448417672722
11.8345501550641
13.7866626222218
15.1941913583797
15.5130812930925
14.8328849344864
14.2447494832539
14.7729095035023
15.4982580770657
13.6286074388683
7.34513602762543
-1.85750061249751
-10.2265691152405
-14.6643204696885
-14.4129197396545
-10.9432706684928
-7.01006533364758
-5.16302768141883
-6.2308067422561
-9.13410411450336
-12.1594327831489
-14.0396248113073
-13.9551324134604
-11.372896844806
-6.48475677984131
-0.702618431932184
3.73215539818497
5.18129698322892
3.85000723315987
1.29765419081792
-1.19782528231774
-3.18584599325468
-4.31682574134261
-4.44787667140242
-4.72590537792965
-7.24768942295221
-12.9043600682246
-20.1525951061333
-26.2934245639209
-29.6906806419224
-30.8559702350503
-31.7281962564003
-33.6661854916554
-35.8988735154758
-36.279677812798
-33.5572238654115
-28.2543316561274
-21.3674212295147
-13.1961825297159
-3.82155197978418
5.99720420844103
14.9973970117377
22.3357723105378
28.0481404456281
32.5980894223807
36.192714874061
38.7446606902444
40.3731773024664
41.4467626076657
41.8603408988151
40.6574509148839
36.8642051841851
30.6309675151431
23.3137033005583
16.5776844155938
11.4974358908769
8.19065231227805
6.1498898777894
5.03610618120214
4.9830384887137
5.97843275900368
7.38783565217335
8.47760908003268
9.16750211908868
10.0875208229815
12.0554630369991
15.3052048827368
18.9053573213806
21.3199412497237
21.9754044045651
21.8092366952801
21.8795257775831
22.0510402811097
21.4372278132814
19.3987477514588
15.6001243925696
9.62264966400402
1.01451051508584
-10.2591232126629
-23.2052440982001
-35.5626744713617
-44.8126176927992
-49.9563809452866
-52.0253704358933
-52.6111357199814
-52.2510672762018
-50.4137661214967
-46.6166062064926
-41.224036639644
-35.3213951298334
-29.9932403588721
-25.7178012183363
-22.4822585935362
-20.3090690395962
-19.1880818890243
-18.4323338979965
-16.7101423787623
-13.1388927846197
-8.28813387226833
-4.08884879118657
-2.6458530317126
-4.59801745344627
-8.32347773003246
-11.0513822603115
-10.9556028069168
-8.10082834182246
-3.71117814776155
0.960089155166048
5.26118498792345
9.25541552951402
13.3490886782595
17.7971456326725
22.7004117246239
28.1358529976457
33.7380528248828
38.5183584381138
41.7388296470185
43.4098973339963
43.1691569753123
39.5269285746388
31.5499759324912
20.9852512549179
11.5492470161501
5.93419861567635
3.93176784686765
3.26381492810848
1.67798620325009
-1.70338866672651
-6.39465763810581
-11.1783197326083
-14.4520922835219
-14.4623894434781
-10.2639183272776
-2.90768266093771
4.92222667081105
10.8818867716286
14.2804693914952
15.6071118558514
15.6571647598585
15.3212730209615
15.4587770581744
16.4603873808627
17.9710271634745
19.1229310991331
19.2659010052369
18.6984663594513
18.3073567974984
18.0908553017067
16.619218720818
12.6185066854689
6.56535772752299
0.0623427134043234
-5.78395534494642
-10.6988198014271
-14.5815749593216
-17.3515871509099
-19.2562281901804
-20.7586177458783
-21.963445750637
-22.3244303961685
-21.3733076314164
-20.0945373295185
-21.020827160003
-26.0389699814395
-34.2147103233399
-42.4528188191219
-47.9724702897717
-49.465425107671
-46.6323093575612
-40.164002367099
-32.2439892073078
-25.7362654377759
-22.1904185541266
-20.8677208253499
-19.6655930851717
-16.8064313740355
-11.9998300972849
-6.28464510404179
-0.578805001602772
5.52950455710045
13.2003417827097
22.6760712479796
32.476997601567
40.1062657320905
43.5316456859385
42.4500350093255
38.3766115617616
33.3930403955192
28.8514465965339
25.1995624597611
22.3844643959467
20.0292961230692
17.7442980789665
15.6490413847696
14.2132852521443
13.538158141152
13.3364933807588
13.5284077137667
14.2126052743127
15.1562938597004
15.8626856388487
15.9770640993118
15.2458412859083
13.3951563704353
10.4500964712696
6.9531174586138
3.59224991716738
0.699174455658469
-1.92261022496128
-4.88956850446748
-8.80017664641618
-13.5696747070493
-18.3257525113819
-22.164423509917
-24.7208086679606
-25.8787863136334
-25.4316825076198
-23.3100472585857
-19.9160355002997
-16.2743337408135
-13.9121831857759
-13.9498323926379
-15.8660120568829
-17.7400476650458
-18.0704234988543
-16.7235081093924
-13.9644423685726
-9.62090857571475
-3.76597155621137
2.54137372670617
7.80535298310176
11.0478099177428
12.0293251020138
10.9463766579614
8.11322662021283
3.72112497834559
-2.11800694155019
-8.8504413242616
-14.9314942182235
-18.119971068238
-16.9197729649409
-12.0184331017888
-5.83473777921412
-0.206701934308181
4.98272598884747
10.36484930771
15.0205035976207
17.0033908848241
15.7938111460179
13.2290582346517
11.7813183937097
12.4929992453391
14.6869078647018
17.1820385491642
19.5275114968165
22.0514514808246
24.7420982570361
26.5375242032371
26.2695628425697
24.0337789680777
21.0524389482574
18.4442662196302
16.5572398955476
15.0188655880294
12.8308273447826
8.71787335310785
1.96386898533921
-6.93525938339332
-16.3643446681863
-24.3395175814601
-29.5951416830414
-32.2046828168389
-32.9348883474046
-32.2280114429579
-30.4686331082959
-28.8138983366163
-28.4689102592631
-29.1031241793473
-29.096411821588
-27.4095749234763
-24.2751112417433
-20.1654514172582
-15.1846841936787
-9.67656181833638
-4.5900306512573
-0.816576743544682
1.51787003212822
2.91407689835573
3.8830590709777
4.66522110138394
5.47891487236589
6.71645363668425
8.5648554772175
10.6180211989469
12.4159032134609
14.2642810381035
16.8137804354509
19.9118939251048
22.7015021269303
24.8106192435429
26.5907021043226
28.1293250545038
28.7277415803824
27.5260244236584
24.4182570096861
20.429964267235
17.1427263148127
15.3256117607697
14.1016500528465
11.8191225008842
7.6517389439382
2.07913116942184
-3.81906108954744
-9.06073702904093
-13.0145811787048
-15.3923269499195
-16.0643433081854
-15.0677366674895
-13.0038320259128
-11.0473437491675
-10.0996970616376
-10.086405820052
-10.2484504623175
-9.84463964170687
-8.61740146744499
-7.09643347967503
-6.4378715584755
-7.38512202184289
-9.36537007750774
-11.0854769981309
-11.8162748591891
-11.5257764143793
-10.2068805787233
-8.02595248607196
-5.92400151080847
-5.17487045102192
-6.29161719599506
-8.73123689409238
-11.466282525366
-13.6523679858444
-15.0565644643832
-15.9381673977965
-16.2855201027393
-15.3476612233961
-12.3018462840453
-7.30756415661279
-1.66568288220889
3.06579133952148
6.24709659338005
8.70465293219261
11.9164820396602
16.3056666060754
20.5469275902666
22.8947135707625
22.9746222048003
22.0018446227143
21.4454726695932
21.61273575571
21.3797109861506
19.3895043007471
15.7064102331001
12.0475130333071
10.120387252985
10.0248328878058
10.5935998343692
10.9612327347385
11.2710337860236
11.8705683931413
12.2760862295147
11.2728444717408
8.08065713999509
3.23109610149022
-1.95882336926507
-6.67558469066847
-10.9528761439921
-14.82639228501
-17.8481087234458
-19.6501748748108
-20.4933334169299
-21.0736151099571
-22.01020257661
-23.4012017139488
-24.6620351525137
-24.9747507321856
-23.9254922489114
-21.4338246682853
-17.33273411431
-11.692092505737
-5.49995554272577
-0.398252980992852
2.43567936527704
3.07669574210354
2.7642011322569
3.01223117883373
4.31251834684577
5.65028784949893
5.68368529314364
4.28597841087465
2.60378369966597
1.92726384245658
2.80834748177644
4.79456267610037
6.64982164050783
7.23725750018993
6.46346429135759
5.12297021058359
3.92146077813565
3.13135358718348
3.06317806595866
4.16281826855266
6.46364845259963
9.33619505181195
11.8341274223247
13.106465021284
12.7400183019886
11.0101425799413
8.64226595574457
6.32361196758733
4.70999292999426
4.54542955099617
6.07974503375321
8.53625477631445
10.7186932141217
11.9399483485425
12.0033417274116
10.7406278958055
8.08618544396855
4.38341505574131
0.340314589475489
-3.25917315184012
-5.95387751492668
-7.90376568227983
-9.48795165912843
-10.4907331613408
-10.2279332511217
-8.59525970028645
-6.30648333254355
-3.9634868279637
-1.62886788921264
0.427143083812859
1.09325473028933
-1.07737957964516
-6.60418392364427
-14.141764970576
-20.8785251873599
-24.2493467759847
-23.4461608262962
-19.3827448900618
-13.7212726660169
-8.26817390789135
-4.60979517829617
-3.35604448382328
-3.76029214831379
-4.5518136178805
-4.94311986134505
-4.64394841044624
-3.59113171177837
-2.16464922646672
-1.11259690977909
-0.761746940296784
-0.542938021327668
0.557527080088232
3.22145826059899
7.25479807472023
11.5161356557504
14.5679701038541
15.6137780327219
14.7701279986965
12.7189301860678
10.5169979122889
9.37228854725562
9.78950702507544
10.8430058622851
10.7796837926202
8.56149221974403
4.86180469525687
1.62910179287605
0.417484357831472
0.797532669655298
0.614730819974577
-1.8794179196451
-6.362622439395
-10.9723957640251
-14.0287248606292
-15.11657152225
-15.0182728510257
-14.8087820353709
-14.6315951784354
-13.3215942347743
-9.70214003143757
-4.19907660211423
1.47197491972865
6.23031422588864
10.5145604935008
15.0606821576409
19.4252476969707
22.1827409756396
22.4736725746633
20.983346327116
19.0546317870119
16.9667577443533
13.7042189588937
8.56831869168237
2.37584184344422
-3.20809532427888
-7.02712958790482
-9.00874127103814
-9.91522451792588
-10.6390121982183
-11.4048650914216
-11.695671195824
-11.063146279316
-9.63991040015552
-7.78091181295819
-5.80423424935005
-4.21551588378709
-3.54689899403156
-3.78969423409871
-4.36588023335287
-4.56439483653286
-3.7381399305826
-1.51702352357601
1.67814690396528
4.64104379492312
6.32553963941361
6.64102230149867
6.12108252132853
5.03917821271687
3.12757577310638
0.193644849403684
-3.08078429906344
-5.2393421354663
-5.41038073227528
-4.52092767819257
-4.44263402746737
-5.71906909471925
-6.85152008348729
-6.10864597917944
-3.39689888766517
-0.121628579296173
2.25119212951977
3.32993917661128
3.84570914076788
4.6686650412431
5.83308473663013
6.78230916087068
7.34123959262109
7.85645358928749
8.47725415725024
8.84537919892481
8.41339318885875
6.74707947944506
3.83298924536443
0.41329722729861
-2.35394285084648
-3.87488206464169
-4.58535065758994
-5.47824329088148
-7.31745759364123
-9.90945076231479
-11.8413538385158
-11.4729964005313
-8.6077105855166
-4.76992722638217
-1.61114407080911
0.472999667903365
2.05717625805186
3.70665854552721
5.54350208067017
7.19693273856944
7.81869599727301
6.50601261117603
3.02239632340135
-1.94183254954177
-7.15550008111697
-11.4425666577848
-14.2033081506405
-15.5412104931114
-15.7497222777195
-14.8052479478202
-12.6428376581713
-9.70031628145136
-6.8385985382029
-4.82614471168816
-3.86513022230002
-3.19498901342501
-1.2754015277044
2.92448786765544
8.69545594662431
14.1219449796393
17.7988129498093
19.6362857359225
20.2556260664363
20.1398236993104
19.2858081321895
17.449068786903
14.871168310024
12.619059728604
11.6753687190802
11.7286221560256
11.3781922502214
9.55906911456254
6.44054050036951
2.98655010881815
-0.0920438759470975
-2.9052808432819
-5.97892362732933
-9.40389586649182
-12.6563207862884
-15.2660403218485
-17.1258217285125
-17.8838361041539
-16.6919163611065
-13.0884095494593
-7.65609020756489
-1.48064646209901
4.42770016910156
9.03219211915436
11.5175877111305
11.9798068024504
11.2246133870802
9.8603617102976
8.17525735225179
6.55581678955911
5.17360493837853
3.4816235507487
0.757650432705222
-2.98419875600313
-7.07640164430199
-10.9739336209799
-14.5852290238486
-17.9136755944134
-20.5379819315565
-21.590141482847
-20.4972549984141
-17.6615126216344
-14.0102098107847
-10.0047243662052
-5.5878639554284
-0.945366291367901
3.21331500583147
6.09185057332996
7.32635000995359
7.32015065879467
7.12810354945553
7.58564764011117
8.47137455107396
8.93363979172586
8.71146559130977
8.43877257001927
8.7567459827265
9.57839785763839
10.158971168166
9.5358741388381
7.14972801572768
3.40992402564487
-0.601788515047214
-4.16893996087593
-7.33319689555822
-10.2734474995432
-12.8255000163852
-14.6515385522117
-15.4742545613454
-15.1494973126472
-13.7304438313972
-11.4154741255753
-8.48355882036414
-5.41665618826919
-2.73142661591137
-0.332110151797831
2.49534304346386
5.93951768117761
9.00424903111668
10.5535550348628
10.6086832670783
10.1437516566756
9.93825968860009
9.98624632291678
9.86618128858908
9.52557105503125
9.57369927745581
10.4939918372827
11.6670490819176
11.78073375481
10.3189462426838
8.12139572749256
6.38347806556224
5.57104648760666
5.33423385998938
4.98998537102222
4.06737009065443
2.85830793948326
2.43349629890346
3.65230694714063
6.11580455096497
8.36866266901135
9.08062526593772
7.9779276953483
5.89982646162687
4.02239872187049
2.83852569286279
1.97510549271784
1.00121248308115
-0.120592042574155
-1.55809680496288
-3.88526159337983
-7.42449800732134
-11.7569554050392
-16.1340991734821
-20.0644881162503
-23.4611547837362
-26.4261892049037
-28.7299728528111
-29.4536532013719
-27.6323894760524
-23.3608275672328
-17.7621940793957
-11.9376683092858
-6.54880342639438
-2.18607028886356
0.738918345937608
2.56732792429053
4.31876618564111
6.8828234701985
10.2958987133256
13.5467856111745
15.0699568172439
13.8806639418741
10.3993702925912
5.88484651098302
1.13368961723591
-3.84892195665935
-9.09235378628161
-14.1834696728136
-18.4791882007629
-21.3631084819647
-22.4279629824126
-21.6604487570264
-19.2445543805398
-15.1874474373316
-9.52493250986723
-2.81587801058178
3.97161216405976
9.96828322906645
14.6330936841624
17.8703514084265
20.1230207007693
21.9296626830272
23.2940260742732
23.9349516870437
24.0625150476158
24.2678026747178
24.6035170055354
24.2725933257976
22.3415890951284
18.6344025750406
14.0391621556527
9.95170825288542
7.23577198316176
5.78707983970601
5.13962940901355
5.08670928151168
5.52131452516276
6.14405342842069
6.65443304425719
6.93841646785902
6.87234000414633
6.22454513448258
4.93024837535953
3.264971220337
1.62774965018234
0.244950948857974
-0.950184991770588
-2.20477845287567
-3.58090293246999
-4.80634168030752
-5.83365766126879
-7.28917497874219
-9.72542583094419
-12.6537564252246
-15.0812477143405
-16.8808691764975
-18.962514984576
-22.1372186337325
-26.1713811594006
-29.7685065344187
-31.3174469636023
-30.0212591821457
-26.4872951869151
-22.0519519053018
-17.6532008619092
-13.517975457811
-9.48155203569294
-5.18451291700315
-0.36889284010105
4.54012325250952
8.39168496160454
10.1833141269671
9.92551870354485
8.66668782261185
7.78661317498469
8.02885265965261
8.89185753727281
9.00557314339857
7.30585410346298
3.9637598170918
0.336266098078422
-1.89804626399755
-1.81209088062033
0.204558191544403
2.93895994853609
5.47934647423573
7.63447986159027
9.29086559371757
10.0686810079128
9.97247053621526
9.70833158079796
9.81615962638117
9.8727913229795
8.87198565730006
6.17324374437612
2.15380441159652
-1.74941797225154
-3.89207178230433
-3.76127346666552
-2.38322336799775
-1.28344191813511
-1.24289976171491
-1.90985478873906
-2.13161950592705
-0.770645834174706
2.30925652531422
6.10398639096124
9.47657815501445
11.9412376451656
13.3860939957485
13.7184104646457
13.0335060711267
11.5116109568492
8.90649841604534
4.62939291695965
-1.39465134012526
-8.07714614724231
-13.4202692363725
-15.6482240526332
-14.6149358096518
-12.196606850928
-10.7848281788454
-11.1270146583502
-11.9469801951689
-11.7419921216152
-10.4584209023172
-9.20589399499077
-8.77568508516661
-8.80544183379961
-8.32536815419112
-6.89559110144853
-4.90885723343295
-2.71759558174362
-0.0606662621302955
3.20729949211172
6.47120447175019
9.10569786866551
11.3227055397128
13.6296936597004
15.9000276472647
17.4721751597353
17.7990798551804
16.7673550759666
14.753929863956
12.4127757403153
10.0975403417245
7.66989443167626
5.07627149419175
2.63153755888415
0.48459063073168
-1.60907511964693
-3.73442651266559
-5.56413441823322
-6.77525345147615
-7.27966931181376
-7.10935535598345
-6.50438941863379
-5.99781430683282
-6.01716628348441
-6.40659809116209
-6.51707066579399
-5.80430675036098
-4.47698006057261
-3.69108420773874
-4.77434986560652
-7.81804648491083
-11.2383759670163
-13.1550477334822
-13.0059468581582
-11.5569765269505
-9.85087546186376
-8.61530969228607
-8.2188674428857
-8.56568603538698
-9.01507381254045
-8.58508913789417
-6.41578766394342
-2.40682565770398
2.54036923224884
7.36182726790352
11.918816397874
16.6610623382496
21.2805451647213
24.5541114069185
25.6998469196243
25.1656091884463
23.7859282419183
21.6032925598567
17.8035086413924
11.7528157199086
4.0141148467159
-3.84851536799616
-10.5336036657556
-15.7093602430182
-19.422274584551
-21.5554139622419
-22.2625984770086
-22.262351871211
-22.1663712877618
-21.8974260768402
-21.0679806417716
-19.5489619250271
-17.4361340223398
-14.768459413541
-11.4123703886186
-7.05298716692293
-1.48210824586604
4.83048717331074
10.8031745296955
15.7382089249039
19.8730908705962
23.6911071335906
27.1710938406657
29.8871758805014
31.3330081684689
31.0803691950919
29.0852344272418
25.7977425796842
21.6667747089951
16.8145766060167
11.4675791291055
6.27697586790769
1.88597939806146
-1.52343735178992
-4.16401880043525
-6.48086363923388
-9.02979846693027
-12.1288798408132
-15.5968581171033
-18.9469084795473
-21.6772847148753
-23.403865192822
-24.0249257027564
-23.683953884569
-22.2951892282279
-19.3781879547505
-14.7621717854478
-9.21089299824785
-3.92493708343294
0.496334278768821
4.37104217973124
8.30182465956732
12.3306516494844
15.6397303025295
17.1455905759739
16.5470667862612
14.6196427459073
12.27929448454
9.69802435104515
6.64946641988992
3.29551786060324
0.212195618683059
-2.07530820731091
-3.38068109085291
-4.02723604618573
-4.81892066463416
-6.46690669358579
-8.91293904942478
-11.3441488700282
-12.8497841349867
-13.0930302954534
-12.5042492521325
-11.765833400534
-11.0844149229273
-10.3133514947954
-9.77159696862574
-10.1451474943773
-11.2339775472825
-11.567232176998
-9.77673228389482
-5.89185288789538
-1.09661881057668
3.27058294397182
6.46709937202283
8.70781672632286
10.8838426429842
13.6125662960549
16.5959355843631
18.9415339252437
19.7871730628534
18.620882071216
15.5634425711388
11.5923562065609
8.09446692962699
5.90090729157701
4.84159961673401
4.18274650317752
3.30305926728582
2.07443033770997
0.777949315558414
-0.44003027139868
-1.90745426832361
-3.84986852312369
-5.66769266509137
-6.3540016304675
-5.52199422666292
-3.58004153695943
-1.17077628993168
1.08682550067556
2.61410686818023
3.15717272863867
2.9743621758677
2.53591188562038
2.14342589289685
1.85562876046841
1.66435450525199
1.80191245464311
2.77757494812238
4.71666071390109
6.7586144532917
7.72102450649433
7.37669535931376
6.54694769433209
6.00854275554524
5.71591838896721
4.83457669975668
2.22360623564091
-2.61578350088335
-8.68055702496126
-14.0278209269006
-17.4654674584053
-19.1767906038173
-19.6325504033234
-18.7826314299497
-16.6401482352833
-13.8317873132302
-11.1600218871729
-9.22167359891727
-8.59469047502051
-9.64037466333739
-11.8162295137592
-13.6769428988574
-13.8864413282875
-12.2205378511784
-9.62233410684162
-7.29418885822266
-5.72538074091211
-4.67275463667818
-3.82861052462593
-2.96722909860728
-1.54623018692195
1.11938893724382
5.1663328724167
10.1131571614095
15.3674820961513
20.381400292902
24.5785024144592
27.5595628452724
29.1391566577853
29.0854865097336
27.3809992269966
24.7314048843751
21.9990842322995
19.0480045724457
14.9655905235473
9.58914540053597
4.15227825869324
0.205589014577831
-1.74251983639698
-2.44126491649178
-3.01066264324797
-3.88062806422281
-4.48950572134182
-4.0113961258352
-2.3399618729213
-0.310454536644706
0.880024091703157
0.449850385721443
-1.29972526829866
-2.91603006364873
-3.00690088233533
-1.83787953451448
-1.18619424341051
-2.40803128021084
-5.14511946667163
-7.9192447879869
-9.43795539827269
-9.4247193146096
-8.74494027539144
-8.72854950805389
-10.1407693660778
-12.8849924179225
-16.4528101934747
-20.0950180092313
-22.7999151947252
-23.896710272211
-23.5956785213251
-22.3579942713582
-20.0395259787159
-16.2435563170712
-11.162181501419
-5.52853655002196
-0.0076839059126187
5.02244872675102
9.31545831191636
12.6146373048608
14.6846064388539
15.6194563873392
16.1062739381834
16.9678445491419
18.1979820808971
18.7247462837265
17.3793121936377
13.9936287592284
9.53633162107208
5.40863932961068
2.55320230581538
0.901676060685053
-0.342296217119473
-1.74005429702723
-3.11578034293743
-4.0571181613542
-4.489963282486
-4.63946409992756
-4.84410257284195
-5.48612947322781
-6.75326938009375
-8.39820024447464
-9.77165723507135
-9.9409828650249
-8.08088541913493
-4.40931049061831
-0.505085335719829
2.19187097175262
4.10088174995375
6.889902753799
11.2851513691045
16.2922788797524
20.4437868514166
23.044932470579
24.1804780124088
24.0466318434992
22.5482229589814
19.6580909122716
16.1518416399571
13.4976248182545
12.5496572015691
12.5608511890886
11.855642508809
9.34538013359134
5.20121211990804
0.331605616764366
-4.47064432437162
-8.96785795284145
-13.2785317248096
-17.2691678227413
-20.2722262885394
-21.590755503226
-21.1466961478964
-19.5019184896882
-17.4944953427239
-15.8870355097746
-14.9244445643869
-14.1589224432567
-13.0757420046738
-11.7679369575675
-10.6323482096343
-9.7488768449222
-9.01803060103125
-8.51926666047972
-8.28144424879549
-8.06175135032127
-7.73418244718507
-7.66960894639078
-8.55254623061823
-10.858024551855
-14.2183131176103
-17.1239239051656
-17.8046463582192
-15.8523677783867
-12.571495469251
-9.39819153818572
-6.35063880834065
-2.30838864695578
3.37387447690909
9.6358000895523
14.1626580046825
15.4005745468441
14.2013210799872
13.1139975671544
14.0426337085595
16.9698575720321
20.6929077509499
23.9132220155379
25.5487039764715
25.0365030450157
22.9377085930319
20.7248940555343
19.4804681477801
18.9431538568706
17.948778023569
15.6915833873821
12.5357814589275
9.58513292642334
7.50261466265826
6.05523107985217
4.81197824136361
3.64296484799196
2.32970690827225
0.470776283772185
-1.79477518241659
-3.59841378651645
-4.2806733286937
-4.09180747105652
-3.79336256925283
-3.98357208497637
-4.86375008253558
-6.27709770586677
-7.87986538570964
-9.33086828404045
-10.242869335565
-10.2738415067117
-9.80211233349334
-10.2007153648084
-12.6072006813103
-16.4060823660617
-19.5610502344406
-20.5639308673478
-19.7483161023901
-18.7445069632295
-18.9257216597626
-20.3223597320855
-21.7303072953818
-21.6797750463339
-19.344054196127
-14.8443596310629
-9.15862816066976
-3.73572856606869
0.426212407428302
3.56590005422955
6.56574479674132
9.63463018582381
12.3493553607136
14.8648922013112
17.9511940038176
21.6798854653246
25.0986048250353
27.4578408861374
28.943827579186
29.9008676074408
29.8669341539641
27.7292398110556
22.7749041824462
15.5167197133612
7.42602493635398
-0.0845369941348252
-6.18199680701667
-10.3514705831889
-12.3917246770953
-12.8601276790503
-12.8536678226931
-13.0785160708326
-13.5006286049026
-13.785596388791
-13.5844066979129
-12.6126455216005
-10.9794014785866
-9.2366290452552
-7.69507008752834
-5.91891286390649
-3.22529176035065
0.462441047538582
4.3418066823135
7.06160717557911
7.41996520241558
5.23002454857742
1.55866041425175
-2.18320782800341
-5.22061175699299
-7.29996027332891
-8.2107002723283
-7.97960529156906
-7.10967976042548
-6.15712501302284
-5.34241318809689
-4.69317180573809
-4.15384335213535
-3.48076129036035
-2.32897084039629
-0.416291817570831
2.45008848271496
6.17931929806126
10.1791730822597
13.7302393520975
16.5339863245989
18.4865542016406
19.1602758600304
18.0998165179668
15.5057751317218
12.2166684847855
9.18100124273415
7.10099130335044
6.1825630732577
5.99064616631458
5.79749907261417
5.15175425476452
3.99537553516488
2.42231871972423
0.537413449789302
-1.6188615786056
-4.12355837392828
-6.95140357984739
-9.71367030339578
-11.9240028190091
-13.4594053791577
-14.3846772751812
-14.5165107417966
-13.7295924995955
-12.5203520702166
-11.6179047819604
-11.1275281545343
-10.6142922138768
-9.97437668660682
-9.78350859888869
-10.6493355909604
-12.2530799172667
-13.2136606261739
-12.3808930151515
-10.3518542301961
-9.08020405274942
-9.76757597191913
-11.7098445062041
-13.2067076364866
-12.7765453507129
-9.53359401434877
-3.54669588916836
3.75112398153596
10.2725706038098
14.8368945756724
17.8223417319021
20.3621335536143
23.188837831574
26.1333730856073
28.4610172829665
29.5622676618865
29.1902227395078
27.1613060069268
23.3966634793707
18.509719141066
13.8600519858442
10.5883038988909
8.75727081383133
7.60756212206057
6.41293639499361
4.95584039897057
3.43164403251753
2.03967988444762
0.58160435652648
-1.43549556875737
-4.21894820433794
-7.5101595287117
-11.0234137617244
-14.5634149801215
-17.6501760600925
-19.6275089675308
-20.2813709078412
-19.978851492728
-19.3194434715427
-18.9415119884774
-19.2190656728024
-19.6369688468086
-18.8257684181863
-15.7318012994499
-10.6904818231504
-5.25558858969266
-1.08336041434522
1.22836265345408
2.45778876523372
3.69220242396854
4.89875812683608
5.10810540066258
4.05174735357376
2.78755485351894
2.41734120629505
2.85206338111476
3.1630371721302
2.73396762386154
1.81339535355301
1.06020836824561
0.635682124132107
-0.0876001522870765
-1.57524209782821
-2.91526530166887
-2.11327635306162
2.00968704417859
8.39273009279372
14.4309189359429
18.064506104206
19.2260913372546
19.3625321951292
19.6069731589818
19.6783634316287
18.756267124744
16.8068210257379
14.2813533421507
11.0016023994464
6.40247164535543
0.765108319859
-4.61227179130843
-8.48195564362832
-10.5046782041728
-11.3256243379296
-12.1284269003779
-13.7650196450217
-16.0065476246009
-17.8187163341972
-18.4145510383538
-17.9150266662888
-17.2087707906595
-17.3198740169513
-18.5222129966527
-19.8858287999793
-20.066122298177
-18.5864216505853
-15.9474849667062
-12.5864267201393
-8.30169497139052
-2.8407992370604
3.27748756167199
8.81959847205462
12.8589957530358
15.6257647721145
17.9222106842818
19.6737163402287
19.8492652942351
18.2874721745151
16.7157282331023
16.9485376292979
18.5561833509803
19.2946202208358
17.5458917464472
13.5660535941048
8.69775331406819
4.16572480731508
0.553087848211879
-2.10415300115236
-3.94887130660925
-5.1017414192462
-5.75242743484773
-6.10082503851459
-6.12534337516727
-5.73660415155021
-5.09256151033342
-4.34388500738699
-3.3146391229465
-2.03958173808559
-1.33189907358211
-2.07467183093883
-4.06516940698971
-6.0994243339195
-7.09143180579965
-6.86012619976534
-6.08032610565711
-5.61908257277617
-5.7319340583043
-5.9834024520734
-6.04425500027682
-6.09241069382209
-6.12252932343031
-5.45119656054057
-3.49468775199004
-0.716155591567224
1.71061119868479
3.02045951852711
3.33461704078492
3.20438885016212
2.90051776179446
2.09858100982038
0.375396814251272
-1.82415805724281
-3.04021899719669
-1.96077463626737
1.44952778393702
6.0049868681528
10.0356129344671
12.1374246851219
11.9377216593763
10.4073139531407
9.05859458919618
8.66989689947811
8.8227312883891
8.47839658315004
6.95367323095156
4.62333610317476
2.65408688265607
1.78480926563284
1.61129932920061
1.41396401669768
1.24761531816423
1.68381900371021
2.81507464152837
3.95507749203802
4.12750851940988
2.78336337561881
0.390703334154839
-1.74798233758927
-2.68326008971714
-2.77317120906287
-3.2208826776164
-4.91431017655538
-7.92200506838985
-11.6565918146785
-15.1089051083321
-17.334705186142
-18.2722075858227
-18.900591177231
-20.1966840544085
-22.0537522261781
-23.411921403738
-23.2611305699916
-21.3934637927212
-18.3321125370633
-14.6862127483014
-10.7066609681299
-6.44472563156025
-1.93974266571764
2.91618900837222
8.11525439778697
12.825327006002
15.673363090384
16.2510343397517
15.6903466280563
15.2010777023432
14.6136112285639
12.9627684659713
10.1639722173062
7.56083150410658
6.75553886511526
8.03182786552201
10.054863688355
11.205835658768
10.996205086002
9.98740474397509
8.78169057479379
7.57664588437791
6.34269886060843
4.96377211760183
3.51116525100503
2.65368579979094
3.31568933997658
5.59283280935947
8.39748170519188
10.3908389830362
10.8898947434581
9.84676083194427
7.57446155476015
4.72818307132617
2.14497667274373
0.546503228188734
0.428348206752178
1.77918507532801
3.64949261766398
4.63005701434735
4.17411183119135
2.98410129975463
1.95584500218747
1.32901478321342
0.943582388041259
0.699978685303328
0.548960796191395
0.287298346118375
-0.550608679604023
-2.4937553764928
-5.58870857095286
-9.23548785847068
-12.9004549282564
-16.6712495369481
-20.7123821312223
-24.6176155610028
-27.7353875135181
-29.676815612924
-30.2064743652303
-29.215945132266
-27.0786970667525
-24.4680083115113
-21.587063942719
-17.9866657642328
-13.2408284423771
-7.51419788022007
-1.51644667729183
3.82497579196452
7.72233759279816
9.83865114811676
10.3433542336397
9.75255442542294
8.86355417147489
8.61684954250535
9.52517035872603
11.1978177767928
12.7118799816767
13.3642741317708
12.9377832524856
11.6261934978042
9.96768437083467
8.53838397444347
7.54652028359175
6.91049151889411
6.60400633246563
6.68353660328119
7.21889074732744
8.37338216424818
10.1957394822954
12.2342909909694
13.7963759375305
14.6459935637043
15.0835268415256
15.4824945418677
16.0761114297445
16.7895721407494
16.8457578600781
15.0405152587698
10.9477562085189
5.54845471950131
0.389331730377233
-3.60479656627621
-6.47387198897406
-8.78632185898329
-10.9291358371748
-12.6588321892796
-13.4515201211814
-13.3223385762238
-12.9507075785256
-12.8686116577956
-12.9026407714307
-12.5811933678746
-11.7436823735531
-10.6287498309951
-9.6789090316347
-9.28224230061839
-9.44047182418412
-9.77978139261862
-10.008833074517
-10.050014620801
-9.69001027831297
-8.6731786975144
-7.28883032163528
-6.35914001687601
-6.49810323165033
-7.64147703310605
-9.17306858512351
-10.2629756876323
-10.3416102605735
-9.49209692773711
-8.18622783098271
-6.64034530137787
-4.7525409926395
-2.5302540439446
-0.11165771978558
2.56424206907788
5.75704390729264
9.62879681569946
13.9517997908517
17.8491219085787
20.0295323344905
19.8692274099721
18.2477844081168
16.8611006141267
16.7246302342943
17.5829633638185
18.5399071989878
18.9162444554124
18.6209369226654
17.9652604678479
17.1581816310944
16.0655692052468
14.6217417103261
13.227248842209
12.309870216139
11.6796274992444
10.7944402886528
9.48860003808176
7.99250829570492
6.34631080327962
4.04751738002244
0.226552613876576
-5.65524649609384
-12.9465588809541
-19.8798849019635
-24.9117654616673
-27.8013604505803
-29.2111708076645
-29.7508594807142
-29.6637800699238
-28.9193106589916
-27.3326204184307
-24.9691558698973
-22.4931009882821
-20.7268412370371
-19.8729219570021
-19.4066000413433
-18.5300967635026
-16.5368119312976
-13.0287403874399
-8.03609079989164
-1.95369063705843
4.43904459270832
9.87774548191372
13.0993410554862
13.8149908285945
12.904271017276
11.4698471528256
10.0667151862619
8.93420939404588
8.37693131235916
8.53649391058491
9.15063051130861
9.84589557136711
10.4455473309659
10.8814899202513
11.0302442835095
10.672683824444
9.60241032034199
8.05088418709603
6.9748186805863
7.38484071837625
9.2671003655489
11.5276821797864
12.8851847022049
12.5005664335094
10.1994191422456
6.73316172672459
3.57404156556024
1.88082525047181
1.64685267659371
1.9152313086125
1.61294064667801
0.315908000194525
-1.39743208901079
-2.44588446059402
-2.35335734215107
-1.62019420138138
-0.908721632121179
-0.36329001321533
0.154932849646505
0.742634937283841
1.51142354311962
2.4742893651264
3.25422465201082
3.26653662337022
2.27167916545924
0.56688503550767
-1.29988239282453
-2.85413883936185
-3.88593223726694
-4.51865109433758
-5.06506789261497
-5.83547701724398
-7.13361230413788
-9.13127558219253
-11.4828820397186
-13.4396562248258
-14.6633116267311
-15.5017605506493
-16.2006501222112
-16.3685726378465
-15.4937771391493
-13.5275746207712
-10.7723828105198
-7.56693632853679
-4.20293682715182
-0.987867455573998
1.60557475171082
3.00599713609013
3.1581166581292
2.95448164501872
3.53248820370807
5.22379073454201
7.58323687769315
10.0652527684073
12.1028433987358
12.9336060255445
12.0364116583297
9.64365252711694
6.55741243877158
3.62671397181036
1.38829946047259
-0.115865482899774
-1.18942478770176
-1.97957586159634
-2.24286887669314
-1.70185618206478
-0.413459768559426
1.23497917702701
2.58178015665529
2.84763531388871
1.81103202185749
0.345100238771169
-0.336972013587351
-0.0472641663631496
0.292155785388661
-0.101232497175919
-1.05154616262411
-1.83495960673663
-2.01891824124639
-1.81167412981539
-1.62290857748816
-1.35867274198049
-0.519358611978335
0.910926453517983
2.27874274325206
3.22776340986372
4.18666209401938
5.5475284810116
6.96510219723554
7.77911798562395
7.61827697488877
6.42517349850462
4.38488298130918
1.96457894075627
-0.265363077098166
-1.81628000377195
-2.24175159104892
-1.32192602780858
0.536728328377899
2.45701746515941
3.76083792388696
4.2180915070938
3.73969975712613
2.23372432941042
-0.207862086442584
-3.1844795171198
-5.9790999833387
-7.61983992884021
-7.31539693249413
-5.18125602258486
-2.43002868833954
-0.658144129045244
-0.882617519926001
-2.9323152215765
-5.41280668218228
-6.5966279886711
-5.88637852010154
-4.27657991442293
-3.14058421222156
-2.86828927991216
-2.80152914471086
-2.03584933619433
-0.159953517285687
2.33988527175156
4.25275120621702
4.4996927076976
2.95753151215848
0.49134063852262
-1.65174131211899
-2.56056367418079
-2.13602318697431
-1.00473613050573
0.022469427052191
0.296089802862351
-0.600352864383403
-2.52319091363783
-4.58314053373917
-5.93827932039624
-6.73709707648159
-7.70148798710807
-8.92515691822992
-9.64748732711463
-9.05829665387072
-6.91296775400809
-3.64265060328157
-0.303096239908303
1.81663277122361
1.99435984968849
0.568597112200769
-1.31577614434811
-2.26695624408318
-1.23489815802638
1.76944414621485
5.43567860131334
8.1332801648129
9.29302214008234
9.67485733744984
10.4243540939578
11.9711297635584
13.6172053147755
14.2177509237198
13.4780416423087
12.3149618019798
11.6898804561653
11.5712404817311
11.3678412093112
10.7791657087865
9.83056642760174
8.63941690768035
7.50478755563867
6.80130187072873
6.6197514288753
6.82251422309837
7.29803514217163
7.7516151168052
7.50290179909513
5.97195620180216
3.28595993430165
0.211566424533683
-2.45206485481654
-4.54736425003387
-6.82871093921601
-10.3126648334854
-15.1145199982681
-20.1822532119482
-24.3080383323189
-27.0313428183003
-28.4828696268348
-28.9233792148959
-28.708297662023
-28.2117158615366
-27.4089456951845
-25.7340782648606
-22.518210331547
-17.6037486033398
-11.7949981835349
-6.68815876877937
-3.42418089688409
-1.40804678680377
1.08693320499746
4.79454777979728
8.50633794809881
10.4783765790145
10.3875704177994
9.70667723160173
10.2750449805891
12.5430676036874
15.3051973659736
17.1595754409132
17.7511354744613
17.3180043461212
15.7959693054304
13.1238339810895
9.91287462509193
7.08506576496924
5.15740487699588
4.23845406356155
4.2422836602738
4.8122788449877
5.46398767420096
5.98172272575804
6.44237080237035
6.96604635571232
7.65663997640501
8.50827632738817
9.14751877330697
8.99535216624525
7.9004452291058
6.32682028869893
4.81862958127846
3.6068992662733
2.72647344161361
2.08339045935301
1.41438769991404
0.559071043159509
-0.292102145277931
-0.832062204504267
-0.895224378073868
-0.4560459506673
0.181946705529697
0.254802888326548
-0.814688531992466
-2.68016566662527
-4.45115646928092
-5.59217878201649
-6.04821486434534
-5.92648031515322
-5.5924187454549
-5.73599879780939
-6.87058859849805
-8.89805838646986
-11.2599845404872
-13.2887523145362
-14.4752482340128
-14.6375569117427
-13.7814982432282
-11.9336888859487
-9.56369900182176
-7.94545997023027
-8.26683954546938
-10.3151747452189
-12.6886958352155
-14.2863886869119
-14.9944382869318
-14.9900855681877
-14.0747933484735
-11.9266514935054
-8.64491548052814
-4.80149559794788
-1.01775328368954
2.42387442138231
5.50430763322945
8.12027762656423
10.1877611956486
12.1281921644484
14.5769942593665
17.260415003866
18.8258312279575
18.2704740834878
16.0804986747258
13.6863763676766
12.227536446928
11.9345669428525
12.2501324863291
12.4276264397294
12.1593925276332
11.5074483252589
10.3531405812235
8.48977889496313
6.23629669266374
4.24791894154285
2.66528309436424
1.12223056553798
-0.399335265384163
-1.37124432272775
-1.41098021291969
-0.716031524426383
0.207680661456473
1.04506146943942
1.9267215834046
3.12009618095717
4.37066265845671
4.86529785789935
4.11406439991125
2.54236578602058
0.953662249310662
-0.226594756508709
-0.955354074749558
-1.31898557955394
-1.6479374445567
-2.53581459902079
-4.44041783704202
-7.44429903602157
-11.35307080463
-15.6483603530751
-19.4543959848938
-21.9754438938516
-22.9189956912479
-22.3644385301116
-20.5490426878496
-17.9111399336981
-14.9821610735472
-12.1576756140642
-9.75844901624989
-8.03657776753879
-6.79090204916043
-5.29916357745689
-2.9470818131856
0.326467864412666
4.22740148420342
8.2779639447944
11.8222837062626
14.3866181096356
15.9909474410376
16.7452013704331
16.4436916516985
14.97613648721
12.7880034261952
10.5292468354404
8.49010446683426
6.60426182660804
4.80553908711875
3.25333871266824
2.23207782773
1.7690650234405
1.48095276969668
1.11390103310782
1.06246495966507
1.77684939727163
2.7570669077218
2.92857461103917
2.10685912287597
1.27808269480054
1.23119100692421
1.63958475047843
1.72771140067396
1.3057662892719
0.924291745074325
1.1846336075451
1.91218150142084
2.15406241885819
1.28901628394013
-0.148380214778967
-1.25754199421625
-2.03032500787709
-3.15045537147922
-4.80957626501239
-6.40565531650322
-7.31742645222949
-7.50024702149982
-7.32804414620304
-7.0444193977484
-6.3971690325702
-4.97533460432162
-2.99127113017389
-1.3269062873046
-0.559577713131819
-0.358284809469276
-0.0861310735107756
0.410344000522653
0.840226542840051
0.987788748652009
1.01526127224446
1.35105312582402
2.22919896633687
3.21995535030411
3.34078658965542
1.82155872509411
-1.19440771937877
-4.5960750829759
-6.8122196308757
-6.68344222421121
-4.37131808368513
-1.36565624865796
0.809118870257134
1.79965138663512
2.1450259415362
2.2533796145183
2.07360269995789
1.48990216302507
0.77249332203665
0.70810444054961
2.0041008700563
4.24235126350438
5.89182313602143
5.84019287759961
4.47609037673663
2.92371147919556
1.8313074183946
1.25978659706515
1.06506138473606
0.921032399226408
0.388636318974224
-0.74774782809888
-2.36233517174483
-4.1145756204549
-5.58671209878897
-6.57264782025877
-7.24330506372083
-7.67287582049617
-7.40110429856708
-6.0064452058091
-3.90872821533407
-2.04092677810601
-0.880738817711905
-0.216340987074713
0.393021913062141
1.31019566106739
2.67426799719406
4.18519990013313
5.25278653235129
5.56140623723052
5.27191593675777
4.72519475104251
4.30536960242436
4.37860136807456
4.86525228779638
5.07223899222245
4.36713583593847
2.79302340637068
0.796416051122731
-1.2577810489723
-3.07567620790015
-4.2942197604481
-4.57560096283056
-3.77272291529625
-2.08450491900614
-0.078183629393779
1.69827041098905
3.15995951642925
4.50071473027239
5.70853496473024
6.58243305300719
6.98362510134686
6.76728098977906
5.85682051156649
4.65376014679288
3.82887490552121
3.42313948634396
2.72657573695685
1.30186952081785
-0.39778816031722
-1.64831403401454
-2.31010209855919
-2.94553283212928
-4.29838796577169
-6.58653402013514
-9.12857836840344
-10.8482198114
-11.2941639414588
-10.9020895942434
-10.1922938439051
-9.13475847182718
-7.41881199189934
-4.98141257534633
-2.22511975443895
0.116449972800959
1.609966690396
2.77546818918279
4.58331661736602
7.0688077627303
9.01441546774496
9.26780920262243
7.93312865654527
6.08597579292389
4.5885873245373
3.23053699201486
0.963784675263303
-2.85896906689096
-7.51736638318659
-11.4529497417076
-13.5898244624847
-13.8092018730629
-12.5373081350042
-10.503612319124
-8.66497316511619
-7.71859664665286
-7.57014358504497
-7.37155414902237
-6.0650970266717
-3.22422971434592
0.25458327177972
2.64206925390253
3.08038452207755
2.55805517052522
2.80871313894464
4.60858213872605
7.51322786620816
10.6985355379999
13.4428688624147
15.1825054301423
15.738726064438
15.3931633170461
14.5003656874877
13.2142886856201
11.6061594116951
9.77509865506571
7.9000313982502
6.32452647266535
5.36440093544374
4.99466238736987
5.03456171858183
5.50087433590326
6.36363054765923
7.20232948568556
7.574557040558
7.46667950991428
6.99905902562244
5.97986631677451
4.02184855541519
0.846463981447578
-3.52495264853818
-8.47843085517866
-12.7870464100708
-15.3445244059774
-15.9535011790586
-15.3088423928267
-14.5049547763154
-14.5689077470735
-15.9051327657226
-17.9370736134879
-19.5554611427295
-19.965651625927
-18.9884083194546
-16.836493967342
-13.9383366374524
-10.7715886868354
-7.55539554582891
-4.22316850166057
-0.813252327642158
2.3430505327845
4.85447958033311
6.43984802552609
7.06859314891236
7.36096475235324
8.50302226615027
11.0972682273487
14.2561462179509
16.2965283624309
16.1629663575795
14.0200420644466
10.8802105499864
7.84259721940156
5.36673619139283
3.20317130394757
1.11363013471643
-0.661684343648023
-1.82122246972358
-2.42493623074588
-2.66697680550167
-2.64231275259106
-2.50312429921529
-2.50165057533015
-2.81129260396693
-3.4784068908257
-4.37751126807487
-5.1177700781948
-5.34340076868204
-5.15381837336081
-4.80204673416731
-4.10416792591817
-2.71365987695014
-0.847572054033276
0.848104156021051
2.077117002052
3.07620069607351
4.13849217059653
5.31794418871471
6.44422140365982
7.15628395139129
7.14229420750959
6.5248476041981
5.73024238455608
4.93285603985139
3.99378393727362
2.8948419812424
1.82843428659339
0.939930087968359
0.27105125468941
-0.193346230323393
-0.549949674608888
-0.836866953338811
-0.939698973175549
-0.915924164449573
-1.15862594942226
-1.84214938748527
-2.46126977414254
-2.28311959700765
-1.06133852537997
0.828922943581851
2.67826710910396
3.88827941921393
4.45343001101032
4.82306179320037
5.03516408678316
4.49412080634849
3.00615381631107
1.41823999564438
0.691608354844067
0.798250768138998
0.976723744906217
0.784097689286016
0.594661547205414
1.1140827892613
2.39429589174028
3.35427197284802
2.58381801368541
-0.236389414192684
-3.96071259129286
-7.04367206250467
-8.6632580015111
-8.91807028760418
-8.51070470955567
-8.33690466758862
-8.97618896058647
-10.5047430881286
-12.8092600230406
-15.6075594128546
-18.0387448528635
-18.9942835633714
-18.2716801230192
-16.8848994523984
-15.9394383218216
-15.5079176426665
-14.6244722983668
-12.1547764870545
-7.89857683459453
-3.03921372224442
0.853306417853268
3.39521724453174
5.53168712835631
8.11709680844311
10.9646348337342
13.3929556865503
15.1751274180438
16.7675194965208
18.8105956579822
21.414432806807
23.9215069593903
25.48336544159
25.7293135636367
24.7157955817884
22.5870782997992
19.6522565680531
16.4840967330115
13.5189789491473
10.7217147758474
7.89367385791401
5.06250365318435
2.35091304644075
-0.225179211168464
-2.61283761929321
-4.68374007681633
-6.45031129203448
-7.99190808356913
-9.16967277946627
-9.74121161109902
-9.68182173875611
-9.20865867011152
-8.72051455644098
-8.73369185455445
-9.40328832438355
-10.0671162801917
-9.78729534975876
-8.44327620953531
-6.95270400876383
-6.40330991852133
-7.06767132978486
-8.05518036111792
-7.94179674739947
-6.13658770554398
-3.61674845833121
-1.97019339125297
-1.88570055951749
-2.87527052113233
-4.04375471565358
-4.71094050857256
-4.71283991274457
-4.49586186554682
-4.62600397752039
-5.08591166774551
-5.37491570191272
-5.18943923331995
-4.55451209199641
-3.43344684592678
-1.73652919178602
0.294539913317579
2.08378366031849
3.11168500339507
3.19069623229736
2.60895090948598
2.17248178786198
2.75162888473489
4.51102465943484
6.74602919650634
8.49282395695073
9.12625518780378
8.57413531140558
7.29683357712853
6.0121431361566
5.32108286786077
5.56353265774582
6.67279702758862
7.90299840522877
8.19759315797199
7.26068948384495
5.78527322788563
4.2868653092196
2.36904608786143
-0.429184621606676
-3.65757699114384
-6.22627525222887
-7.25942752541883
-6.57339060990974
-4.7145383327708
-2.539124539226
-0.532240087864106
1.30356706729945
2.9185291941818
4.10106187658097
4.94394602298721
5.84366792271025
6.91859759035847
7.8895931811943
8.61005570203922
9.32781201397133
10.3086038945822
11.3805406765586
11.879091074459
11.0322928158343
8.5553942334236
4.86941024695712
0.588754481802256
-3.99201741593115
-8.62480708667473
-12.7212450169652
-15.7560256054279
-17.8099324403451
-19.3693116189796
-20.8706309870106
-22.5604538659392
-24.3571439385776
-25.7669328946909
-26.3081273061899
-25.9372814049656
-24.7754032215137
-22.7160698539626
-19.6099892692357
-15.5376706078403
-10.7851499100246
-5.90011771156516
-1.60199883801099
1.92230026251811
5.36345190564334
9.285287057594
13.090013195803
15.6298109692428
16.5876948892998
16.7883635843731
17.3844831416125
18.9457705999005
21.0333165985521
22.5496719256323
22.7159670972099
21.6593406486666
19.9695213734018
18.0442604133205
16.1009664899507
14.4035008403699
13.0980902194738
12.0784294660706
11.2122435130799
10.4203103544605
9.50824139450604
8.30396435895926
6.91024719839963
5.47717241851536
3.92682239026828
2.19380610010445
0.41495660410469
-1.31017423431633
-2.94975232596079
-4.32058671881706
-5.37666851070347
-6.67115048198054
-8.9394898973727
-12.1908160343165
-15.5755884563011
-18.0599419940884
-19.0602261666642
-18.7251287096018
-17.7866844190988
-16.8944571212989
-16.0940286339339
-15.1516862762233
-14.0942385916007
-13.0964447458594
-12.1821340401716
-11.3511722535118
-10.6484977485714
-9.87693958887446
-8.58471565829452
-6.52940053654882
-3.9758121062965
-1.52427775407927
0.263727219801722
1.26242167787677
1.95469026164754
2.98263780478751
4.43192712267418
5.85830777030047
6.99618187700188
7.94078908498602
8.65147598898782
8.90880063642248
8.83045717021973
8.89313963087816
9.40329852679779
10.2622408335871
11.097032284844
11.4174828952752
10.9286668748315
9.84749488874695
8.72388747300031
8.03533156292353
8.08565608259114
8.87968644472322
9.82160849978782
10.0487011329036
9.38673600084531
8.49355294811877
7.84172412387531
7.0692206268496
5.50084320673434
2.90096134204917
-0.312229178448508
-3.27589534602294
-5.21139873393903
-6.01796156474897
-6.30144233034292
-6.84081936871848
-8.16782767162558
-10.4013372019659
-13.0870366752688
-15.3462536955957
-16.5698128330721
-16.9317898952287
-17.0239477637602
-17.1205923354852
-16.9816616990083
-16.2186418578913
-14.6776303996681
-12.5283800509604
-9.99968523695219
-7.06435522537141
-3.69207588521226
-0.404979939931128
2.08653660321063
4.02103222370989
6.61500875126118
10.6022449039066
15.3251175453162
19.4537071044601
22.0465683839249
22.8946849760023
22.4426850933844
21.4386302502652
20.2439004940803
18.4711449011302
15.4568940206371
10.9774529048721
5.58513855156382
0.51839263625441
-2.98225538142603
-4.7371999235155
-5.81027257879237
-7.31933384168022
-9.39311007059174
-11.4712508780529
-13.0835481299421
-14.0722789408601
-14.4917361457574
-14.4995146735993
-14.1329607803333
-13.2635838091179
-11.9530496497747
-10.5539285569792
-9.16802556546371
-7.35924710091818
-4.77510359036538
-1.76269535461759
0.939230596516734
2.85756322448054
3.98664509054323
4.6809286287647
5.45485891060342
6.60545970234445
7.98105619504099
9.16764783085439
9.6963393770769
9.14592429113754
7.51180226798542
5.47041674061479
3.84373668187898
2.85264843667473
2.18715246142079
1.55235250952981
0.872569924126744
0.311371687295727
0.299603956607209
1.13985701286794
2.45514385464984
3.41038956555583
3.4886675675163
2.77678554677586
1.72616112282836
0.919886415096085
0.713063049653746
0.822635919112894
0.60019732939823
-0.179614135817869
-1.14994825556622
-1.94144207677555
-2.55999659891512
-3.19665531944671
-3.93065879192246
-4.5856522756305
-4.79695304378245
-4.40966139696445
-3.82051261934518
-3.57271140603203
-3.58743868431645
-3.24722089877405
-2.2794298202557
-1.08079576271635
-0.151866179124069
0.349141646317676
0.522469661263638
0.549322859585232
0.56159548279002
0.568757376685376
0.616409344932031
0.864738249226838
1.24805788044587
1.34678986962603
0.946550522034821
0.391061339850412
0.0887224677632101
0.0839944664668829
0.322077993042456
0.809264386920781
1.29531799821223
1.27687861364156
0.495960412781179
-0.834564425469618
-2.23528235854555
-3.21576651819574
-3.60771166500246
-3.79083769557096
-4.25579885893827
-4.92232954426001
-5.26874087773837
-5.04265105760273
-4.41327749780209
-3.52841245390225
-2.34957988193986
-0.903356110846709
0.587980404911904
1.81981907626135
2.56526428502393
2.86741631930162
3.10525456079166
3.6733779803055
4.6319167039011
5.8148277653724
7.00399495770134
7.78721719543114
7.72421999822295
6.98503848876314
6.33967497806247
6.23663278672653
6.37495027787418
6.33592476086695
6.10175864898955
5.81546387760172
5.45969432736623
4.87207610259251
3.88406753081182
2.50881326914745
0.990340257700746
-0.575594044802909
-2.51556152191794
-5.0730079982909
-7.85755119328053
-10.2472055359853
-12.0339924532169
-13.2234892931182
-13.5323476387202
-12.5070910613773
-9.96387309028396
-6.23181189174228
-2.24025715282199
0.750697297985052
1.9576838744205
1.6383194475146
0.652849379508834
-0.33760895221707
-1.02530435185073
-1.17587789122279
-0.644321415689505
0.422450033584469
1.60697139195902
2.35607311891623
2.21021672482274
1.26918467271163
0.306481744989196
0.0226742265266446
0.374862075765126
0.949801792366721
1.61826153353058
2.47329241180908
3.46777170516827
4.35407575703264
4.7695464757934
4.48267578542692
3.85573714366471
3.75513470889175
4.56179107668501
5.54919942375987
5.62115927674292
4.41623339797258
2.48001410941989
0.665094044954012
-0.499315718922517
-1.09727948588609
-1.56063850168739
-2.12112443960387
-2.7718513752503
-3.66575620696594
-4.98519466310422
-6.38308720782073
-7.11351552212532
-6.79504816474143
-5.67019142760235
-4.22121683054753
-2.90904812391831
-2.10286731382742
-1.8519792644803
-1.82239352264854
-1.6640551524057
-1.21735028440108
-0.302826440727533
1.2048774098678
2.93486340419289
4.11931600245713
4.27488378726083
3.49639053881008
2.20016195475392
0.847209445252808
-0.362609710878091
-1.71913765149753
-3.53682790118778
-5.39193125755628
-6.32466327798592
-5.84938478415732
-4.36603090694711
-2.69243273347897
-1.52526911949123
-1.07597848877492
-0.894680650181509
-0.29347717063874
0.939033392850256
2.52509740399429
4.22204440906247
5.86985631940103
7.12820143381673
7.68474211898305
7.57206844797812
6.98490518939654
6.04636795707223
4.91678563027956
3.83294012677785
2.95920428832493
2.37926401653864
2.09343263640383
1.85918293001073
1.35787002086249
0.764441992052299
0.768977574714778
1.70654057630726
2.98731344493009
3.66617545066141
3.30980512948485
2.21927797577507
1.17173168882678
0.942325706253452
1.66904621786762
2.69716932350416
3.26629287729946
3.1306491331408
2.39611931667921
1.20252990000368
-0.227660387870391
-1.59321179536551
-2.71751964964495
-3.61162417835169
-4.48461921707947
-5.7727309633377
-7.75289731552288
-9.98090159197341
-11.5421400534887
-11.9171584285194
-11.1940904521109
-9.64506373278643
-7.72115750743403
-6.2422850064958
-5.86636973718751
-6.37239163520427
-6.87068450826555
-6.67248930366583
-5.80849177676825
-4.82294007617427
-4.05938461905451
-3.06525173351547
-0.93347470877623
2.58607144385316
6.58132218368654
9.73802047304341
11.2994550080713
11.2213521145235
9.92551558424241
8.15720096019039
6.61865993006707
5.45405652468807
4.34091748453966
3.08198953519227
1.83007834953558
0.895668381821627
0.581602234567868
0.93736520228803
1.53103814555208
1.81553383204291
1.7324822108534
1.55460215155439
1.27501141249075
0.645877668185807
-0.312200886427444
-1.24666965060982
-1.7854111717974
-1.74366881868757
-1.31811728387912
-1.13956200591108
-1.7435188724312
-2.96989119897556
-4.1740478492826
-4.83069829355534
-4.6929098303045
-3.81013921590089
-2.71093411493122
-2.08339966212773
-1.97468321461878
-1.71862010241895
-0.815441558545965
0.506884273073986
1.6714637204575
2.32794176709893
2.51050350659282
2.50081916156907
2.55003047285299
2.61767515110811
2.54078958651726
2.53519993730196
3.20167565679633
4.89291362109819
7.3579992152084
10.0157867980498
12.2533310337081
13.5523245369121
13.694554309773
12.8640598286102
11.5000682516274
10.138691554191
9.09429992104853
7.89780639359444
5.44879091373437
1.3172325662445
-3.43856568055874
-7.28340992234235
-9.67613600295754
-11.1196111561728
-12.2214986830357
-13.1682962679946
-13.8118710485365
-13.9725309038741
-13.7860359664135
-13.693293995916
-13.9369140417439
-14.3222526473136
-14.5815542521537
-14.5797017331705
-14.1333641729108
-13.1305813292492
-11.827008006567
-10.5132901460702
-8.92476733878361
-6.47623294118008
-3.09710932667453
0.500563008348584
3.33899236181265
4.78499288930039
4.88943527552682
4.34878092755219
3.93419271628086
3.89079529274541
4.10501193304625
4.63444799067087
5.60918040264613
6.81367124185242
7.82819718913546
8.41988346615191
8.5463122994045
8.27867314787282
7.89951407186438
7.78496885359996
8.14735460598654
9.09670379061037
10.7287328030708
12.8569437498491
14.9229076800346
16.3930342392802
16.9608898516874
16.3657935896775
14.5259442864411
11.8960559741833
9.24241664891718
7.06265278662149
5.44686273351683
4.19703101381349
2.8171104121751
0.789952295121918
-1.81969868030592
-4.29708013119209
-5.97941381525848
-6.87883459935002
-7.62594158384603
-8.92142970776945
-10.9298202196647
-13.0973695625206
-14.6708203686866
-15.3722460382346
-15.3837316708086
-14.9015646783089
-14.1766132999519
-13.7539443462097
-13.9858140222726
-14.4181380858069
-14.2460019533006
-13.1616091441532
-11.2567089812534
-8.51533365413532
-5.01836044319907
-1.36538184442475
1.54698885891684
3.02569495097044
2.83613694643234
1.30057362036509
-0.845809535650943
-2.90050916208537
-4.36560178512499
-4.71855985058987
-3.59322807986174
-1.37545237769524
0.938852702257377
2.70246728097063
4.06186560533855
5.45787148310083
7.08827397776514
8.85075883056315
10.5680636293691
12.2632889190421
14.1058297525822
15.8747020050413
16.7360730235389
15.954720856961
13.6502039023498
10.568860495539
7.43072455656894
4.8398411020335
3.43972617176873
3.58123735162977
4.8867538465442
6.45384762315913
7.4745564836928
7.60509258696359
6.88027720444244
5.30033881961666
2.56677284938422
-1.40731259759799
-5.72840279816283
-8.92173171155327
-10.3161573258137
-10.4897067388589
-10.2645330525475
-9.8339694783131
-8.88270143820472
-7.04797607632108
-4.3473177773904
-1.53164860554515
0.244357607948429
0.431608129855177
-0.504952880761743
-1.75002197534538
-2.74062893764112
-3.17229491935929
-3.05186197544347
-2.76170548425678
-2.59870348958787
-2.38337035363943
-1.90018006387278
-1.46398281777459
-1.68012839968238
-2.79110432877411
-4.42182519094849
-5.82868340844848
-6.36026270462652
-5.80976651614679
-4.39340845433991
-2.51895246323108
-0.759380299849887
0.173967271948877
-0.0012788431717874
-0.545989222204902
-0.235718634202643
1.33734789670679
3.40227408712827
4.96894788662259
5.74079527500669
6.10066194045429
6.49730317345027
6.80692669948814
6.30440404114251
4.52943354999221
2.01220716840295
-0.299962432024221
-2.0969044197604
-3.69862179406981
-5.30925704034087
-6.79694734057716
-7.96025960028436
-8.64117958279129
-8.80228622942261
-8.60945342545097
-8.13520679502407
-7.07771084928933
-5.17109533600236
-2.66796805651051
-0.0444938404610636
2.45006334016663
4.63922671797512
6.2121261805267
6.94098092065861
6.84533040748998
6.1615678904341
5.44536065692792
5.44014145512578
6.35727483966063
7.50795271129836
8.13055926104912
8.34564620046706
8.78787083244847
9.50911146386195
9.77171891578393
8.86808778234837
6.85557961363671
4.56624195848732
2.97924150257356
2.45741004312621
2.62206855020995
2.94058287079161
3.10167146235521
2.87069000903028
2.1669190369287
1.35868646054842
0.951429875872784
0.951541240395216
0.928824511784065
0.549969558840435
-0.298753921875355
-1.63316675980113
-3.29313946988654
-5.02561328531076
-6.79874595718743
-8.70110378403983
-10.5417285194372
-11.955796438113
-12.8305161724383
-13.2855955902724
-13.405595289491
-13.2353066749389
-12.7928978322765
-11.9584895164165
-10.6305085108335
-9.0089209160205
-7.42807073327883
-5.94159917687221
-4.31890124280247
-2.384095639324
-0.190872567164032
2.01766279091757
3.9256793253246
5.39331346079798
6.56499971565964
7.43715357435904
7.48830582333633
6.28102380977332
4.30680044187474
2.64725995408257
1.92890193989672
2.09120370017119
2.85730659179548
3.87424233192449
4.67311564827347
4.9825421486334
4.95866256861915
4.94176099786232
5.15947177211908
5.62069412317073
6.05888837925994
6.08819035941024
5.59086482343001
4.8092879983412
4.06418245366002
3.61393929469358
3.60163783591028
3.81235809970254
3.78097573267591
3.43329132360166
3.15349466204203
2.96456816415639
2.28925206526825
0.848317522327926
-0.828744098981768
-2.12491187341622
-3.0892267703976
-4.22528282354897
-5.86518829724803
-7.87608671907093
-9.75606138270262
-11.0181491323031
-11.6073489259484
-11.7875056807147
-11.6082692839727
-10.9000208428213
-9.81775418136794
-8.79105540192714
-7.8551877362492
-6.66287564691518
-5.24710886848491
-4.17812440899911
-3.79455745320697
-3.5893772980712
-2.45785565774435
0.412199538394583
4.7170255210318
9.17078447359891
12.6490411900149
15.0132262842459
16.6937587897314
17.931627725294
18.7189857414937
19.0233178197894
18.7317221897837
17.6916026528021
15.9788822351899
13.8654517151609
11.5124381052197
8.90008936833346
5.96212703606801
2.72950596691781
-0.433620358718445
-2.83945700903668
-4.10400091715975
-4.6398613334203
-5.17873849211028
-6.05204558959383
-7.28440903089337
-9.00361621686744
-11.24996570022
-13.6429548391889
-15.7009500554563
-17.3278862748213
-18.6867825537404
-19.7795118060918
-20.3145649885827
-19.833704262582
-18.0721856694892
-15.4148054852731
-12.6596198974151
-10.0344481411592
-6.94084107688133
-3.01317927408424
1.11422215793385
4.42686148586121
6.45925703155213
7.44116030971052
7.92782187608039
8.32128678181251
8.48598844764593
8.01903291810831
7.08953831485095
6.5900364397409
7.17617148176562
8.52279749436637
9.68244464591187
9.82949195709582
8.69109106130912
6.71105514192078
4.8317372032711
3.8334376681586
3.83841730540285
4.37830013576785
4.70176188293083
4.154185820166
2.66876852562714
0.887645686258729
-0.434260260021581
-1.04674639357812
-1.13476857805136
-0.993192161820263
-0.993500701282356
-1.45320335840813
-2.22201872773691
-2.74686332330438
-2.74680337812384
-2.44428961555281
-2.08232922689366
-1.68417981273549
-1.28803522976038
-0.999415443839997
-0.866266350243306
-0.923449993856491
-1.13325190144291
-1.19464668938604
-0.776867378349286
0.0263414021069468
0.826166910123475
1.44068141006621
1.96090515295968
2.50007401258575
3.12765372320421
3.82905156969357
4.408342285411
4.69666482615751
4.8372515278385
5.06959955425036
5.36084830766471
5.4927854889515
5.26267393576876
4.45741192799935
3.02574700423554
1.38004653110502
0.116702755070166
-0.575779774012058
-0.864321538964873
-0.802647383839512
-0.397499373699345
0.021013726711915
0.0345829970313929
-0.284157781390356
-0.422310710172179
-0.0375129845235588
0.695029600930029
1.20098473671672
0.84531664051842
-0.623672434298115
-2.89897968281239
-5.52039837529142
-8.27943771478459
-11.0708170099805
-13.7036122421143
-16.0414671158684
-17.9488369756428
-19.0564709790241
-19.0368831713022
-18.0618504556641
-16.5425029842124
-14.5932966278541
-12.1860599358224
-9.57757378451726
-7.17855479311434
-5.20297411896481
-3.60999482778943
-2.09872953118113
-0.199904668996094
2.22692868166827
4.74863054554889
6.99972642400638
9.23159644101905
11.7983225080638
14.4848155487336
16.7453718555211
18.2642175011319
18.9884428216063
18.9058244056084
18.0176417124405
16.3952394899344
14.2301994318746
11.9023570927137
9.83290769551946
8.13341467754578
6.62197235406381
5.2930315860521
4.44651778711454
4.2331811008067
4.39274152915113
4.47709709123409
4.06026177602526
2.88353779203898
1.10288784867791
-0.809907279343919
-2.59061021735793
-4.31222592189057
-5.98104568250651
-7.43536735793133
-8.61765574203798
-9.55125685964129
-10.1700645398879
-10.4729559222029
-10.5999811093196
-10.5627214682817
-10.2502181940423
-9.73634197396589
-9.08696750953304
-7.93844487119113
-5.87547654866207
-3.1440719686685
-0.470286236838595
1.63584147819873
3.00084895777566
3.59416578842189
3.65551745787278
3.73047221818203
4.25312542405512
5.20553448616996
6.19314823369488
6.68111608001824
6.32592253750784
5.36203867290883
4.4955755329916
4.16301470371193
4.10737953774865
3.85816486180427
3.29211235327694
2.57625745656092
1.96209193860734
1.73500400077139
1.98779862663206
2.44875324889352
2.79834208528047
2.94486973749735
2.79267969788185
2.12919748308428
0.941040655726441
-0.526838110177443
-2.09880501331684
-3.73832673501247
-5.39883570833234
-7.08854745947265
-8.83875067156059
-10.3946106602871
-11.3160628178476
-11.5643159224437
-11.5911423563622
-11.7748182053195
-12.1343769092923
-12.5007130304223
-12.6024404382735
-12.1695147992738
-11.2117439905687
-9.93751519364507
-8.35609262553492
-6.40715954484764
-4.44013671733146
-2.97160145725238
-1.92455579590222
-0.61834121030306
1.42536611227725
4.00056524065581
6.46182169906934
8.17303789433123
8.90102028220748
9.03385895563176
9.2206117877832
9.67846478616182
10.116823022523
10.2690087082432
10.0860993734482
9.54875440751758
8.73540028645541
7.9248983408048
7.31373954863649
6.8440709445862
6.45832304624301
6.22099959499096
6.14310966937287
6.17199720312023
6.27784218071089
6.34661054718482
6.23804627538118
6.11324054699073
6.34597225296448
6.99615561331958
7.74843495101768
8.36300315706991
8.81651232613407
9.15439100828667
9.54349787611136
10.1760307439694
10.8314473637953
10.9069296482393
10.0985125816333
8.70391154587414
7.20578019640045
5.90428119141902
4.83467175651303
3.61932962238068
1.54391430010508
-1.80254964271527
-6.08155669349113
-10.6674368834666
-15.2806331585901
-19.8787829361988
-24.253177171573
-28.0293589800071
-30.8367679081091
-32.4188676468911
-32.8676320812877
-32.6630319311682
-32.1991996295111
-31.4705307462989
-30.3806691512911
-28.9609529937456
-27.1449708135787
-24.7564555996171
-21.7400635793905
-17.9624139424227
-12.9178914902413
-6.15927673463928
2.0403480774703
10.7436817253937
18.8337454631712
25.3061737107317
29.5584517413379
31.6794042220739
32.2274955563127
31.7226316025808
30.5140918471318
28.8265183657511
26.6406689057493
23.8299796076641
20.570193242035
17.2672368757086
14.0817669470727
10.9460705512792
7.98404112206287
5.47934145094967
3.49037511718681
1.83460839563558
0.342482967613324
-1.09332001143881
-2.47838611538629
-3.54391527309221
-3.94509471644214
-3.77191353086941
-3.4973254181521
-3.37682221911923
-3.28173567613395
-3.05792702294548
-2.68248049527598
-2.19389293738069
-1.69902473245279
-1.23468727729473
-0.579792884716728
0.443378811705203
1.54356937828863
2.23289747156464
2.37677147953952
2.12309933806517
1.55938203628944
0.768894298001796
-0.0836158718133157
-0.941707097950859
-1.80912617861401
-2.50022336599056
-2.86338210666076
-3.16365359270514
-3.80574262070583
-4.81979597243611
-5.94489371932132
-6.98523431982047
-7.8740338999788
-8.66583512024242
-9.55682629265868
-10.6454483675211
-11.715706742416
-12.5010327022294
-12.9797061488146
-13.1273671162497
-12.6254060258994
-11.1630107156762
-8.86972819424677
-6.24963227235285
-3.89410389827114
-2.28103544163522
-1.47685638932333
-1.01648796777888
-0.398402914505356
0.440816718019149
1.38853353879374
2.49766177637494
3.74648602993826
4.8712237525792
5.70224401737697
6.32233059119144
6.82698189271548
7.27006053940208
7.75108295274026
8.23747780923756
8.50683340929975
8.49663204935779
8.39311914947258
8.24787693868725
7.9270285949
7.48420079721311
7.12967095131635
6.86674821878045
6.55877922538666
6.2068579909005
5.84457557981515
5.39828434231446
4.86336933109227
4.33577346700728
3.78627524024211
3.11724740011365
2.43641662123644
1.97193768288334
1.79552833184658
1.90141511066326
2.38709479337819
3.25193196119945
4.19601916360607
4.88343389632285
5.22749948580903
5.29962099233207
5.23209273652884
5.23135279080907
5.38356479465272
5.54726161563443
5.67699799102586
5.91079561053422
6.0360149325306
5.29277421159773
3.03087900535703
-0.747518778263378
-5.55908657615566
-10.7175938684371
-15.4382146050963
-19.1148998327711
-21.5766633599055
-22.9469245003631
-23.4663903000337
-23.5519140670198
-23.6875534358044
-24.136597226811
-24.9435437308374
-26.0165059019656
-26.9103725406951
-26.8477866921098
-25.3080437893183
-22.3632927059154
-18.3384722473284
-13.5275068515273
-8.2673776649461
-2.84446519544063
2.70947298411851
8.38854164464549
13.8244485553053
18.3882159396495
21.5829302146447
23.2382424756191
23.6496277062248
23.651707960813
24.0656570646239
24.8643416108715
25.3356685968937
25.1433413374137
24.6832672191359
24.3492438084414
23.9597811562877
22.9705727549565
20.9931139050796
18.2031731489547
15.3199711144409
12.9686771501941
11.1354118383738
9.47672931167894
7.82932134798132
6.03182877010586
3.6573097797965
0.417856002127588
-3.40838513353292
-7.19608135484739
-10.3446947335752
-12.4582801471642
-13.6048079505963
-14.3543585381337
-15.2036373608468
-16.1366691394332
-16.959863914675
-17.6392681263136
-18.0516513958237
-17.8747144736681
-17.0214421190023
-15.8819761865599
-14.9733671629104
-14.5116580248892
-14.278428654539
-13.7377778716544
-12.438309332023
-10.4867936181503
-8.43712838757171
-6.587657583727
-4.67333612528884
-2.34512599520033
0.379678721830543
3.15783473451895
5.4569431118957
6.74879963339682
6.93463903558842
6.48331688548106
5.99098982915975
5.85374946532649
6.35004776274614
7.55287526945533
9.09946641165038
10.4265273347484
11.1915180325864
11.2650197667983
10.648733011554
9.65299103080271
8.74345170429258
8.01932729174036
7.26435050170652
6.51065775331696
6.00044407957126
5.64707412254381
5.08978760223135
4.20755748049371
3.17172225864673
2.14832964923762
1.20532197455691
0.302158844575165
-0.737262772798185
-2.01539662575568
-3.34895410513273
-4.47626460955405
-5.33823204052846
-5.96800287521112
-6.36432241298193
-6.6890548629606
-7.2530514276187
-8.05701417252193
-8.67492844633442
-8.75726974758715
-8.3141058571746
-7.518705061742
-6.65765080321872
-6.13654944504793
-6.06677632763047
-6.02281335834704
-5.55213471962951
-4.65521567576477
-3.57888300098258
-2.52518775865087
-1.65221175745511
-0.95252368896963
-0.135644582325684
1.04000347847423
2.47570679515353
4.00189360170636
5.58418815612287
7.04880537873329
8.05460019319391
8.55190259353157
8.90123294061129
9.47664305792682
10.4203861555926
11.6133751719746
12.6357010281691
13.0406429888485
12.8131247519595
12.2077633026204
11.1761926054684
9.46152026646743
7.1989728400526
4.8866373419882
2.79399327688328
0.849002380980512
-0.961781818486285
-2.48391552669075
-3.64470433558274
-4.59998197313755
-5.76509141757567
-7.71078521713409
-10.6644882841285
-14.0822445182034
-17.0466473941552
-19.0034183124626
-19.8702890279204
-19.762197176021
-18.9239624966926
-17.5899605972638
-15.7125567435215
-13.1823059765409
-10.3181617446995
-7.69391091066553
-5.53940164487752
-3.70260904211303
-1.99838217343046
-0.19548888222239
2.09122877220307
5.11863007494936
8.76908253905347
12.6833429062173
16.4062423110253
19.4726980444728
21.643151520422
22.9292693102149
23.236327142271
22.3066891939586
20.1654633319685
17.2853074809038
14.2445659412356
11.4758676133218
9.1956809668513
7.23721887114435
5.10787150468718
2.49469161464889
-0.462604467098491
-3.54559361171061
-6.75166831507365
-10.0311970097387
-13.1256997505229
-15.851258498024
-18.2055248740827
-20.1725491741697
-21.7501729956175
-22.9813654961911
-23.6041553734271
-23.0408400807057
-21.1331182947066
-18.4752180977746
-15.6928232109549
-12.8189700522403
-9.58413602314501
-5.88827927850068
-1.87551816831859
2.10245702942312
5.6093489147676
8.46526734181412
10.8506241871228
