-0.402294348602335
-0.211089295435932
-0.0618352388275445
-0.0655521395094806
-0.158098161636959
-0.24052015787361
-0.329094492247989
-0.406227875019888
-0.331051801443447
-0.0857386347050825
0.100469094565505
0.0581742347225391
-0.0936128802326436
-0.188687662503239
-0.265873113236089
-0.408181543186151
-0.5270495577352
-0.477740051772323
-0.268238445916151
-0.0561267412643119
0.0049887734245107
-0.0770071181769435
-0.104972712332318
0.0955644108715606
0.44672177271074
0.717682494457545
0.794262354589443
0.71779867470033
0.56280899578541
0.414044119760852
0.350141799113235
0.352091801716133
0.335239680854998
0.279971768774795
0.204969290023043
0.0892473882425415
-0.0329285104352852
-0.0442071903716753
0.0466236286856264
0.0680879022084346
-0.0253939054829565
-0.0744308602981151
-0.0076328463336666
0.050832635037959
0.0160710473356013
-0.0628569018216168
-0.151618873540543
-0.25719876683287
-0.329656521438679
-0.31593260786804
-0.263799668185571
-0.235336643469263
-0.199681721548942
-0.126275209390535
-0.0720851366191994
-0.0776312735002887
-0.101419795538481
-0.117307004048759
-0.140634251299538
-0.146663707047967
-0.100131744543692
-0.0344899997692862
0.0054155601978608
0.0248751039072494
0.0224763935365546
-0.0197738769704427
-0.0716483213782669
-0.0874850031935883
-0.0722391792599498
-0.0387850066403158
0.0101959875583773
0.0216413627294847
-0.0475449033612206
-0.120024536068154
-0.111487559823178
-0.0811490822229092
-0.0947971562230006
-0.0829903194597828
-0.0161775619632031
-0.0205378340685396
-0.149868666563912
-0.266014950520792
-0.265388298500661
-0.188133198907396
-0.0555277564281442
0.145459050070857
0.314213181801329
0.324555645428028
0.240887906553617
0.230072172720068
0.306692178399735
0.3594519759854
0.357917562290567
0.345625078315031
0.306367707506156
0.209976282578682
0.11957020044171
0.122303313614115
0.21238419618716
0.302494650827711
0.300977653558828
0.195661925430157
0.0998818702625787
0.134402878968986
0.249219948747702
0.286574695498016
0.205879607410487
0.107479251069916
0.0764449241466874
0.121353169905259
0.196121831979921
0.215715211656407
0.155946242755029
0.131128161316217
0.218243182809612
0.274278451644079
0.127989914083367
-0.147203548920791
-0.344004219492059
-0.371576031444747
-0.254269847688322
-0.0681657676664432
0.0220122770125469
-0.123009088315658
-0.409761222748431
-0.616323232227266
-0.688957737004929
-0.744296687257198
-0.845185609530026
-0.970116037538916
-1.12399051488308
-1.29395171131876
-1.36982975176479
-1.25459414601413
-0.970093122521885
-0.572196573301482
-0.108823851789655
0.28392918856616
0.449421908548769
0.438172274874472
0.4788478806154
0.678519179060897
0.894684770597797
0.920703680148417
0.724389031527995
0.505057188631448
0.489532089460426
0.643486156716275
0.701211053098488
0.529017842743845
0.269840047936814
0.0716528226787606
-0.0868376440881857
-0.235551386428576
-0.320091804726526
-0.314943702706462
-0.23495743342133
-0.0725148813093521
0.10799559095608
0.143754908300828
0.0033551875623852
-0.132565403148876
-0.133260064889676
-0.0475459737923747
0.0762385907360574
0.249472125604799
0.407639780772965
0.459041118018893
0.455568852831936
0.507105883185778
0.583442568965999
0.591330299614387
0.557199519827384
0.550011546123972
0.529319540789237
0.431527297716428
0.289290087857802
0.151915815261401
0.0228283713935787
-0.0744572589712031
-0.122334503782709
-0.188826639243271
-0.324373428558328
-0.440288148763334
-0.431904725462858
-0.33954326718204
-0.28448117851017
-0.323672037622638
-0.408118298833076
-0.425163345209558
-0.31025291151154
-0.14636445958732
-0.0641428188895448
-0.0655247169392553
-0.0959979851772746
-0.207334403018459
-0.42854098018677
-0.592192526331225
-0.542119855966108
-0.382772789353037
-0.299341120145321
-0.297813087001757
-0.300850070282054
-0.303426082964709
-0.301310800509008
-0.256679979865358
-0.201320053580514
-0.196852930696502
-0.187510676936207
-0.059520265577231
0.181956902646265
0.435254349502096
0.632961931158627
0.72850123284985
0.662663731761378
0.465099289909403
0.267186464151156
0.13057351008369
0.0088199120532249
-0.0892507892425929
-0.0821463259007165
0.0198189477352109
0.0935985831565381
0.0498610741764434
-0.0856848918013278
-0.196371412611654
-0.164837612860296
-0.0140680641015532
0.0881975807215011
0.0485305410126207
-0.035531935085788
-0.0548283000562361
-0.0284819035038693
0.0037120315028014
0.0578379172401354
0.136013082549494
0.227575785624585
0.339977604858187
0.402419872627443
0.282856119364755
0.0267534830029883
-0.140655416911241
-0.156245521064601
-0.187144047392022
-0.286064487758223
-0.301519450464709
-0.192970247172197
-0.111190278795396
-0.110530124251868
-0.0742534145352188
0.0362458105449819
0.116961372151028
0.126960612508383
0.140044488807751
0.195958325379648
0.274486641138594
0.373233228200778
0.475698016331003
0.513463956368441
0.442210034101583
0.278070379642126
0.0620047913739658
-0.119040998980368
-0.151790894215466
-0.0431084826454413
0.0564625940975485
0.0517715822143777
0.008822072496286
0.0299447210552329
0.136905476430398
0.26828247508956
0.315417490777524
0.223723535344135
0.0858711172393815
0.018281230633249
-0.0210561530277984
-0.120975718805826
-0.214372814143991
-0.201458973008792
-0.150822404655483
-0.163543730189325
-0.197515399222529
-0.213154875718381
-0.301330009849152
-0.511959648506557
-0.739083000098903
-0.867437200186785
-0.870669067008688
-0.756541641660927
-0.583930687000747
-0.49536802219095
-0.5631597154664
-0.663207831797332
-0.648046780449177
-0.54750574450778
-0.465769496363129
-0.412724810691969
-0.354094337151178
-0.27636604291255
-0.12089840001028
0.183901658725806
0.579343968069343
0.898744982332199
1.02712396758546
0.96273218030854
0.7952703889494
0.661662811261494
0.623169454182366
0.604100713968113
0.544414117536341
0.503302622639393
0.505404135117487
0.4557888628946
0.316593802042154
0.170571390756715
0.0339005919198647
-0.172905877696897
-0.426714742442445
-0.588954231505318
-0.589664529277154
-0.458442251613447
-0.247480147171208
-0.0463875690777497
0.0636446311878991
0.147615604109742
0.337992528758585
0.600332358468455
0.776479553244822
0.837749994876005
0.881371230542519
0.923324590782307
0.912689468913905
0.88932525972368
0.913820043262265
0.915660740289187
0.805954547904985
0.642933017576458
0.514162312239749
0.373221227973366
0.140276147228606
-0.140351951055247
-0.339868249798849
-0.377002091270174
-0.292109985203639
-0.220473649450186
-0.251612215851761
-0.333944444937628
-0.401681611207746
-0.515503661971679
-0.749074701215168
-1.04103095639439
-1.28525826601867
-1.44728214428358
-1.51787691303776
-1.5131469922568
-1.53866874997163
-1.65521883745991
-1.72277095064778
-1.59747603551569
-1.37444997881076
-1.20446868643969
-1.03284503169283
-0.741178258068214
-0.359187554523756
0.0389147914414059
0.444529115725316
0.804419892087811
1.0051497441562
1.03514860207203
0.983404109977027
0.87198745790446
0.666432959862176
0.421533356983048
0.23971318699903
0.128078996508581
0.0501142383249293
0.0459623097726575
0.163179138238763
0.348640980324373
0.501149715922963
0.548372670720599
0.455335819048314
0.262095636124387
0.0867704648701178
0.0034126239742552
-0.0190225835335902
-0.0175086677236483
0.012683692668275
0.0601833906588947
0.110367589794891
0.17544878609536
0.215583174715712
0.143282344675386
0.0009311576191335
-0.0167186084141582
0.205397805908235
0.591826513450907
0.996039367647408
1.27156414592438
1.30600353785889
1.16410339889124
1.07306598912286
1.12137442559146
1.15125024987444
1.04168491662357
0.85733018412077
0.654538479739336
0.40898149235323
0.185805965487173
0.1311392302281
0.265940293885826
0.491745585656642
0.764100419771209
1.0531854910225
1.20504575284976
1.05913530717974
0.640919449285041
0.0884843693832697
-0.497189046954191
-1.02788090768352
-1.42073867389937
-1.69781103434085
-1.94766029185217
-2.17263515011976
-2.30341802681856
-2.32439781943419
-2.2804724431933
-2.22641821083055
-2.22186423268098
-2.29130720184653
-2.37878135250088
-2.39883713047399
-2.27375933672484
-1.90679999681436
-1.27126761430632
-0.530337516415942
0.120421621990994
0.680517991397518
1.2030333313462
1.56789631724197
1.66862660191848
1.6548989320891
1.72210245510983
1.85338014826896
1.98532915137754
2.1869058474977
2.47536507616472
2.68451364287005
2.67417241407087
2.47686173010605
2.1507781711526
1.69033134480641
1.14587158384034
0.643416261727514
0.240730028249374
-0.095988383963278
-0.401098452441563
-0.7231390081642
-1.13789424628143
-1.62485124896277
-2.04435769419294
-2.32057312713499
-2.51800754534468
-2.6977229178681
-2.82736066013502
-2.85070207942651
-2.75887844971168
-2.58909015524176
-2.35730140748374
-1.96832309817517
-1.27772212872394
-0.309440912520027
0.718332551556873
1.63749301990992
2.40532565585986
2.90739240685152
2.97091511663257
2.6527643091127
2.260011337844
2.02974602747717
1.97130310626922
1.96707454410403
1.84314460096881
1.44668472370734
0.813635559540531
0.149583075467906
-0.418080936219724
-0.904298586745153
-1.28265182851447
-1.46516704786708
-1.48306296579057
-1.47678628469117
-1.493406429043
-1.46809899858403
-1.37743145142802
-1.24037352088848
-1.01931820553041
-0.676164706098763
-0.269389822163195
0.103244897065768
0.383764896624292
0.554602891063401
0.663862236019789
0.812800062721641
1.01388110474341
1.14767031772829
1.14069343407737
1.05986233470707
0.983348247019349
0.916319317318938
0.833986486059471
0.67737652252649
0.36256630718069
-0.0928058207896639
-0.544549014829322
-0.874264252598304
-1.02308574766255
-0.907998644000636
-0.538540184813508
-0.154838424510632
0.0144367346739476
0.0450947861095122
0.141198137689823
0.321623365313442
0.487826097153276
0.609335358085675
0.668350536380212
0.619353233764599
0.521276468956986
0.506771136064001
0.556478985955079
0.517812260927032
0.378180548740837
0.296500770485658
0.347400732194315
0.443586566807525
0.504518413880169
0.518105367101337
0.4677300338663
0.340117621532037
0.162223294492969
-0.0331652400576881
-0.217649503281166
-0.360322080935715
-0.480447752677045
-0.631037254109726
-0.784082462723759
-0.857050437204853
-0.859886175789566
-0.862401514633083
-0.859251559524985
-0.828205691309709
-0.826970020817838
-0.882883564826768
-0.924118838038631
-0.930144294459343
-0.973669391042335
-1.0585918775427
-1.11730248666763
-1.1496036606752
-1.15203755347084
-1.01558752513244
-0.718139763900958
-0.448326086408486
-0.320056731222815
-0.173119522659798
0.144690981773822
0.514907639665842
0.731996804379622
0.748802906471909
0.629195417859353
0.451144814114883
0.32032159544124
0.289187792912949
0.24616442513677
0.07224494713132
-0.133590125820801
-0.182864088838259
-0.0787940141469037
0.0114953039265713
-0.0206639569455005
-0.158924789928859
-0.317832527781147
-0.39172622290703
-0.333469928298455
-0.198845739003559
-0.0702254032493173
0.0035224966453677
-0.0171493638953138
-0.131986753913413
-0.258711721864221
-0.331673152903443
-0.379203162613502
-0.419660061921782
-0.415479636866964
-0.382129272284337
-0.34117546643027
-0.162392627073743
0.269840497848847
0.757149457936749
0.969786448300666
0.88874564399021
0.778528155386458
0.810751203926594
0.971002882644056
1.20981074421008
1.4638054519592
1.6511610643423
1.78899518178362
1.97816963562249
2.20152524885911
2.30905534340889
2.24611696737685
2.11674445166178
2.00548718311465
1.91277294952943
1.84271459874999
1.78016525285572
1.63252999568663
1.34211078111473
0.984186568979658
0.666168447381964
0.429128166398922
0.280461046983859
0.21529377309445
0.20733000192936
0.23568243872365
0.261218983895687
0.179350062797073
-0.0831651014058008
-0.462011885345969
-0.868628497500324
-1.3035740172719
-1.73393703077031
-2.02920904270591
-2.14811223943083
-2.20623208259897
-2.28728586604923
-2.39224313227686
-2.56492748444899
-2.82834349341495
-3.06352871680601
-3.18111763914913
-3.27810978741815
-3.42045167601044
-3.46835777058473
-3.30278449632246
-3.00423284296302
-2.65741745183399
-2.21297397190633
-1.67189978805757
-1.18491747612815
-0.85845749145153
-0.648415015214193
-0.505560225587701
-0.448038352082694
-0.461226993265736
-0.464462825165321
-0.354695138880788
-0.0124911398774697
0.606978741107862
1.32300181317545
1.83347653053223
2.01490135008619
1.980313159685
1.87457498708324
1.75859214426456
1.63609893476696
1.48603164983862
1.32255770475977
1.22700201908296
1.23308895047564
1.26323260116525
1.29030884716925
1.40729432370094
1.60782191372197
1.6963830498046
1.54395912676525
1.23788996597419
0.917120883141968
0.666367797320472
0.561250292900097
0.602028656677035
0.6654797975497
0.695999327478434
0.802227617205486
1.01954994227236
1.18502663440495
1.19435212762407
1.16883243855647
1.2381607393598
1.35722698063188
1.43172264569574
1.42904117108257
1.30558233554204
1.02299397266743
0.672433322222455
0.40774119123442
0.258632922987424
0.141337939364341
-0.0072358679074628
-0.201106262007372
-0.416953363797434
-0.590119036095886
-0.695671478577224
-0.807371645885119
-0.983004085775354
-1.17434346968921
-1.32224421910633
-1.41813472083671
-1.43886980942415
-1.36828004017606
-1.27330011308379
-1.21472198590141
-1.14805752214267
-1.03685180874513
-0.937812420490994
-0.877185064671479
-0.812007993277823
-0.756175233545357
-0.740583381272963
-0.673001477883236
-0.466086041617289
-0.223828373079272
-0.0805386026042115
0.0141963720366562
0.15908243387626
0.32473555450851
0.479017868694971
0.696180048486758
0.995346567732112
1.24894295403305
1.35852808123226
1.35406451220676
1.26567372010032
1.07411754485567
0.798966161347259
0.464468304763513
0.024999710012465
-0.509318680927677
-0.968035535961116
-1.19861279103142
-1.25173638253039
-1.2874811744764
-1.39338466496631
-1.54040616361109
-1.64595598310615
-1.67935826632283
-1.71006550085475
-1.7866587227716
-1.82437160453214
-1.73396421539537
-1.56156136374865
-1.36180626513337
-1.09279219256343
-0.792516698373137
-0.657803184249099
-0.785532375307068
-1.03347160954668
-1.24361209355602
-1.38901743889238
-1.44969296009062
-1.35825304572264
-1.07586139780457
-0.569286684961017
0.193223374413882
1.0907680300439
1.85296168793291
2.3337200094117
2.61015608549323
2.73866361751367
2.63123484713594
2.2552015427431
1.74591511661047
1.24598814753829
0.808519003150269
0.480448031619619
0.302887387764885
0.233581037364203
0.211747773098179
0.251610214838645
0.376884651186085
0.55502188618519
0.752699336882528
0.96674698890325
1.20899015937023
1.52602194071664
1.94354732779309
2.34215297671718
2.53294374751871
2.48796315154483
2.3522726565572
2.25955199801992
2.27877406220629
2.44720414748252
2.71730770614011
2.99481049679867
3.28857794035211
3.61142080403157
3.7324386087409
3.34390062424807
2.4895215546917
1.51955541267991
0.65155427984205
-0.134515873739872
-0.855728811901038
-1.47740996012992
-2.03398630129098
-2.58637888888982
-3.14643552829997
-3.76718052107165
-4.5561515718376
-5.48699289508968
-6.36120350029703
-7.04067884175888
-7.53808224612676
-7.82102992241751
-7.73050220842574
-7.15607128406016
-6.13965134470537
-4.79548530991599
-3.24567693955632
-1.61719515419382
-0.0469414647189303
1.27879484504754
2.13750770752331
2.42837131671844
2.28295760984284
1.96746751943702
1.74136375218453
1.77838971539371
2.06278282524755
2.37412447520729
2.50329739411195
2.42282089096539
2.17566992146689
1.78364522803365
1.3652639100469
1.12158756514883
1.11847441535614
1.29205396660128
1.64699859317322
2.16922350197124
2.6016363457405
2.62034204782179
2.19354376617438
1.52545966024165
0.739166725451394
-0.160596473944385
-1.09993013169241
-1.90330763806831
-2.40395128879887
-2.50580936178786
-2.23276963434992
-1.76419732278843
-1.29810152009711
-0.858009277441857
-0.357180138285541
0.19281502913394
0.690141392233501
1.08255740379547
1.35794469460205
1.50023662726596
1.57206255790882
1.7338441356403
2.10214988496621
2.6587448701106
3.29591496374483
3.89090270133402
4.37254747121752
4.72425340387514
4.8699173243142
4.65720337208732
4.08163165787259
3.38244071874567
2.75285459152173
2.11451104551894
1.30634443130129
0.284939899086891
-0.957120736718926
-2.41591536573357
-3.94282502571346
-5.31701302961092
-6.45563769845344
-7.35736483164132
-7.9365227462247
-8.1174096316581
-7.95963760746245
-7.52636230246612
-6.80175868952056
-5.85804993890282
-4.87208671040628
-3.85448197659604
-2.61638610557207
-1.13243048853451
0.312085161706819
1.44763639992845
2.26383143837148
2.85373600982933
3.22932959330957
3.34859448087831
3.18436942675932
2.75541455540665
2.15131319023603
1.48903882910846
0.851549111379737
0.327808194986732
0.0316583764063269
-0.0047387726068158
0.140921093485999
0.400484094355766
0.737042040323501
1.06969102668181
1.34321344733348
1.6118549448653
1.88653692143389
2.01745659483209
1.89976056040234
1.64575554692116
1.40756087453458
1.19371343632573
0.948294901164819
0.640990223164095
0.274099965002128
-0.0202757032096982
0.0377501864328267
0.600927948119887
1.48883068257624
2.39189910864374
3.12839083168845
3.58130193727829
3.59707245845154
3.13038034621887
2.34839443291665
1.47703463292866
0.686297709168994
0.158461681162526
0.0384969162859044
0.244133358953233
0.512823364266936
0.681648905149659
0.788825463198618
0.90755228556164
0.984106715930379
0.85190353693189
0.415593652721839
-0.168530099084261
-0.612474185496426
-0.856091697865872
-1.14951540865737
-1.71219257006638
-2.49042571973287
-3.31017529842498
-4.09423071909571
-4.87995169153163
-5.72214126490887
-6.54218649206484
-7.03848507971901
-6.90324819406431
-6.1501974747184
-5.02246380950023
-3.64327579368711
-2.07352398646894
-0.625323590677597
0.273790951945752
0.502593307658419
0.243459564609518
-0.317799804472726
-0.975725189081297
-1.31344799397777
-0.8728640048461
0.46580590321071
2.42485939133805
4.57275951649258
6.50818857287003
7.91932625026224
8.59712632971581
8.39182854622002
7.25450836964342
5.45068607516162
3.56509795846548
2.06497234447571
0.96752996369933
0.0695135184558823
-0.706233499374082
-1.35290570682637
-1.96442738038882
-2.68565459188991
-3.52902141582191
-4.31053446523918
-4.79334681629193
-4.94155557740346
-4.97908386123247
-5.10367829054445
-5.24632560331262
-5.22371861798013
-4.94793398386552
-4.35495693603506
-3.37564774700695
-2.13874792652158
-0.950463608979742
0.0595218576125744
1.04694041145653
2.17443851646851
3.4439716675964
4.73864078414311
5.79914112152778
6.28789456181657
6.11505240558827
5.5711808854708
4.95586847518728
4.24661927204938
3.3053608185277
2.22737994020503
1.30864311088863
0.809257461912926
0.84632900856282
1.32760048372783
1.89092957085793
2.09345256504305
1.77301585197451
1.14933862965588
0.568275454208706
0.209721220732091
0.0166046282475603
-0.124203156612072
-0.149848657976431
0.120603598159519
0.664888062758713
1.17451079667013
1.36581902142878
1.2037859983915
0.795627235169211
0.264680705560362
-0.269826352529106
-0.766477590098902
-1.26694369843101
-1.71406422822554
-1.93520644049259
-1.93165311071053
-1.97103794625056
-2.29882126658276
-2.98235425723816
-4.03735266114366
-5.39940838417822
-6.7472299107999
-7.61975181770834
-7.74537060428352
-7.15160259605933
-6.0771553137646
-4.90339933396129
-3.98969412663572
-3.39388573063367
-2.86380658104793
-2.18504775123722
-1.36346606366797
-0.407147253979819
0.824545891611124
2.41215267946682
4.14446971298609
5.56136451921888
6.19481566291907
5.8652646333386
4.8302244181731
3.57197395450738
2.43794931012598
1.56651239623249
1.03505215835082
0.890454341718934
1.11234084442687
1.66640454984721
2.49530186398064
3.43101905429658
4.27301372457441
4.91942459259731
5.25681499715493
5.07466796295519
4.33682815266378
3.36891411085873
2.53936897213171
1.94152895007515
1.54802783321842
1.39943088557286
1.47243860872849
1.61805011625138
1.75009707592355
1.88784392884251
1.9706381365046
1.80856166541319
1.22553054753378
0.161120711478886
-1.27503374492007
-2.75619127164916
-3.88400926501009
-4.49773973570979
-4.74464761678019
-4.83225555564103
-4.88439282297435
-5.02440379080889
-5.35505570083569
-5.8021756982363
-6.10330293681952
-5.93465752449268
-5.04887199101171
-3.48920473616187
-1.72851905695061
-0.407921369936869
0.0957009991136892
-0.25162314925474
-1.31937175041083
-2.84763599636653
-4.45168355528563
-5.80384816830934
-6.73176793607881
-7.09975171117459
-6.80021951938579
-5.91331949969365
-4.68677899303694
-3.32864917291126
-1.90920303628975
-0.367543663556044
1.4519622564071
3.58394760967466
5.70408527316766
7.31301841313539
8.1829761404878
8.44405246706856
8.30107208538912
7.88749122552491
7.31452090481499
6.63865108838827
5.84787358973409
5.05857073849696
4.62103452007956
4.82648350203779
5.56157269242408
6.39300398672758
6.96630843984849
7.29507535847113
7.71420583798229
8.4619732878601
9.18519279979867
9.01298938486969
7.33284194950781
4.41800672075027
1.17430697009854
-1.61682714047071
-3.72490374248878
-5.29406953183772
-6.42325265631872
-7.0192292480264
-7.06436371017019
-6.84161563841605
-6.70556401963597
-6.7483872404711
-6.86221286954584
-6.94310055082305
-6.82881676319801
-6.28326829714881
-5.31993061502462
-4.35316291039588
-3.80932703420025
-3.73476508960647
-3.8738920004929
-3.94865485633811
-3.85111694520389
-3.75580644970639
-3.9992732154926
-4.67341919563073
-5.41490716117823
-5.71615477825052
-5.30843272666366
-4.17063043060486
-2.43724676046966
-0.499504947151812
1.0276207406846
1.69106404071506
1.46905105057759
0.582384740445499
-0.758433355991972
-2.28470999968726
-3.49913999404708
-3.75811407761647
-2.6359666181373
-0.299401803558481
2.52363220292335
5.07092087028093
7.00506539897482
8.32033512525608
9.04050418297851
9.18895986512309
8.85458057344127
8.12060405631201
7.08057883994239
5.95265893532607
4.94488955215079
4.00957704830051
2.95744916366807
1.75607513911054
0.542120486288721
-0.492992568508226
-1.08949423141414
-1.06726761311094
-0.623101864004373
-0.161210957493761
0.288881750874845
1.1591868704364
2.74682478403743
4.81704087781075
6.87011764218501
8.54664128311658
9.69988636209058
10.2826089742589
10.2728851128662
9.65078781414842
8.45535297443079
6.88833640462482
5.25156617883246
3.71915986034813
2.25096079706352
0.699905317803364
-1.12960076753931
-3.45818648627603
-6.36654749173667
-9.62327407762415
-12.7347231599179
-15.1817124028268
-16.6968377138578
-17.393788728497
-17.5348907182177
-17.1522382650907
-16.1013023312584
-14.4873268808263
-12.7034697084657
-10.9700446835124
-9.15861309310848
-7.13930227030255
-4.99080913662881
-2.81537210502484
-0.626686410558567
1.51438104861893
3.40551777659599
4.75357298505648
5.31632041268857
5.11802050961556
4.48920644217855
3.74338426070619
2.94296132663215
2.18250014819418
1.87501888599993
2.38841751483938
3.4748420753923
4.3647605958335
4.40209650119046
3.40358660869153
1.54183845630935
-0.815121208548608
-3.1483547830576
-4.88043293599976
-5.52522198319727
-4.83060997728327
-2.9007740953677
-0.159300698640282
2.88729935641609
5.78903721784365
8.09035474478666
9.42869288830959
9.86527239857195
9.90976847202733
9.9915552238489
9.94495095262941
9.14956284364413
7.2378539184648
4.63719718823436
2.30856311853942
0.927711155321866
0.497205217594437
0.772434653097048
1.64343085146856
2.82931688699263
3.6238761158113
3.42393498460512
2.33277473208619
0.945243839636879
-0.239084931942483
-0.952053224334879
-0.998072821261459
-0.309686577869093
0.888120505167419
2.13242931215288
2.95744265424856
3.11544092975318
2.6706775195406
1.87432342743858
0.903620845934119
-0.209812993024674
-1.38630014589149
-2.4077889294403
-3.09308368968551
-3.42286429873439
-3.47764345583217
-3.42289701251576
-3.55409115440096
-4.18070774476681
-5.41030656706827
-7.06773021479809
-8.80000955684544
-10.3159927236583
-11.5972616407134
-12.7531837641497
-13.5822246352862
-13.497235868599
-12.0677179428321
-9.49030049391943
-6.42708385878948
-3.5401969889997
-1.18822692141687
0.663258344436902
2.29122230961308
3.88653441807559
5.48203702798036
7.22181264216234
9.32340501729612
11.5689167327002
13.1732078197387
13.3956615484994
12.0687090276986
9.46677383534892
6.0074176543925
2.22996009589212
-1.25371708724403
-4.06344690546223
-6.2213913236569
-7.89227755022382
-9.02671221887558
-9.34579095268023
-8.64301885782108
-7.07054129308029
-5.1157090311908
-3.24094293454184
-1.55977854384628
0.0475041276740709
1.54331213815883
2.58706437138567
2.7843572601055
2.05207258466141
0.786400111352758
-0.352168452921552
-0.890290995109614
-0.694522265200953
0.371557562876095
2.66409344739355
6.34898154260661
10.8792164769602
15.1042095580289
17.9081589906606
18.7546024910314
17.7941487660532
15.566515598349
12.5918401200607
9.28171644419395
6.18895063747675
4.06377491499931
3.46109820089604
4.2933593319659
5.6913927098086
6.24384789310201
4.70333857749104
0.875523186140217
-4.21527582503219
-9.21017628761482
-13.3109130578665
-16.2547513861571
-17.9285966147023
-18.4846267289948
-18.5745086325159
-18.9727942743718
-19.9737569717077
-21.334853675457
-22.6258729482061
-23.4122470746428
-23.225759378948
-21.5792664721918
-18.140454329812
-13.0288627548792
-6.94495312240876
-0.811465942078116
4.76212860766948
9.55675234153643
13.4274642055653
16.1319178917803
17.3751268229692
16.9514037242491
15.1314838556097
12.9686707110893
11.7302631353945
11.7608582806459
12.2127333381951
12.0087597665024
10.7719111466731
8.83863856072514
6.78180949860196
5.03129762050251
3.73856041041608
2.90878718280646
2.58243475195951
2.69871433136088
2.85811980859538
2.55878526023045
1.72261632388824
0.754662715182686
0.090955081744369
-0.0952926000550883
0.190390723944811
0.864543127251445
1.77673478652838
2.77545752446702
3.69830847158388
4.21389808622432
3.863921951903
2.4156155423704
0.0788596378273114
-2.61983269227894
-5.01236406884338
-6.41485974126718
-6.37791829056734
-4.950762739993
-2.6763120883092
-0.311644294254924
1.52639567629858
2.56181835108068
2.73465743967945
1.94952620123197
0.147068966522068
-2.37965347799218
-4.99824897740335
-7.12229972864935
-8.43358188398434
-8.85136270330874
-8.58127561429795
-8.14393162755037
-8.12948259059842
-8.94624048402696
-10.7772846725383
-13.4208910565049
-16.014363515641
-17.2699234859701
-16.3080066983698
-13.2333226263831
-8.87947917511548
-4.13249627701039
0.498123768672742
4.83690369472237
8.71509438358616
11.7774931853826
13.7433775708255
14.7835061399872
15.3114779509745
15.3331218614706
14.3322473833964
11.9193034288557
8.36242197847238
4.49691505482773
1.3545469492788
-0.273816237538139
-0.288020633865677
0.712691538758249
2.01015807544923
3.19912454859036
4.00779675783921
4.11717143186845
3.49430125875187
2.72279815644656
2.6691841738945
3.70438736991032
5.2912241402561
6.41976027370479
6.4810497927694
5.62146545167738
4.25255179066831
2.52253978339222
0.454388370277781
-1.7005308019081
-3.5558192382891
-4.88290792178338
-5.59200977582443
-5.51288331405749
-4.32451271504704
-1.73859409342919
2.06903501872527
6.04002672615332
8.47746875860487
8.14267242805164
5.25090254155199
1.30372512468915
-2.00913315399628
-3.75054703323845
-3.96535277830478
-3.34702440511161
-2.62777961571833
-2.13970517799119
-1.97080407118639
-2.3816730737369
-3.74949894584497
-6.13672522013008
-9.19608402757573
-12.4656906820212
-15.5248297532783
-17.9044715422374
-19.066514991251
-18.592439076246
-16.4942684293057
-13.4062415605749
-10.3294305034454
-8.01842301374148
-6.61344564213212
-5.78362983267199
-5.00970462802582
-3.78889802514911
-1.85798141388774
0.756662875836845
3.98920763483731
7.77435432919302
11.6495967733265
14.6766838597577
16.0962398625784
15.8732236173396
14.4434540549629
12.2129836438666
9.49499230235205
6.67774005974827
4.1849861100042
2.27373431703547
0.894814365348801
-0.280828611021434
-1.59336729255158
-3.00612896511322
-4.03265816941512
-4.13142550224836
-3.10000711274542
-1.08039241250425
1.63027727806927
4.67450877177022
7.6273413469764
9.98442950881437
11.2936277191299
11.4918569514791
11.0810343024628
10.7693584091264
10.9575865809156
11.6694482344394
12.7372594297358
13.7992161030343
14.362150035307
14.1934872976987
13.476254808991
12.3226731830616
10.3511309543592
7.03574075505881
2.38059008085903
-2.89723594268927
-7.76267060775131
-11.4149727687346
-13.6242198531723
-14.6742053821843
-15.0793974465589
-15.4259978474216
-16.2960518107913
-17.9618455161501
-20.0236175557778
-21.5275857823335
-21.5569070694305
-19.7090190031246
-16.1579665211441
-11.4986571567748
-6.50909010773836
-1.83948437930109
2.15478313813176
5.30212864045717
7.49026137472513
8.65462747909703
8.65534900108082
7.20146635861917
4.28611528949041
0.778433259929349
-1.80362384804502
-2.37205791077209
-1.08459508560031
0.875879575894427
2.19882364427015
2.19774496903763
0.971637150294925
-0.875865441331089
-2.58222910752553
-3.53237300381019
-3.58808018022325
-3.16333508306953
-2.752982615681
-2.40418890365698
-1.88287892438178
-1.2852811694261
-1.18608433664688
-2.14652902365431
-4.14807704058477
-6.37725654988307
-7.57341007855828
-6.89241365933949
-4.51195323767208
-1.22894373294119
2.32733664878967
5.70672299604324
8.16199925528822
8.8822315738464
7.81152792343457
5.76788942740688
3.66017696218534
1.94525018379214
0.839892538534788
0.612348329560441
1.48909727598763
3.45301790319451
6.1798515016231
9.09347492199814
11.5299626174729
12.9354185629911
12.9973422119429
11.7715607318298
9.74025381177547
7.54363118953455
5.55795299195087
3.85196266223384
2.4540518504325
1.34750283791218
0.217302391965879
-1.45745978229888
-3.89982547913407
-6.66934606374006
-8.78444916530448
-9.2783078976796
-7.89435917649291
-5.34909492073811
-2.79771785032455
-1.01664001001722
-0.0998101670792306
0.303872873315094
0.641373979240241
1.12299794575056
1.53065230818733
1.49265229779164
1.03440847934876
0.674920170609276
0.912578387321215
1.77612804986692
2.87953199309969
3.70727438771542
3.83223382098753
3.08343802384457
1.62460014662081
-0.146368589090123
-1.75639615040155
-2.79732697576392
-3.13539416132951
-3.04560846452096
-3.03285290211714
-3.53633169130352
-4.7673121014112
-6.4855310631588
-7.76239480341628
-7.36882102165037
-4.81399916894052
-0.931532239175075
2.73017009895866
5.05390548146092
5.95336942900588
6.09805937675322
6.1900836067555
6.46416217397062
6.75334621872683
6.78152875088635
6.2499457731666
4.91303004361931
2.83372598163908
0.31843317716854
-2.60025981443206
-6.18283182949901
-10.1297157715622
-13.1644207502157
-14.0672701643727
-13.0384203446565
-11.6591850727894
-11.5047513736878
-12.9597039629298
-15.2777422112538
-17.5238768403406
-19.3012067087357
-20.5294732748497
-20.694934240329
-18.7917819144225
-14.3229948971112
-8.09896846226785
-1.67900928055748
3.85610336246924
8.35467185921097
12.0792085978205
15.1503194170909
17.4925105743704
18.9983223879463
19.5312209964607
18.8807539287474
16.9889086119114
14.2715622923014
11.4917235877843
9.25062598432221
7.78438559933501
7.14513347699323
7.13978640543311
7.09852594217375
6.25281522500638
4.51351022386325
2.49780063412771
0.769188904354585
-0.49936352048026
-1.13354409644489
-0.798387574857535
0.591576962573233
2.62824136057137
4.69455521146696
6.34179515348033
7.40882885318664
7.91541848794835
7.85840232672787
7.14313983965709
5.81170224206052
4.21590344052845
2.68213868786144
1.0476617162205
-1.12875660565271
-3.83423373200479
-6.33019971993632
-7.65037780943387
-7.20588634980988
-4.95181845192184
-1.17344156084438
3.76287790478881
9.32992807460056
14.4420536758262
17.3483364822865
16.3067345377686
10.6921029673362
1.72713989383551
-7.81407535972135
-15.0773789476897
-18.8717793721115
-20.0451008000401
-20.0971742573571
-19.7366829618479
-18.8995807224365
-17.5630560760245
-15.9739505166612
-14.2776719237163
-12.3291528597398
-9.90201046376938
-7.05699843449617
-4.37919686605976
-2.73022218871766
-2.60709071891838
-3.83991084201436
-5.88730246663298
-8.06679592533337
-9.4710580041175
-9.22500812932426
-7.14329439600538
-3.78240985623413
0.386718791678506
5.45672966926573
11.3895934051888
17.1283888671029
20.8783158717293
21.4336309331523
19.1816944475357
15.7403212804857
12.5733318461706
10.013258170003
7.6454447158063
5.38733640038205
3.9197818832749
4.13025451863188
6.25190180037782
9.39333405348025
11.8516028588968
12.1858081311031
10.2169498576217
6.9114301865349
3.29043793871916
-0.391833935698148
-4.45707692871785
-9.04497336850103
-13.642599688726
-17.373629008231
-19.7816053918915
-21.1649616187868
-21.9242124733392
-21.789225089963
-20.0861283793864
-16.677632992317
-12.2756909681313
-7.84322539856773
-3.92439606102054
-0.544746413482041
2.36727261100342
4.53354587865555
5.4940821515823
5.37974533816538
5.22373516910819
6.09570950816352
8.07364839646692
10.4003461238778
12.3582677548747
13.5306116316565
13.5520837422257
12.2931892901602
10.2215258751246
8.06158751911845
6.08270570914757
4.02225044305195
1.652402319857
-0.82492100680881
-2.93016199910807
-4.29094444700693
-4.84686220447531
-4.77695014958207
-4.34519484244869
-3.79243932780908
-3.17077186898932
-2.19236054861074
-0.444856885128997
2.11084021555705
5.01406989848357
7.73135441796724
10.0237076214726
11.8906627282612
13.3594873598313
14.2997671579526
14.3232803359373
13.0794575055933
10.8214234043562
8.36603542763532
6.25426824957713
4.26467220651173
1.98633533692151
-0.483831271277143
-2.72872398620378
-4.63641129753217
-6.50299245718445
-8.57833491488459
-10.685580587242
-12.3028298951856
-13.0560020938836
-13.2017075907304
-13.5218777440068
-14.6206370952439
-16.3713786041135
-18.0185343405814
-18.6668036076539
-17.8144845938497
-15.7518604596253
-13.3869869872162
-11.3479739910494
-9.25743870783391
-6.12590687239742
-1.45930142952888
4.09739008328958
9.09329666406059
12.2445164923942
13.3601310567071
13.4613709270045
13.8694664577223
15.0711434519902
16.3794838658066
16.5022182069142
14.4706775727741
10.4137842708403
5.66222398994383
1.88851714435998
-0.121584734930875
-0.98439507333537
-2.15324241995559
-4.79368996039861
-8.82768378533192
-12.7870299233573
-14.7513062192259
-13.7098823624582
-10.1247801576016
-5.34306073085082
-0.760950573056223
2.51855445812042
3.8302761112552
3.22410623380295
1.4626474305399
-0.528601535643565
-2.21798362451228
-3.50614626234033
-4.43708972668645
-5.02698484126734
-5.31680003017464
-5.42012338682379
-5.37864747559248
-5.04502851026233
-4.3601611304152
-3.76571317280061
-4.01491577263135
-5.37694585520206
-7.15941586068745
-8.10248122067405
-7.21873715624351
-4.43705207628581
-0.671636695369437
2.85087006989737
5.58384687680523
7.99651651752516
10.918905115779
14.6874992451049
18.8363001937076
22.3324486194344
24.2009775964516
24.3120039278779
23.6208763930012
23.3823278146869
24.0142416651207
24.7396092797673
24.276065750552
21.8909681657549
17.959955214304
13.5940365508617
9.66687302955781
6.19319360518652
2.66398075943617
-1.17892265376856
-5.0680951888521
-8.5591937705027
-11.4193757561307
-13.7266493874288
-15.759653809989
-17.7990478301436
-19.9939325658394
-22.3617311785224
-24.7088058534228
-26.4552635883664
-26.8310055149249
-25.5297806120356
-23.0767617088938
-20.4362243592585
-18.374722639143
-17.1697438847661
-16.6129769708564
-16.1360904658548
-15.0751983853879
-12.9462345913742
-9.59763736688054
-5.38440655689615
-1.32129131327739
1.21893364371029
1.31794917283164
-0.785486339004201
-3.65710561062607
-5.35489691319998
-4.51853757390105
-1.09518255274543
4.00806637070662
9.90319677999713
16.0768030322476
21.8976662737511
26.389426966204
28.8010053329517
29.1014400419409
27.7399434706244
25.2407012175055
22.1677104756456
19.0669255209764
16.121662695069
13.0545200592812
9.59841867167938
6.01197148102919
3.03960903328979
1.34465308233242
0.91515991082382
0.968758033247036
0.488538506092965
-1.02988837809918
-3.2178913362693
-5.16309769138892
-6.23990138911593
-6.71777980653926
-7.41969865003296
-8.76396652049456
-10.4088125570214
-11.8157415414797
-12.6782284469044
-12.7071841973732
-11.5775630333072
-9.34347722449346
-6.49365627268094
-3.48500416936496
-0.616480601660826
1.68535241507962
2.94577255679191
2.97906885978751
1.78805861748369
-0.624664809455086
-3.80987105348615
-6.43677938598264
-7.06158653309639
-5.62543349591786
-3.7981860428352
-3.40074361217344
-4.44354638392308
-4.95889502229232
-2.98235427448525
1.32742762514331
5.69553283325309
7.7553086431878
6.77146951322172
3.50780519790319
-0.893396314395831
-5.49387505527465
-9.42697431507331
-11.7838771140079
-11.9031479949783
-9.85494431268873
-6.60206737743158
-3.45694176392174
-1.19345852829074
0.307746532872551
1.59279587637339
2.96491678778987
4.25436566895157
5.10417821231592
5.4362809676748
5.61220097813201
6.10992444042708
7.20663960442282
9.0815859806604
11.8552917962642
15.1528778872576
17.9581356900491
19.4221133342898
19.7013661488549
19.6503646255882
19.7883631014497
19.7262435564711
18.3750857984731
14.6133392581481
8.14801824702337
0.0215645041476231
-7.96601719574476
-14.6153948589344
-20.0328386865012
-24.9138021992893
-29.2966843160588
-32.1051855732531
-31.8632167532154
-27.9951409689077
-21.6001248276513
-14.8086476967601
-9.17905063180745
-4.78653838021428
-0.876612986923065
2.91377081388665
6.21757535226728
8.63364164908159
10.4062775109329
12.1991336632408
14.2331486409792
15.8737171903583
16.1850265065199
14.7453765522873
11.8852151947016
8.4319525583981
5.33305784068313
3.11662766926365
1.4407277921098
-0.540587691343695
-3.15155671609884
-5.76473533951174
-7.45551779211194
-7.7756386294074
-6.8633558973184
-5.19529824704521
-3.39243832525378
-2.02614912816169
-1.42143048091691
-1.5961374322285
-2.27248612869163
-2.92570031160352
-3.05486856628252
-2.5511300500324
-1.68051143827643
-0.73300157070735
0.0512170949646558
0.27455659601573
-0.452034735498196
-1.97761858878881
-3.52691426250164
-4.34659127938113
-4.38085856767002
-4.24801630686609
-4.58180945563103
-5.47715835405886
-6.62938641858454
-7.84452658969566
-9.12322832818406
-10.2657676442088
-10.7075548926403
-9.85810456806249
-7.50665704236553
-3.97393799400443
0.0054878714367093
3.69651031173226
6.80968855775027
9.42542936800177
11.5123254281678
12.8713702471793
13.621815881933
14.3608951970686
15.6806612687841
17.7193488331595
20.1301530950148
22.1867924945911
22.9982962720829
22.0408950719172
19.6235227657479
16.6752578301306
14.0723102703978
12.2390177537523
11.1175894522345
10.1089495739728
8.12534046512949
4.21562471560151
-1.54193738121281
-7.8122384348986
-12.8091111661796
-15.4946790821359
-16.1889663770158
-16.1503130796466
-16.5981795427693
-18.0270849957361
-20.1643297944344
-22.3325301043987
-23.8902312868861
-24.4742374404313
-23.8495783833642
-21.6274123973274
-17.4089002595653
-11.339678423077
-4.40618141143778
1.86211255302157
5.95205518332668
6.8697368982457
4.522289401193
-0.163613532382922
-5.48852331754019
-9.48783445032316
-10.684605218756
-8.94245688678996
-5.65421964885807
-2.7633813862045
-1.49720739726195
-1.98634631113598
-3.60696176600219
-5.29879855913037
-5.93827121054464
-4.97744177790355
-2.73022171832062
0.117177875443386
3.09445607984404
6.01187295166955
8.87135048143275
11.9525057541161
15.6355297005386
19.8274058149919
23.7397653984214
26.4770443535107
27.8513813634138
28.6022854210374
29.7847022747204
31.7475413698247
33.5970748727299
33.8291017772247
31.6317498127679
27.482704036256
22.4233358154918
16.8973818785581
10.4401232271352
2.4931552803173
-6.6073788311369
-15.5991068212731
-23.2090181216482
-28.890433070729
-32.7068753829131
-34.9171137992577
-35.8309343781588
-35.7146121079623
-34.6902515175444
-33.0201337779567
-31.4326198577915
-30.6246657828552
-30.295232208713
-29.0736167889213
-25.6119073334834
-19.6932975898738
-12.4515216909717
-5.6999382503984
-0.726378823964766
2.71061427960452
6.14409588170225
10.8888183158458
16.794714640887
22.503075692057
26.5637602637571
28.1533725914063
27.2367978720116
24.5576657308064
21.3208090893786
18.4538813125078
16.0494933171323
13.5996098864167
10.7322193347819
7.56959122917194
4.38281222308092
1.25699452281768
-1.55529154171522
-3.21126273153851
-2.84722241294788
-0.671869744609001
1.98444242413911
3.82689992466449
4.4242105830073
3.93150039594
2.58410343111169
0.650175988252766
-1.54782990375859
-3.7734173081677
-5.78308735170236
-7.03050314790876
-6.83099752749206
-5.15926066386705
-3.24209832561194
-3.00803432432285
-5.5847353600486
-10.2373000053145
-14.9091114220357
-17.899799800672
-19.0696357736698
-19.5935303865231
-20.7133170076573
-22.5540391046792
-23.7931545346647
-22.4834331617069
-17.578026634833
-9.86658085137092
-1.38660246237183
5.98964045654532
11.3563568884244
14.6385797181387
16.2042417067285
16.6067215431087
16.4190667501983
16.2139260554837
16.6213010100623
18.1571252646637
20.8083272652891
23.7776695970733
25.7219856918609
25.4442629328787
22.6046487704251
17.8806934838746
12.5295424234976
7.90008213400304
5.08258316400376
4.36006186400815
4.80996655684496
4.9789421159609
4.20761883449962
2.91775119062307
1.61470911388001
0.291986126329985
-1.04297462657726
-2.07901811405299
-2.98506840958215
-4.99807831932558
-9.48625241144874
-16.2605378437575
-23.0842983949567
-27.1101543148132
-26.9691976975224
-23.6175916841504
-19.2955757888243
-15.7476706720731
-13.3412306647369
-11.5137741525725
-9.70836945536973
-7.94226800651041
-6.74807850281121
-6.60895253028046
-7.36780761980624
-8.17087984052023
-7.89026287652438
-5.59938288664858
-1.10740170456742
4.49119863282302
9.03684392328866
10.6715988550659
9.22431435231159
6.29263796089168
4.06414185380335
3.78791220881582
4.85115531782377
5.36328886618873
4.12806906089743
2.03937333827973
1.15703628676819
2.51164423437142
5.14021613745896
7.06964898592802
6.91278088932921
4.70981561810008
1.6038907936788
-1.16109092129596
-2.84593382797008
-2.90535744397895
-0.636081475842608
4.2369270632412
10.6555794165792
16.4225772734729
19.5727513370969
19.5354069701214
17.0917573988458
13.5084694961989
9.78237406872981
6.41426005087909
3.44758253395456
0.468743369731185
-3.14317167357793
-7.3705094746581
-10.8829876773609
-11.8068382432654
-9.52547343518309
-5.43742564991806
-1.79492426647976
-0.145974595977285
-0.970418630699227
-4.20887777653988
-9.53621774702355
-16.0905840405373
-22.2648543276805
-26.1426600973647
-26.493429315194
-23.5661902825972
-18.9478685763536
-14.533684222295
-11.342307950384
-8.98791457640319
-6.24302839019169
-2.26848556075031
2.69870887652257
7.7945165955141
12.2301912412939
15.4055589664484
16.9633261095732
17.2441376903412
17.2545760620473
17.637079673719
17.9397605489604
17.3304819481323
15.769835231253
14.0882829650311
13.124543783209
13.1143079383987
13.7273306879928
14.414842973903
14.8299531256263
15.0497208287154
15.2794115923348
15.3393313095488
14.6474660107866
12.7567705775585
9.77326683763263
6.19804825326515
2.43710185936015
-1.40612852119642
-5.14303160967145
-8.03486731937853
-9.10168996047352
-8.08479668642755
-5.90142059304564
-3.99800319762316
-3.34886479441876
-4.03370236691843
-5.5325499921663
-7.37596729225754
-9.62890848739716
-12.6988823262774
-16.6284054168305
-20.7810476636162
-24.3536275571243
-27.024738079509
-28.973194015632
-30.3975422638154
-31.2310614413724
-31.4711483537178
-31.7184573912475
-32.967181587301
-35.4497596559512
-37.8316594002927
-38.0152771545963
-34.8598804310583
-28.9293212298435
-21.642045247118
-14.0205591865409
-6.2635593575113
1.85096693862905
10.3671093947953
18.8372167560032
26.4791535745895
32.6318641299892
37.0692504389973
39.9605628714179
41.6314499452995
42.3041821767187
42.0077787025322
40.8448890993486
39.2793765630212
37.8021669566384
36.2411068340302
33.7874041878925
29.858462308964
24.6655079603017
18.9268537573699
13.384788108124
8.62171357348247
4.96408969237552
2.39066845057868
0.587750865903078
-0.922622998391992
-2.54166772622728
-4.08487586423236
-4.53157774901835
-2.75014701802214
1.41730574105438
7.10495295244652
13.3771733454844
19.7233892120264
25.4884555134773
29.262557959111
29.2240523452224
24.20185381652
14.5427821661124
2.03928766811373
-11.1494865832664
-23.6506063381279
-34.9186513467726
-44.307835571982
-50.6101586707137
-52.8062680786941
-51.1568103132934
-47.4006759569258
-43.761572293697
-41.5110049874768
-40.3174109480956
-39.0003516149058
-36.8357643805031
-33.9770004905642
-30.7514126103984
-26.8777661109054
-21.4861997889689
-13.8722311915083
-4.23783022504142
6.37092378003625
16.8463346405096
26.4195189626855
34.1591802762556
38.6637583669941
38.9077092693297
35.3240112900013
29.6814550811973
23.8532958698499
18.701162396893
13.8939871618983
8.61172514106677
2.46134150426236
-4.21270946579293
-10.7847566428608
-16.8693356113749
-22.2653069776546
-26.5061322935216
-28.6503038599481
-27.6440883954942
-23.0556332724865
-15.6291806110817
-7.13246060242773
0.475288385389829
5.90373688951786
8.91320033498631
10.3063409316959
11.5938622814592
14.1472947362278
18.2615675406134
23.105651724174
27.6120450731753
31.1976373508316
33.7061108784841
35.098471360589
35.3707739425366
34.5656502855667
32.7598442106076
30.0692437666683
26.5862553061187
22.3059960121128
17.2983661052989
12.0011337975351
7.20594276929237
3.72826540164559
2.04439619465146
1.95665251746707
2.4682700286386
2.28101730594774
0.662288632154164
-2.25551874774561
-5.97197115569277
-10.1054994678516
-14.3877865284007
-18.5596034758365
-22.43993526658
-25.8756787770035
-28.5230200352293
-29.9403659839021
-30.1145869573437
-29.7409588785378
-29.6518562301711
-29.8176278833224
-29.1034213534927
-26.3956546656793
-22.103685914145
-18.234407475904
-16.6562015962403
-17.3396362373704
-18.442168162485
-18.014550248465
-15.5185195213572
-11.8132473128846
-7.89769643446489
-3.87138955827705
0.813222346586584
6.38570684231255
12.4722225526217
18.6124884636289
24.4215315089561
29.1178971436902
31.482140896143
30.6476494386351
26.7815382105155
21.0026023697004
14.8594807161921
9.7052875977822
6.15685428458742
4.1388446188284
3.58515062017589
4.81658993846405
7.87435884504146
11.6786662558805
14.4186367810557
15.0555994737158
14.1832402702833
13.0265784692189
11.6825221951748
8.89640555739001
3.87190647693939
-2.13201746023459
-6.63538115432004
-8.36388741186513
-8.34578835268485
-8.4588910438654
-9.34739100948654
-10.1752779041735
-10.2765516365533
-10.4720977811116
-12.2431239937244
-15.6620296125918
-18.763634154324
-19.3272437940098
-16.895722949436
-12.73278226708
-8.35427081828956
-4.74205404930556
-2.64153586782487
-2.74547371145754
-5.2515973246959
-9.40103334271987
-13.5349811280787
-15.7454299961554
-14.8902794867403
-11.291739684177
-6.44803272847544
-1.9850920275289
1.28805789466899
3.61876295623797
5.68705168667129
7.54581324114856
8.3300097789666
7.40550190851715
5.59583462217795
4.66854163663592
5.69799282098941
8.55568295358823
12.8511691441584
18.3808471346927
24.2982364732567
28.6282761077885
29.3418661425494
25.9246144789959
19.8161277401156
13.4914831887383
9.08334235943189
7.53297577509893
8.69520872434552
11.9156301058436
16.2434069659903
20.2569724318091
22.2896535741871
21.335683100964
17.7803443954682
12.9333197665265
7.59793984079112
1.30118662142235
-6.65804502824148
-15.5241351190421
-23.0349708336568
-27.171182174036
-27.583683250781
-25.4855109171859
-22.8978162942547
-22.027082687783
-24.4440740285733
-30.1946089681198
-37.7407847217312
-44.8413113298384
-49.5232425377563
-50.6028550344156
-47.734960442654
-41.0740175532004
-30.9644007614366
-18.1377603008935
-4.00303065477317
9.7717093333406
22.0219693551818
32.0919281220786
39.1782857561327
42.2506139017269
40.9582783494297
36.5193137270983
31.4882974883999
28.3323357632134
27.8766659562229
28.9764545376085
29.6289551756439
28.2835896386715
24.2804696371602
17.691675766124
9.22221031245041
0.148091230061246
-7.99303634240007
-13.9643738599163
-17.4436498294635
-19.1876786677533
-20.2308867388719
-20.6725345045708
-19.519777552539
-15.9254458014356
-10.3590542289459
-4.46010518606789
0.119459855141858
2.90540764827566
4.94012237729592
7.69917404513844
11.3564265810165
14.4278124962728
15.4062822071645
14.328765162398
12.3812010378122
10.3344101558365
7.81171037909564
4.06288962622119
-0.716070854842807
-5.00930297580084
-7.25978463591317
-7.62757329122523
-7.99579238379765
-9.80068613073098
-12.1102658967226
-12.271283828896
-8.42957609860849
-1.35823320627262
5.87338306053665
9.84657923225677
8.79021373901643
3.23210411841431
-4.89900071484329
-13.6129262859128
-21.5591397536079
-28.1073149382846
-33.2565643611483
-37.3292116287603
-40.2874372962039
-41.1727102167492
-38.6003392116479
-32.3963137391738
-24.7220406474282
-18.7671192485964
-15.8247147458744
-14.150181891291
-11.0912717525725
-5.74328944455371
0.880577796693542
7.46782730148038
13.4503695402486
18.9600295375443
24.4382824383238
30.1366445663897
35.7789137944342
40.8966377944758
45.2873941776971
48.5501333116982
49.3386860035903
46.0287259870878
38.5853084685837
29.3763197797735
21.730004027511
17.581593476815
16.3266159702395
15.7202947988455
13.9558056174909
11.0833718349138
8.52934591206273
7.43007997181793
7.64857083598269
8.25627693380577
8.58125897527483
8.68943805152074
9.02948976069507
9.73559438589923
10.3523088592714
10.3030301329726
9.48413142076185
8.14992436826429
6.20612521584532
2.80453471327553
-3.21353201944266
-12.2803976291577
-23.3089092242465
-34.0469482031782
-42.487738147585
-47.8805203700208
-50.3045818730057
-49.7939302906945
-46.4668997989577
-41.2509539065424
-35.7701599837586
-31.2965314348532
-27.9990743254623
-25.2634717772695
-22.5847013099274
-19.9377525468802
-17.2081786569722
-13.6738832529453
-8.71035854628582
-2.93581666121373
2.24289877532005
6.51480040426372
11.1311852533841
16.8238087054415
22.0910707644836
24.5503838025612
23.5941200341373
20.8231411772427
18.0596104830379
15.7529960409675
13.3808210181445
10.6636164715078
7.87054099736449
5.15152396187782
2.16150447840333
-1.35006430438269
-4.82992568510807
-7.15470691921422
-7.5105011427496
-5.79710628418789
-2.26746788269318
2.82386301438632
8.93502520213848
14.6735574481989
17.9526436003113
17.2879263467058
13.1419925354366
7.65731615516146
2.80375381839297
-1.0918450861355
-5.05596929630789
-10.1362344127447
-16.307571784388
-22.0097675047593
-24.4983776865842
-21.3386549270113
-12.2889943216282
0.304537080508868
13.2870454875397
24.8704839783634
35.0438124825455
44.1849744725242
51.6193936613919
55.5329727921078
54.1478787407509
46.9620484144531
35.0275170294681
20.440118228005
5.78409869422869
-6.50597815114799
-15.1886513163827
-20.8446328040625
-25.0226135735115
-28.6173682413243
-31.2910912849872
-32.3873079851209
-32.0929849007471
-31.5848867676869
-31.9397243256993
-32.7306662313199
-31.8965956006041
-27.5321814820237
-19.935097738978
-11.4461869885792
-4.05657443554627
2.36964412833439
9.04347258051255
15.7896865993241
20.5341271206637
21.5387073584895
19.395678919777
16.1157412239476
12.6751368974642
8.24645982608751
1.69409402178839
-6.8265670473828
-15.6929667027162
-22.724343209483
-26.3859646230839
-26.6984985797279
-25.1670668300426
-23.5854714506539
-22.732999377505
-22.0587779481299
-20.2963711356306
-16.3568637986217
-10.1559765866133
-2.99754341734377
3.03444980062582
6.44396581460433
7.30444198754299
7.08748289257308
7.64038382350835
10.0851447998496
14.3134853718369
19.3439014682939
24.061100201149
27.5858108686143
29.2707557467631
28.8389034724281
26.6140334137774
23.4110053465115
20.1700382119925
17.6281197710597
15.96475336848
14.5860617446007
12.6004692542711
9.81099136493338
7.15306353825414
6.05687767323812
7.40570461055047
10.9871001711195
15.6948958973367
20.1003475192145
22.8048896711016
22.4543475817285
17.9738799300781
9.30903052891995
-2.1300455514285
-14.1790805188337
-25.150160478684
-34.1337299446426
-40.2823913875313
-42.517868258077
-40.4102098014772
-35.1115565054611
-28.866585313612
-23.2252479488026
-17.7778258637099
-11.0482582084085
-2.87087805849882
4.48841966519637
8.11101419331986
7.31479358469056
4.41181536414635
2.57962603206268
3.29082032753911
5.77705585836938
8.33693984775868
9.56932476179706
8.64160553684295
5.39807262908964
0.819800491334754
-3.11433720211774
-4.84732588514497
-4.65004830950967
-4.28152754639818
-5.30014637415194
-7.9958580291069
-11.7736912221662
-16.0069278286078
-20.3269308779936
-24.3456466480344
-27.2569469231528
-27.6700962626792
-24.0419370709464
-15.8207323074346
-4.48648378007853
6.86824488192478
15.5654387990027
21.0983446652351
24.6567411210256
26.992886874927
27.2604319855704
24.1666463474198
17.7829379981596
9.72964642638568
1.7930626740296
-5.17240031388748
-11.0716074148049
-15.789575316688
-18.7854272375511
-19.3663386286561
-17.2695586916756
-12.8926709336484
-6.97930239048991
-0.307270194322815
6.34723432536583
12.4873467266968
18.4113270228963
24.9079005546588
31.9594296602129
38.1034842408373
41.5336246843426
41.6449387017324
39.2872637322603
35.8377334126938
32.277438745928
28.8378804783863
25.156804620985
20.7794790981115
15.6251642457453
9.97552029608757
4.01577248395001
-2.59393926346256
-10.63475947096
-20.5348738547157
-31.3208675973064
-40.518775484264
-45.7238995332251
-46.5760502642043
-44.9250483706249
-42.9722486128423
-41.6072162663379
-40.5256533681561
-39.2464234046962
-37.5473869616475
-35.2484669604105
-32.0085900213177
-27.2537522694033
-20.1176859371658
-9.78154342438676
3.50452550163199
17.6279851472094
29.4390556102147
36.8706670951673
40.1191980275922
40.664720217938
39.6985823192392
37.8730503538445
35.867036034537
34.2142446388002
32.571699164694
29.7675661829376
24.7736226261613
17.5532948312326
9.14727239677362
1.10878596284027
-5.33033153080176
-9.75820526265019
-12.3355889119118
-13.2608832989626
-12.659400526824
-10.7561585375512
-7.8212371846465
-4.09630218831176
-0.114164397081849
3.0329263922959
4.13644914387535
2.65124859125406
-1.11132647447371
-6.48177008030665
-12.9377791865545
-20.1632607792654
-27.7547768493202
-34.881535237932
-40.2144155496319
-42.3494551372274
-40.6810470249831
-36.1391072886034
-30.7403481528139
-25.7429953672377
-20.3144980703212
-12.8662428744773
-3.83810555923295
3.86305092911732
7.80018405698993
8.76092913629447
9.9739852492543
13.8037578269795
19.478149849534
23.8418462895416
24.1798115157354
20.5458583679141
15.6618617437097
12.7601199131528
13.4790410180743
17.3049388811303
22.3826097001134
26.8920292762109
30.2252202644963
33.0279978522704
35.8135207961049
37.5427671528254
35.9851034920876
29.6705026438493
19.3320038434566
7.42935032724404
-3.50245016017508
-12.0477262086575
-17.9267200370818
-21.3303548294714
-22.4400578210293
-21.4889042345099
-19.0072685982524
-15.7752562214148
-12.4542544498776
-9.19352072786688
-5.55140075779821
-0.992895248665603
4.26746831329549
8.90792666127195
11.122592853894
9.77095968546353
5.33511877768781
0.121935582541373
-2.93841487380156
-2.6792102482088
-1.09546083661961
-1.68568626708521
-6.05180947207095
-12.4190062521635
-17.5194894970161
-19.5167502400904
-19.0458883037662
-17.874289458509
-16.9055900757541
-15.5073173946303
-12.6890937528044
-8.77095170479088
-5.67883258161233
-5.4707994186423
-8.46982849276187
-12.6738938690928
-14.9781479929719
-13.2947096717387
-7.91984859172335
-1.09616349158763
4.72925081479178
8.42683917409761
10.4475524748591
11.9793505821423
13.824002355348
15.8676589816093
17.5460600193668
18.6246316082624
19.133070122433
18.6586026179179
16.5078007469718
12.8984364487311
9.28166421276066
6.9102302798647
5.54624322906561
4.12533833605707
2.26081258524589
0.373802691927887
-1.41915508184973
-3.6399930558974
-6.45730783820158
-9.06940959275357
-10.5261962278636
-10.7067067196639
-10.0221375871272
-8.59896287631452
-6.44315920804179
-4.21870840286522
-3.14084683499825
-3.93328923365251
-6.1340450777998
-8.29341125010687
-8.67995997368198
-6.25557496393352
-1.49662866009876
3.84785046375545
8.05256184984483
10.3842430665396
10.9247778222044
10.0170636198308
8.14177742286054
5.96123392062326
4.10118150444328
2.84225558809615
2.02327884407509
1.22413797296407
0.177346286831048
-0.876913821494468
-1.31781446460004
-0.688185934575841
0.90483743734623
2.79964947192672
4.05545360481622
3.95058060069456
2.55980260407228
0.800057445605838
-0.401381848187619
-1.11300124229376
-2.44896738174666
-5.39059123340593
-9.45751733555721
-12.8076294772692
-14.0264030768789
-13.7022006945073
-13.7698560099177
-15.3066198808588
-17.4206364889593
-18.2692673497164
-16.6346196076316
-12.5122531540378
-6.84304661636629
-0.957158501360778
4.17231223528164
8.52109820340628
12.8254058918545
17.7177404818232
23.0174116462072
27.7322609423869
30.7005392097862
31.4202707165227
30.3652674467518
28.3883420309474
25.9023972762799
22.9544487771544
19.9708723677429
17.7719230351133
16.5624635682575
15.3202996028668
12.5209713754494
7.35331523246766
0.199808720463055
-7.76935459532014
-15.292842383226
-21.543485384255
-26.3772371790391
-30.2869952732743
-33.9655950527125
-37.6431946451664
-40.8484880804964
-42.9361566317698
-43.6956220137767
-43.2736996740835
-41.7211792006593
-38.8148331257045
-34.0907141324791
-26.9655266397911
-17.2883350605249
-6.02441817020022
5.04170425900592
14.6341431996963
22.7856820821379
30.1030894944885
36.4500649744903
40.6161246006853
41.3112985256088
38.4003188204965
33.1014407754757
27.0735481882106
21.5199884368909
17.0567566690026
13.8130007960267
11.2565946746738
8.40789871579451
4.88942139593777
1.57804811191049
-0.336776104059085
-0.726332432804499
-0.364733609136554
0.33139928572346
1.59556019214727
3.34615664457108
4.7100936684082
4.86483619966337
3.96505962962742
2.82909341161743
1.79762525837583
0.329302930878363
-2.06879010177934
-4.92492742426106
-7.36113381806499
-9.38211565272508
-11.9450359022699
-15.6463939425154
-19.7803244373833
-22.7785204474979
-23.3449002425829
-21.3094710733368
-17.6888259377386
-13.832790144274
-10.3615792183977
-6.98151256896239
-3.05539859961628
2.08836931645278
8.93232480517161
16.7559842663228
22.8535425599907
24.0305805725884
19.5413194120569
11.9227140684056
4.57327130229466
-0.828696830605813
-4.3479837313797
-6.47012988762884
-7.73190771515865
-8.97248452618845
-10.7115456448117
-12.2409082928414
-12.234806247859
-10.5577101724459
-8.77878049191964
-8.41205100833084
-9.12736448939464
-9.23813748772017
-7.59589570335266
-4.46822656728682
-0.864647858724819
2.41306225566913
5.18323498285797
7.82657596556962
10.8934319299045
14.6831283989529
19.2318321871424
24.4429675907064
29.7264402927799
33.5200941260202
33.7637688024651
29.3291592539672
21.1050539353766
11.6368214505475
3.45960480922411
-2.55906452391597
-7.32268830537949
-11.983920720812
-16.6328668400365
-20.5916788332355
-23.3822963658476
-24.9163797867184
-25.2376886593067
-24.6557833110982
-23.6738896347976
-22.1649554161773
-19.1265707537232
-14.0702727749844
-8.31163125933933
-4.02200893934274
-2.13064108447189
-1.77120287549378
-1.420872216623
0.2449967436774
4.21145119939457
10.4250559549552
16.7818647565588
19.8752362096955
17.802916316952
12.0889993879397
6.23498665192959
2.50760310005179
0.633496667419472
-0.664229640298472
-1.72854391283651
-1.75389808683186
0.0641588813228164
3.4904604025933
7.28205879650614
10.331809395706
12.8513288325707
16.102719174217
20.747878320067
25.7676488091604
29.1940888043408
29.5517536398026
26.3752276924521
19.7569580751321
9.97529660830393
-2.20555997835072
-14.9712100830623
-25.5911381621225
-31.752029170576
-33.2055601969973
-32.0451750537294
-31.0710724916689
-31.6724126024012
-33.0683363552307
-33.2665802847328
-30.6301088388587
-24.8216588439786
-16.7115533865445
-7.71983217734936
0.637204329738567
6.87316558254292
9.96498561096091
10.2004957311069
9.33975933876019
9.31228644564241
10.5719860781139
11.9970403184429
12.4608284110205
12.1073278007796
11.7877197677819
11.6166468335725
10.7800568428379
8.82999126304999
6.49505490315371
4.83999079261159
4.06344257663837
3.55833918218486
2.95687969602201
2.78430708654468
4.06825801549638
7.30398198707578
11.7195824512983
15.6873180930881
18.0006981112489
18.5672024796394
17.7919209620857
15.7693590216403
12.4733593382328
8.41766745710907
4.59400942752301
1.64341123739129
-0.820556131364441
-4.05425620940324
-9.18542157449187
-16.0383480721562
-22.9028866296427
-27.7207018317305
-29.5820524531412
-29.0057637112534
-27.0240158310464
-24.3842709439393
-21.5358080867012
-18.8757967768864
-16.6520531386965
-14.5763868924448
-11.6745766185739
-6.86715656933887
-0.0611850687257857
7.34894242437273
13.3619291966464
16.8315317676458
17.8802014414063
16.9187200662782
13.7617243667974
8.22094367709211
1.46720884133247
-3.93575375009443
-5.97480646014517
-5.01699631992281
-3.21059686662605
-2.15139930805733
-1.63943865628937
-0.596323473276228
1.60314801952553
5.01001462879607
9.6778083115204
15.6614620900911
22.3013543665229
27.7740157841079
29.7588157237069
26.9267940685767
19.9786818890083
11.3044894292498
3.65350409792187
-1.12726104107403
-2.72792744861042
-2.32999126344721
-1.79785163147102
-2.37029509927146
-3.83831967707162
-4.89449463240717
-4.12881315628231
-0.872239170125643
4.22872709555876
9.08209563073816
11.0782493951589
8.82001078099497
3.10522289976532
-3.8819888524815
-10.3444532644519
-15.8815931623362
-20.9317292120264
-25.490481262291
-28.6538736066081
-29.4363478876912
-27.6993640137556
-24.1505307375177
-19.8553502837078
-15.9588608042408
-13.315887341134
-11.9059815647853
-10.9335420714504
-9.82855340508945
-8.79304540014332
-8.12192165824673
-7.48753989873061
-6.37757485271555
-5.03132392512939
-4.49236384349001
-5.50130906059695
-7.15574072637799
-6.63352723370251
-0.821394737597254
10.8935721064693
25.2069996961855
36.765619430338
41.9351172289044
41.0013107260186
37.1130700575461
33.4612350684464
31.2609551142072
29.7806409214094
27.75154878596
24.5897226060507
20.5405184666418
16.1712046189939
12.0529722745811
8.84486864776324
7.32575316544973
7.86320772007472
9.56677914050429
10.3798328364891
8.80061584935558
5.54131229457776
2.7120608496492
1.17642370760499
-0.560524323091747
-4.62476156012667
-11.7165964456659
-21.1511530294903
-32.1969893973902
-44.5310512544441
-57.324943139654
-68.3850875315927
-74.7402112477573
-74.4062229629596
-67.575937255517
-55.9892370220781
-41.314913372358
-24.4087945445716
-6.06936239340087
11.8352899541999
26.3437306603759
34.9678983076469
37.7965847310747
37.9706499195445
39.3446544909344
43.1606828126475
47.0710319558137
47.4223559263384
42.3227392058409
32.7796205675342
21.6098807401841
11.6635771088349
4.81254325400432
1.85175507124111
2.40748251811995
4.57534305719181
5.52181882998091
3.67537469931078
0.388355791951528
-1.44257533040489
-0.639170616279922
0.963422868748882
0.595449163934227
-2.74463860490967
-7.99089640268471
-13.8006609288063
-19.8333289561243
-26.1097402224333
-31.6810726507812
-34.6097587308031
-33.5098527775827
-29.0036186972949
-23.5311089889997
-19.4763320254874
-17.0340646548002
-13.7958494988741
-6.92195849007698
3.84817821012739
15.4817502315124
24.1237150508945
28.0793634799384
28.3190938696244
26.6407868828595
23.9295829422866
20.081318926516
15.0381527033095
9.46722904882171
4.32969034990499
0.0482633470819651
-3.48307711369
-6.15722708427654
-7.58074046787392
-7.91654043633858
-8.08361024230924
-8.64332677776574
-8.96948554419055
-8.04273476424026
-5.81225001959575
-3.30428790816998
-1.40371482158217
0.159621246103634
2.45128208837083
6.04485738905248
10.3044785094305
14.0278673275721
16.547055586004
17.9142498107395
18.1706807129306
16.8836532884368
13.6246805385358
8.83795312728494
4.05811672468303
0.932876229286967
-0.324804533446034
-1.46418448197065
-4.73886747565083
-10.5941011255591
-16.8559495010663
-20.4477520859608
-20.0566011503237
-17.0868756139475
-13.9525705071962
-11.6484323415639
-9.37455741755725
-6.45062630514385
-3.7773515953814
-2.78448362815952
-3.42351840745663
-4.08930538322862
-3.45346602394787
-1.58565620595147
0.821072773872005
3.51108185971286
6.49037196330885
9.35054134184668
11.5378605860304
13.2644546561644
15.4079735295675
18.0655026727899
19.6392158832575
17.974873626952
12.3889947284749
4.32534679265311
-3.69049808773063
-9.36508286889058
-11.3926653925499
-9.85166154121855
-6.1611101752942
-2.28314820053749
0.383438695073322
1.55083754179236
1.75103899217972
1.60901800941394
1.35219743423644
0.951448242404092
0.369417450301702
-0.857973880751492
-3.98965093618516
-9.83779427385484
-16.6647582021713
-20.3721908943661
-17.9388235182276
-10.5080192233232
-2.43877632119362
2.4861867093247
3.56361429291603
2.65704323693119
2.23887306916873
3.79221992765289
7.1586293729729
10.8736619705867
13.1305360847941
12.5798355236839
8.57613706106702
1.21994049672535
-8.51907911066669
-18.8279946668261
-27.5236293992785
-32.8897740020455
-34.3715497080187
-32.5354837796683
-28.2901709135658
-22.1305422311185
-14.1092216454743
-4.44601498431631
5.87651901609076
15.2011739457327
22.1141230865251
26.3180123012234
28.3319487139375
28.4312446840489
26.4843867205589
22.8996343925768
18.9226056257856
15.5395042375786
12.6545015972626
9.87671551421033
7.66608809218521
6.95091563805402
7.60653995204068
7.91345699133322
5.91171291860506
1.19679382508416
-4.82763505069686
-10.3775713197058
-14.5992265089019
-17.3793375898237
-18.4535046922738
-17.3851999551539
-14.3318680159541
-10.2848636296753
-6.43425663010754
-3.40346626285022
-0.850184434469465
2.32152578371111
6.88956283384518
12.1729130820071
16.4238986889149
18.6536211313505
19.5989006971275
20.5736910277349
21.8341493234445
22.4719353185505
21.6105708883899
19.3327062276371
16.5518619268203
14.2197836776843
12.6111859662905
11.1780352362848
8.99286376711426
5.33884744703244
-0.0605927314030604
-7.16914551343955
-15.6034180137653
-24.2436678159435
-31.1403023688247
-34.3195711446897
-32.9642582136476
-27.8689724025137
-20.8594202513433
-13.8144676477813
-7.9691281016342
-3.70806096374767
-0.74574299093236
1.49206715379234
3.38475220871205
4.55886318542227
3.62562653506072
-1.04335853790517
-9.57979048521008
-19.6122407096555
-27.5097501799104
-30.8819170966535
-29.8294581591699
-26.0682127840261
-21.3054896684984
-16.3617802237074
-11.3265803350193
-6.21564634322137
-1.31576075305585
3.2025973055116
7.66588955685318
12.2159388355085
15.6580233642588
15.7674501588701
11.4592501192487
4.62144852233382
-0.582177851426703
-0.500415421887362
5.57063986605595
15.2349321787925
24.9713884757727
32.3626929494957
36.7311449606758
38.1018054783512
36.1509509578955
30.5068173929548
21.7826606460442
11.6425744697578
1.51157129930968
-8.51722199417892
-19.0643771002731
-29.67415814881
-37.9922810611565
-41.1370085473442
-37.9196667192061
-29.5500511093283
-18.4165034289524
-6.69275648739037
4.00261224781223
12.4855733561006
18.2467930688134
21.778582956769
24.305840724768
26.8896901816664
29.6247983650104
31.725842623459
32.456730264931
31.8797365183528
30.6065025405344
28.9397142542186
26.3882914281117
21.9821928017926
15.0572623021593
5.83567155389122
-4.74538294022776
-15.7570981742963
-26.6288422997477
-36.6982476868885
-44.7433650064339
-49.3222244317688
-49.5906758856865
-45.7043056204553
-38.5026099915956
-28.9337696203227
-17.8848548687864
-6.56352623361423
3.32211605947007
10.368190091431
14.6439146198254
17.5934687915408
20.3429120252912
22.2949548026473
21.7775652035473
17.9296885877989
11.538470099503
4.190775636467
-2.73938135112174
-8.12473556481799
-10.8811130989229
-10.5837715759435
-8.32106651328289
-6.30076718215008
-6.24331398515009
-8.36934971606912
-11.8995639882812
-15.8048328385954
-18.7745046522035
-19.4012117110651
-17.3910845720453
-14.3028808339814
-12.2120106165654
-11.4896302051666
-10.3130957864823
-6.47440568475606
0.531626632258584
9.2000130624368
17.4658534129868
24.1134686823803
28.7259824466964
30.8105431027345
29.7557761293162
25.8067586721119
20.5633611770509
16.1507005258061
13.930738986408
13.8867994281017
14.8630948043788
15.3492662438028
14.4843131253915
12.6533354876182
10.9821042097066
9.96210278364435
8.52601536483453
4.68706562519729
-2.63318505843234
-12.2593382864364
-21.2570937039694
-26.806733642426
-27.6988881975422
-24.583245209847
-19.591054930304
-15.611173222152
-14.6655028594045
-16.120889457854
-16.9884269203421
-14.7549567673002
-9.89826428348374
-5.28493830858824
-3.1582557801883
-2.98289086987217
-2.29957356074891
0.572374696867809
5.06899152701783
9.5077674891356
12.8607230558943
14.8891500723606
15.2758993841904
13.719389406103
10.7695280283476
7.68241848886005
5.25706788503596
3.21525727259614
0.714245484996337
-2.81121708426692
-7.16879064985873
-11.3763862184264
-14.0302444504322
-14.0051790868912
-11.2570321530889
-7.21171321777601
-4.0358944775799
-2.83693426249833
-2.42930146489427
-0.400956042735642
4.33967039009353
10.3692039897053
15.0659635787818
16.6366538506311
14.9543816699639
11.2802964243074
7.63334624893213
5.95602953509213
7.16716893322558
10.5753241907257
14.0678266014639
15.1871759298623
12.6995357389538
7.49977369376595
1.84259420319827
-2.50336058017991
-5.39724905835948
-7.84052452982999
-10.6061150846074
-13.3044531382192
-14.6112671781852
-13.3796756775989
-9.62355077882077
-4.58713363260169
-0.0669925825931181
2.39538572612151
2.03495369125387
-1.18504083921166
-7.05326200887694
-15.1224502823093
-23.9160636772965
-30.7696539036039
-33.5451202448685
-32.6562173971259
-30.6748161098726
-29.5698951624096
-28.597207756417
-24.9935849126079
-16.4708655106286
-3.01652653840803
13.3429319892492
30.1281088541244
45.5240534858445
58.029208113601
65.7379233318626
66.9759737721704
61.9201404976115
53.0120970962206
43.3010034235325
34.4814361151163
26.6861670592281
19.8206403865158
14.3917362545213
10.6774503775578
7.61568481853386
3.45986985215105
-2.29996478068599
-8.43345401179593
-13.7441092791072
-18.7083812899228
-24.8607526032327
-32.9443390152656
-42.0485210443449
-50.3083418837907
-56.1834277633117
-59.1334666105893
-59.1117904695063
-55.6017298972835
-47.8276725876727
-36.4087483896182
-24.3440704361623
-15.4678654554893
-11.5304751896614
-10.8015275598436
-9.41502515494437
-4.10322762578627
5.67702933965434
17.3524258360951
26.7649892450122
30.8112142385471
29.3800284937508
25.0692530887146
21.0327704763972
18.967084531072
18.8640949147837
20.1111122378641
22.1836558300427
24.2394072192057
24.8377177192669
22.8336996733734
18.480866448754
13.1842671276535
8.17988573457714
3.83427941114061
0.183028276990096
-2.48072738767585
-3.98445000596641
-4.85027077262618
-5.764870092268
-6.42851597356201
-5.63375621467735
-2.85382065705433
0.769349448839365
3.50446045511084
4.76697330930909
5.34142122170043
6.11917001397062
7.05162153453526
7.32618103819016
6.35972642200195
4.56672284379082
3.07325761840669
2.55985815863005
2.52163440801949
1.88958524881553
0.249095330930837
-1.81814425180569
-3.42402968607414
-4.0690179329959
-3.88609112852868
-3.67259215784257
-4.49170052480523
-6.68161297978501
-9.31159304311361
-11.0453310179344
-11.4279657138939
-10.8998882953084
-9.66654707487023
-7.12256401547985
-2.68024501196687
3.0429277886842
8.26566521669115
11.4370622948442
12.322131173618
11.469455679305
9.03326226624588
4.76091732829916
-1.0358186269965
-7.26910916199368
-13.0004643572922
-18.0526196562029
-22.4678974300408
-25.7124004345401
-26.7871407411049
-25.1996311245783
-21.6897401526129
-17.7905645869696
-14.6036942448936
-12.0484496856996
-9.14758084708491
-4.8432315511301
1.16304479312732
7.86794258351768
13.3966559348918
16.4869622723538
17.4572949858298
17.2853692696711
16.0801614602041
13.2611250821307
9.08683170505887
4.97953478098866
1.99122327873871
-0.335859215749725
-3.01986763098594
-5.83688064480629
-7.05797982209334
-5.255312740143
-1.16997647089093
2.65214806839825
4.25732333387908
4.06907362506926
4.1073129334809
5.68258695701386
8.23158376452622
10.4962388017323
12.5064040063527
15.7890822904628
21.27936817703
27.4887104197942
31.4942384892849
31.6830058949787
28.8737480841242
24.8331153938055
20.5506626171611
16.1641286066916
11.768206244796
7.69578806155904
4.16286148966647
0.913479534488921
-2.71890265556901
-7.30197675104372
-12.747222266746
-18.2977668942921
-23.1582831821019
-27.2043255297682
-31.1302176710458
-35.787604979711
-41.0873895415906
-45.4967219459196
-46.89702400988
-44.0178107638923
-36.9002974411719
-26.4329885120671
-14.367079959004
-3.67887866892164
2.55811024557321
3.737355358256
2.70895220981271
3.28285064891062
6.57588081379045
10.1879648047743
11.0390626279675
8.59862129182596
4.97493475544259
2.1579395530125
0.0644083059005985
-2.26828285817103
-4.28717842539758
-3.8118367878005
0.507787975839963
7.29326151258309
13.4491846515045
16.9029324658688
18.0945022750209
18.9217195498159
20.7028981536355
23.4063657280789
26.3688939828739
28.9688375975109
30.5437692469181
30.3858482462255
28.2381162471959
24.4788559654103
19.6268651104631
14.0600674015964
8.4281597809681
3.82143421335792
0.985747303339068
-0.502562224038606
-1.9009123069434
-4.09210657615209
-6.80426978865095
-8.99153759935759
-9.93401561572515
-9.97875121945581
-10.2857640426913
-12.0179346965386
-15.7115097758328
-20.8936859625223
-25.9382506397473
-28.733186094084
-28.1564325646668
-24.9719768785455
-21.0416420148054
-17.6521994141306
-14.6931353964045
-11.4491546355054
-8.13398577625795
-6.36865877349428
-7.72926534711459
-11.8743318066283
-16.5509079474228
-19.3980507468835
-19.3642188652916
-16.7112626271347
-12.3715705596921
-7.13035737854961
-0.774708279099557
7.70058124084623
18.3139652666696
28.7594723323189
35.7110828439672
37.5922648021342
35.5942099229702
32.0435638395367
28.3159966322205
24.3747669041267
19.8065755078114
14.9439204913369
10.9571607365627
8.87188580351107
8.54470851028151
8.6986129837607
7.96019701769351
5.83887188725427
2.79040124519622
-0.573279486907005
-4.27095660239003
-8.85175851543045
-14.5263531676772
-20.6120443812755
-25.9351203963961
-29.6377370300136
-31.5279191380364
-31.7693159279243
-30.3778928703455
-27.1896378519236
-22.3896329771457
-16.698005511022
-10.5611614299111
-3.4748192047674
5.07430263634736
14.0254531035168
20.9832470782656
24.3064802892993
24.3963579430879
22.8289637233482
20.8202516664658
18.681124600425
16.246895621631
13.5276105382558
10.9932900955653
9.18747610671303
8.08976825135244
7.1487135003832
5.96499530520021
4.51763702794448
2.62956597453715
-0.264959589440023
-4.5443136576454
-9.88294865473251
-15.4052746575877
-20.063168105333
-22.8643489690156
-23.1216364945716
-20.7538516205046
-16.4028679360687
-11.1687717884152
-5.92815550385618
-0.76239331797867
4.61862254102586
9.73486311088325
13.141710473349
13.7703509673103
12.0778764569593
9.47035739277031
6.87558260179173
4.27639303287957
1.51879084337551
-0.813571495048075
-1.59444427854114
-0.270544760415306
2.44287293606418
5.23902557829489
7.45762285450929
9.38645235733049
11.5206536060372
13.8660492706095
15.8782188766449
16.8599599871234
16.5257459443823
15.2857770023269
13.8314485274093
12.4492725037287
10.95561754139
9.19429681532829
7.25131238068731
5.27165725316185
3.34121229637241
1.11601600402608
-3.03664407981823
-11.8352690940675
-26.5446157152568
-44.4254794419793
-59.8095694284416
-68.2355272915798
-69.2169050405232
-65.2418943029047
-59.0493107479684
-52.0903281386058
-44.602103075094
-36.0320456707223
-25.300674636397
-11.5568830592659
4.53797294352037
20.3994327102897
32.897359680121
40.3059104393292
43.0526405878789
43.0602621928769
42.4902053687686
42.5082983459682
42.7991766032046
42.3861251537293
40.8446740349542
38.3623729455254
34.8568177433181
29.7486707963393
22.7552965320392
14.5410316507229
6.51541052514221
0.153596022252176
-3.64354533177958
-4.84744673370503
-4.0729201114328
-2.08664982796004
0.359492229518331
2.3790944699131
3.13854033027083
2.46585542875655
1.0722635848002
-0.080935242031378
-0.715540016148625
-1.59439512948428
-3.84822122646498
-7.65470618190658
-11.6149696771407
-13.8610346591735
-13.8797132976424
-12.8845669493836
-12.319850131095
-12.4018681604152
-12.3456016833329
-11.739341799637
-11.2549852096028
-11.7732010217514
-12.9715538595414
-13.2454754014261
-11.2938119903894
-7.56981189624196
-3.95107430846901
-2.13682135824352
-2.45798852382967
-3.94008926917654
-5.22718965403137
-5.49214520376562
-4.68028072743708
-3.18323703729001
-1.5132398180458
-0.068528703005064
1.23650315373059
3.02543384347294
5.68665480275111
8.59372794863216
10.5153738941075
10.7095597614581
9.20829214009744
6.30084429282581
2.50956409754556
-0.89910892181935
-2.23527715188437
-0.767359036002283
2.39644053145461
5.00971640568225
5.25354503883832
2.80920395020784
-1.18492681884607
-4.95676955440607
-6.95923410550827
-6.42725010112882
-3.77072143445238
-0.533149183109299
1.6310956998434
2.32452219666063
2.51573685567647
3.16548707648299
4.08994678775163
4.36380631517206
3.59777089458301
2.5892318367645
2.65240695869187
4.28655838162373
6.63041202797138
8.33857319764692
8.71252932987066
7.75636158133918
5.6691060063575
2.89741460465384
0.302440181276203
-1.46370430155644
-2.62756795874886
-3.85078915922944
-5.32796543235591
-6.78184037970172
-8.07143898245584
-9.20804427688582
-9.8931430753357
-9.66310141713572
-8.61854553500448
-7.59678338029169
-7.39464583006683
-7.93687710027028
-8.30912597923004
-7.59943166360722
-5.64561177104915
-2.84307223162146
0.701110912261489
5.38582861247047
11.1719022975208
16.6976143529427
19.8992290989103
19.7380699621655
17.0947227577522
13.7278644583053
10.5377944541695
7.27315010273093
3.8528857824477
1.18563406926749
0.164040729636924
0.293864330810058
-0.0649694896034916
-2.18027475956053
-5.91676867944191
-9.96458082201989
-12.8403157579663
-13.8195933060512
-13.0013903491827
-10.5265746270492
-6.23114032794615
-0.488872723024014
5.069707737366
8.38997868125455
8.49649179335456
5.89230526400605
1.87583890080223
-2.03946225936954
-4.46423147262009
-4.76419738719186
-3.53095003210675
-2.07447407982644
-1.33361936829239
-1.25475049464462
-0.933056346440287
0.767474695490506
4.34745976982794
9.00990832638126
12.8695128577121
14.1475568022749
12.5386068198237
9.49299132466189
6.85465789508912
5.04759967768635
2.88862339927822
-0.663775778793187
-4.96249395173222
-8.16248713727509
-9.08747966696099
-8.46715544118318
-8.36152487829805
-10.235637944269
-13.4935566372759
-16.1099841264423
-16.7142770210328
-15.662182330886
-14.1472526034836
-13.0108388059426
-12.5718410763243
-12.7935722480583
-13.1365267580518
-12.6712757436184
-10.6903659916108
-7.13719013236121
-2.58515617860078
1.91840471673624
5.26682608955369
7.11455830087609
8.27328022283471
9.8618217690817
11.996924903141
13.6313206777067
13.8238798293503
13.0522455449612
13.0960081116285
15.4397207657703
19.7071159990175
23.7260613197672
25.1059579852492
22.7402676612392
17.1993064947977
10.2568781723988
4.01553068736621
-0.0928578682556755
-1.91668514080198
-2.41330778028845
-2.9387224667734
-4.41675741831056
-6.7015651346624
-8.66116640272722
-9.1975595282547
-8.29415740793567
-6.97435980395434
-6.33331452395605
-6.65295322427588
-7.19449572782915
-6.7706410682625
-4.8280085419515
-2.08014418954226
0.105934259789979
0.876768056919078
0.293582742151801
-1.08593264642405
-2.5561565140601
-3.34737416563716
-2.92882648035356
-1.52321614713743
-0.222121404203659
-0.322174957309988
-2.21457009337976
-4.77151671532687
-6.10525781665996
-5.31194715125803
-3.39935011328425
-2.23352511358364
-2.68711756644975
-3.9984025806782
-4.6402931993715
-3.49649178861023
-0.468627124135843
3.59169027903737
7.44561842623283
10.1145479307236
11.219825697684
11.036160434706
10.3141350606677
9.72013850866446
9.23304055492461
8.2796979590878
6.54231713515673
4.40903643314878
2.60127454997526
1.57513939399919
1.29205216087698
1.41479442403345
1.68743358769805
1.98642095882021
1.76758205769969
-0.266031446674335
-5.25718195851931
-12.7496042227377
-20.5040635982977
-25.9050280736726
-27.5085292102629
-25.588015060433
-21.7064870964864
-17.6782255545345
-14.4051619330976
-11.4168001912474
-7.4544111835995
-1.41501653491099
6.91601839890308
16.2492003232073
23.7691679326442
26.6262251987575
24.1077417817813
18.1104276573367
11.3017248343021
5.1182392260322
-0.459505189157721
-5.79081353206692
-10.7264233096443
-14.7547784855996
-17.5192321542986
-18.8424582550822
-18.357468148432
-15.4869437275571
-9.8909938069445
-1.89465813952452
7.27531409156131
15.5943467162857
21.2356326693959
24.0191267267912
25.4236482706406
26.6432662391229
27.1160521002415
25.5312889742122
21.8250288409776
17.5426622591069
14.3990717869415
12.7976992633831
11.5827192516887
9.08932614318443
4.59857120893503
-1.1736678572844
-6.94195829559993
-11.7614558648143
-14.9530850366114
-15.9957353124023
-15.3626981604208
-14.9984947034263
-16.8376282727648
-20.6444868348439
-23.9469411867257
-24.3744384086703
-21.7912117790331
-17.9768724087749
-14.4527929975886
-11.0537815705354
-6.78784514440512
-1.57748337515724
3.51980223455973
7.62147753684525
10.7736970407092
13.3288902649008
15.2254103638404
16.0829971921071
15.5910011839517
13.6827178898662
10.6532024847667
7.20089659891623
4.11035032297213
1.73256240455437
-0.22434442801654
-2.37658111012343
-5.11295403300733
-8.3340726937898
-11.667520546198
-14.7159001238742
-16.9683427308343
-17.7981121930757
-16.9900633694372
-15.1835406476777
-13.3041802893535
-11.35297857335
-8.08334558984735
-2.34838087784615
5.09521985233553
11.4651073881973
14.1305965789405
13.0508551642197
10.7525566320718
9.78204897518408
10.5773053513004
11.9514260947789
12.870923651834
13.09289029067
12.6071184859003
11.3780731961957
9.67069728108495
8.16472119609234
7.61924261199872
8.39070584515406
10.0775479379302
11.6706272211762
12.2723383263501
11.5980859185493
9.68612798439402
6.46722218759231
1.88889344972799
-3.83829857111707
-10.3508729768128
-17.1677240025365
-23.4025561820053
-27.7813396080386
-29.2995396394509
-27.8932083862465
-24.4808242743845
-20.4178631441578
-16.7623096605565
-13.7105291464036
-10.4684558806488
-5.79774598558282
0.725408229501855
7.54893621802689
11.6287770614259
10.8779936479897
6.30264300328586
1.26477603751431
-1.43614331012904
-1.3719318174725
0.399570453770389
3.08028540653084
6.51346971638857
10.3730838294304
13.7236759310442
15.6393782733838
16.141451744819
16.1935781144333
16.4444228027549
16.1785802004116
14.0809817410429
10.0056445541627
5.30817273481098
1.23831078678167
-2.37901546857626
-6.45854021964913
-11.0309112619535
-14.8283401602508
-16.4607988259761
-15.5059923245742
-12.1894933799663
-6.60154986427445
0.844074664710445
8.2960495635747
13.0010915872197
13.556459262625
11.0846189922381
7.9144787773811
5.67323886269494
4.6944390555478
4.34043091681668
3.44524095474386
1.070449426114
-2.64137703805922
-6.51722341942445
-9.36222030119024
-10.7253621996036
-10.7781697835057
-9.88682534411013
-8.43500350998094
-6.79734557510283
-5.27791804889449
-3.96099219678369
-2.50887300871087
-0.322660005625495
2.63080279812874
5.19495241005488
5.83137737508507
4.28270827147579
1.95183769544991
0.247229032638651
-1.11586793859424
-3.60486320836856
-7.7387880722051
-12.1957416416599
-15.4274487545383
-17.5384905939797
-19.7834921138741
-22.4500557289974
-24.1105761579337
-23.1520473820076
-19.4517250837788
-14.1936601318366
-8.33684718476033
-1.7246772075762
6.18029823315115
15.0302043471227
23.484105953327
30.2118551060399
34.4484431864478
35.6788715717569
33.7136239341487
29.4698712646992
24.983598897971
22.0357981887104
20.896594769903
20.485017149806
19.360475259491
16.5051817355934
11.7603278252975
5.93419127274534
0.296582736425676
-4.1942681402276
-7.0962261401944
-8.24275029241753
-7.8591928747653
-6.82457526717793
-6.25462793492554
-6.75337513579288
-8.34391491880226
-10.9169139768265
-14.3110216387461
-18.1313958580173
-22.0168598202361
-26.0506146417367
-30.3205681815025
-33.8143004725494
-34.2703039736916
-29.9088862646547
-21.5276049911465
-12.3868805701411
-5.56205349083212
-1.52243415787645
1.53155970740926
5.33533801685406
9.90135146943588
13.8268339278276
15.7759228661304
15.6568995839835
14.4847392262827
13.1904672829187
11.858679984542
10.2791443313922
8.7883171539961
8.06657507597158
8.30455027917709
9.04931828740797
9.82420492409881
10.5055827502166
11.0423590265917
11.0775888220749
9.96804262276054
7.1832119505295
2.8169753478743
-2.21892421445163
-6.63371670698778
-9.51798624118655
-10.7723154687609
-10.9467566292896
-10.6891732091287
-10.2007430847494
-9.15933295629631
-7.11629501663092
-3.75334127355902
1.17212624492989
7.50176875109766
13.9375096127042
18.1768168318318
18.4957097242273
15.2445867882912
10.505390417789
6.24170681559161
2.86344926253117
-0.409836512104044
-3.88031646431181
-6.39582782109511
-6.43181354684398
-3.98620636920607
-0.78922477800365
1.43844521370288
2.38853924138968
2.75386227557009
2.99841242173407
2.77466030564382
1.21315353607232
-2.33963927729822
-7.56470233252523
-13.0182818538272
-16.9156991517975
-18.1635473041738
-16.7278553210352
-13.400667529047
-9.47732979575959
-6.33627091711395
-4.89161128346552
-5.34683106312531
-7.35116919798013
-10.1467884536849
-12.6957285525884
-14.1044091393589
-14.090801710274
-12.9561058646765
-11.1097310730499
-8.60292739536003
-5.00192937297576
0.258872279001281
7.27412984613503
15.3815434436592
23.3273830813647
29.4864568347856
32.1973702322752
30.6064425596577
25.445253466435
18.6687629163463
12.2330966573208
7.28432268480177
4.0778314087821
2.12008972336494
0.544765165777893
-1.19089378739295
-2.97699652066006
-4.50793854148535
-5.77196717708244
-6.86598624376051
-7.61143961636172
-7.69609728834051
-7.11046635956489
-6.20210806586684
-5.31531027946245
-4.52267679851788
-3.70247516180993
-2.76209791098838
-1.70608648618553
-0.499144211424401
1.0041139388751
2.89222651948327
5.06171009587355
7.31554779633155
9.41643957773122
10.9953437422138
11.7127523905871
11.6283091010827
11.0969369283832
10.1815494541141
8.50875058362162
5.87852801929309
2.73058356358323
-0.252435677449888
-2.92118050231912
-5.77801105665575
-9.11014520814105
-12.1513645502128
-13.6952150676092
-13.835466573993
-14.4613083905046
-17.2802316385877
-21.5966952720062
-24.7452857931503
-24.7284443970882
-22.0063236860795
-18.7307351673812
-16.6054348565737
-15.5696698803461
-14.2549328539211
-11.3891354715043
-6.72031565544078
-0.913875105132008
5.05630013017221
10.4502790775304
15.1151096071188
19.4754042702026
23.9066190104688
27.9599122759742
30.4688584268946
30.6400703655143
28.9033237445706
26.53891198681
24.5093530296231
22.6790459258105
20.1327716368886
16.2062532941802
11.098476037013
5.51955409935603
0.118571666274986
-4.59069426945544
-8.27991085545065
-11.2017188428884
-14.0319559946156
-16.7217614275252
-17.8616708698569
-15.8818382811065
-10.8713063165757
-4.79282005739578
0.135005484194124
3.01943953843996
4.24131767926453
4.14799656890727
2.29111350485233
-1.7945527860659
-7.40495587344612
-12.7401313375816
-16.1285351418375
-16.985155917264
-15.8100573684564
-13.5446725353528
-10.7272432328314
-7.06541284348694
-2.17950413695328
2.96139315404214
5.90306154578565
4.77694355980676
0.472030427531192
-3.7934623223898
-5.20480779295216
-3.56439784382962
-1.0273344606391
0.0511627405171347
-0.955739826914443
-2.8732508928215
-4.16366181914685
-4.09280341526802
-2.67420687570034
-0.145574510128186
3.13732412563611
6.47225538150919
8.7034655637181
8.60777896370617
5.8860015480842
1.90962830687515
-1.08016316584791
-1.89101821062481
-1.1710538275939
-0.180176697532715
0.630747424205233
1.53378407660046
2.63006954338762
3.64801655919075
4.54421357612113
5.87123172977809
8.18714311052388
11.0235945531324
12.8359762232226
12.4510162364951
10.4090529352598
8.3617416073499
7.20440253496619
6.3323427056056
4.73619922098901
2.22828896887149
-0.633266686013793
-3.41004363958745
-6.24660521504613
-9.51377894292989
-13.039835084119
-15.7877345987102
-16.5636908793909
-15.1263955718602
-12.3998425522686
-9.55953868285273
-7.02678015515452
-4.2705528439789
-0.501535608469166
4.2886518516318
8.93861815058294
11.9725785589814
12.8734135564913
12.3624104001203
11.5141143400537
10.7773110436523
9.79276688483641
8.07961967054634
5.91316175513009
4.29002223863375
3.74704125311706
3.5041347507575
2.22817340069542
-0.555950947137319
-4.18167554408064
-7.64726189256554
-10.2751544591945
-11.8513299897135
-12.5728022269426
-12.785959553831
-12.5593271041313
-11.5862250061746
-9.53231334557902
-6.32154894282665
-2.17702150926417
2.30905044011606
6.19263236746122
8.59972464191372
9.20363805156093
8.24439297925538
6.31529069164558
4.23435989776827
2.73839099087489
1.99959269136445
1.60223619464673
1.16769931358434
0.945284118207583
1.6714106496791
3.65079388995626
5.87075752686743
6.40114953857555
4.12590456093905
-0.116285029764819
-4.48103628801402
-7.91499646755949
-10.6197636794165
-13.113378025161
-15.4532951258938
-17.3823892813338
-18.8377585476086
-19.9879408392186
-20.578611219587
-19.4912142818483
-15.6632942703724
-9.58555401573901
-3.03877709089801
3.05832790254409
9.66482577983646
17.7825005211912
26.2063843017833
31.9151216109513
32.5920697297174
28.4015105246892
21.5530491613753
14.593538997443
9.04269326928075
5.17694056773349
2.64887858158455
1.02986525170876
-0.151971111333381
-1.39660829773446
-2.87922736822025
-4.22384519642055
-4.81437393333487
-4.35441383558064
-3.28297731237699
-2.81250644397325
-4.2679321909252
-7.88179967117288
-12.1344985330584
-14.5612701682741
-13.5346552366579
-9.4882991009613
-4.43017325480619
-0.214494024290828
2.52041558249925
3.72475267203093
3.17009849517438
1.21141979456245
-0.334002428568386
0.532775186683363
3.78613950288299
7.38109159879792
9.40008386778446
9.43054602435479
8.04221483489928
5.79112312013618
2.88023575593898
-0.537805512742027
-3.73808042702242
-5.29972547211792
-4.29290477022264
-1.75205103681173
-0.23670195836774
-1.47505318654489
-4.77156223458719
-7.83498824986042
-8.6827698074219
-6.73277690787363
-2.83235719374594
1.28881278759546
3.91918887138678
4.21380765213203
2.45551573482526
-0.269078977589741
-2.62888084769228
-3.61747900113423
-2.92861876075887
-0.981336071853159
1.31754409034949
2.98705142251253
3.53863901645891
3.33396523820009
3.28976138958746
4.15159827112424
5.98647329704783
8.15379062686344
9.63745526226986
9.57254253630467
7.62450618140472
3.96865763940137
-0.807186393702062
-5.64799754525454
-9.36423421205124
-11.4993023119731
-12.646233681893
-13.5878516286051
-14.3615891062481
-14.3862256629116
-13.2389579801792
-11.1239215495289
-8.74356397613757
-6.71166568084551
-4.88622389557695
-2.38175288554107
1.44469304922114
6.05748000807605
10.0677558623988
12.4637579123392
13.3111186254111
13.349509127871
13.1648440175568
12.7372494292674
11.6541645931466
9.74636415200034
7.44767813245666
5.42595438514383
3.9618260167664
2.80237573904941
1.51101879369299
-0.0605031161742187
-1.4400986395009
-1.68824591354046
-0.180685901398862
2.65350627189478
5.44596565594876
6.6576720576364
5.25418578910108
1.04308744522874
-5.25389534309343
-12.2590668824199
-18.4114009198264
-22.39232972155
-23.5392801289957
-22.151050231838
-19.134552459714
-15.0450443237579
-9.63353401967496
-2.5504881133718
5.62635128242688
13.225676783704
18.3938313473507
20.2923482603429
19.4859215524456
17.1566667693158
14.1360646602248
10.9251041723853
8.21527773444966
6.49457896904677
5.05008937798013
2.28645482923585
-2.41362879254781
-7.59874563239581
-10.9009519139274
-11.0414977881881
-8.68008614173516
-5.78544602446142
-4.33147621726258
-5.07469633282836
-7.02523257748988
-8.05497466608196
-6.49975817614517
-2.74066191769602
0.768155016885704
1.56158570345429
-0.516402172010687
-3.29507851105701
-4.40148338988176
-2.80687198281617
1.44221535998757
7.72737651980156
14.5270785366297
19.4549317452435
20.5699399290772
17.7747271237496
12.8095698474858
7.85988967975415
4.00385396139396
0.871229770929002
-2.18531382057515
-4.86827086792167
-6.29472027578707
-6.35279539230344
-6.06407469566168
-6.62245627434126
-8.65456007751587
-12.3362062928797
-17.4080087098065
-22.7900581603548
-26.7528651056898
-27.9077638883594
-26.0332599808022
-22.0337440769245
-17.19270185153
-12.1760418429816
-6.47479749301575
1.04842961502226
10.8257215880357
21.650600064615
30.9252717414901
35.9650070184992
35.622191552227
31.0188506027596
24.5683201459994
18.1789188595039
12.4726396081067
7.40525542900493
3.00741853485305
-0.58539712310606
-3.38643534671297
-5.54578535494751
-7.09123940042238
-7.77700514499088
-7.37990752358462
-6.19855933549979
-4.9386023183839
-3.91107478788626
-2.668817933414
-0.658982153449821
2.045771772535
4.78683237704143
6.72772092728023
7.10802545814545
5.55727799714708
2.50789748521236
-0.893208055559496
-3.53218765593253
-4.95649876455743
-5.2783698259913
-4.69638978532523
-3.30071281464763
-1.33912404061834
0.53284003795563
1.63100131929283
1.94331245788255
1.95620381538198
1.54576881717477
-0.279104794689729
-3.99483347656559
-8.54102486059263
-12.3651833694392
-15.0278361288162
-17.0447866638704
-18.4035606395376
-17.9886055163201
-14.646133274665
-8.47564537241667
-0.872059523367249
6.4859588431892
12.3015145737402
15.4635783757692
15.1512478406295
11.8541805640779
7.71043000586724
4.86432745264496
3.58105111396429
2.5454217340234
0.71357990898311
-1.78315402699625
-4.29425734614728
-6.38565728030639
-7.76262646190775
-7.9852357822447
-6.66452014434775
-3.93310635168974
-0.582897980230533
2.31455389437779
3.8944158435525
3.68143306440456
1.72203826145137
-0.926941169188636
-2.0478428997894
0.352972712354061
5.8691861924861
11.4021040975609
13.7175443911272
12.2492880121096
9.16267019214459
6.97831892732129
6.54482386632259
7.09145231414729
7.46300809983783
6.80280257114057
4.48933680558645
0.370522611025566
-4.71021427495706
-9.33405793720123
-12.7931077442496
-15.3798687034591
-17.1926056293324
-17.4997725163381
-15.8111189953853
-12.8442008057102
-9.62024101713636
-5.85064918232419
0.014924986841886
8.73333878227604
18.3926821661921
25.120660545942
26.1582658680135
22.1722985808844
16.2977530091491
11.2592111911739
7.86648232472993
5.73358539440442
4.3406142245887
3.30565472697711
2.55972488922793
2.6196759699676
4.01522602544918
6.0207043270792
6.46339381995509
3.4176990735809
-2.86560903952493
-9.97566049729789
-15.3693020937006
-18.2654878014349
-19.5820173400519
-20.5509931986488
-21.9261282703774
-24.1032971943339
-26.9405068757426
-29.2685311188114
-29.4836375798263
-27.1109720940046
-23.2647005519826
-19.2033218648268
-14.8698089348108
-9.26119481609533
-1.93803420613984
6.4070777109497
14.9684395678216
23.7409290113025
32.6060554097651
39.6906422626974
41.8325196174834
37.3843195577929
28.0931681341523
17.7887984735566
9.54790007019059
4.22448264274526
1.03243127028378
-1.05656461572119
-2.402859287714
-2.82525680426752
-2.3263847032846
-1.31914628063501
-0.0408979918695888
1.72314327015982
3.92144698445083
5.71807409483399
6.22374711991649
5.31694549782306
3.19577660994993
-0.399209689915737
-5.77235078615859
-12.2530368219026
-18.1579141978001
-21.8417960771325
-22.6216954429536
-20.7784605572101
-16.9546532206551
-11.7611413304553
-5.81982142297692
0.347900871627856
6.69492989041583
13.3189429484176
19.320330130447
22.6427671021215
21.8162839549584
17.543484599868
12.0151198070768
7.02829238754005
3.26545328015285
0.961524593231357
0.450386272464889
1.74241332440514
3.68867807465569
3.96845152875307
0.601923860238349
-6.07748485806809
-13.2276801304601
-17.7257041983872
-18.6053832791325
-17.2376310152524
-15.5493189706221
-14.5104604001228
-14.0096473752467
-13.3934513617456
-11.8737715549345
-8.89505941376885
-4.63603179722003
-0.186007082347707
3.16656088066722
5.09190851831549
6.43582402624642
8.02781164720952
9.60370178573932
10.2961954369551
9.85941661470258
8.93245340277451
8.31848990435982
8.36485922960143
8.79085228324877
8.8218563510926
7.79112108232088
5.95360157568283
4.55865226549521
4.84322597336659
6.83874208068475
9.11153610907303
9.80067830818003
8.18284392684997
5.15181046663706
1.90385457263176
-1.54749606961914
-5.99236973420343
-11.3466959284732
-16.0363704806814
-18.2622361935022
-17.6724242677941
-15.7405388729035
-14.4614839027634
-14.4533251878339
-14.349702359777
-12.3251743697133
-8.1162068924856
-3.18259836541872
0.887914595138196
3.54406019445416
5.03652130068717
5.79442404676638
6.20300800222615
6.60936149970645
7.39379355275474
8.93925364182824
11.2089937632673
13.4189613696301
14.6132881266692
14.5558814066131
13.6318926233935
12.0300182378824
9.58815736151475
6.44184089555836
3.3724028029325
1.3165402898206
0.547956917278226
0.386724365461097
-0.0806656482465113
-0.92164636872527
-1.32751458239901
-0.776101920241469
0.212844952505585
0.624222684070303
-0.206109742460051
-2.34429635934838
-5.30330836725226
-8.23570347060805
-10.5769076175447
-12.6148150218928
-15.1067827074981
-18.3551481583558
-21.8713011592227
-24.6617443715271
-25.4423723551559
-22.9593441016057
-16.9611103663587
-9.06971758967316
-2.11993346623027
1.92074131820634
3.52616206421567
5.06492143412031
8.6117686979262
14.2155850714378
20.088048924275
24.0454247833738
24.6726629867551
21.8123154662805
16.6582978690288
11.1416115639894
6.6487829672746
3.37201200196649
0.980887409419476
-0.604704031467849
-1.38715875744782
-1.67263975022991
-1.83439310159502
-1.94195939888133
-1.85467014660271
-1.55973060031021
-1.35513573952451
-1.6439681135477
-2.32790731442557
-2.46854130165687
-0.95332738718103
2.39743633072214
6.5361890362115
9.88569097596337
11.3119997287983
10.8779800731471
9.91889517588298
10.0252703563541
11.6355568632952
13.6685002800033
14.404049919788
12.51031285981
7.63613087731511
0.746798622286134
-6.13696284840939
-11.1743054820325
-13.9249700692538
-15.2782239083828
-16.4931238034963
-18.5462219051825
-21.8690156170384
-26.0364077500401
-29.7215300044935
-31.3129390402517
-29.8250279868796
-25.4799839114937
-19.5375824350873
-13.3009007843095
-7.13629640851658
-0.725930003328514
5.70776397222823
10.8980799076445
13.4409466254881
13.008329646351
10.7468323166594
8.66646831359677
8.29569246577486
9.50409644825918
10.7406030921787
10.5339707589514
8.55905258888631
5.47217388050326
2.39914200562208
0.607375911377306
0.949046090670995
3.32276842170568
6.97626043796686
11.2525205927947
15.5387608895564
18.5726344892824
18.6009283543311
14.7652964825585
8.25434403223812
1.89506089905189
-1.61574127483397
-1.56561937183315
0.291479515637737
1.18879117063018
-0.493687187827469
-4.2961228251517
-8.4068133009364
-10.9325476756205
-10.800994643064
-8.1712104227085
-4.34136383783861
-1.08534926396818
0.364531009409613
0.026685128306917
-1.16265476446293
-2.47696663966241
-3.87177169639683
-5.15395050888464
-5.37262011436728
-3.7667811144242
-0.922901132449522
1.78531424728099
3.71988067341788
5.29105683390388
6.8356472379583
7.74473823526686
6.93433779625617
4.12820573456632
0.542637852550019
-1.98685480551209
-2.70232597364052
-2.53584237815457
-2.97320731381491
-4.6233039740229
-6.92079870866852
-8.68075567563488
-8.63219653518901
-5.88841468371027
-0.592740769759056
5.66348754457138
10.2329701284697
10.6379188765704
6.15542157052966
-1.14041634385441
-7.04570303738987
-7.77664500221257
-2.63947925982239
5.46479456433294
12.1850035488136
14.7424448844166
13.3790518236295
10.1966547333781
6.78662182747626
3.05782970576118
-1.95447977733944
-8.59342792795165
-15.841791289187
-21.7822323213316
-24.9253209415885
-25.2928950043562
-23.999060145425
-21.776510896785
-18.436896542732
-13.8167557103879
-8.49534331899333
-3.30269758914949
1.2471885133408
4.79142932172193
7.02242476703902
8.11834962998409
8.86417178047125
9.97253653926021
11.3403023039312
12.101663357953
11.4983544609818
9.79914347718078
8.25795284174885
7.90162361803256
8.42474101748756
8.62023226935133
7.82780174230673
6.53076728794457
5.59962393237564
5.47444462558369
6.09687173348986
7.1111279031523
7.97289087910198
8.16306258421804
7.42167323779393
5.72315601804092
3.16191039535939
0.0698757782747346
-2.72929325732522
-3.96978484007575
-2.65294122950237
0.891782769292206
4.6997602372249
6.3216638631162
4.54697169110638
0.161806498188828
-4.72339020801315
-8.14526854911073
-9.61975423344447
-10.2533573770636
-11.2382825419441
-12.228611949277
-11.6029924457677
-8.28868768182012
-2.93728720556363
2.56022481301947
6.33190162887773
7.54165254381672
6.69016980756681
4.99132418158777
3.35153169693378
2.00589808074523
0.891423554551886
-0.176942985955496
-1.65740378954209
-3.92754282216333
-6.56938411908161
-8.51911127435679
-9.21710190000335
-9.41817797192094
-10.7438064713233
-14.2479275081622
-18.9440802087337
-21.7838089940795
-19.9003167301693
-13.2069939024224
-4.2835630706761
4.23585392249135
11.306792539919
16.590356931842
19.3064933286816
18.836535545574
15.8869040536467
12.185450123201
8.96345548765927
6.17056624052977
3.30203936478364
0.549885031763302
-1.30652933588274
-1.87504471643983
-1.41034175185229
-0.249284708885937
1.37074549698873
3.09099662790895
4.74635845413501
6.76573506800673
9.54674450678838
12.5242775805976
14.4476424135993
14.45367281608
12.4411824338959
8.74299105078962
4.0438286423482
-0.615256271149182
-4.44752349448713
-7.65816847213538
-11.2484118161391
-15.8999352554826
-20.9036504605397
-24.0976336908401
-23.3231569130173
-18.6180824733938
-12.8731497663533
-9.64195660223518
-10.0861354873767
-12.2731241964073
-13.2813921687819
-11.5655141467163
-7.41642066434767
-1.89168846105826
4.10019467044211
9.90658245006825
15.1666655228866
20.0955367967316
25.0917804282607
29.4558585887972
30.9924965067013
27.7482317636332
20.1699753663002
11.163402135855
4.08403655781094
0.626127796431562
-0.0118240994731492
-0.371933750976777
-2.82025679260729
-7.84779802123112
-13.9158726253507
-18.6119859484714
-19.9789658256074
-17.4492187941584
-12.1419734648297
-6.19034076384479
-1.51741729912752
0.887080241005989
1.07634436078424
0.30798178650732
0.815921494966265
4.18696389985318
9.44701051884923
13.4477296227066
13.6695855181379
10.3489331848014
5.66890548318784
1.32528567216383
-2.63981315586826
-6.73321915335504
-10.4298372135076
-12.3147111191111
-11.6478183806856
-9.12169535974141
-6.0539336933211
-3.47286876636578
-1.90370691795735
-1.12795646820365
0.0295820901862063
2.86189379420875
7.35735659069213
11.9425393319939
14.6342964631238
14.1977822675617
10.511576581393
4.36322348396936
-3.03072559824532
-10.3554032995811
-16.0745932038572
-18.5924225701073
-17.3698762423846
-13.7068988378856
-9.5686252938764
-5.58554746672263
-0.85560107792236
5.25077730126622
11.630542513655
15.8617125761342
15.8625753887708
11.3969060333275
4.28128126132894
-2.96912870603313
-8.71314068594638
-12.3559049531033
-13.6438219283596
-12.722645291135
-10.6005838111196
-8.43979918895747
-6.27147630426844
-3.2711346696329
0.51710899016155
3.54906461568391
4.39681221566823
3.63080852941063
3.54908168190013
6.03628501979273
11.0157753680453
16.8892506363007
21.8237360885438
24.396794700566
23.8141167917612
20.2829848990517
14.9092859202657
8.78744416987442
2.48024788625593
-3.5259022892433
-8.66359222534996
-13.0249554309724
-17.590251844537
-23.1129702718102
-28.9073912503085
-32.8648157539574
-32.7020837799797
-27.7601788472265
-20.0755398286785
-13.10263978579
-8.49248445901078
-4.33167343717654
2.71022299997378
13.6667829601292
26.2635921876262
37.1288915886147
44.0172006578552
45.997916466369
42.8067823807304
35.1249652343957
25.3573275067371
16.9631897643072
11.976859441829
9.29073234304005
6.06485298444738
0.750611973859147
-5.78348619528983
-11.6638607889307
-15.6241092033815
-17.5490968904756
-18.6400082461997
-21.1959781990559
-27.0917518000623
-35.6248919906264
-43.0740560569763
-45.0138567886458
-39.5691556149983
-28.7179091359896
-16.5620615244671
-6.3090667464272
1.42422666029965
8.18441092726924
16.1351910975536
26.3197696604066
37.3747108990454
45.7799898212947
47.9167712627323
42.2026921592451
29.5421764567547
12.4608991809981
-5.85098416683606
-22.4591354645382
-35.6802323545566
-45.3024809795113
-51.5987848705731
-54.3309965153963
-52.8798159002505
-46.9465957839546
-36.8095773060036
-23.1584481948257
-7.06956295527982
9.69303708631192
24.4918042188409
34.6369096775486
39.2359424941112
40.1081503143348
40.06452841713
40.2297773190398
39.5799137065172
36.8339648979951
32.0561703999971
26.5420948814497
21.7425877299597
18.2016267775024
15.14395496576
11.1849220543475
5.62922513364598
-0.897809479189052
-6.80732043245893
-10.3400243160421
-10.5754595408038
-8.28164828795784
-5.56549929217255
-4.24684494019196
-4.62756382953628
-5.94565362298167
-7.73062700308857
-10.409564376034
-14.5928753073297
-19.9566919792672
-25.1185564388578
-28.8540200798559
-31.2569993178856
-33.2189985952731
-34.7407997315602
-34.3163714000403
-30.1899490189872
-21.8356866973938
-10.3048598297442
2.06931850998579
12.254251230019
18.0573934124373
20.0314813990977
21.3283955118978
24.6761803070835
29.3703866793968
31.7780767172761
29.0141386111924
21.7944050347618
13.5757701189579
7.51551912143435
4.75628845482823
4.91968343652322
6.96061659247364
9.42547044886009
10.8930423467067
10.6637853863105
8.77330306470219
5.47039991471463
1.06440214537006
-4.03052476576421
-9.59611254471462
-15.7024461195001
-22.1298282346523
-27.9668127760559
-32.0319496211818
-33.3991654476442
-31.3951272268598
-25.629809388776
-16.5574353542444
-5.85523669438539
4.31941444007923
12.8150024128718
20.1290396308596
27.2030389552818
33.4809774749591
36.5648172391101
34.1024626207732
25.8245570466401
13.7600586183682
1.12478265262835
-8.87621611246776
-14.2574543204326
-15.1919318318493
-13.4680590814545
-10.6725321376579
-7.22736147427262
-3.12436449083101
1.22869015278806
5.18686074194537
8.30776557669296
10.299371138127
10.835188290554
9.63909135351767
6.67845890336452
2.15317024403758
-3.85339777667014
-11.6567346029262
-21.4000565406672
-31.8413241395025
-40.0824943314169
-43.0782845783123
-39.6867759375559
-31.5570151031245
-22.2139994741207
-14.6658357765614
-9.07953837108249
-2.96535134639158
5.78985963103725
16.3986136651452
26.1385239533596
33.0863226541642
36.9269860961569
37.6913209276822
35.1609259968802
29.7083019517236
22.8140383153355
16.4034951414309
11.8869939798035
9.62515217780247
8.8689363273144
8.21318810717328
6.42868521382939
3.19644015844748
-0.651680963589433
-3.59605052083513
-4.54300385403864
-3.85882612368733
-3.32438393424668
-4.91895718847672
-9.42642903617257
-15.9599348866248
-22.7709654256793
-28.6299473289612
-33.3510120176614
-36.8568766507986
-38.0385128100234
-35.0100921341793
-26.6158016567858
-13.759569241474
0.489201265773823
12.346506787077
19.7886848407153
24.0533515472689
28.2166988942119
33.8599084520623
39.2823143682605
41.1099048621329
37.5184845866171
29.909739402677
21.632965114364
15.1156349777185
10.2116804966445
5.31241627329803
-0.2789565180881
-5.52212753023098
-8.92510974328913
-9.94057628655806
-9.13089271351462
-7.71287191936352
-7.07230489962227
-8.09393728806579
-10.7150617817807
-14.3285464463799
-18.4286188314914
-22.4966547622598
-25.4396138947008
-25.6485493008484
-21.9726989399792
-14.8975274888598
-6.75049709751499
-0.243679574872161
3.60788977163694
6.01425079697958
8.78625158444394
12.4269415299258
15.7857056722799
17.1566862358713
15.5781872810224
11.3137217944505
5.28526898804892
-1.72547974370205
-9.14247311571281
-16.299861081893
-22.7051839125223
-28.3125643962714
-32.7808672752842
-34.7303369923403
-32.7585132335123
-27.2203407272959
-19.932641636566
-11.7816790727783
-1.63763950603934
11.6269259482238
26.6136716285928
39.612430532383
47.199903401117
48.3826503421821
44.6047328435033
38.2703425022823
31.31109027722
24.6539787145924
18.4720626300705
12.7466698003903
7.71630403569931
3.8021469589104
1.01349692191462
-1.41064771696145
-4.52919800729445
-8.85327208368085
-13.8566026696944
-18.027656803563
-19.6258206752211
-18.098590601852
-14.8181474467166
-11.7740848021758
-9.51112978268138
-6.99211692998268
-3.37876506998152
0.848569116735417
4.49123903712217
6.56859240634044
6.64298684847644
4.94000506091347
2.38371097455109
0.166588192198567
-0.911610921170878
-0.724306974935755
0.313432647660243
1.42558037298738
1.59593144983349
-0.261853183839404
-4.93566211435259
-12.2329363993848
-20.4300217699413
-26.851234725794
-29.5900432839236
-28.6967003654857
-25.5892637908135
-21.6194127124853
-17.3255711903503
-12.5736979663417
-7.05076151981681
-0.825505674772818
5.35888559651377
10.3848344984962
13.3664440990422
14.0763655141917
13.1399234028395
11.9024259855578
11.6448201795607
12.5387403150838
13.5242705555447
13.5120804430763
12.6769238062789
12.3121942221201
13.3088521609669
15.0535478783237
16.1858426039238
16.2524098381644
16.0169275749834
16.168445435302
16.4690855501019
16.3572750591732
15.7028949476875
14.6835358745957
13.4188660532437
11.9046492813997
9.89603221205212
6.85249111014148
2.49265733990352
-2.60207247894362
-7.41278123366874
-11.41192076047
-14.5409776695759
-16.4779323853142
-16.700632146992
-15.3305789856048
-13.3340838405691
-11.8275637617537
-11.5666584533575
-12.9728765243023
-16.0465176647606
-20.0326697670117
-23.5528162400784
-25.4933879031755
-25.777279349215
-24.977408792184
-23.1259581280208
-19.2435800249268
-12.2193742669698
-1.9920368225167
10.023059906729
21.2727233437107
29.0400400232152
31.8733545042193
30.3450516205783
26.2142318278263
21.0367524201642
15.7124008954895
10.5826396894885
5.21659930637775
-1.41778600151238
-9.80953894884192
-19.0476665538266
-27.3731702414534
-33.3039225936696
-36.1306858238865
-35.7976673662725
-32.5656265606826
-26.5595936353628
-17.6275818110156
-6.01170863021907
6.76397784448601
18.0622619692643
25.540459743262
28.6079668477549
28.7349773627093
28.2979400417525
28.7211028727787
29.5299222884314
29.2781854648542
27.2149828009501
23.8188996441633
20.0150842684811
16.3156023545394
12.6509984165175
8.73256832481721
4.42436318590935
-0.329872669769564
-5.78452941414073
-12.0939234014735
-18.6473812963458
-24.2643613743832
-28.1708771254054
-30.16595454796
-29.8537599441224
-26.7290150519735
-21.3796374671778
-15.7292537084997
-11.4618396471335
-8.45688621483848
-4.89695954682664
1.33063072110533
11.0554302926634
22.8271319856297
33.2216623834873
38.7765795241222
38.3896176028371
33.9946250622911
28.6656064178801
23.9838076600664
19.3342776087677
13.5465003731348
6.63093417637687
-0.387489549154896
-6.79910291374378
-12.5703444349445
-17.4455255808175
-20.517922887871
-21.0543347147024
-19.3634951964006
-16.6962576930546
-14.6071195764367
-14.3874041512153
-16.529094946359
-20.2331509532004
-23.4858336684459
-24.1871753741826
-21.8738229488818
-18.3971250331533
-16.3509505573176
-16.6110800846071
-17.7314535476234
-17.5378430020816
-14.5958221794524
-8.48379473458217
-0.0666551897885081
8.14696178933194
13.2015713292853
14.2064092655101
13.371935187249
14.0505680374745
17.5586000504777
21.8163653660663
23.2958339037947
20.6627897219983
16.2797704058035
13.6204918934655
13.5724654416388
14.1344659459281
13.4838901485775
12.0768574191627
11.3616746593012
11.4628364310244
10.9653177882169
8.64557863276232
4.77403149870095
0.634759347565744
-2.88193722022857
-5.88377008469996
-8.79469149640058
-11.5873179584307
-13.8523698292513
-15.1573300742927
-15.1751610663352
-13.9865271811865
-12.4019583021229
-11.3732308008448
-10.8311564218039
-9.58102509506611
-6.59046166662084
-2.11420381803343
2.54021603865415
6.16829574345575
8.51733532024707
9.99778971949736
10.7212086214597
10.387350776578
9.36256167824226
9.02150965325945
10.1724395401897
11.6399642788596
11.2888361590967
8.23328064447913
3.45617593081732
-1.37707101341767
-5.00902824518872
-6.73263877709572
-6.35387761280822
-4.51544958211666
-2.83007804909202
-3.06406650493261
-5.56039501427029
-8.34666955342295
-8.41578923458099
-4.55051999091418
1.17751690756242
5.06179612902122
4.84824090030985
1.15486387790621
-3.60095201570535
-7.10821968218098
-8.20930329292235
-6.90659173918782
-4.17294064550986
-1.88212547970491
-2.04738520055243
-5.18897670726945
-9.6646839273687
-13.3135988017153
-15.4383359902564
-16.4120100403788
-15.8854941263782
-12.7298913230591
-6.89283277917807
-0.261108201996668
4.89638972854338
8.04507574316914
10.6377166470292
14.279875261189
18.8132709321069
22.3920239602787
23.3754383863115
21.834741088936
19.1927694776901
16.7322053949804
14.5032319386335
11.3996690835362
6.34962319317625
-0.229907805125655
-6.24353635753301
-9.58823514094884
-9.9806249587269
-8.82513410848426
-7.57582202280366
-6.81641883180084
-6.68823140221648
-7.28475375726543
-8.22767826981113
-8.27770056865063
-6.03558574937069
-1.53503235531746
2.9563649302409
4.53878994932076
2.63900018037746
-0.0848471074233864
-0.360115005453895
2.43511669351691
6.01541777190499
7.90496714776077
7.89132008982669
7.6623515833844
8.2948901659262
8.60358374038336
6.27742711337196
0.279675487614233
-8.36018306599122
-17.6886322918979
-25.9231376489964
-31.6296050261399
-33.8021347825854
-32.1570562272301
-27.1879298841267
-20.0017005818492
-12.0276059014014
-4.28567467025339
3.27401295712697
11.1147011987767
18.5731532688671
23.6952662022488
25.076377345947
23.3515980621522
20.4171756041445
17.5861885790212
14.9275246274321
12.102557508789
9.30984705229553
7.17618210012707
5.78416032242216
4.19379757405314
1.38106309790967
-2.40764845092546
-5.60104476787155
-6.57574982837113
-4.85026745104208
-1.35769510718552
2.15280215095466
4.27343848539225
4.84873983028789
4.71416126190837
4.59305126657778
4.48341336884324
4.02429717089642
3.14142779143154
2.29407325733981
2.15330769262938
2.95459465186147
4.22931913205328
5.26802799809683
5.51494034790695
4.29482653841582
0.820544959235068
-4.80807014868118
-10.9832034254173
-15.783095597881
-18.8614276720777
-21.6483568067249
-25.379650423372
-29.0544493612399
-29.7850964769401
-25.6205214719145
-17.9222730156594
-10.3107098381806
-5.06773749855368
-1.21108535895658
3.60954213153634
10.1494869656503
17.0848611667673
22.6919655177289
26.1116514984222
27.3403308146836
26.8208161173242
25.0930467437978
22.4600839305987
18.9316895529499
14.595386441774
9.97879221598665
5.8803176619853
2.7081566381725
0.0896757048787891
-2.49712407453415
-4.67480292791196
-5.35172408352991
-4.27368812239855
-2.80786202514279
-2.68303570878724
-4.30884019316443
-6.69316862767948
-8.74564660838343
-10.4973620047354
-13.2221307864327
-18.2008663019862
-25.0473032359257
-31.4844288916793
-35.0831610289791
-34.9458786338364
-31.571260528097
-25.8257091268783
-18.6723706638939
-11.3257265380579
-4.65061951041918
1.71554548161969
8.97179065966356
17.4001046683483
25.1158908134698
29.097177850696
27.9330923484994
23.4504338112045
19.2036390994859
17.4265789405975
17.722772613283
18.2257272953762
17.3069891026425
14.5023865501747
10.6899312482059
7.45502560826691
5.80630297110805
5.44402851093232
5.3462095688738
4.78309822587933
3.64926305268342
2.15547552422381
0.451142622256048
-1.46454932728721
-3.46121246482729
-5.05362942372243
-5.77115476757851
-5.67969962094178
-5.18458269245369
-4.4462053343715
-3.36061191724757
-1.92856665370508
-0.348361340663101
0.982085257351795
1.47288419792494
0.959713223808958
0.436021097708735
1.31452544521673
3.58761344876508
5.47892952195513
5.33276251219914
3.19550536956179
0.215561090761772
-2.78376751002007
-5.72268086719298
-8.90775777506952
-12.754674259496
-17.5254559792048
-22.9413690367738
-27.9701615705404
-30.91166962975
-29.8726533174768
-23.8650537954556
-13.9773313133535
-3.22783391262427
5.36824951327045
11.0011427104632
15.3333536992589
20.2836208633906
25.4862042269314
28.3045891834891
26.4300241975354
20.0079921044318
11.2944965658473
3.1337071691522
-2.14561882265644
-3.70840856092394
-2.94666801560808
-2.44047262866533
-3.44091053634406
-4.81671094568905
-4.79930693823309
-3.16702178953048
-1.35720275184655
-0.931593628254019
-2.36443773408699
-5.08867069975406
-8.20822645927974
-10.8962227458551
-12.3495129225938
-12.0245694911468
-10.2926036084899
-8.4106814424237
-7.2526662555795
-6.2592762051677
-4.11506472369983
-0.205833050803313
5.07329542837138
11.0489791790367
17.0160346886111
21.8158839774574
23.9560425702582
22.7213806484206
19.1737360423306
15.6041994416878
13.4741898994133
11.9232362729467
8.76291640631643
2.91336456054221
-4.57528272784467
-11.6836502152731
-16.9277737950065
-19.8856883942307
-21.0345620132789
-21.1822157704724
-20.5689185920739
-18.437209885787
-13.7284867260882
-6.28374133960236
2.53000843003472
10.303023445293
15.0908775946594
16.8488244344239
17.1504987949107
17.3268108071359
17.3400254035242
16.6138469376991
15.1996204195429
13.5919033207534
11.8651727278359
9.54055220626558
6.13156469417388
1.52498304489124
-3.98362863700747
-9.73576671392507
-14.806448250155
-18.2530117160867
-19.5854384604023
-19.2913325255563
-18.7268890438666
-19.0282478975055
-20.1051209631701
-20.8599652182087
-20.0458873453651
-16.765077804624
-10.9832673525202
-4.2151411200728
1.01223055159695
3.25126749960487
3.44316076940671
3.74937543742608
5.48862377512676
8.44776050416143
11.5378179250639
13.5556407113912
13.6258134931587
11.5254236807563
7.90556435078624
4.17425012036038
1.80777614871364
1.40311557612278
2.41746085340669
3.9005587805524
5.25172209042451
6.31271421432718
7.26876934013861
8.55630729628358
10.2526792062808
11.3791943070854
10.4607339288185
7.11630218466572
2.62057222841362
-1.38867173331274
-4.33209309942232
-6.5996185517315
-8.50389278768853
-9.70854747199702
-9.60682832472957
-8.12007345296417
-5.99358085916906
-4.07512453071913
-2.3714003148074
-0.218861148309915
2.59915960760702
5.33246271587529
6.95929590512053
7.16191080771965
6.62146485015789
6.47631048877144
7.35902046109056
8.82465417750062
9.71933683730618
9.00612012998141
6.29385772415585
2.06673496378638
-2.39041794511771
-5.83519080853691
-8.12924942063187
-9.98706041624781
-11.5858954114884
-12.1501715864895
-11.1044980580405
-8.89487778734477
-6.36581868190369
-3.93196011159166
-1.73296480555059
-0.203798778249811
-0.0207992456715711
-1.43141548505615
-3.85565018913064
-6.42522510720951
-8.95660172702396
-11.98899569304
-15.5634540802612
-18.4333337309903
-19.0622396283443
-17.0578457224579
-13.0386381669707
-7.52966766129397
-0.777278528998221
6.54991535815806
13.1376237955443
17.5633496536113
18.9914371353763
17.6880527420757
14.9958163922993
12.4668206526014
10.8138439763209
9.71557258256367
8.48187862629425
6.80349488502179
5.04931820749497
3.91799662799018
3.67775671017424
3.84733065641012
3.76837314072095
3.25532503390232
2.51172535075296
1.71713244411068
0.9040699898289
0.0659985372031488
-0.609401483113473
-0.530814017696252
0.83626909205925
2.90541594982153
3.85016417695654
2.21294621529009
-1.49384620142207
-5.16254206690053
-6.90236307684673
-6.33945638956448
-4.57254301173315
-3.20966668681712
-3.14604921616682
-3.93408122533587
-4.40150101238492
-3.86103474828854
-2.55383198678403
-1.13924640505224
-0.0858940286356651
0.600437024786054
1.2851399348088
2.18861186601368
2.93571037373145
2.90415476471641
1.99699816618618
0.795167370324562
0.0321012855298696
0.0979517394540314
0.820033222241729
1.51943039672392
1.52288700633487
0.808292130934323
0.0135589770773177
-0.225050243897358
0.140226467937071
0.54036283031796
0.328245096154651
-0.44813946051565
-0.891330169893495
-0.197695951351149
1.34703097327846
2.6141257673198
2.69136221031554
1.49887587331743
-0.259118060332434
-1.5049773173554
-1.659305055449
-1.4890002076734
-2.62047277983019
-5.71466819938776
-9.37908070264156
-11.2268212691683
-9.82335887199673
-5.58197383269185
-0.354701482666437
3.57574198283
4.70098865914507
3.15082795843682
0.519838733858628
-1.21769404853251
-0.917423535954493
1.00319828537746
2.77455416645706
2.55178224962939
-0.20746436762611
-4.54806443400218
-8.94137836656884
-12.2133557235913
-13.8678264292675
-13.9500281984315
-12.7407564645339
-10.5321053079854
-7.490907442845
-3.43756073713437
2.0579653033645
8.75302028385408
15.0178503962484
18.8927772930832
19.9244106027969
19.1827369755846
17.5486743524915
14.9117541259636
11.0490272968841
6.3870442834454
1.73997874858177
-2.09843692468705
-4.42162935663683
-4.71638385847887
-2.8575077015405
0.818684000371691
5.46493800396793
9.81176281144154
12.7278104918607
13.8073466608118
13.2357910781632
11.3743911687441
8.85688283877604
6.55944365540592
4.69182636457443
2.20418531940547
-2.13339197642975
-8.08713080544286
-13.8326495479714
-17.4407455985019
-18.3256078733388
-17.4182796649083
-16.2128473111269
-15.7506572337092
-16.2962340324958
-17.3190121977334
-17.3742146285262
-14.7345648563732
-9.17004601553236
-2.85286060434661
1.4612971636849
3.07990760379739
3.49239810676096
4.10816436716401
4.76654037576041
4.54705845524758
3.37923152246585
2.48411672468716
3.28855664311033
6.01063764974159
9.36605152816526
11.5680602935123
11.4550310858749
8.89919155733477
4.77655581932898
0.735066131072156
-1.64682448732386
-2.06915773758117
-1.73326933014476
-2.06277750872614
-3.37276645722258
-4.89772775594061
-5.69860932244744
-5.28055327174746
-3.7267856504189
-1.65773626553057
0.0488210238520662
0.833766230110521
0.887609449081915
0.912530694595238
1.37954199432351
2.1856733332721
3.1690086763179
4.56331610567847
6.45804393992624
8.12285604738602
8.55772387794529
7.62587650276776
