0.0538533666164785
0.358992880100666
0.436391356239994
0.365868908788757
0.270549466270014
0.228058186677181
0.245722495478069
0.246983235168585
0.194686055378463
0.228956108490121
0.501515069195522
0.896495746320099
1.14489250180516
1.18672202873177
1.18511580626744
1.23610796415842
1.28598095467915
1.26539011302133
1.14126125672129
0.925695720886076
0.711223939121067
0.585585185722009
0.518187972468474
0.444614566851812
0.375748277229848
0.317420210937464
0.222737742538017
0.0958655377364641
-0.0277878197710971
-0.212425723174894
-0.530427035286425
-0.883208511675295
-1.1101813858322
-1.17852723232338
-1.11275207033775
-0.918940183635215
-0.704551971067617
-0.640513544062049
-0.713122521102589
-0.739566529612586
-0.638601987471492
-0.468181838838457
-0.268537902699006
-0.0835599858402323
-0.0243526526694537
-0.121001145153099
-0.231464097740569
-0.225579641043561
-0.115786182536549
0.0612287143296655
0.300076785456739
0.519247556463797
0.606589646044452
0.587003819325679
0.554533352786482
0.496452432271135
0.374505247397523
0.267592244060344
0.263623569926748
0.34148848510625
0.45801902696767
0.595918313606198
0.697179789248779
0.702076378604366
0.621742212102057
0.466614548729513
0.215159893407002
-0.0815752895088077
-0.326013020780775
-0.515421033061531
-0.680855148270496
-0.757868916100008
-0.708734052495789
-0.626922431660864
-0.541014668299179
-0.334711151531625
-0.0195321221975992
0.184286109902204
0.170519232293403
0.0827278275433038
0.056549455293561
0.0664608746517981
0.0356095765641948
-0.0913220323057619
-0.331248312053718
-0.592295510462849
-0.729452880183319
-0.741407352819859
-0.75505548283661
-0.780910493889085
-0.680850939045437
-0.400027285696171
-0.0350761091777569
0.308793073331922
0.546998781995268
0.595233169127033
0.50291643029485
0.466689094193078
0.563997660087942
0.653291101261888
0.621615383720861
0.515132588985886
0.398530061057955
0.301818653187829
0.281029386437172
0.354784120764369
0.451840771297077
0.51815677748936
0.543539523409375
0.467257833139722
0.255187172325775
0.0351749125108915
-0.0680030225691644
-0.154922627029627
-0.394663163403044
-0.752120721735296
-1.03811638628233
-1.11381374627876
-0.975264723712034
-0.775445507513717
-0.733557344955262
-0.865292501394085
-0.91513533736257
-0.713552711475214
-0.420654590109451
-0.252386697882853
-0.1767475534926
-0.0498484667810134
0.151562266863246
0.386143573428584
0.646858094661214
0.883818374914325
0.997890298832427
0.97519422374711
0.882535380005265
0.756706501949651
0.639287572279288
0.609998092713746
0.650120614988612
0.628625671211731
0.51383071783023
0.413072896479549
0.372174640189859
0.332018419235661
0.26373467176399
0.178097391599856
0.0722644032056438
-0.0158357001666174
-0.0230397439037265
0.0066663655638784
-0.038405841724422
-0.157140037981682
-0.254346253334121
-0.287086456486129
-0.253833624299889
-0.159434120222422
-0.0970404025532131
-0.188015681849326
-0.379134994717715
-0.501254585125598
-0.521368006185709
-0.522123500303501
-0.508104392760325
-0.45579761626886
-0.447353627828182
-0.550725155435868
-0.682436215964401
-0.740831696336052
-0.739008812951631
-0.705021790428147
-0.623308325316207
-0.541609391123497
-0.528627636576815
-0.4851283049923
-0.221270048800357
0.259348133207523
0.742258992586634
1.03008304601285
1.05152391539709
0.858112536733267
0.620257466640813
0.494585138421767
0.452131749270445
0.361833157924556
0.195007335576755
0.0183122673127013
-0.111368294256188
-0.140126713850502
-0.0408613031910659
0.102419268828751
0.175677901346904
0.172225712202394
0.111318730375101
-0.0462960861368806
-0.24752055661787
-0.318753874888749
-0.236878504131026
-0.182441685073867
-0.224358188905304
-0.233995176415908
-0.159129562926866
-0.0935862173195227
-0.0754669204582568
-0.06945516216548
-0.0875546917835528
-0.1179461788078
-0.0524312619525514
0.141374476287179
0.329973426952514
0.428394231006516
0.513297500912559
0.623954550991286
0.67736987783378
0.658752498558221
0.662556068909316
0.696755396917851
0.652347497026307
0.470304219698669
0.197096960578142
-0.0653157803304394
-0.196967198364856
-0.165103922150517
-0.0942781375742793
-0.100474810877243
-0.137283066463884
-0.140398617663049
-0.166598354518863
-0.251137346090051
-0.310734838983568
-0.291742583441782
-0.233227160785072
-0.156248249097568
-0.0771100629578102
-0.0818630331151374
-0.207519681544764
-0.355121993050733
-0.451304948089369
-0.523212532000647
-0.547651715139624
-0.468786023529585
-0.388796727664642
-0.473683528906685
-0.679184442722127
-0.806805193550629
-0.772118404405154
-0.620606160890485
-0.38762681818186
-0.120443519946199
0.0823281872395801
0.191737067543829
0.279473648188246
0.353373894129681
0.334673917259921
0.23764670568668
0.177432186931714
0.198781619974606
0.276141202181692
0.416497493428319
0.594978061133282
0.693939223264902
0.633014259766519
0.456138023828916
0.258906234942636
0.142556067655389
0.179301936620408
0.304824973430578
0.357417886709991
0.299330459855521
0.234202052226688
0.189776432055368
0.104966955772592
0.0063792993665603
-0.0430239568971283
-0.1003531014012
-0.225312524744419
-0.334597413718796
-0.359291489612251
-0.366857001927105
-0.392741797289849
-0.36623424425607
-0.275840950793801
-0.184891704449561
-0.0797388919256352
0.0809092387613913
0.2185617352883
0.235775853486051
0.181619803571286
0.157942032477509
0.175434700397923
0.225116839184923
0.341006496157269
0.485473208518827
0.53299851910762
0.435661189010737
0.252050628441345
0.0268092147330637
-0.190479737541411
-0.289155041321573
-0.228894154230533
-0.116338331333988
-0.0479227479951933
-0.0286277103106598
-0.0725983801747845
-0.19360973570904
-0.314673644860424
-0.355183212132087
-0.335734904242332
-0.290201232962865
-0.221412783850634
-0.200356369433566
-0.303564661626429
-0.43356272439166
-0.42341705491461
-0.289420459705135
-0.173801832406401
-0.128850894647378
-0.131062222182252
-0.158591830133081
-0.129729436099707
0.0419256767809101
0.263679066453736
0.344183297440418
0.260362756481693
0.140969599619751
0.0470145404123564
-0.0263208790453994
-0.0230428127446649
0.097666725083362
0.244465223093849
0.305333658285604
0.278522346584719
0.201836769974449
0.0982844474408435
0.0491791848367113
0.13990577549439
0.300699022125744
0.370426607714159
0.296319551054835
0.135827028413594
-0.0458454587314844
-0.175309729034365
-0.200230799456725
-0.175081742741177
-0.185841412242946
-0.211672154380464
-0.191365928641851
-0.140995642610193
-0.0956770112399304
-0.059043989168242
-0.0638694314303725
-0.1212870414748
-0.127052297889151
-0.0138074417411417
0.0864049711627382
0.042832772505055
-0.0483954808989447
-0.0362934744796174
0.0663085564955434
0.186395093172022
0.302024134357307
0.358580772953915
0.290876441373092
0.15530127989697
0.0484206299917918
-0.0513597650664366
-0.187692204059843
-0.293764997585016
-0.325900879368719
-0.377069011338626
-0.493919471945514
-0.540515596381547
-0.385775955942776
-0.0730844584297343
0.278696969377149
0.574293414474748
0.721818309222377
0.69453218513084
0.592260152937637
0.508200922203933
0.427330630069902
0.334775557690596
0.263577074367179
0.20056699701084
0.122275844366798
0.0905702674357705
0.141417404502099
0.182321916847645
0.148818615540847
0.104294824922356
0.0773402878048214
-0.0009618241126274
-0.138160912330725
-0.267813828475441
-0.390789301279855
-0.533888200512364
-0.649159781696593
-0.726031089449206
-0.855830651751613
-1.05152409246795
-1.18961840638938
-1.20036780087167
-1.10592062141515
-0.868427250435429
-0.430449024939611
0.110353845593174
0.557245378707235
0.808438834750951
0.875906854942442
0.806016139564692
0.683513359566449
0.598712443097647
0.532263603872907
0.391480138879781
0.178896434196345
-0.0232968079182432
-0.193808541365887
-0.323444727686155
-0.323276095110019
-0.160311380063282
0.0445925845978861
0.187945038596359
0.289736987950463
0.362332987116665
0.364836997802617
0.301655042618237
0.197841755140352
0.0389428315624637
-0.130871136112707
-0.191697307942832
-0.135245846621399
-0.0922634699628848
-0.12315123240598
-0.172777469042123
-0.201354994552436
-0.158788274718005
0.0553508617881366
0.400771318190078
0.632396845286371
0.597175642772673
0.402278831936938
0.201649075393035
0.0494600858739533
-0.0097087176428974
0.0461584752522611
0.118176149344106
0.103002831582852
0.0536722404812464
0.0721559560718176
0.149497768097185
0.236290334413806
0.326133390828396
0.369896270937898
0.280121096500149
0.0897312537292995
-0.0735297131950427
-0.17629390420023
-0.257967839829815
-0.295842505392011
-0.285207213805375
-0.323552320296352
-0.447379700439507
-0.547052915601177
-0.544685046716916
-0.469248330826794
-0.3341195389503
-0.150381608483247
-0.0304089678100747
-0.0817656207163736
-0.260565461679905
-0.456679842921394
-0.602533536031883
-0.634049593922005
-0.521783122727589
-0.369095751442425
-0.3049411433574
-0.312693206216382
-0.310331267812028
-0.283171224930049
-0.209429092630124
-0.0192618224329556
0.270615398183468
0.53450380929196
0.677442889993449
0.670711506073005
0.519279699310445
0.326886798155908
0.269856073387768
0.372603428571574
0.450218230460201
0.386914271256566
0.302424329329868
0.333125303699102
0.434459519106955
0.505531065083496
0.526378191426079
0.495876459708346
0.400464491131264
0.269839207901307
0.134860236176651
-0.0222941496396408
-0.187444291889095
-0.291432079062109
-0.310948568704112
-0.264506330567094
-0.1399049928574
0.0302617986105157
0.118616688385649
0.0751737076740253
0.0155590934518749
0.0267101632983745
0.0519879870514345
0.0342652799385526
-0.0093895429011916
-0.0659664202672978
-0.112444977031937
-0.0888781620302316
-0.0214010169784395
-0.0284919771473388
-0.113707072234684
-0.163124062317239
-0.184655101153953
-0.285558535482568
-0.416163056176477
-0.41803673601832
-0.30372689617869
-0.235688957073049
-0.270937094097618
-0.333124597884565
-0.370664791735335
-0.378038877749654
-0.34577009720597
-0.304057544112155
-0.304607110624145
-0.309573666174143
-0.259281083171259
-0.237034202962503
-0.347481412653892
-0.476968538945063
-0.408558181416135
-0.111989189328635
0.260054610934192
0.552241392374137
0.663193295355718
0.5741541300923
0.401712267989579
0.30141547291594
0.3223247467619
0.432467468339077
0.573544516860882
0.626657392379772
0.502471723751378
0.305046714134849
0.212823324332417
0.225625881792804
0.230932933067016
0.212137995436532
0.188029954487195
0.116980425525715
0.0375486879602957
0.0856577646912299
0.242178859482542
0.306352308921393
0.195602254248594
0.0337596403943289
-0.072776918705149
-0.12089921831079
-0.105244158488493
-0.0345570518343961
0.0007867748159717
-0.0529559110165714
-0.112612925499063
-0.105236702965666
-0.082304750905362
-0.0824636819116666
-0.0488988252335848
0.0352852645602113
0.0942501733680939
0.0688098940697227
-0.0543401176430276
-0.262277198555407
-0.458064094012702
-0.511604523423577
-0.438525552547427
-0.372093095017896
-0.357649261395344
-0.354188247540901
-0.372422658038361
-0.421985187213103
-0.426755870544382
-0.34645568262758
-0.244247160798807
-0.150774537734032
-0.0460560646295091
0.0064876018263456
-0.0720274192378347
-0.202309355991323
-0.245578983031905
-0.196082392740545
-0.119756894997412
-0.0368128074598071
0.0329921387568638
0.0709640423341203
0.137407115365125
0.279102637288817
0.400620033926824
0.403036738607704
0.360554232435665
0.388902027584952
0.457725083917913
0.491244425439907
0.513519940806702
0.548844990586261
0.527004519808684
0.397361676462628
0.189680071693591
-0.0652903587376787
-0.301013822615523
-0.35899965784332
-0.177128335112112
0.0652079555885001
0.173133347123614
0.1622341171043
0.131149368688774
0.100390601520171
0.0682704390307151
0.0481883902921566
0.0211747214842877
-0.0158614159115648
-0.0145185172176547
0.0166700730234371
-0.0012969739350456
-0.0681069315119978
-0.111297299170019
-0.136692361855541
-0.176044510677626
-0.158990090986733
-0.0436233912260936
0.0519588201287168
0.0278661922402455
-0.0565321446761283
-0.134000510826512
-0.209326795711286
-0.23906638549879
-0.169942775257988
-0.0978742114613234
-0.158558218701838
-0.300449252431924
-0.371101662896942
-0.349910400017059
-0.313234615891121
-0.279650002766497
-0.253422689820895
-0.281956796417201
-0.32215436250357
-0.204875399062667
0.143161424799919
0.575631251308251
0.87430184620634
0.906708853361128
0.683156362929303
0.372915386317756
0.17600013774138
0.114410693377897
0.0725566391991303
0.0219035862270882
0.0203715902194025
0.0461505197400066
0.027153532427354
-0.0366369335826153
-0.115140590672361
-0.191274718213974
-0.197404474752905
-0.0847655609656471
0.0420016994954382
0.0638868291659547
0.0458812772085332
0.0806074367355975
0.0883646830056262
-0.0061041652250048
-0.0961676015332447
-0.0833069747928568
-0.03202210011791
-0.0096160628415874
0.0133290520855907
0.0429573088656827
0.0420531165989127
0.0278963489465171
0.0153266649870311
-0.0776713242923737
-0.302484144444647
-0.551852953791482
-0.700620986867235
-0.742948102622057
-0.682133522695816
-0.472502823701568
-0.170670069214818
0.0524489274032024
0.1168830000627
0.0920079488506849
0.070516931922996
0.114920579367393
0.235558536501967
0.328572311503996
0.26808743451534
0.0854889975098704
-0.0966410931128569
-0.249244500655146
-0.37548594643418
-0.380115766860349
-0.187899726055554
0.127151157257576
0.45032155998099
0.711122131691929
0.820044794671744
0.723623563993346
0.525125632234103
0.367737034703937
0.269695898308618
0.221000361509119
0.273155155542458
0.388517588911063
0.401907362644486
0.246991634844779
0.0374820826609112
-0.116080264794267
-0.193288902734874
-0.19218102012182
-0.142311733988321
-0.130637987377008
-0.170886327367912
-0.148714121233075
-0.0155770389987632
0.111400110769288
0.139715322525963
0.10585926698985
0.0332674423210744
-0.0940761430004762
-0.204280301953754
-0.212322866372712
-0.18735995611388
-0.246430808321335
-0.366835269756367
-0.451647716226743
-0.460733436121047
-0.397844842606714
-0.301162812358195
-0.246689866315894
-0.237952343712305
-0.177192816107564
-0.0487912841463352
0.0298015366910406
0.0196999728284707
0.0166844814862873
0.0583615582632241
0.102023081355933
0.171091412347592
0.291323514520479
0.364244953098341
0.313020615567997
0.217640230498839
0.152651014913201
0.0851517785744537
0.0297244805571025
0.0668456207914863
0.149023858495274
0.129496828285326
0.0042453002269968
-0.0970389897210501
-0.135863975074005
-0.169616036193846
-0.193831112037936
-0.177570248798806
-0.165745121314302
-0.18476227998745
-0.175933144762241
-0.13537627896371
-0.155450189369391
-0.27118504547115
-0.431657639208949
-0.592861347807404
-0.678875933095092
-0.567938226827948
-0.27580550742537
-0.0043484126079074
0.106876249337351
0.120828897182689
0.152881894564783
0.242956289407758
0.366272745563716
0.444573487118443
0.418780095776497
0.377026508628782
0.458954270159472
0.611375569939433
0.646583184457674
0.528294922054764
0.384787295965936
0.305005145784368
0.311038125730131
0.410171232784118
0.530938854006483
0.564450122654432
0.533642513185947
0.531862885085857
0.508898460275605
0.34841299939976
0.109376232604058
-0.0498866656621361
-0.127765635267974
-0.233982114103427
-0.363119788316482
-0.422589118884392
-0.408892321892423
-0.395135656910614
-0.438394894974886
-0.576935691379473
-0.768141094670816
-0.823619292185926
-0.612208384627713
-0.29639322853995
-0.164520137176719
-0.291377866182991
-0.510860483512098
-0.615189788310569
-0.496389113046334
-0.223567982949603
0.0005014059440524
0.0752669506080348
0.113330144235196
0.205051289841061
0.250151502539785
0.160099428075658
0.0259060746096607
-0.0373186665293729
-0.0254207462901981
0.0282181716037572
0.0868382762038176
0.0972928177399814
0.0893013596374287
0.179815948503878
0.36800777735735
0.496718479659848
0.483152535574722
0.382069160628228
0.212795704841223
-0.0396637996309588
-0.276197922224009
-0.37467551950628
-0.383744896816065
-0.415152916687027
-0.433489315321471
-0.355710952037568
-0.23228104616865
-0.134927155365027
-0.0153721904298818
0.157539523087171
0.280354317272659
0.249880151492704
0.0744928540794866
-0.170622694682128
-0.366373119614999
-0.386039341609794
-0.228266821581388
-0.0259984408046949
0.127525899184432
0.235749194495085
0.301058887318459
0.327463787729428
0.367170395715549
0.434866795091164
0.476309398746297
0.493193742619558
0.535475895594733
0.559660433212431
0.509800657710244
0.478921936951101
0.53807563511439
0.534894255605481
0.330169274975279
0.0541139633837585
-0.117726135010538
-0.217275620620364
-0.299625029141369
-0.252848575558452
0.0105454834536702
0.363493205019305
0.593211057992823
0.579306102525983
0.317636248438941
-0.0757544708332333
-0.393835883133437
-0.51951551709442
-0.546776647354525
-0.630684003407114
-0.816429381023262
-1.06777960874652
-1.29820463266416
-1.34615253335675
-1.10497282903069
-0.674746807829647
-0.250945419232218
0.0471545107762673
0.150601979779524
0.0331824134992234
-0.185008584009541
-0.319049893296077
-0.333325206186308
-0.307408209410295
-0.261756032910893
-0.191141225666581
-0.138508281752565
-0.0826700105803666
0.0821822224572983
0.364910134593794
0.669051739139898
0.96951105190101
1.27518468109307
1.48962265991772
1.53757679714143
1.49921514116837
1.43460169162018
1.27341096125985
1.01300385939213
0.776985355592997
0.58350307075323
0.318657142768989
-0.005975656762165
-0.227193926522975
-0.285192109176736
-0.277802180428171
-0.283012147914422
-0.329820149860907
-0.467402056298132
-0.672507821890069
-0.80575262903395
-0.818584786481449
-0.850971967778008
-1.00746849433125
-1.20102013420496
-1.28676717729333
-1.21752817688145
-1.06411177617938
-0.955758184931836
-0.93394967679087
-0.865786895966566
-0.634283032118527
-0.346296684863608
-0.177398032824768
-0.131898624303194
-0.133935366305692
-0.180898310140751
-0.244749997529136
-0.229961068032515
-0.142383076803378
-0.0721174107476174
0.018896273140373
0.233013056265007
0.504196630176577
0.692907036307949
0.818021189072976
0.966159314141732
1.10700565483622
1.16989537706878
1.14860533274124
1.03508894823596
0.818568848680966
0.58331219384307
0.437065364851091
0.357311262245255
0.267902105580396
0.200367508957815
0.212960336623057
0.24972592916945
0.241423232146872
0.228191622887822
0.259798870097829
0.312160533657363
0.360116850871447
0.382555471889671
0.322489541859297
0.201352327902299
0.175308995660893
0.33078720306312
0.559144250385306
0.722276238133924
0.770333967444361
0.677034709935563
0.461839352102247
0.246894069050432
0.106533147789613
-0.0450562712651136
-0.267462406918136
-0.468026859887312
-0.587911278490691
-0.704101901565554
-0.86491875100639
-1.03895230926182
-1.23378534001114
-1.45826398136488
-1.63836019117303
-1.74815124957801
-1.87615348035914
-2.01579311626604
-1.9902463258089
-1.70318765918229
-1.25196647942798
-0.718694320885535
-0.0809468121774104
0.603470806290079
1.14131400527247
1.40678279454519
1.45815029402655
1.44583887840952
1.49775966019212
1.6172910284875
1.63034300693946
1.37701506821937
0.973849662076993
0.689553107230379
0.591668569589832
0.537750362986989
0.445483935040786
0.359988398293927
0.333917155550587
0.377939605584475
0.434113710479801
0.365022021909843
0.0968306099704229
-0.272159243539946
-0.632356584356615
-1.00981758042071
-1.4419710130994
-1.8895294604997
-2.34629823305286
-2.81129541193232
-3.13840804401333
-3.17799974182707
-3.03294549418034
-2.91543183611233
-2.83890309619119
-2.67211345299687
-2.35763155844709
-1.91213059593617
-1.37994277710602
-0.877961477405174
-0.499704618952267
-0.149466532422484
0.34003447927558
0.956756855819803
1.55500099523767
2.06020299027077
2.4443593506996
2.63930252567772
2.68333151347984
2.80997458875886
3.19852551721152
3.75800208374172
4.2643505640195
4.5813890977639
4.72899502992558
4.86368897322492
5.12997377758961
5.42732646268791
5.46062247730896
5.08845871004577
4.44349737658586
3.70800923477979
2.99269728732064
2.39008698529311
1.90848048344102
1.41395332735977
0.809142476512358
0.143967491880878
-0.549533560425737
-1.32124757750757
-2.1412603174044
-2.91275768914282
-3.64910122797943
-4.4087161602725
-5.12400134858899
-5.69234543288468
-6.1001961274598
-6.31270530113226
-6.23753324334736
-5.90719142150574
-5.49733191244255
-5.11365911056955
-4.74508826780522
-4.39845957043746
-4.07282526037127
-3.66212275938045
-3.09568912728201
-2.49757621504236
-2.01532998923817
-1.5933370439908
-1.07025300795222
-0.378988920003143
0.429196465933006
1.19560439484018
1.67348951846223
1.72053557040693
1.45005784247004
1.06695430775046
0.674142951228383
0.344721832271133
0.205130788363843
0.341058869713097
0.749485771095152
1.37755266052339
2.0771628176591
2.6194881504866
2.89826423913151
2.99063554976514
2.94970754060839
2.75404956576805
2.48499398411906
2.27305858471924
2.07334783846949
1.77268035084089
1.45302611144884
1.28218895052572
1.25286553678622
1.25230663652005
1.24707527724555
1.22916302124703
1.13599431041439
0.943773573314589
0.702470975660833
0.435877750589828
0.14753897417006
-0.0997376709054833
-0.267407382882495
-0.431865052978204
-0.641771671849532
-0.815793905291924
-0.915305530978102
-1.02745261949453
-1.16428296998322
-1.19952854444457
-1.07479883803316
-0.855290070447142
-0.576828402540113
-0.225788238021063
0.183416144946934
0.646453158848145
1.179657005419
1.72212664425933
2.1644126527764
2.47737705201933
2.67049484762169
2.69995128937742
2.56373024522881
2.35111111608198
2.07224411785321
1.62221645062786
1.01399739368191
0.461039381311893
0.182404416855781
0.26031504859086
0.599988799410276
0.882398722813956
0.72980154634041
0.0804062883092022
-0.764233016830322
-1.53138767231287
-2.1939958704773
-2.77738821121778
-3.2352687261309
-3.57216305984087
-3.83463076027188
-3.93413528337415
-3.70132986148218
-3.14796600881108
-2.50422891954323
-2.00312331049163
-1.72401620743545
-1.55966099760838
-1.28321832528737
-0.784298522564165
-0.242440296073273
0.0687971138594199
0.0670692025229161
-0.171043620973523
-0.548609208401366
-0.929549861377618
-1.19700370486397
-1.42013472984686
-1.73437047450396
-2.0284165393531
-1.99488351017255
-1.48603842179024
-0.621573697721101
0.371344001755032
1.25199515109668
1.84171944675393
2.15087118736613
2.29369815015594
2.2485014391277
1.90116065962133
1.29719081534213
0.632538300322063
0.0559109152643028
-0.342950159499874
-0.466685907722262
-0.296173321275508
0.0547641505701606
0.451237490522036
0.797726481187374
0.989049000804799
0.958854089989687
0.771316433616773
0.529554426413319
0.247763792152243
-0.068348901186109
-0.342333157988355
-0.555038989971401
-0.790535662873385
-1.05074145356701
-1.19200057943063
-1.08756323940245
-0.695761891844036
-0.0168579071411327
0.85827722919824
1.7559134739422
2.58663044437955
3.36153309169503
4.0174728431446
4.44506998647358
4.67631166609456
4.80141710245057
4.7549286957631
4.42083957287588
3.85892726047579
3.23375273004157
2.64742430130376
2.1561095671452
1.75844884905205
1.2969064764075
0.569014400392576
-0.448197210146468
-1.6241554870245
-2.82124005920905
-3.89269317739068
-4.71171801281634
-5.31492931874855
-5.83634718126981
-6.25344876655524
-6.4062174662669
-6.2668226484705
-5.95075122069708
-5.47098522635952
-4.72458170851437
-3.71191119303636
-2.56666857784402
-1.42118002837447
-0.399139249900664
0.371852044635363
0.865891871708643
1.15252023503288
1.26483179484189
1.25224821387104
1.31381227162901
1.65619753940943
2.25915105143107
2.92072424712672
3.44036210861933
3.69675123294924
3.70424627308215
3.62247113189351
3.57261170778368
3.50562295089502
3.37004091552033
3.22545163202681
3.03483451025674
2.58113982152612
1.76386702504939
0.767827553499685
-0.164808271169772
-0.926473074544618
-1.49164240133552
-1.87935484699027
-2.15220506203648
-2.31551124561134
-2.29143822110091
-2.06259546007581
-1.71444735335511
-1.30967895915038
-0.868040906700001
-0.45879688157426
-0.161505655576694
0.0202116521701215
0.0687870720738472
-0.113660531558605
-0.522422143368284
-0.94539551610561
-1.20916507030677
-1.37784662352772
-1.57790403046514
-1.78765770630653
-1.8731597295759
-1.68937270383363
-1.17401352084506
-0.48184588742087
0.0854730077391613
0.408437927233287
0.640135852815023
0.882010380207863
0.989232020183064
0.775094019271923
0.218563516988902
-0.545184236843148
-1.28842219369026
-1.80670598542273
-2.08521714712805
-2.24542483166677
-2.3064902649822
-2.17454681768364
-1.80706842878387
-1.16282047930145
-0.126222751547857
1.25754599865733
2.63622314739117
3.66751764383397
4.30234207596787
4.61512332532056
4.61596042680287
4.37956219812887
4.09938825335381
3.83401713987077
3.35449832680338
2.35736487725237
0.762551265056908
-1.15978553199132
-2.84575348680833
-3.73161029147197
-3.66259001243692
-2.95467538450058
-2.03030101906243
-1.17923011767609
-0.652312721978532
-0.663891338758414
-1.19967864738361
-2.00118969614945
-2.75834610964546
-3.23689869301861
-3.3289399077114
-3.06955673060074
-2.51522902559076
-1.63924956582591
-0.486880276323911
0.697950741452327
1.73025612641609
2.75693962942648
4.0631210345068
5.68389666639336
7.28825865244912
8.31402793937592
8.24869846769574
7.01674391961823
5.08635758634088
3.03825136895466
1.13093337074401
-0.608523584524833
-2.10642595207445
-3.23848746727493
-3.93238187022347
-4.16261699398459
-3.98483553023874
-3.59213120738354
-3.16520284407373
-2.68940311786307
-2.11066784779848
-1.61257509244131
-1.50474561026912
-1.85794767300534
-2.40837951555427
-2.75878022211659
-2.60117975118174
-1.90465727117434
-0.953750489675742
-0.0664256819220166
0.683493137504076
1.32573878514691
1.75842857587797
1.88167090173518
1.79202045001969
1.62129618855563
1.32110673553273
0.765544869056101
-0.0318897391203699
-0.857232727645364
-1.37742834303663
-1.35665082791532
-0.90429295428079
-0.424554241595148
-0.285312073496068
-0.659262608817633
-1.57952804142555
-2.85426621640858
-3.99524550910919
-4.53381012402956
-4.36891401895453
-3.63634740400661
-2.42013146623494
-0.794785209446701
1.0342577751787
2.82374294546138
4.40672858450809
5.65211977833767
6.48629538534042
6.99108420194213
7.29691932676583
7.37021495883592
7.06843422509631
6.3502129651897
5.27891314667363
3.93802300823665
2.49049513435502
1.17732452964393
0.139539671602972
-0.655857448290278
-1.33506017144504
-2.10164422046432
-3.18535357528432
-4.6107288140167
-6.0986601727003
-7.30630658436082
-8.06296193410556
-8.36918205583164
-8.34508263496823
-8.18681167271998
-8.04926319242129
-8.00252704767806
-8.0731594041282
-8.08010474809679
-7.44698958347211
-5.5655561924335
-2.4411777038736
1.2906635808964
4.94009389819803
8.06490350387227
10.3413310137644
11.5029260997127
11.4113500778565
10.0868191072577
7.83154357908467
5.35910202673501
3.49297970801473
2.56603444789626
2.24829967606798
1.97079702370734
1.37584189958956
0.486504499255788
-0.291642780190751
-0.420736191541737
0.284485610748966
1.50817360884539
2.85502315972755
4.15657882878852
5.25645589127296
5.84871784053899
5.74187635033276
5.08096184191379
4.19168848999067
3.30671824551272
2.43190303584455
1.40813435265281
0.147260312525174
-1.22902872284036
-2.59094392243803
-4.01331555711222
-5.61297568535569
-7.32764776450297
-9.00552929813061
-10.4916331476673
-11.5153600231186
-11.8184106127336
-11.535849320893
-11.1358635329702
-10.8688234707639
-10.5293501808033
-9.77252137922159
-8.42517604854236
-6.54040063035689
-4.38326307781982
-2.33316110152989
-0.639000220025487
0.743347500515315
2.09476328084317
3.82392563743815
6.33501328853748
9.73309465318015
13.5719667968952
17.0272307772021
19.3513291953825
20.1320606889544
19.2995580144038
17.105973436293
14.037244324003
10.5804349622611
7.01789965410581
3.37889385666304
-0.415938442979341
-4.18901382570401
-7.27174168591287
-8.93449303128675
-9.13751465473305
-8.5862802182413
-8.02256670987951
-7.7427302644712
-7.7277951180996
-7.83862502642488
-7.87939925124478
-7.79441070331079
-7.79991106320033
-8.11328806424062
-8.61583722745046
-8.89184429632704
-8.48149901448592
-7.09433694997786
-4.78363625741794
-1.92809120655065
1.07749361312277
4.02099370237579
6.70191306135286
8.80994681642626
10.1319942592684
10.6885665573738
10.5679696412573
9.84044882796833
8.7133484550244
7.54411656759199
6.60391334286837
5.9484653013229
5.45722357505754
4.81521666236059
3.56144073487656
1.37416299113581
-1.71399712945939
-5.39624676159925
-9.2034594121699
-12.5416624309822
-14.8782497616247
-15.9796464451615
-15.8877425695323
-14.7335852765093
-12.6415103220191
-9.68060279188181
-5.86464753905116
-1.34500341572703
3.42653195920117
7.90705730957525
11.7611096015018
14.7804279307431
16.6622006113892
17.1089419201604
16.0932554541474
13.9200813878323
11.081564859356
8.00309040016796
4.82634000011694
1.54964533000338
-1.58014206168218
-4.07938460734493
-5.69009085001986
-6.5086977188029
-6.61631161057699
-5.98416360929324
-4.85143929958951
-3.82279074510393
-3.43677463009793
-3.86803530850342
-5.04402036919495
-6.7173378781856
-8.37258991287848
-9.34720841245773
-9.1624196223058
-7.733900910442
-5.40993993810842
-2.8097585137354
-0.366776819223757
1.97266177859907
4.34000635951137
6.33744074347166
7.21185872977816
6.65731753567196
5.23967042192303
4.04376781977147
3.94249016842345
5.03060710473611
6.65558098158322
8.03139627037786
8.75729373169628
8.76414591473619
8.10019168608352
6.95286303926659
5.60328143551205
4.21022179734477
2.8664388295922
1.86503800852991
1.57604293457003
1.9806249190653
2.49092983660323
2.22823061941321
0.500452807434491
-2.73894871294392
-6.78121747603369
-10.6193525435048
-13.4865546940116
-14.8932639474137
-14.4977751230707
-12.3733113037849
-9.24209106157612
-6.02818546298093
-3.24002953127456
-1.02696388508591
0.406576339697073
0.789950186076021
0.048544415053006
-1.61446629336112
-3.74411015934929
-5.70778063210383
-7.00121891524635
-7.54324941080343
-7.54695278636325
-7.20673245717543
-6.63589664595762
-5.91896762796292
-5.05637649452833
-3.95657652336925
-2.49830055541568
-0.490944592146804
2.29240761708988
5.84970675609047
9.87486331344827
14.1086979131677
18.5454026855838
23.1351068720732
27.4409244206168
30.5464642424758
31.1020666059611
27.8552000307509
20.8628449188314
12.1551284075045
4.51543111625552
-0.676858918872633
-4.19890238698459
-7.69901343466823
-12.0217142542583
-16.7332358644983
-20.8482443896541
-23.7965682064523
-25.768310879504
-27.2553500361042
-28.4157064257808
-28.9563486991951
-28.4073457856105
-26.2973941089177
-22.291344567729
-16.4810969931418
-9.4868216520247
-2.09864399732506
5.16949695972324
12.1628257135998
18.7669912198689
24.4591851894009
28.2400621891485
29.2801037475258
27.7164534806394
24.6314687960392
21.2359423564962
18.1991307293018
15.5929761790666
13.173688282787
10.7565955942231
8.47851460690242
6.58516025158905
4.91042728465703
2.83449337440821
-0.0920409436811642
-3.63203172364634
-7.01532299060317
-9.52487881788701
-11.01756134774
-11.940491724285
-12.6838134658198
-12.9156825004229
-11.8847572554164
-9.50597863337456
-6.80682405908164
-5.05226194477696
-4.63108396824472
-4.96766696862372
-5.26939832927485
-5.09574904191406
-4.33026440713913
-2.9025789350865
-0.725402567400904
2.05611628067475
4.89175535655938
7.09603298330638
8.2640446999832
8.32036473243715
7.33973962759425
5.54552958261156
3.34060212049073
1.09516071889306
-1.06276096810048
-3.17396560847987
-5.24607722703205
-7.0944182129102
-8.28301197721614
-8.38897129663162
-7.53000441816032
-6.4719019673374
-6.03907208731194
-6.58729444502754
-8.08277046292253
-10.3062023068467
-12.7934990919107
-14.8325410034364
-15.6339411430495
-14.4370772427695
-10.723700914002
-4.74040813441793
2.23129970838601
8.42309113436723
12.5060823767033
14.0869116358079
13.6222683637911
12.0640842236744
10.4618563062349
9.67007250403064
10.1867418719351
11.9279852692406
14.0242176534716
15.1920117831584
14.6950026466749
12.9226833501083
10.9627366716171
9.7500615256934
9.56855375488655
10.0463261160803
10.521614616432
10.5133137512407
9.81924685307344
8.25778399464522
5.68720731866002
2.3390165008013
-1.30501232307174
-5.13420437012068
-9.52451855499645
-14.6133497985169
-19.6993685953236
-23.5485662886886
-25.2407760963651
-24.7207332947839
-22.5816604493244
-19.3183761195063
-14.9218652818883
-9.37160873045046
-3.36661220326461
1.74270628022481
4.79754127161917
5.59523819006843
5.02704953065161
4.54292833678869
5.19442650451358
6.94954132885683
8.95825085377628
10.4369325549758
11.1213270604613
11.0158267497088
10.1736815713119
8.86040687707592
7.61203907666616
6.92263482295307
6.91291572201189
7.26418621127915
7.42640240719906
7.01304883167223
6.03890187347345
4.68480487398417
2.93335134622964
0.609552099769861
-2.35449432102969
-5.89512615291884
-9.94405907351195
-14.4051706734336
-18.9808170451653
-22.9456001461488
-25.116511641011
-24.4809458789505
-21.2086618115401
-16.7810010804505
-12.8165756585191
-9.95855129648677
-7.93638871994355
-6.18729801323911
-4.21431974479538
-1.83891163046507
0.604313942589156
2.60827786491883
4.15643082245702
5.80626017242229
8.06043762400682
10.8291104664178
13.4801635808677
15.2503363402114
15.6761280288075
14.8353788143346
13.2292653599186
11.4127939282566
9.75577836890425
8.42529854380852
7.35566782519025
6.23661496130449
4.70577934192968
2.57202279163975
-0.123286252296388
-3.0501366521319
-5.56132586478327
-6.98166873967109
-7.04386028572812
-5.98536769159948
-4.31688502589186
-2.53491854995937
-0.797487076452655
1.20240094392161
3.71696988993866
6.20204487293257
7.45116929933133
6.63466194213253
4.04208910365438
0.864976096949387
-1.53059046970788
-2.32144772327619
-1.6615763569317
-0.485184885351661
0.282275109438459
0.410382481149701
0.418019992729868
1.09172843574991
2.78481073349189
4.96548028407004
6.57421726280656
6.98234070217914
6.4345340530389
5.4854181027326
4.37796581099365
3.21836763387723
2.39055342556302
2.36510927120378
3.18234306164145
4.35556123125135
5.25628923037211
5.59443078975114
5.68499088475584
6.23608001686099
7.69468193140979
9.72159759969816
11.2512404710744
11.0109876346335
8.23057049014311
3.24863204604733
-2.53287139794691
-7.53055730845275
-10.9641323709577
-13.1693449200569
-15.2387239337786
-18.2576521515273
-22.4338014685754
-26.8874718355287
-30.5796766970265
-33.3907739893291
-36.0034492847918
-38.8432839597587
-41.3738037788445
-42.2731173878046
-40.1844032108175
-34.6137004605989
-26.3414629883247
-16.9007203813143
-7.74534853964446
-0.0483037205974267
5.13626352478414
7.25099282029035
6.96599456991296
6.1754489427221
6.94279215549084
10.2520871773264
15.5173566425537
21.1049638404344
25.412654892671
27.6702042883083
27.9912433793768
27.0565709097692
25.8914096983378
25.5067716428651
26.2799930442799
27.7587604790336
29.2761491047785
30.6108309419316
31.9180883289744
33.2317586125385
34.2531650093371
34.6007182410432
34.1379671131806
32.9271011650502
30.8532840536007
27.5660406344958
23.0194144530498
17.8381687703545
12.8493047100633
8.41445122878832
4.39562452017545
0.440280472367704
-3.94277563631546
-9.19014571695023
-15.196390706263
-21.2329346758016
-26.5866980382112
-31.1251355271637
-35.1046909945736
-38.5437705290409
-40.8864272222816
-41.3247519487978
-39.5314654231613
-36.0535971489977
-31.9087116119696
-27.9671973001652
-24.9306804723041
-23.5138500712262
-23.8956545957243
-24.9470209334427
-24.7390994111123
-22.2513365088467
-18.3666869233991
-15.0432234702253
-13.6331513235085
-13.9493251114266
-14.7275488326755
-14.8235720659164
-13.8112586142546
-11.4849666216174
-7.34887103551392
-1.10161579614105
6.63581075778526
14.5852173686844
21.7100956113008
27.4835597868512
31.3964042503833
32.741753738381
31.2790070462591
28.0961027913298
25.3675633042806
24.6949016760757
25.6268843831368
26.1889151167969
24.865404024307
21.7350411466825
17.9008881998593
14.4250026939583
11.7664187300224
9.67978580145511
7.54755032484667
5.09779092610207
2.76939536041824
1.18704282714143
0.449693493067425
0.171140895796772
0.0474439811057381
0.118372697191221
0.529483022640013
1.16943905548228
1.52430993000341
0.961542387446276
-0.718439015026093
-3.11100295332466
-5.63503061241298
-7.87399231979803
-9.43019578339919
-9.86070963826874
-9.06736141086456
-7.62409360194158
-6.56757851740192
-6.81802191392623
-8.62544239393584
-11.426509817612
-14.2991878743514
-16.5540261116676
-17.798581493737
-17.6731894712636
-15.9305345105478
-12.7078081902272
-8.35872926428284
-3.03263547288599
3.31793575202655
10.5080788834096
17.7983823375149
23.971248720123
27.8501840234226
29.0408562487112
28.2353727805853
26.6556683852243
25.1411682151126
23.6826295442394
21.5975472365481
18.0868969916849
12.8733066798177
6.52864801046333
0.172313591167358
-5.25152598839868
-9.55422425696608
-13.4094563030837
-17.904286852906
-23.5991112655442
-29.7540098911549
-34.6828667511596
-37.0518193178319
-36.7164789592006
-34.4308656571021
-31.2008771142644
-27.9497964268014
-25.3806343619056
-23.9949331822757
-24.2468063137153
-26.2726544978666
-29.0795317880367
-30.3329664920493
-27.5605687769382
-19.7698392553931
-8.01065131338854
5.22177400982993
17.0340177970407
25.3019525525906
29.6392391641427
31.4165181637813
32.5639223547178
34.0587992214283
35.3564041031979
35.147783108774
32.6236675380507
28.0475848333261
22.331832799791
16.4019110783232
11.0214861733644
6.84512222184238
4.27256104534854
3.24715137818152
3.3157719044371
3.88584417271681
4.46655061171698
4.8223478464423
4.93824444009032
4.772375721785
4.1473979149638
3.01754183392096
1.67354206156366
0.472549704882301
-0.538754822363344
-1.62189869141174
-3.07174998888602
-4.93614513603314
-6.84477578871576
-8.13980405718026
-8.28493221775503
-7.09041099252552
-4.63446769386508
-1.35786528863253
1.6946522128694
3.21059410010812
2.54432298559735
0.275072019734788
-2.1563651611327
-3.3487513838485
-2.84574687669983
-1.48247595438258
-0.619358061240283
-0.77024666517496
-1.14065551273646
-0.55724090864131
1.4625370270716
4.55622180584974
7.96228988485361
10.9355519621841
13.0120511126276
14.1047792021486
14.3422816601169
13.7771430420382
12.1750239361717
9.00166472414218
3.80193089588162
-3.05509710055334
-10.0353476294285
-15.2346538688975
-17.6920143911868
-17.8991721754339
-17.2344642815116
-17.0528186871774
-17.9655422491298
-19.6031813999392
-21.1353331944477
-22.0994125472846
-22.5416517752669
-22.4254070555592
-21.3392687148899
-18.9451118446272
-15.4431552092456
-11.4050395902012
-7.21325672978564
-2.77756646022885
2.10317399912508
7.11181016845793
11.363312438524
14.099370781489
15.1968951988695
14.8780946310231
13.2940583218508
10.658005542705
7.49246428575828
4.46224665601728
2.10026122258145
0.788662854168524
0.805488598891392
2.22217484175508
4.68290784520568
7.17556317882205
8.18104284299818
6.61882271449158
2.97033474200277
-0.868790716510907
-3.19426833657396
-3.78766357779532
-3.52731420548482
-3.12811163783317
-2.52798556116499
-1.19788654792605
1.2364191085301
4.51313853055673
7.6690142678797
9.56940988885173
9.7465874798278
8.82617853143133
8.05448815590537
8.28930649195068
9.4671667057215
11.0200275240458
12.4596981978779
13.3160081649097
12.9432402577456
10.9688510312979
7.78461529378896
4.14400049963635
0.415169480122527
-3.41259157177197
-7.19187697075849
-10.4439889135393
-12.6008815046749
-13.2751431165723
-12.507150084946
-10.8182370613359
-8.81517618860097
-6.8059427815735
-5.00803557151754
-3.84775669997709
-3.57990389848318
-3.7136234460042
-3.25208927962799
-1.56121182138587
1.16101668349448
4.13876063719403
6.53753646286739
7.90878677317548
8.39366365161962
8.48912768871528
8.54931993003908
8.49607120665517
7.86388316984039
6.07657356277137
2.96902421577023
-0.808038510280096
-4.13369684246682
-6.22128989914027
-6.85101677743648
-5.9598493460957
-3.50220928640908
0.201306939259549
4.28151228441786
7.565350489812
9.00559460369544
8.19111840697797
5.69023469035069
2.70593823968051
0.156554922667255
-1.93060630470926
-4.22148400008051
-7.41894342295381
-11.6621000335922
-16.356066300403
-20.5804168804935
-23.6434808580563
-25.2076267588828
-25.1873269386597
-23.9036022939348
-22.1653509757503
-20.7542760141061
-19.7935058024711
-18.7940874028135
-17.1542376749599
-14.3758143318649
-10.0079833670196
-3.75972077043365
4.29378443177328
13.647766516307
23.2518423845968
31.3807478273212
36.1550323864124
36.7907395283406
34.3466869854301
30.8856621917826
27.7599509138819
24.8489708959568
21.4447816752374
17.4700577284376
13.4884460091921
9.82886445143726
6.31587338699057
2.87579586426765
-0.140509655710244
-2.39857370368139
-3.97730527412988
-5.23416581234149
-6.53724951991029
-8.07771612729395
-9.6555989930886
-10.7061688214087
-10.7258146822096
-9.57447088120097
-7.39127405286033
-4.61332130602555
-2.16124777795602
-1.13574579032582
-2.03458846435894
-4.38236837310025
-7.1315772803306
-9.31839244393506
-10.5695808544116
-11.3576691882542
-12.7125590350657
-15.3151270990982
-18.7185249369698
-21.5292101399842
-22.3803478880878
-20.8144361919825
-17.4307954120777
-13.2301758002227
-8.73267002457341
-3.83546872448958
1.42289826749866
6.33426506769883
10.0234093685874
12.1806444969833
13.0725140614274
13.1692021537047
13.0130800632197
13.1317912754561
13.7325776017059
14.5447290779814
15.1540927270062
15.5715081660256
16.4409841623784
18.4904724505663
21.5913538130191
24.5255056681805
25.9589830131778
25.5454621954356
23.8637788313824
21.4807015797746
18.3970279238701
14.3487750271304
9.44819588934477
4.48665029530953
0.51143268545166
-2.04361612354723
-3.70536567030009
-5.27724930232854
-6.94334905937758
-8.21793735345651
-8.61911066594762
-8.24742131001529
-7.94000625884178
-9.03055323898763
-12.6113865943279
-18.6028567322971
-25.5436084580934
-31.4443356087098
-34.8985425725166
-35.5756836663568
-33.9510417147236
-30.5730339511593
-25.5042883211759
-18.6630664561087
-10.7841324214867
-3.62702246268365
1.1307926130422
3.08720870284333
3.10851125891492
2.4446403245597
2.07637592445765
2.60764962205078
4.2238959818474
6.53719265254182
8.78061825731323
10.5218018163097
12.0356203748105
13.571874769408
14.4842087050094
13.791543204497
11.5577901660431
8.91401700742947
6.61994236466951
4.37521359542211
1.68572804221231
-1.33298150022546
-4.22358561058712
-6.65784616765129
-8.40656355727082
-9.21940364235909
-8.90049764285514
-7.35479513071255
-4.63650165059871
-1.11926488522646
2.52657136675488
5.67185393929001
7.91886985804955
9.02253131381572
8.9860427996906
8.24168245357768
7.34054737315004
6.36970891164206
4.92587986652972
2.69693693282649
-0.0907855313234311
-2.78496366718081
-4.7473667824371
-5.65627901243161
-5.44188024187572
-4.16416651195264
-2.23064761338417
-0.568367009341296
-0.0636130818545046
-0.707360733203337
-1.60675883241865
-1.84380734954712
-1.03023455436667
0.810201063356351
3.37957725586521
6.08473706861609
8.28724353761027
9.75142511091321
10.7591854167932
11.746763472457
12.7706636230779
13.2541189864253
12.4063859849619
10.0962345766003
7.20854517859665
4.92731844955133
3.73391649377566
3.25539070191089
2.9377971770183
2.60609990311019
2.40341473019773
2.40666234478452
2.40673309193608
2.0971082637807
1.48153966745895
0.935412937465024
0.722700808833341
0.602166630278743
0.075151146533369
-1.0993803683979
-2.74153327624868
-4.48351664107964
-6.12240829847909
-7.80646008116141
-9.7980478854908
-12.0275359828602
-14.1194287716976
-15.9709291418919
-18.0663643779776
-21.0880947578834
-25.342832600416
-30.4673013247029
-35.3367387876788
-38.2356832320507
-37.5301539663981
-32.5648925555191
-24.1105267403804
-14.0077952680006
-4.19413240071129
4.27766914986392
11.5117039863567
18.2332701802629
25.0648205056032
32.0232685063267
38.2327944526233
42.2094940496924
43.0093367560242
41.2084550863148
38.2916878964189
35.0124911646519
30.8661438960149
25.2717242221437
18.6751337928715
12.1849084999775
6.54473344780572
1.80376113126042
-2.25075747162625
-5.67952658656068
-8.4011817875497
-10.3765089777316
-11.5644791405367
-11.7511264798399
-10.8046683473082
-9.3101246447303
-8.62418506981433
-9.97718738914638
-13.6749076191482
-19.2556392545931
-25.9717620180053
-32.8136364343248
-38.4391171172003
-41.5387222005105
-41.3718085802023
-38.0826578894466
-32.6989610219354
-26.6476251712078
-20.9433475093715
-15.8590761773583
-11.4029041005126
-7.77618089386269
-5.16721602025194
-3.34664284641305
-1.64992460904106
0.763845857485548
4.63987471601347
10.3405704761384
17.5944239542492
25.4655423760662
32.5983494027745
37.6724981901178
39.9467251107925
39.5695924508711
37.3763017479305
34.4184426920672
31.649587159964
29.6986384156188
28.6110310113765
27.926997177872
27.1575197050703
25.9806807299461
23.9723867852753
20.6300641848701
15.9309598539409
10.6199082355977
5.77099257102058
2.11747005071764
-0.325906001794618
-2.17565895041284
-4.05875842585857
-5.84164032604911
-6.56133405982114
-5.29011905764705
-2.13233771963226
1.46859095573484
3.33450533041013
1.8674118558019
-2.74675145217286
-8.64157399118297
-13.7408205641263
-17.1036106145853
-19.0094552040721
-20.2393592493765
-21.4340101679341
-22.7697913627392
-24.0058546737054
-24.9625092046818
-25.9433312610845
-27.4392654989152
-29.3928050365096
-31.0102745770505
-31.3961907521652
-30.2476445057831
-27.9190719727232
-24.9708259604001
-21.7980046093155
-18.7150571395782
-16.1616240925564
-14.4292856516777
-13.1481188801475
-11.3916930492878
-8.32692014638238
-3.47756846365912
3.40090888145925
12.0032464956881
20.9819650938871
28.4518914572598
33.3586002948644
36.1682111376243
38.1081069742317
39.8226680254778
40.7219779163914
39.5371447709551
35.5338509495367
29.2023490029478
21.8029789698784
14.4271575967711
7.52631022021558
1.02831147568792
-5.25962858920022
-11.1374327257582
-15.8163719698736
-18.4697556469452
-18.9993239057984
-18.0262421868992
-16.1910629154147
-13.7665463292258
-10.9161585951549
-7.98389877694956
-5.41061037786001
-3.46153151085157
-1.99187574501401
-0.465153335334104
1.54921056683432
3.79112970352588
5.48224419330915
6.18398523268991
6.24982849122393
6.39242776354738
7.02656846422212
7.99606840917245
8.68451860489186
8.38049131001268
6.72473717734652
3.93731265802416
0.73870630310909
-1.91785465032869
-3.31910601746199
-3.48523308621856
-3.09576303132526
-2.80935053406225
-2.86465054457558
-3.37424044238748
-4.56318082836058
-6.48671378150371
-8.80298344728608
-10.9297883727006
-12.1198281969461
-11.3786669657515
-7.82569817720516
-1.53511062999533
6.05300594682539
12.8291877974004
17.3061303336057
19.3039742678822
19.4920974264184
18.4941466834202
16.5377515568447
13.725539858529
10.329633088724
6.83885510249059
3.91634186162453
2.22909607231542
1.99563731671348
2.57678723950129
2.60524482406039
0.560090390273978
-4.58126129476797
-12.6767482291491
-22.0526833628678
-30.1747163787672
-35.1610773364376
-36.6540317172871
-35.2547602536651
-31.5346969056341
-25.8025504048804
-18.4204610156894
-9.8579053312853
-0.429234074530015
9.6653587467169
19.7485613476782
28.1983034060855
32.9898237997545
33.047229984605
29.0954199890752
23.2214432803776
17.7014317926347
13.8691501915885
11.3677582412173
8.41129648075355
3.45878094707726
-3.04491040827702
-8.86018210715437
-11.9039029496571
-11.8542830170038
-10.1993389124156
-9.18473376736807
-10.4002259092689
-13.698359766841
-17.3695047354227
-19.6448341855475
-20.0809660642283
-19.5713957367768
-19.4328739772268
-20.5745822105273
-22.9199089586318
-25.0545600264155
-24.5564223935912
-19.1582663751311
-8.11196077325445
7.06102819664331
22.9528838148967
35.7257660581999
42.7471574923445
43.3749188505473
38.7606085368594
31.096791484698
22.530457326452
14.2497310603941
6.66471682935322
0.496532574364359
-2.84561711670721
-2.30951174253342
1.73056938675273
7.73632510105864
14.1139190621467
19.9435181072468
24.8594254178061
28.4257451982644
29.8127304061607
28.3566018125244
24.3746734267533
18.993231495677
13.0677386588745
6.60845612296061
-0.666828070921282
-8.55423333540654
-16.2802524124005
-23.0419122923743
-28.5826034542802
-33.2550507762301
-37.4223487898704
-40.8761113851654
-43.0842036820762
-43.7516770656604
-42.5733606531366
-38.7717133961521
-31.9786761267162
-23.7470384215353
-17.1609793652202
-14.3218070891342
-14.5606953215807
-15.3784092483871
-14.8636269989816
-13.0554355936459
-11.2134300415947
-10.0591432827627
-8.84281126386324
-6.06356169709006
-0.957577994646133
5.70594229241565
12.1073862039074
16.653522023368
19.0422251167529
20.2094484346124
21.2207912693152
22.3282897953388
23.1579066802196
23.5461441003162
23.9570425607391
25.1286312615206
27.3065077109105
29.7271029453428
31.0199728506259
30.3435555447279
27.9822663486629
24.6841146744341
20.7659911582059
16.2268567725852
11.4345753425923
7.18918142188339
4.18900090092223
2.79213106341966
3.13716046422822
4.9875371696017
7.35535606503343
8.66382045072059
7.71102056694737
4.66784613308283
0.989778435573892
-1.90865782628908
-3.82546341981469
-5.42020089535861
-6.98448555073944
-8.07316336832428
-8.22192870351896
-7.51144556948191
-6.51805634060612
-6.19057866157492
-7.60987580798467
-11.2326362883164
-16.2477005041455
-20.9805815413406
-23.9418113813825
-24.4113420631795
-22.4281914198868
-18.7765975827482
-15.0053740047878
-12.9935278283485
-13.9550720032835
-17.5052652943887
-21.7319175380808
-24.5910557972022
-25.5489212785629
-25.7399860495769
-26.2604465483209
-26.3540083433563
-23.6141161235393
-16.2900531579039
-5.46316776138065
5.26474116277349
12.5167001269741
15.6458662781212
16.5613379262771
17.5312116597376
19.6118227584781
22.7338394112782
26.2419341695837
29.1303071887243
30.5023532275945
30.2490744362557
29.0635292290966
27.6195914559386
25.76974163433
22.5309693965664
16.9732765732771
9.41036127326476
1.77683526896981
-3.3394606848321
-4.21561536890872
-1.02087265421231
3.96489315467355
7.18007616102019
5.73146389216662
-0.888439577086835
-11.0196426438265
-22.3345018905588
-32.5534257705582
-39.413062916654
-41.5445314467998
-39.8718203721342
-37.2450042630168
-35.9986953514625
-35.9714772712984
-35.0016663202311
-31.1096152122301
-24.1442777293215
-15.5804951547767
-6.87826680593807
1.99264540416393
12.3266687132941
24.8135664992217
37.9756983773559
48.780278929659
54.8975485602792
56.1253791283971
53.6287665468236
48.4812810481646
41.5388917163412
34.1526468490874
27.7653209155712
22.5502304723999
17.3151852870691
11.1809241488486
4.77607419289031
-0.620542628224769
-4.6683923065592
-8.27059126963054
-12.505517717194
-17.5199741744018
-22.2926002499332
-25.1832048124868
-24.7595831551399
-20.5042597763845
-13.1985232144326
-4.76205626608627
2.62611969597327
7.74020510013809
10.9488269917625
13.7753125894537
17.687837734267
22.7960117442096
27.3012774175195
28.4576706949951
24.5556223513449
16.0376154791154
4.68961825955495
-7.77294148290793
-19.982750896788
-30.3818536044979
-37.3614733868931
-40.2508821096521
-39.9008597277355
-38.0645448580951
-36.0649905488742
-33.91866039532
-30.8760508103584
-27.0623869204613
-24.3634197570588
-25.1546838034539
-29.9973602277594
-36.7322773235409
-41.779046941285
-42.2390645523251
-37.0444454972696
-26.6224451415025
-11.9672096287066
5.58847438813643
23.8010015061083
39.4732103653158
49.7462070758599
53.6079929808401
52.0712701041483
47.0908975250409
40.4773804520711
33.5593311625944
27.4033109435014
23.0090366975224
21.0328893008765
21.2435455408546
22.495683454328
23.4834132229128
23.4550911686015
22.1300027299152
19.2042985754998
14.3074112858036
7.4716194910887
-0.599659972216055
-8.88719616425406
-16.6443285191117
-23.5679092126113
-29.411088642799
-33.5710327771479
-35.2556477484752
-34.1025948293762
-30.5080502410858
-25.325997331893
-19.3318639314575
-12.8851205707348
-5.97334923604665
1.31657198527379
8.33169181788148
14.1001971863415
18.1224508097063
20.6774651462029
22.3022842742913
23.1510244930591
22.7852178159305
20.4062963175166
15.4821279253491
8.42611881077108
0.584407878544534
-6.581568598285
-12.2240677366598
-16.1125860790111
-18.2729668403105
-18.8147293051105
-18.0394577810007
-16.6092574946771
-15.3918559446416
-14.8534057487639
-14.6247006826638
-13.8171336400716
-11.5236984900308
-6.82249020944348
1.06444741725485
11.774829879661
23.1227519109565
32.1796984158435
37.2740241807327
38.7917377067653
38.3007324944791
37.1823868408551
35.6804867721425
32.7854894708114
27.3078138414065
19.4030633156665
10.7793225349089
3.25530822032052
-2.52856209799095
-7.01947749209034
-11.0481196252444
-15.3825769725648
-20.3531928822233
-25.5479673116738
-30.2159717911895
-34.2852272489042
-38.7545855019727
-44.5867014216281
-50.9212134522272
-54.60183743909
-52.1422857935745
-42.6980455062095
-29.0937095797661
-15.7718801407206
-5.8052576142409
0.206152011289328
2.97646388979174
2.98532480392781
0.200033875219233
-5.01085756962812
-11.0873035891045
-15.6032403352835
-16.4239246629691
-12.6903647009571
-5.00477057918835
5.1257569293159
16.1000038252667
26.6213038053589
35.4328078141281
41.0701145400404
42.4100005587735
39.537852387737
33.7560980101682
26.7203026577769
19.7895907986556
13.9409383558498
9.66214016443594
6.76081993063626
4.61027853212248
2.79624574853144
1.5910523653512
1.83313913487759
4.08479566346982
7.6450938063297
10.8052131580093
12.6586321725181
14.3177045933612
17.5611627947014
22.3788715745698
26.5377931745323
27.6019729746841
24.9416233823565
19.8757449193633
14.3670328127497
9.68284415710368
6.0155540122506
3.04562045661452
0.527965305222585
-1.74630274565214
-4.12836015748596
-6.86947862872102
-9.90031151588093
-13.0920844987008
-16.4714485629948
-19.8969756339083
-22.728895896601
-24.1132385869227
-23.6262839536287
-21.7259017864877
-19.7299631595101
-19.0732330114464
-20.0421075513612
-21.3010071851722
-21.2819735888215
-20.1789935912809
-19.9739578279333
-22.0629655097013
-25.1968657913418
-26.4200182433374
-24.1743406361228
-19.9161726678513
-16.2676786787225
-14.1024002434606
-12.2192730751359
-9.57798721910293
-6.7299345185689
-4.67600304480424
-3.12310929494735
-0.683620445654546
3.25085262451605
7.49655412802889
10.5318243428298
12.8310099776259
16.7806182675981
23.5933635035655
30.9145359077391
34.401003118511
31.5018599675157
23.1974890333156
12.5863274053178
2.67044118865869
-4.68117796494894
-8.65319384994142
-9.15922023732997
-6.78219629810017
-2.79674185665039
1.27973024498857
4.54233692532293
7.06088340913627
9.32601170477854
11.5105756211629
13.2774003549595
14.1011189927373
13.9253446449276
13.8061293630797
15.516868631082
19.774967072004
24.9111416624393
27.9031815851647
26.7690834184389
21.6411712147326
13.8522286560689
4.71205188308963
-4.74140854563713
-13.3656430715672
-19.8023314102699
-23.0059733610899
-23.0065493580992
-21.0066378007232
-18.4799733771796
-16.2093795577934
-14.3180184903928
-12.9546847604071
-12.4836640324981
-12.9052028559798
-13.3621328867535
-12.5299394266758
-9.63398636559817
-4.99168705093104
0.49110180361519
6.01681017562291
10.8112479083124
13.8236408445216
14.2874792890893
12.6313215726058
10.3051038115027
8.50818031206438
7.28091283184371
5.83469162824108
3.55975073797396
0.708353488233716
-1.79921517519229
-3.2921175877571
-4.05958204292267
-4.96790628324097
-6.4711166000764
-8.30946322338704
-9.96566763572235
-10.8982796329108
-10.5839875195817
-9.12738204579423
-7.82491916749825
-8.33734776339684
-10.9751944998594
-14.1496207088854
-15.7328325369798
-14.8196607115778
-12.0328934785258
-8.24811383119986
-3.53117488525031
2.14461712440037
7.44580608253388
10.0073175969081
8.65553130048291
4.74460450478357
1.00970311932615
-0.488381077016948
0.642982713484823
3.41127890514145
6.44580867170959
9.10407888370658
11.7110795102886
14.6474216043851
17.493115252511
19.2648293600486
19.160809726015
16.9134700261889
12.9058709068201
8.29635927604292
4.62915319550591
2.80270206704923
2.39973473323739
2.19759592773787
1.36930238360246
0.242022192131132
-0.0418824685877275
1.32459360275287
3.88806656420534
6.11079982793374
6.47021481278868
4.5628563495539
1.45207020504324
-1.02944358585709
-1.67837899409126
-0.911712569694842
-0.399068530085224
-1.7358499449447
-5.37926431034297
-10.4645322504448
-15.3488640953403
-18.5208547591497
-19.329905364972
-18.1043742143707
-15.9181122981276
-14.3064966446396
-14.5165434338862
-16.3908570172796
-18.3185784119034
-18.7666712278943
-17.5068927840744
-15.0856858089108
-11.8778706911526
-8.29263468468497
-5.22324694996547
-3.41653555845406
-2.63650756673414
-2.02473382997841
-1.09346903444819
0.0239087102616998
1.09096877605973
2.27703524818501
4.33442006743698
8.22025207693058
14.0425512134678
20.3023048459091
24.6652605612328
25.6832397392346
23.6497212303291
20.0870380643703
16.9054138845428
15.835436746292
17.7650209295764
21.9871709134633
26.2500240433931
28.1097386029221
26.5585543994518
22.3033597010252
16.5810360496482
10.1313155925675
3.39137482737261
-2.89890621385404
-7.75308881613936
-10.4536110685502
-10.8810439555345
-9.5320007979123
-7.21727042351512
-4.52950988587142
-1.72025404835934
0.676979646600908
1.36591050595498
-1.09930112544128
-7.06347297108811
-15.1475241399242
-22.8866880659886
-28.15506560028
-30.1689115714288
-29.1926339691866
-25.6205751649217
-20.0007543809608
-13.9460764992063
-9.84852277610182
-8.67793910907159
-8.59585891519096
-6.94252772995338
-3.57204069442054
-1.13781103353556
-1.74957639887633
-4.22085788300435
-5.26652605277145
-2.93909328104096
1.84887916029724
6.93926947009493
11.0254075903826
13.8464312012735
15.2799880419836
15.1186568122459
13.3502574922711
9.96013557124447
4.75713498489935
-1.94814320318232
-8.68937658715878
-13.5203714881278
-15.4981417585891
-15.322483636576
-14.5154133679773
-14.0098640790083
-13.4484725836296
-11.7485402028109
-8.14469970114643
-2.49824349589334
5.05507932587466
14.0749491844984
23.3779337881176
31.1596841447851
35.7153139261425
35.8844169681255
31.2059489303114
22.4349871862702
11.9978544809751
3.22073008802246
-1.524672785496
-2.13629891857172
-0.41472410187332
1.54669750515576
2.85149041603691
3.96720553923732
5.53183199735965
7.25635508274789
8.29112668163284
8.37014090555475
7.94223756984665
7.1604392673435
5.40356836701032
2.12889361962927
-2.21600561059545
-6.61725553044402
-10.7274140222336
-15.1641614269086
-20.3970563011715
-25.8491907687724
-30.6187365377547
-34.6547283498738
-38.3132821245076
-40.8782044870732
-40.6044004948442
-36.452547520887
-28.8201105698258
-18.3115120001389
-4.97457820805232
10.4081326959753
24.9891483473958
34.9740515466182
38.4276309604755
36.8071522074856
33.7061931784736
32.173396032384
33.0510411410262
35.3270186972517
37.4105999290862
37.8591657452441
35.5126700876633
29.9025797024039
21.8511786891073
13.2312135647527
5.72778213089203
-0.255973570113375
-5.59924055585075
-11.5217302135715
-18.5051323894512
-25.8382978035204
-32.0037832506425
-35.5527916091609
-36.0692816837599
-34.7829672353565
-33.938515041534
-34.677870766783
-35.4394865360124
-33.3627842089357
-27.7294340966725
-21.3084853697162
-17.641772608634
-17.350480099898
-17.7307845418745
-15.8713395059223
-11.5481041300568
-6.84866239104733
-3.57447618189137
-1.75237452661135
-0.397965237181451
1.39893231722124
4.42923766307219
9.30387563976709
15.6617840035569
22.0206274743211
27.1249561171067
31.1693519750214
35.1494515796427
39.1017408041299
41.4051539516585
40.0323263868872
34.5562296328191
26.8886924773504
19.8160554289432
14.707367686555
10.8753860301877
7.14391150262671
3.48138681390272
0.798672181067674
-0.473397429664616
-1.21665733637032
-3.03491131279646
-6.77621053997808
-11.5059441690962
-15.1199680880727
-16.2409079866187
-15.4194912775698
-14.2337095435338
-13.2254537419944
-10.9411637189622
-5.2707496640716
4.05974454162185
14.4554069937523
22.2862949316048
25.7792059425174
25.794129640097
23.9659576983152
20.7871842299263
15.605657816827
7.85828106027143
-1.99271622712967
-12.4184877712908
-21.5280303831466
-28.0149720049337
-31.6737036625609
-33.3173161245584
-34.479266583742
-36.8227165741781
-40.800189060257
-44.3428968133759
-43.6257416038654
-36.350030688812
-24.5401542956734
-13.2850807057306
-6.04912056288854
-1.57021619815663
3.93106165437023
11.7363983178381
18.8415082827583
21.381006862326
18.8219087186885
14.1127121782651
10.4090351857588
8.53215677046983
7.38219360798695
5.9271879473269
4.23372778533742
2.60316798054288
0.319526617912763
-3.86275096070242
-9.76377200512146
-15.050257067402
-17.0329168286372
-14.8665940661592
-9.68863271952735
-3.1114965017917
3.90952329908376
11.0228485683539
17.9249859769943
24.2025802839427
29.8268515181228
35.5439760119221
42.1067666587826
48.7591237100595
52.9327178482187
52.0466857730619
45.6612548285529
35.7237027713536
24.89121929266
14.7959483554681
5.68063335909691
-2.67949477888736
-9.86349897172498
-14.709595481821
-16.4591780036644
-15.858298879032
-14.8070792039724
-14.840490257627
-16.0309441395755
-17.2921019470684
-17.5905631812546
-16.8103969367428
-15.5279244570431
-14.273201726434
-13.4146565757774
-13.6333370458731
-15.7767163886548
-19.7697740493245
-23.9159931585701
-25.6980551580792
-23.4601614608265
-17.4891952678174
-9.69305130629802
-2.30287240970862
3.19358856529687
6.13196682641095
6.39160341248808
4.66996413103095
2.70166574631546
2.14975870546763
2.82403119248781
2.53145818118395
-0.767490073441144
-6.73058744863066
-12.7367188145503
-16.0145979515804
-15.4801592093414
-11.8848657418858
-6.94773926319234
-2.51739912801493
0.217710069304517
1.42008001235974
2.16878061672015
2.69690360811153
1.46643496803703
-2.99252531494704
-9.27415991842263
-13.0819280737809
-10.6400765542965
-2.10389724762623
8.3153488895541
15.3918729393141
16.4084193192908
12.5370424559134
7.44756321879486
4.73791773035594
6.22672211775936
11.6157542420142
18.8526048238758
24.9737760139789
27.5338178165551
25.8736216582172
21.2085868577131
15.6554160964394
11.0566529546843
8.06586211510415
5.7904376620709
2.44515371678597
-3.20381596374771
-10.7100892090286
-17.985938872341
-22.4543673500595
-22.6308180211856
-19.0432223460201
-13.6485950028767
-8.31700487252022
-3.94161752598127
-0.637719056370506
1.96755493338
4.72758611239078
8.3811906665322
12.4049610678941
14.9247008676199
14.3084217480601
10.7154160633682
5.85612927793633
1.41014206854838
-2.14264326011969
-5.24755402376402
-8.07174158192879
-9.81466058391237
-9.40246273261812
-6.82996737260936
-3.59211132586843
-1.53553830243354
-1.08101426799537
-0.670474997520996
1.58868381668636
5.61886465827247
9.29830142815853
11.0228369648427
11.6506889589633
13.2380906254317
16.3852783557147
19.6683355573229
21.3973269803787
21.059551757622
18.995600917239
15.3897313246667
10.0334683433376
2.96831445186196
-4.90920020822917
-12.0754220861198
-17.3353086047012
-20.6052602814889
-22.7448570991211
-24.6047770421544
-26.269987739098
-27.3135059673352
-27.7556846695082
-28.413001580022
-29.8366363482705
-30.9708530806037
-29.5615102639938
-24.4377126829243
-17.2613015779493
-11.7009669947995
-10.7529673957623
-14.5907096533647
-20.5676201052033
-25.1935730793382
-26.3359100509412
-23.6975041015242
-17.5619361932872
-7.88310035661342
5.0023347064655
19.3729829792284
32.5748885908941
42.4748582197722
48.2177858851573
49.7871034685576
47.3239946765822
41.1201239689604
32.1748835758126
22.4266830626889
14.0952666302936
8.72389290348061
6.82467655015423
8.00949173260715
11.0781701870033
14.4127342501922
16.9947239234063
18.993305454386
20.9269925420048
22.383957598494
22.0041002203104
18.6922026196913
12.5933383657499
5.01538596487517
-2.32269208837108
-8.16496534791233
-12.3952870442408
-16.0944266052299
-20.6952034609354
-26.6831504681265
-32.8624504609425
-36.9485460813682
-37.1858859563845
-33.5562282898228
-27.3674600960081
-19.8612913577485
-11.5973817250043
-3.04654887808767
4.8386229240095
10.8891403540563
14.3850240206925
15.5602667697535
15.6898216696565
16.4355390446724
18.6073069430741
21.4027711945987
22.9325348465352
21.5313500007827
16.7808226403104
9.71147444699002
2.24730372201666
-3.78032096556895
-7.52701989128248
-9.42659603753492
-10.7736408507645
-13.0097433746485
-17.2514257978992
-24.0803170924403
-33.1030957944201
-42.3699270239329
-48.7875724209266
-50.0096701224458
-46.146065820664
-39.322405780219
-31.6935692144655
-24.3141316796901
-17.6363575866516
-12.0871281560751
-7.63730244904235
-3.2133443586052
2.90794331760875
11.8396894436786
22.9842814335103
34.0519729435306
42.2975242151686
46.0033889259618
45.2293928642504
41.7668315947499
38.3712097266762
37.0515024167793
37.3101491503285
36.3738669293461
31.7514821357571
23.5846226908788
14.4264427683612
7.01844427977713
2.40910986730062
-0.129906903743111
-1.84020317846956
-3.45018666098377
-5.32767921618283
-7.92921016994872
-11.290834910306
-14.2478326033675
-15.047578334468
-13.0130832569752
-9.16286068448399
-5.1001602344898
-1.71009587558057
0.951254665974687
2.94683331370822
4.12073591441066
4.54612415255938
4.97359663623081
6.32969633939129
8.53196363995323
10.0198642012125
8.75179515224728
3.71677945821581
-4.38121425778214
-13.4501786884822
-20.8732140453701
-24.7098029673155
-24.7499888815756
-22.380227772114
-19.153192878448
-15.60331967885
-11.6263186251726
-7.6949635385342
-5.10301598290315
-4.74839122377929
-5.95498617933907
-6.89406693218566
-6.14674472635198
-3.58917267511348
0.0322949735606602
3.74908412256284
6.56856938703286
7.81370926955425
7.68688162860467
7.0639345326815
6.43114840989721
5.35955270026391
3.2310933439756
0.240759826071358
-2.42998002529655
-3.3582312880261
-1.96052162977482
0.970990704870593
3.90552793737368
5.79449596874953
6.44973805388177
5.70177561773125
2.66058714250505
-3.58234065494062
-12.2444970479859
-20.1059086766098
-23.149187421443
-19.5296857024466
-11.0334649754902
-1.63371423264131
5.12774534962908
7.63480352275417
6.42120348586662
3.83541137425246
2.78077395956407
4.62426999052293
8.17526748893612
10.9435625069721
11.2204943262828
9.0571370380261
5.91550868457291
3.54505562128717
2.65257847425192
2.52537876069104
2.2424461585208
1.93484466376705
2.28971501734718
3.24415168265473
4.09662151968799
4.77722288770443
5.96906407631503
7.56149497076264
7.66036983002007
3.98224521268166
-3.53094015720405
-11.8529327047008
-17.0886103222968
-17.6486526655366
-15.1228101554937
-12.2433057706867
-10.3994284414093
-8.97652176079403
-6.39347054077392
-1.48231667095148
5.65829924555162
13.686489998182
20.9370725271854
26.4562598148918
30.126050271087
32.0490168907306
32.2383656452356
30.7904733575653
27.8679658636436
23.4982896276004
17.8215595377152
11.669256815989
6.56998689155376
3.7880178422099
3.16366390882615
3.0629996228562
1.88495387576545
-0.273242765496673
-1.85268482741041
-1.93768824869953
-1.64769709890784
-2.96150031240521
-6.44609632543977
-10.7267663168565
-14.1495686011044
-16.3468576545719
-17.8516124900504
-18.6326794090733
-17.8147354636571
-15.2405541567755
-12.9982389756353
-14.6536503134342
-22.2776391744453
-34.0247109338937
-44.9902109032885
-50.8783740151398
-50.9685382567029
-47.689509188852
-43.8494837644235
-40.5813458163823
-37.4305613501656
-33.550351115225
-28.5311992912425
-22.512716152925
-15.9866861197895
-9.51395656727552
-3.25898867333661
3.51572145077702
12.3184363362908
24.0828122409395
37.3427785016792
48.026349128376
52.0443425307479
48.7131405464569
41.5034871814156
35.2009816935023
32.3207970083476
31.9938695174093
31.651541719958
29.441315752583
25.4021000555452
20.9312536745709
17.4111333549321
15.2407425543112
13.825733975909
12.1660562434763
9.53929734781088
6.01791091252441
2.42279810719688
-0.510432130404953
-2.97275376532608
-5.7970912259133
-9.2205364252442
-12.1318399852782
-12.7059802561022
-9.83330387564373
-4.04425804241727
2.87116797334437
9.19802334753321
14.31012218962
18.448496694427
21.8402382876798
24.3800268819195
25.9296896554776
26.3317446644028
25.1034589050962
21.6786146378819
16.215460088752
9.95334103251561
4.59321933662398
1.19386504077435
-0.57210505235969
-2.07395803127613
-4.32209570494873
-6.91856497879879
-8.8533396394745
-10.4228180577246
-13.7447932849995
-20.8245624548051
-31.2402681587423
-42.2070261437981
-51.0658344438192
-57.3640395408785
-62.214124363298
-66.0594360513786
-67.8944374346469
-66.7192446903941
-62.8867278240852
-57.4924306663701
-50.8010459898499
-41.6662457696042
-28.5622046697879
-11.4896769767608
6.79570397769319
21.9298978186333
31.2575844959613
36.1770744708454
40.6246115177444
47.1068574870317
54.5859449790303
60.0250234784355
61.188286901752
57.8045578533352
50.9039039588341
41.9016446971307
32.3545080922753
23.8572390621519
17.2384221257042
11.5585415422706
4.56178058007083
-5.06867739711976
-15.8505079867207
-24.3523435612101
-28.1101521532609
-27.5427623997022
-24.9127071858864
-21.7414219548357
-17.7573503929207
-12.3661551751041
-6.34515028418874
-1.33605275435223
2.08019533289583
4.96029775151385
8.40743189276897
11.9031821528714
13.6418813062489
12.4694626873078
9.28369352273515
6.42213618830158
5.70081718356111
7.12800856177284
9.43265399057287
11.4985412772263
13.0829889565548
14.4040448441405
15.4784713036984
16.0535815388018
16.0056179745067
15.4102332710816
13.9739732336543
10.7064354626626
4.85430631829471
-2.61702047659018
-9.12019595286442
-12.655980687869
-13.6816481925474
-14.2809582373011
-15.7552708624769
-17.6413570520333
-18.9283005411366
-19.4511291074949
-19.7286637563617
-19.8068492828667
-18.8887711134053
-16.4474155251997
-13.4128445908711
-11.5832296004031
-11.6834686460561
-12.5419875905152
-12.4321667702853
-10.6720058087742
-7.53590873603344
-3.18840449430446
2.4956734988312
9.02609001796211
14.7912390356274
18.0099146079836
18.4379751698748
17.9733679715076
19.1212122969598
22.5591991104252
26.2700210766378
27.2150097125468
23.9299009292437
17.5954611536477
10.7460993699517
5.01935106413464
0.0758071629557749
-5.49071845606569
-12.3500768816882
-19.5212580086344
-25.1126308991493
-27.8572972507432
-27.8816524095931
-26.0653629031181
-22.9870279242264
-18.8721100988383
-14.3995335200919
-10.7022041951574
-7.99934245241498
-4.79571487352736
0.631761282899003
7.95394599450216
14.6078981060616
17.9261203150726
17.0472334673938
12.9186324950429
7.17816697619606
1.37290506709413
-3.19028856106712
-5.62989089039345
-6.08665029120721
-6.0106634926882
-7.01268261030151
-8.70814615407772
-8.06212610447015
-1.9605140237846
9.05378606685841
20.0623168477624
25.4321684700026
23.4743850296838
17.5316009028673
12.582406005375
10.9196807438015
11.0035410073854
9.90292565658548
6.24748825493796
1.00983762326172
-3.70513891935069
-6.18679911990576
-6.00688510489052
-4.20545266302909
-2.7263475302857
-3.13368671773857
-5.33730383578148
-7.54475365293038
-7.92729153508092
-6.65103172743797
-5.94167226547427
-7.77787431210707
-11.8730751066007
-16.3143883854488
-19.5840508066071
-21.1468675282653
-20.4564449517768
-16.5369948447416
-8.95940029644682
1.21386908401526
11.8604694714676
21.2712492004536
29.1754063461542
36.152332438425
41.9914571844914
45.0944236863258
43.9836268815268
39.1097168072103
32.4990939586145
25.6092671072402
18.0370033007407
8.37802905266888
-4.08999689281178
-18.6487740924252
-33.5204791140722
-46.5833416590014
-55.9963824900875
-60.8524179218008
-61.6038320015749
-59.5388221165989
-55.4380587280365
-48.9064691394247
-39.345416266454
-27.2603589735362
-14.0216239449373
-0.597690283734292
12.5814915834424
24.4439535757238
32.9447387452632
36.5513937647814
35.7799048394679
32.9408375442768
30.4738881715022
29.4970693403024
29.5052999892996
29.0115958298397
26.5270194987912
21.4891729072095
14.8022131934701
8.4531740343014
4.15369653671578
2.15327096655943
1.47025485567764
1.13043607903858
0.889198229913965
0.906333979026689
1.11725652913255
0.935797858808595
-0.533236525688102
-3.71117385129711
-7.75409954183326
-10.8286641293568
-11.4805302217532
-9.70396493157948
-6.69195057431236
-3.72809453135153
-1.32620417580441
0.718957146823162
2.58117346186627
3.90150718026188
4.19683088802787
3.56575494554137
2.62594674197613
1.79285807803949
0.893662677273122
-0.652464076647347
-3.59921967646754
-8.52235489264887
-15.0575806693493
-21.4591464694233
-25.4282926033356
-25.682510595155
-22.8098823033249
-18.7523081300617
-15.3698459029855
-13.1143144022813
-10.9542463826582
-7.70257299203534
-3.26616142039404
1.55969258692686
6.06131412312619
9.78713408032504
12.0370604234946
12.0414924976278
10.0289089283115
7.72343170640047
7.21362566353502
9.07852831336866
11.758667362779
12.9976958360682
11.8808427428523
9.36573817900441
7.10130351518357
6.0944016141696
6.30837377597936
7.04891765897896
7.70580599418702
8.34694055358693
9.45243029021405
10.8648801613761
11.2763951405089
9.11714648337295
3.88947623631576
-3.47541698420279
-11.2991523746252
-18.0019494380271
-22.5856505714961
-24.6826060610163
-24.316910916508
-21.7656773287775
-17.609154844015
-12.5262893261274
-6.91870981448204
-1.13821025209042
3.93643658820627
7.35626167026102
9.47796433201464
12.0962698989153
16.4856524820649
21.6263227360656
24.961383769555
24.8613104289214
22.0279830504858
18.602946037722
16.3122991752725
15.4655925531065
15.1033190839554
13.5999980225303
9.5795123099171
3.13835121745993
-3.73644662266076
-8.54621918559361
-10.2297458867964
-9.55932919441967
-7.99488581304416
-6.77552042514463
-6.94728893459811
-9.41758313835779
-14.4374870639832
-21.0986177875664
-27.6160197011506
-32.3074508069797
-34.3661454801044
-33.7076691464092
-30.3368024085419
-24.3666310439959
-16.7013689220867
-8.93765019617082
-2.00307901306529
4.60335957420558
11.5119930337994
17.7995041243848
21.4700458556378
21.6588438266486
19.7423460031177
17.9607544973048
17.1238092670672
15.967031359202
12.8878437508632
8.03522672818927
3.27585259197062
0.295764375156372
-0.663300249012005
-0.360141911232586
0.253124981215122
0.261524912973767
-0.902362881153422
-2.84871300935416
-4.28257344541946
-4.0523026713351
-2.18128758630003
0.152498621368547
1.71130309487757
2.37607620917949
3.12722378664298
4.72692743543415
6.6908453318379
7.84020464354099
7.61773072076137
6.58560932941184
5.90798984795338
6.54350630518456
8.44040854330117
10.1019406669607
9.38131668647585
5.2572226443241
-1.23188007105158
-7.81736999966449
-12.4132032023013
-13.9635104423534
-12.8291106795943
-10.6465150303597
-9.18160067346105
-8.90902602544058
-8.93979782163358
-8.4660664402406
-7.98256428387888
-8.80513975121943
-11.4170035671376
-14.5886118871565
-16.4508802142728
-16.3822531747364
-15.3913953743125
-14.4599336298337
-12.9916369427557
-9.47097454897299
-3.62397862462372
2.63765571468253
6.98511888282481
9.41753011779656
12.5629819177292
18.5806229599766
26.1143569218295
31.1841283837794
31.0399463326276
26.398721989565
20.0361864314336
14.204129651229
9.68948028427169
6.47197043643962
4.4457217194151
3.48075774806468
3.13618318837807
2.61735657275373
1.30644220264633
-0.511585295607081
-1.62174574492189
-0.878243367341489
1.57394967998499
4.03941963516377
4.45771860121092
2.19644379529218
-1.34332092680016
-4.1691864817703
-5.61244529189669
-6.50816614370974
-7.84820161684414
-9.94003026622408
-12.7138795293577
-15.9961916670708
-19.2082378301353
-21.2891609477447
-21.2943909027453
-19.1037245291933
-15.5775484808494
-11.9497752174091
-8.80327732811468
-5.62465924390062
-1.63998436265502
2.94959480660518
6.94716746587036
9.45372407739053
10.8313615826341
12.1045445921456
13.5235736292161
14.072165541743
12.5778990171521
9.08826778818837
4.85964023146112
1.13074952826961
-1.7064916297981
-3.7407134115053
-4.81215620272713
-4.45618708145884
-2.50222795936765
0.408532446328565
3.00511946751919
4.27610959861979
4.25732699349351
3.79606632453263
3.60133347429414
3.80320420270205
4.2378310270646
4.60165621022577
4.42517968070363
3.53126674835361
2.53478447790436
2.35940635274112
3.22974505442859
4.48487020589673
5.25723955329862
4.95686490550641
3.15163108762693
-0.679268069123849
-6.98183512873386
-15.3942682915733
-24.0794419722011
-30.3170066784739
-32.3494044946403
-30.5874485908112
-26.7866897408846
-22.2602115533037
-17.0460542457456
-10.5423037767402
-2.7440205509218
5.20492118251659
11.9428919401639
17.4122723805599
22.8558852809139
28.9042762101263
34.2148713355256
36.600949708839
35.1922135329335
31.0255788316854
25.8833439981069
21.0681745960904
17.0135043716838
13.5002733988246
10.1716620879912
6.91950348739927
3.64576153386922
-0.243057699431599
-5.62527575153185
-12.6539920644863
-20.0616697793752
-25.6814535314122
-27.7941102528371
-26.0589865903085
-21.3245606974345
-14.9210608158301
-8.32775216591435
-2.97489180488712
0.490497592855928
2.808783805319
5.29011817918869
8.11389653858342
9.84713530462108
8.85286782399105
4.92414196848658
-0.534667145042385
-5.71923354724303
-9.76434718890012
-12.9775133131702
-15.813851847597
-17.8279975713964
-17.8735054482245
-15.2908728212556
-10.8547170919978
-6.75806387490973
-5.55226402213399
-8.38163914127599
-13.7567045960977
-18.3249722567438
-19.2264679269038
-15.7686721454609
-9.16773457574542
-1.37682888986022
5.81783850928108
11.4585280571627
15.7897568189598
19.7487525839596
23.8103481915149
27.3717985943475
29.2508907640771
28.7135943746481
26.0873834932797
22.4221349630986
18.5910507242846
14.9068765525772
11.5661791847916
8.95880074885146
7.27762843929156
6.17683425039148
5.02165390622785
3.24496955244603
0.550106305138261
-2.78989713150381
-5.86923910567342
-7.74276701055751
-7.99342148718929
-6.58846041297936
-3.63815741206496
0.395954067480966
4.69286729201496
8.57697968956647
11.6986559704113
13.621906704514
13.7608360771279
11.9977657410896
8.98117522758595
5.47043418214465
1.50765530893451
-3.53092456601022
-9.93870904145463
-16.6660897161616
-21.5312452041655
-22.9785411762404
-21.8061988894306
-20.8094222603625
-22.5648646117493
-27.5909013364202
-34.1578018142224
-39.3019722403474
-40.485824854867
-37.276982076467
-31.5974739497734
-25.8846108676002
-20.9862594819972
-16.1142405171216
-10.5744599132791
-4.88660672459801
-0.0255551535653877
3.95013195892613
8.01887491305116
13.0748348188878
19.165882147316
25.7665443106337
32.0529050220661
36.6537185589108
37.946394474525
35.3165840800633
29.8765099065659
23.5838098436019
17.8561508297238
13.0909866439562
9.07202702839879
5.61425465733547
3.01579185008566
1.89345633629558
2.42908878876807
4.00026430426438
5.84213701297351
7.79773117081392
9.9767977975005
11.8552453888363
12.2491896416198
10.3478459044174
6.64219888291381
2.78730408595037
0.497787220745835
0.429449011263156
1.99535399969879
4.03310945549743
5.44003334199347
5.47344779321542
4.07122979300635
1.98259583133785
0.196025525293509
-0.842314307091917
-1.31060791225955
-1.57734514766702
-1.976684826813
-2.75570643274634
-3.9321798678272
-5.37521070176548
-7.16521602881691
-9.60242243715431
-12.7271469901282
-16.0938028646897
-19.1923809762404
-22.0165296892611
-25.106830547007
-28.8559814371777
-32.6438984906876
-34.9268291582078
-34.5169930108607
-31.6076455960989
-27.2910015174719
-22.3674348410153
-16.9203947894362
-10.6833985410592
-3.443821927718
4.57446575525467
12.3625961544334
18.4952846507927
22.1865688112335
23.7064351583044
23.6316005116172
22.2009080986049
19.6678900495766
16.7859735081663
14.4547545752821
12.8970564235197
11.3644132086339
8.84520757604252
5.22843179265558
1.64504426172307
-0.547186081454888
-0.916126911117212
0.111853780449911
2.03104125713554
4.44952871585949
6.77460695651226
8.31420276750368
8.78347415821876
8.48658895465522
7.95796581019837
7.45532710780546
6.81155519752996
5.85755113764699
4.85306817049679
4.1226568626737
3.32591762683713
1.6502249803069
-1.12986483126763
-4.21742850758117
-6.53722124772478
-7.61237411264733
-7.72712815893847
-7.56569248740194
-7.66380274837964
-7.85719153104535
-7.21778024323591
-4.82464855004814
-0.761217617788579
3.70097850272979
7.00014982443323
8.51916524359706
9.02577952366478
9.75060535354463
11.0114084054294
12.0673543505626
12.314426798991
12.0155562338652
11.6371336264253
11.0262767668705
9.50809250309039
6.35649952066168
1.04935133305026
-6.37028556215662
-14.8327097982646
-22.4281144026625
-27.4505777188342
-29.4427215251654
-29.2264170156893
-27.7648195369319
-24.9925435709788
-20.169076272857
-13.5708521144875
-7.21116837178386
-3.26193805529174
-2.02372450401378
-1.91162913360078
-1.22993112522367
0.395108034692368
2.13017195595187
3.03965420400739
2.97442675963871
2.64737649906102
3.22375489724763
5.77216656527483
10.3467082579758
15.0760760654037
16.8389334502914
13.8763928047105
7.67496093799554
1.63288754606584
-1.91729509129423
-2.88142505589464
-2.33537700889359
-1.41116707152942
-0.991989167695357
-1.37344981275044
-1.88032885041504
-1.27892017112177
1.11880793756516
4.67669577436464
7.7085518245315
8.71051983510222
7.5177409328118
5.13635245783704
2.52355027415467
0.0441889959965731
-1.88941699537681
-2.53895961688771
-1.70672846594298
-0.312879598103036
0.48521542191282
0.602215036635053
1.11554708721894
2.99397569224984
5.84964245143328
8.17054536591204
8.88089211888548
8.343474544542
7.60889158479739
7.1880070902942
7.01991071312401
7.07839004066465
7.20427600403506
6.60448868877959
4.38458736989817
0.69599214258939
-3.19221666335742
-6.08231291001932
-7.76814115480306
-8.81988359861931
-9.90358192426688
-11.4377916683713
-13.5547372222568
-15.9658411896118
-17.7548405285647
-17.6998612334487
-15.3719612281831
-11.9206373127794
-9.21100837977137
-7.96542730541639
-7.14004408345883
-5.30700501066665
-2.27225580887445
0.928145744171963
3.35560247038869
5.11653127610787
6.97271376056787
9.31246440227069
11.7852792315883
13.8141702462542
14.9968393925881
14.95772712349
13.4491785207389
10.9531958104313
8.64773451819654
7.28999237864407
6.40550404565655
4.87865043719804
2.15070583017688
-1.23516226996731
-3.9876112084682
-4.93615325428738
-3.87745109640941
-1.68789540170998
0.483707877802977
2.04370057371354
2.9439907894604
3.23269514936334
2.94077363032925
2.17403595673291
1.01742771832365
-0.484479725969907
-2.09373089706183
-3.36728508843992
-4.03654391768365
-4.19463760185799
-3.94250761971082
-2.97680056027184
-0.830286923876196
2.21987851611869
4.62825813449867
4.52247691259253
1.40521458504183
-3.46243775717688
-8.49876396448288
-13.123086716851
-17.5536971610846
-21.9918037927016
-26.3016430202895
-29.8781681179069
-31.4539154014284
-29.5069059751952
-23.3265509821686
-13.7260601082151
-2.81276387944523
6.90030836654737
13.6698075981401
17.4202259370128
19.4735054976595
21.1206577119684
22.4797654297928
22.798474501033
21.5740643067099
19.0716320414085
15.8823215910149
12.3964532056509
8.9382166719328
6.2016295952118
5.06932051780398
5.78148784544403
7.63033436177356
9.80362038165188
12.1599486781183
14.6841330700514
16.540506776206
16.3978223567813
13.7247896921948
9.35710188310528
4.74101327583613
0.769239362068229
-2.70445809232831
-6.30252201823948
-10.1569195611221
-13.7090243910266
-16.4560688739033
-18.4710116538618
-20.0607697743207
-21.3740404118907
-22.4717929153074
-23.2614302330475
-23.2352726481192
-21.8269341215297
-19.1810635572981
-16.0919720068625
-13.0227960629945
-9.51068903927199
-4.69157640421191
1.64237904816965
8.49393255774294
14.2544833054801
17.9879824705237
19.9872191887604
20.9521987852005
21.0158924745207
19.9248601960249
17.7427782715377
14.7628608382874
10.9269808672259
5.9329973087867
-0.055549292555523
-6.13872027599595
-11.1438730398617
-14.2901870541423
-15.5236198028135
-15.283522125723
-14.0222933575091
-12.1647854073898
-10.3854770332377
-9.30881914633348
-8.74303266018301
-7.64442251671394
-4.98473493423775
-0.400589817497845
5.79697750220423
12.66827814362
18.7104353009269
22.4485756542158
23.2742780458928
21.682623301793
18.7216663439065
15.2008873715636
11.2939929514619
6.88000037497132
2.21239426667096
-2.04855411950963
-5.49484551259942
-8.16454758442017
-9.93080448280118
-10.3445552640422
-9.52444812777832
-8.72284774761328
-9.35975178880716
-11.4512849199098
-13.2564531502353
-12.6097668988088
-8.74035863252298
-2.99160076968231
2.2206253221544
5.31153865140858
6.51682714402659
7.14950797426268
8.10699447486712
9.11688961008825
9.224988085145
7.93039335291376
5.84589673058132
4.12295716942324
3.24631044376018
2.6732388048696
1.69386743946476
0.305305166333441
-0.920881334495671
-1.64876729137855
-2.28770371416676
-3.59700128572166
-5.72010546866035
-7.82429773504423
-8.94260623729229
-8.8859065899718
-7.99099462062394
-6.46428852593988
-4.6104142054814
-3.28746240468516
-3.33219829358904
-4.64278589042196
-6.33430727506271
-7.66281033190486
-8.45761046992677
-8.79097038115943
-8.50140049237173
-7.15297352025586
-4.62072529379333
-1.72590196639638
0.108024649209198
0.123558508770517
-1.05504171802201
-2.0944296016548
-2.01942120878468
-0.598354425025856
1.70123901416265
3.86355873218474
4.99922365975358
5.26436459676293
5.80107542083147
7.56848166518739
10.4100442015269
13.1751886307287
14.5106391319051
13.7677502649282
11.5037343126958
9.05010650285327
7.51361116422022
7.26629665598096
8.06886360150009
9.17657958252771
9.58303208383023
8.87586895548876
7.85780209821182
7.79085929300391
8.9721050380682
10.3653358328232
10.6097883054774
9.16732121046432
6.49559472256371
3.31291170353217
-0.0285643979999998
-3.33123036406579
-6.12058105872786
-7.96677769820494
-9.06666085536308
-9.89912699555104
-10.3964735405358
-10.1695303548895
-9.61219256461614
-9.98381350499839
-11.9613377844685
-14.5647632368278
-15.9882635310505
-15.379431588558
-13.5309301393536
-11.8263331467008
-10.7316583886375
-9.57509740099923
-7.73024761773934
-5.47980319689126
-3.43884166483482
-1.6329054061375
0.36821725537484
2.68009338031532
4.85391779833271
6.25630973416969
6.51244929149774
5.66994596449378
3.96645770920329
1.46190503097003
-1.86663324085549
-5.66868791883133
-9.281166949859
-12.3139826920179
-14.6994948848753
-16.0921830349706
-15.7607771040655
-13.2517140262518
-8.81362353727251
-3.13536811632122
3.03373998944246
9.02855742636243
14.2883626494426
18.2997397021995
20.5708910766075
20.8194814733817
19.1911959200542
16.2341415816284
12.7868092844231
9.87999895963495
8.29793788158909
7.90796897154573
7.7115148933678
6.86891353557667
5.46225451086449
4.12529921127558
3.34301284880221
3.31155803400431
4.01389390352443
5.08968595114966
5.85370057744071
5.66444782450858
4.31039644057046
2.19799396320242
0.222493292067852
-0.863897389609504
-1.17678052067039
-1.59715150471075
-2.76967550654736
-4.29892057630516
-5.0441785861328
-4.25532686986069
-2.46245286601717
-1.12292178020645
-1.23850051370179
-2.49234914326997
-3.86531435831716
-4.65524076186527
-4.5891223013469
-3.54992572647022
-1.84055654448095
-0.346944297077908
0.204308204550867
0.0290824209885055
-0.0554460545130771
0.377468545005142
0.995961698693616
1.24296203824406
1.04516284006244
0.991690868050218
1.78650895874415
3.4261265141735
5.01428861577766
5.51655005121942
4.48671784352665
1.85371809057979
-2.67437789227486
-9.53085791343461
-18.5612927617915
-28.4680760125497
-37.0277377055447
-42.1384018521354
-43.0309742068537
-40.5355726658269
-36.1486878237608
-30.9209430843956
-25.0214676132413
-17.8690377966146
-8.67188834954778
2.61791120534043
14.6802341593372
25.4659670988899
33.5509091019738
38.6559630874184
40.9951339718921
40.6352394940602
37.7236392310145
33.0857777057593
28.1754300332796
24.1575274376774
21.0919890034758
18.2219114319846
14.9535214498882
11.2760372183003
7.40689165988656
3.50656333420784
-0.24065190405373
-3.634911829806
-6.64113025293051
-9.38946295045164
-11.9564395846492
-14.1281975061219
-15.2795885659387
-14.6735330250643
-12.2658909342383
-9.07875853589117
-6.28151750583063
-4.05091398056631
-1.89287591995365
0.171563823314667
1.50223985184648
1.81704674912501
1.60855341168928
1.60841331098999
2.27053062009963
3.66449942531349
5.50199310368047
7.26937526033604
8.43235403587624
8.50302879958842
7.15894053080264
4.62026972261432
1.75487010127898
-0.496077624681159
-1.71276536995218
-1.95056578998614
-1.42007696430361
-0.399904434634689
0.736961259469909
1.56234626685964
1.69789272161461
1.03298236910689
-0.192357896612075
-1.81074258686682
-4.14701031320197
-7.51581974230573
-11.2670634223211
-13.9407403177098
-14.7345282284125
-14.5599515463838
-15.3655046093436
-18.3963250643427
-22.9784391295764
-26.7957085039002
-27.5465067060659
-24.7116749023836
-19.7431226350571
-14.4969598508125
-9.71803111675396
-4.99995346682632
0.348778673716443
6.67631025086573
13.8089214635882
21.0477898965976
27.2504541238844
31.0694558279806
31.4966189879549
28.5547383450526
23.4192505805821
17.6778272514954
12.5715832383833
8.85262162757179
6.69592483902468
5.40519268788383
3.80280199551946
1.42101566874029
-1.00105098151426
-2.451008873782
-2.6932870760608
-2.1933384369711
-1.40503579694958
-0.460632241085475
0.604433798127465
1.66679025420681
2.70184659730121
3.9276645933522
5.35297008741643
6.22955159699906
5.60896238797701
3.77674842702878
2.52136123424718
3.31155000559259
5.49146446009037
6.89757384100207
6.11475182329127
3.65565239513349
1.15471287849883
-0.0582292866208785
0.244218536954064
1.14356668151845
1.03827480293717
-1.589715332711
-7.34816173606503
-15.4213280413824
-23.9047091433958
-31.0677684313244
-36.4279159297596
-40.3360436543587
-42.5567473675303
-41.7413128534849
-36.553006358307
-27.1090317324879
-15.0947224037693
-2.4775145170326
9.66939385220554
20.8138924597869
29.677292860566
34.2275289776397
33.5754528314324
29.3294002620148
24.310440903327
20.1454696206738
16.5948069630997
12.8453555504858
8.78809814953169
5.0838774198993
2.43050042311047
0.910622246413095
-0.0166944219329966
-0.942728254754883
-2.03782664175393
-3.14430352853347
-4.01978236735678
-4.30610395632521
-3.63699364605275
-2.15608420952462
-0.696032285448264
-0.0923370694992703
-0.391311454134547
-0.823060512365964
-0.404021899154985
1.36723947455619
4.11630564536846
6.85861676824934
8.76501071510253
9.58504096926097
9.38538812048884
8.26085392795139
6.44707871805071
4.46072083443843
2.98829427196989
2.62110771124366
3.44942268169481
4.75952990653135
5.41904423313106
4.77595868750673
2.99914032380934
0.505414369503955
-2.69091407890768
-7.04262244373209
-12.9859067427589
-20.1642159383122
-27.0111416117461
-31.4670340122837
-32.3155923947974
-29.6042773171559
-23.9346547482628
-16.0325606451245
-7.10502356835619
1.19310992315822
7.70865506859652
12.4463188834005
16.0261889040009
18.7483698225483
20.3975057432098
20.7613837772272
20.0580078090164
18.7174520415915
16.7978981023487
13.9183816960632
9.94837378574558
5.440589273682
1.08440650782494
-2.95066419391668
-6.73747057503337
-9.84146146758632
-11.2400353628553
-10.202851341085
-7.44108427997445
-5.35267204818151
-6.58011935953001
-11.8254000706722
-19.1570189370721
-25.5547819463387
-28.9345551861383
-28.9027618246822
-26.2797990564227
-22.0937164080471
-16.5918806970901
-9.13966533618666
0.60973419016205
11.5479257081662
21.4537916212883
28.4528895408963
31.9879899286445
32.5976320601856
31.1071392029916
28.1042142263313
24.0197173566649
19.4141799768248
14.9001768827672
10.8120909479753
7.21824387345123
4.20800560301631
1.80958933451523
-0.286525452995846
-2.39223844173938
-4.19713845596997
-4.96755946730726
-4.33332716565638
-2.46560558589695
0.279656609352466
3.37372320948026
6.04617825651145
7.75345918133104
8.56627383084881
8.81414514394377
8.63691345616124
8.0467950372288
7.0067741966601
5.25241305221002
2.40125362941759
-1.59113998954405
-6.27071524299329
-10.9320716894656
-14.8549122858738
-17.5102926343132
-18.8618367216427
-19.4474948714908
-19.9807975791612
-20.7220690626999
-21.1290189630673
-20.3027779284553
-18.1683561878496
-16.1198256538345
-15.9221971546925
-17.8346810361442
-20.1736781465706
-20.6719978348062
-17.923401239297
-11.9259689727857
-4.15117879631261
2.94449349103446
7.48075344273125
9.6973093709989
11.5575454331085
14.6496025154898
18.6831959831712
21.9107211846359
22.6785682538544
20.6289079254278
16.7166071154578
12.2889449818935
8.25844756870466
5.02019052646303
2.73630703689302
1.44672479494638
1.04509445295128
1.31593272514771
2.06858011270995
3.34665599179224
5.41261290985081
8.2049358515001
10.8990899210936
12.5013705548661
12.8486380534123
12.5054502373263
11.7949641051073
10.5661642154844
8.81705501940308
6.8892259019957
5.04672319035422
3.3110011137833
1.62344580116429
-0.139104797042187
-2.12616708685765
-4.25927959055328
-6.23890432238952
-7.94409477256323
-9.53225340752913
-11.0141295761126
-12.0249681553349
-12.1438906028892
-11.2761747866589
-9.82208502535537
-8.70684314934407
-8.98080512512535
-10.9118538125338
-13.4901966596927
-15.1333423430821
-14.9776831461872
-13.5017036871177
-11.9379670487263
-11.0023344711112
-10.1770628468816
-8.36021899798559
-5.07971575377129
-0.77616801921482
3.85512120654581
8.23714013240043
11.7627396002176
13.9413609523146
14.815864818646
14.8112782441294
14.0750579236043
12.27072359424
9.18365492570503
5.46745734878723
2.62272138187157
1.93937316015319
3.28874694736055
5.13137768473919
5.87790616821793
5.19184487348333
4.03449763572873
3.65390522729788
4.4868519692491
5.81555020957466
6.44461479614041
5.73238342279102
3.85913181217711
1.18984400792035
-2.17285736903937
-6.02947329924081
-9.69923406908059
-12.2563601651939
-12.8833462401685
-11.0854688244438
-7.28312235136191
-3.30365108081945
-1.39335130595523
-2.22809516168979
-4.32453328392325
-5.67509107240811
-5.65201572029013
-5.24541317428385
-5.80179316187553
-7.68581839344293
-9.98642661307593
-11.3052862748574
-10.7108906371226
-8.08290507279174
-3.97125573768924
0.729388361874854
5.34874602467842
9.88219228027125
14.556921210888
18.8599473848572
21.3301993247051
20.4941953433202
16.0787817020817
9.63660516988584
4.0071691367219
1.45934473873988
1.86553300296799
3.03686308810454
3.09867623539116
2.12469166819796
1.35094134206977
1.55489872812036
2.65684126547717
4.20768305230638
5.46281535648957
5.21826859798412
2.36397981147195
-3.03659061780142
-9.34702179795786
-14.3196402189154
-16.6581827356954
-16.5884843801513
-14.8937092286156
-11.7999472228773
-7.10672229584074
-1.03464254558415
5.45416337836838
10.9795480228543
14.2928921347717
14.9450810302387
13.5757412617599
11.2133586333586
8.32239046642315
4.87562014898586
1.08570597425083
-2.50464798352576
-5.52723959468335
-7.97403397940245
-10.0064193473621
-11.7311834041638
-12.9361848651702
-13.1597777482205
-12.4758129566848
-12.0072178173926
-13.0046804110443
-15.3974918306394
-17.6418733782296
-17.9449390039671
-15.5266615473553
-11.0781711527777
-6.2799034118594
-2.58553916341601
-0.199357432889145
1.76354091025576
4.32556551910195
8.00016341386433
12.510590272201
16.5899952401502
18.5492642284049
17.7576545479502
15.3598834766469
13.1088448296366
11.7013088085745
10.4392673738714
8.21593297782028
4.72922759189644
0.990041079255804
-1.35233653772324
-1.38857463624481
0.336695228286161
2.45881569631062
3.96453088385053
4.82872404469016
5.79537789311567
7.49619239179314
9.55768109193703
10.6622960093399
9.66435911321214
6.59676534356536
2.65737142586194
-0.562686361572725
-2.02961417731984
-1.9415637905038
-1.53101332047685
-1.96703396114178
-3.40733416200804
-5.01097313427762
-5.51349745877878
-3.83889401554167
0.140066014921652
4.9302558032178
7.78096083759857
6.32589606289952
0.327583304256316
-7.83708504563763
-14.3347136643571
-16.1262283237153
-12.9750553621054
-7.57865962003862
-3.49259983463484
-2.53450677176119
-3.69806011651693
-4.22034017882547
-1.96175666334694
2.7746028738217
7.68868175624398
10.6483412852054
11.0791782026517
9.50940672695429
6.73462082843335
3.63721259678062
0.869041246613385
-1.8927180555968
-5.9602890199147
-12.4689877094476
-21.1257408671145
-29.9192864538155
-36.0095668184345
-37.4831408971242
-34.8172607968208
-30.4861640347525
-26.7044607111993
-23.3773313139466
-18.2197434320437
-8.96627651961137
4.1971346401128
18.0769677643312
28.3719485309495
32.4335893261033
30.6138007828808
25.4556122646787
19.8268558518297
15.4423250292359
12.4746379263751
10.2485367481957
8.4288374336538
7.65576755804405
9.03560697434439
13.0734631947527
19.0162966135708
24.9756556276732
28.8238935627378
29.5207693843327
27.7186692422519
24.7646016810239
21.1687471654871
16.4306274445657
10.2352444063186
3.2859093026584
-3.16806960647733
-8.34870700556161
-12.3595730887924
-15.6662718981122
-18.3445132521067
-20.0367263150707
-20.5341103902699
-19.9773652498192
-18.5014403204649
-16.2464553681406
-13.7807374370022
-11.8709679026742
-10.6630041148028
-9.62324607624738
-8.40006953380149
-7.23974204871678
-6.42653483772697
-5.75938955216234
-4.8641570160372
-3.86908517051154
-3.45559867396393
-3.98602570561532
-4.66084233542109
-4.06637711679122
-1.91035591336044
0.187372796940358
0.118535034015334
-2.75525223474312
-7.32926293735944
-11.8070016414405
-14.48865918373
-14.2469546632782
-11.2592880262262
-7.22918224380392
-4.21567234965434
-2.93103083272291
-2.16454460681738
0.127444450147244
5.0065970248261
11.5715849425192
17.6770032305758
21.6147503504898
23.1961269836905
23.5137884791774
23.8123311456266
24.2935534160824
23.7970267654472
20.8681989564529
15.263679613507
8.26413522815854
1.70567706899862
-2.98058638292282
-5.23423917772149
-5.63455821512243
-5.562819749143
-6.00190428051455
-6.74061978814616
-7.04923175192856
-6.77356669922181
-6.34108491976148
-5.98474772702275
-5.40558722828753
-4.12037662147047
-1.95498335607242
0.648586758729522
2.67479947043263
3.05483388862298
1.37280512699682
-1.77047160824289
-4.95142599493976
-6.68016310388393
-6.47292801497722
-5.30389249680517
-4.70189422021346
-5.38459154529542
-6.91331737269134
-8.3348066912865
-8.83212883359498
-8.18035586259507
-7.03216758580672
-6.45798099791398
-6.8575197573536
-7.52038799541846
-7.27456303422581
-5.18428687029592
-0.769497223853896
5.68827605860738
12.7724559036911
18.3260611628411
20.6980552667489
19.8557045392929
17.3945211928823
15.2421508658531
13.9702156246393
12.3649766825246
8.85828580565163
3.33457790045351
-2.53241394225741
-6.55020286553742
-7.612783561839
-6.37874683121345
-4.54043427020628
-3.33968192454304
-2.78683755109521
-2.22940916272474
-1.19235180827183
0.583383310011868
3.23541900087388
6.13975533785169
7.51900628406401
5.53563383750565
-0.0602929801716418
-7.5248445777881
-14.1368310502692
-17.6371608511916
-17.34375139877
-14.3753447716199
-10.6563060608666
-7.40265015293264
-4.39041922617701
-0.598266544136386
4.27228178171145
8.6914653285847
9.98493730802779
6.59991964535235
-0.327599238352808
-7.79171437741415
-12.9732492208147
-14.494621003502
-12.5963160092174
-8.85710934715134
-5.36653375218358
-3.39843901166707
-2.57556778801646
-1.31268602399124
1.71204056380777
6.06632834531379
9.48365067296085
9.81311882921586
7.21167713098069
3.93890709931552
2.04775418476031
2.03435472261006
3.71844417779964
7.21025208714805
12.2365848441987
17.1456380775742
19.4662745903848
17.6445928055082
12.2145403615261
5.4167864409426
-0.318793398445996
-3.73331434903124
-4.97589813170551
-5.02143630139549
-5.0282450427878
-5.69516358969001
-6.70859468350286
-7.03970237219835
-6.05983212617864
-4.10355846491025
-1.89499315921745
0.0754192345148701
1.51420501549904
2.23250887096342
2.33066123924281
2.17129935496732
2.03943667108723
1.92232634309401
1.57057231125704
0.82088976067663
0.0523296919511094
0.0836412719730403
1.14623639661107
2.1533656376004
1.58130808190099
-0.926319729553739
-4.17559403502455
-6.51565519060753
-7.09409180841734
-6.31170255329853
-5.31816188384285
-4.86918525333418
-4.55905500907751
-3.39329137070961
-1.04833140054594
1.81256353077487
4.35389390677022
6.19691905472028
7.27954172583514
7.55035091059156
6.90089991437864
5.28001802464068
2.92308562908899
0.37418429345236
-1.96259524809267
-4.16479302290427
-6.41333238882523
-8.45558026344881
-9.70248266887282
-9.66000210615506
-8.13458128056745
-5.38103445316981
-2.23342453937214
0.319280978852773
1.98472486640085
3.38412287733683
5.23279848409541
7.35641562487104
8.51076433255926
7.2368837505296
3.2094774034046
-2.12110437028745
-6.42692947438157
-8.18619501343729
-7.64722956561033
-6.54530517471945
-6.88004967307795
-9.18485134944929
-11.4828584834893
-10.5673088260618
-5.1694847663684
2.19110976304928
7.11449138436061
7.32818350893901
4.66944742737698
3.03906624276281
4.55348574378832
7.93053100827066
10.5676518248169
11.5040135749727
11.7451093339879
12.3159990174798
13.1699901200102
13.8462432505635
13.9711185742001
12.8892008434894
9.75454696126176
4.41269022848986
-2.18736623079914
-8.50871388811154
-13.0900622595685
-14.9796801743475
-14.1490253623433
-11.7008263144183
-9.3983793580832
-8.52879051270506
-8.84703264314582
-8.68679114766438
-6.49480371358997
-2.36967271171451
1.99950601667428
4.63057280338287
4.34065380445129
1.3762608866815
-2.1614770844579
-3.00421082161645
0.914655800075664
8.28570573247051
14.984826408179
17.2601688478133
14.7349886051483
10.5277366521509
8.28045808663077
8.75858975807261
9.43131329026984
7.45821438918307
2.5489837815164
-3.4241171472225
-8.72853174711337
-12.7776219665918
-15.512716017782
-17.0020169605024
-17.647215902034
-18.0384224311642
-18.4060021555813
-18.3691253699206
-17.1810735101945
-14.319584154358
-10.1650664463314
-6.12615501272932
-3.7948916260871
-3.70721402853802
-4.7081487671454
-4.52348037045954
-1.47791827929112
3.89635543653613
9.30246322314934
13.0910642831307
15.7578782317423
18.7123383841949
22.2141778060496
24.9673347853011
25.1828096078574
21.6920168877538
14.5729572378508
5.17971406212216
-4.47937794271869
-12.548510799477
-17.883597688169
-20.415908246394
-21.0520352522502
-20.7086046586952
-19.3201744326308
-16.1708088099545
-11.0557640194007
-4.44980892696472
3.40808847807146
12.68375382628
22.8078518473753
31.7411885533798
36.959288165853
37.2559865824958
33.5283534732051
27.7918968682119
21.4562765660833
14.617596243381
6.85423918461352
-1.71394288206314
-10.1865973661928
-17.2635745436522
-21.8585040671067
-23.818757397057
-24.0270039033444
-23.3570932576621
-21.6837010312883
-18.3443868500867
-13.2406075340088
-7.01366554799014
-0.615303547827295
4.7215737416305
7.55849629768364
7.01010779440972
3.45715113411312
-1.56769441469509
-6.09732891726884
-8.71576646278564
-9.44064037482445
-9.50813310975466
-9.80357158296006
-9.7143416596979
-8.06927988672493
-4.99433992283061
-2.16844736750024
-1.22680499920488
-2.42885442892615
-4.95946680781565
-8.03553416863359
-11.3179764856298
-14.2775930616423
-15.6155222380284
-13.9261391058822
-9.09916020248399
-2.64527795891525
3.68363956514023
9.49284281814137
15.8537960027342
23.7766877696179
32.4753880707356
39.3388866352615
42.0574901148677
40.7164635168069
37.3600400805769
33.7045636433384
29.8970688526708
25.2539996885677
19.2695968209048
11.7078082057328
2.37313627422923
-8.72895565000338
-20.8908431789679
-32.2858445994906
-40.3161294005558
-42.9767440785191
-40.1057524945116
-33.1567263495501
-23.904535092451
-13.6375238783821
-3.34804101416315
5.81444482070461
12.4575812844849
15.2984471436945
13.8003543519597
8.66381267752003
1.5647098736222
-5.80458538275211
-12.4149144374271
-17.6155961757573
-20.4605087428842
-19.7241873203332
-14.8697010494912
-7.02727074264795
1.30861184287309
7.87154657454331
11.8339155693877
13.4781737351411
13.2789035692775
11.5924112825306
8.64298409996553
4.44794990582614
-0.803219564769164
-6.24453217307786
-10.8262665942814
-14.2403822422564
-16.6192649059723
-17.5238493319346
-16.2514592800145
-13.1687423995985
-9.7225777976198
-6.74912695188305
-3.32113553003839
2.34410504212255
10.8773248435247
20.687281759489
28.9003938179607
33.3803035117277
33.8080379060307
31.1411360481271
26.7153104893072
21.9236248322979
17.9419495043838
15.1967711917287
13.2740767469504
11.4587339106147
9.19965897246784
6.31155839003972
3.22728411331687
0.894752709447263
-0.0899003359905053
-0.215100322188904
-0.790623501459619
-3.2981230550768
-8.86573749012981
-17.4044609649855
-27.0352222495825
-35.3642844662442
-41.6647913694035
-46.9156830765332
-51.4401231882798
-53.5007607622353
-50.7888195196878
-42.688927430531
-30.5014667990354
-15.8007282375699
0.578908782903052
17.6308745386172
33.1146984272758
44.6726019450064
52.0316867443282
56.8604665846353
60.0393018465271
60.2198907113356
55.7389073432677
47.0201432690746
36.2344023162386
25.0344071418317
13.3272461634288
0.198534987043205
-14.449241196134
-29.3831363184573
-42.8654708346055
-53.505976323348
-60.2478761683049
-62.1196338978567
-58.5399091939538
-49.7005266705704
-36.4009242315502
-19.9902119112801
-2.95430795563307
11.1277663473626
19.3914515478714
21.7236995831647
20.6724757859594
19.3297671037879
19.2648231567728
20.0735647138493
20.6416709900558
20.7352004613473
20.9539606051649
21.0818102116625
19.4223577386911
14.4574610770192
6.64134264966362
-1.94387857716216
-9.24420696372572
-14.2484420513459
-16.9395598959978
-17.7514551225667
-17.0227445445336
-14.8303128311751
-11.1181813907013
-5.72002026900629
1.40953201930792
9.38474583940834
16.1028038672832
19.5825934904368
19.625628765938
17.7367042425987
15.6113433999084
14.0254930588247
12.7355380184171
10.8524326998809
7.49893933589495
2.5711935094194
-3.14032609816237
-8.63939044154006
-13.2769030602547
-16.632177461226
-18.2991416608138
-17.9649239530397
-15.5173990758382
-11.1524708276224
-5.56364481569384
0.151578252353385
4.99872099496957
8.49612853956172
10.6478501984481
11.5858054057103
11.1560901725135
9.08419642133618
5.97401547708635
3.69594116168742
3.67157061345546
4.66894875286252
3.30442009136469
-2.86858910125891
-13.2265984106851
-24.8877775701688
-34.926817087434
-41.884968796871
-45.9701245783722
-48.1238206984403
-48.5720486461871
-46.1340113516675
-39.0972642326741
-26.8697106127002
-10.8362143672491
6.29153757147446
21.8945915525441
34.3223543227716
42.8185257401058
47.3020657848588
48.5306471419431
47.9504495455604
46.6837592322369
44.6421067065957
40.9999225321218
35.4815055739986
28.870912112864
22.3793513209336
16.7945053566184
12.0870833851678
7.63168720672896
2.95932858093582
-1.69370322117884
-5.75519250715631
-8.91228214891534
-10.899996575057
-11.1465644593216
-9.44085811331649
-6.89923111835921
-5.66967248773042
-7.48042400286662
-12.4601088012454
-19.0963489011418
-25.1927500020524
-29.0414050647389
-29.8568355529954
-27.444198900965
-22.0934892481366
-14.8829669639593
-7.37395317503588
-0.672461650676692
4.8325711358373
8.87956985513042
11.1196460662324
11.4935423429625
10.2943843303169
7.88691594183842
4.69303853866944
1.23221567601707
-2.10457226653517
-5.03685983396024
-7.05844042058868
-7.69516719971278
-7.35796209981065
-7.42603822555558
-9.1865411814264
-12.8767703917116
-17.492265803529
-20.9669917680507
-20.8981384968628
-16.0943999912646
-7.71411311775097
1.49052811629519
9.23263047243408
15.0523941683644
19.8927852960345
24.5312682870077
28.4831071017761
30.4797752618114
29.8397638951298
27.0732237647475
23.3278441922592
19.6840625802529
16.760138467651
14.3054628091653
11.1015961395165
5.76349330934617
-2.11816532943568
-11.5629647580398
-20.709718190343
-27.8648857540788
-32.5105859836602
-35.2196130813609
-36.2369616747206
-34.5949400808178
-29.3218250874379
-21.0989786310769
-11.8285134429018
-2.81439624057668
5.72715147419177
13.5196109738971
19.6194950043368
23.1925930860571
24.196286010549
22.9926259529181
19.8006042866689
15.0054937902858
9.85362836116011
6.23151840514714
5.27084922936033
6.33893285037296
7.84440996812308
8.79324030062085
9.0059660728963
8.25854642373409
6.20530463148726
3.08683376716503
-0.258886954635832
-3.08659624117248
-5.01902170431357
-5.91321522064345
-5.90750444332554
-5.38384425059061
-4.59195095041417
-3.48569298301677
-1.998186649714
-0.272222712612875
1.32315574427931
2.2851660482889
2.35932604553411
1.92416839030181
1.53070984712106
0.878464857060775
-1.26257635226783
-5.8073038224349
-12.2501112651771
-18.8790182291267
-23.8644833710528
-26.1259995524519
-25.4734506167273
-22.3015555635362
-17.3756670915067
-11.7768588911389
-6.48557003633783
-1.58510014741031
3.75930133165529
9.88811355391683
15.36290680665
17.7348904303938
15.6556273278747
9.96396062273738
3.03512894344013
-2.4281821154559
-4.34661769782342
-2.05582528171387
3.20210330419061
8.71508432153779
11.8484321614108
11.7328122847201
9.56357609185557
7.21185039981726
5.74295079258142
5.21857544150371
5.11875281157319
4.38530094593542
1.74336652955072
-3.09463799893265
-8.70502158998019
-12.9432003863774
-14.4924006266349
-13.2989119322687
-10.0378914917163
-5.55310136150728
-0.5615898419784
4.34844481506388
8.54780346085161
11.5754325972576
13.6687365883924
15.5319978788508
17.1917348952484
17.5878920126966
15.8277698721063
12.5329278053248
9.43806918705738
7.7054236182152
6.80075384191148
4.9057059913309
0.443592564019553
-6.54548520101862
-14.3907886813689
-20.9746486116993
-24.7703466610982
-25.264450992272
-23.2943881811714
-20.7742815609411
-18.9226437354014
-16.5760333139609
-11.2307046186523
-2.04375087587087
8.90731365981212
18.48097311085
24.8456800444509
27.7965437750298
27.5554905130698
24.1823051628182
18.3010389688846
11.754144056718
6.72964720761354
4.0001853063308
2.35844740579526
-0.0476061771639955
-4.05343838387319
-9.10363282635097
-14.053698580743
-18.0677569339734
-20.8907888662176
-22.5500225865596
-23.0722349906749
-22.5672329100389
-21.2718529308306
-19.2110189292552
-16.0660823797548
-11.7479491536899
-6.81118016752042
-1.79472576064397
3.54752001543188
9.69894826052886
16.3077160749645
22.3876015215674
27.3607321644614
31.0351627553298
32.5496525451702
30.2181205807589
22.9573670550846
11.7111852860596
-0.849781921740069
-12.1216207850599
-20.9370423670409
-27.2385788113156
-31.0717843062641
-32.5346214291323
-32.2416804946607
-30.7583728087616
-27.5137533576998
-21.2099812441909
-11.6570618687324
-0.637341580781237
9.3511870284399
16.9404574303177
22.3884378222613
26.4492434185738
28.9713592822238
28.9036656624744
25.8130833909427
20.9415232021262
16.2891692306025
12.940610305487
10.7561125144193
9.38403444808619
8.89504269780501
9.37766553134365
10.3654565443541
10.8677917891502
9.92381388863885
7.22797800182913
3.33620012146551
-0.749142923955463
-4.14617039267738
-6.3191935413836
-7.21742909847312
-7.49370418632142
-8.19295474610256
-9.79853677260791
-11.6745214331929
-12.5474247176737
-11.5112146385969
-8.88981542575684
-6.40179185668048
-6.04997447889897
-8.3619402949908
-11.9182676496055
-14.7554392186259
-15.7863967810595
-14.7901817468587
-11.8439339719905
-7.34161859981101
-2.18901153555675
2.5223204788888
6.03609175951418
8.05882639865403
8.55940642072244
7.71372226617376
6.15016821584435
4.93727757173508
4.75828867133019
5.00024269620242
4.14913396138631
1.27460343122253
-3.18992887518624
-8.00278563338498
-11.7657163472339
-13.0721881227001
-11.085556248773
-6.60823108083214
-2.01931037152379
0.422433078839324
0.032686731832744
-2.54854127264891
-6.45256988756998
-11.0899645176521
-15.7663318173159
-18.9817436360638
-18.4658314496391
-12.672162295937
-2.60136964864067
8.32167275381927
16.6432892184344
21.2215314464035
23.391763693753
25.1325223433786
27.0158981203435
27.7318600640002
25.5560225484636
20.205459362958
13.2366471531713
6.91295151602527
2.76484090913562
0.728308841907061
-0.637214027616758
-2.71067123770454
-5.40876695362882
-7.53299547015291
-8.29731462834307
-7.81530083772609
-6.24439104562105
-3.3856810824493
0.669200284833046
5.12987516514409
8.97224984819257
11.4947004851369
12.4311194417956
11.8909911467204
10.2645225434841
8.0040306761086
5.48832645254831
3.09060637167828
1.16200968146046
-0.104177184639571
-0.632832791900783
-0.391758949353845
0.391149849316118
0.949276682745256
0.0061805790095478
-3.81785742521948
-11.1193747057094
-20.7203728204925
-29.8949221234867
-36.2321628077907
-39.2107721491943
-39.6671154085372
-38.1369906823069
-34.2105172829247
-27.299082058057
-17.7107572833818
-7.04284173230752
2.54611266993509
9.72770590471888
14.6195438978206
17.9566803111145
20.1196605344228
21.2269319282081
21.5320269302704
21.1501595377772
19.7495405498665
17.0088262073323
13.2840190347852
9.67190085785881
7.52908906513672
7.74908456871028
9.97513559131167
12.3787261409313
12.6535581007417
9.63657272891698
4.12067388706201
-1.71169667274413
-5.64232361661658
-6.77688393096762
-6.17435921850814
-6.14149070284039
-8.54576056585515
-13.412135672244
-18.7427193109416
-21.6506928651572
-20.2333914963433
-14.924531303831
-8.15966391977787
-2.60418320363618
0.672811353650365
2.87073954461156
6.37803062861275
12.4195691409449
19.5248429831937
24.5960878462367
25.3837882119613
21.7439576199489
15.2199961854371
8.17392535211969
2.74739668849843
-0.291668618951395
-1.61136913092558
-2.02098263873481
-1.67148633510191
-0.696497805582187
0.221113640757305
0.422433021940549
-0.0603555156184322
-0.739181694277399
-1.33877666545614
-2.08583328128695
-3.34398683511096
-4.88145630708842
-5.67389820864458
-4.86976408295771
-2.9120625891157
-1.22230517400171
-0.806890278003935
-1.61733675484546
-3.04182914449998
-4.37036467685957
-4.98134348971078
-4.8051678811105
-4.57932347079263
-5.16482243636069
-6.63804300610399
-8.19284110569419
-8.70715025564538
-7.47501498472504
-4.8620253422462
-2.26201313208627
-1.03412065659461
-1.46268708253337
-2.76693057377777
-3.69623066897345
-3.05070559249401
-0.364468004467284
3.43199162671992
6.3467868050592
6.65482348069782
3.97641516974156
-0.638375624570215
-5.37749581417733
-8.58519334178875
-9.35559889776295
-7.57372868144068
-3.92873605407719
0.0241041744447156
2.69087790485342
3.95218414461782
5.29504056124681
7.92395052557266
11.2502821693057
13.6141854347972
13.8675824321881
11.8949703814448
8.33450963234145
4.341178060575
1.11259722312308
-0.83561746724459
-1.78747576022958
-2.29141935658271
-2.77080670214375
-3.33473258704384
-3.57028719809036
-2.85772612604878
-1.17714514679376
0.85608252075715
2.98158374657678
5.72512431389753
9.43762431703411
13.2464144185961
15.3538733630937
14.4386057111782
10.7506022086422
5.77963749198194
0.851745380787065
-3.66918161669088
-7.71811462881986
-10.7058322951532
-11.9104109156081
-11.3714073950633
-9.96178321789903
-8.73276830646637
-8.25500006667269
-8.23885746106863
-7.76054288701867
-6.19092626101269
-3.86738895837088
-1.66852200088907
-0.219610486963519
0.233180112603676
-0.392196945199333
-1.86611010626087
-3.50419630179972
-4.59768639681138
-5.01229382571187
-5.27700323491544
-6.02922828565969
-7.07598214302498
-6.98766732328184
-4.4081763464064
-0.179169137911941
2.75286731894814
2.29991216114884
-0.459733037707194
-2.29986434767421
-0.477432168859873
5.63547347489051
14.196174203806
21.5905527271927
24.5478729666224
22.4838150810782
17.6392586969963
12.8019360518768
9.15154222545145
6.19939623424302
3.22192475415758
0.297884671486554
-2.02751777533058
-3.5616940228542
-4.34524589239762
-3.93388865430715
-1.70665928942389
1.89401903304253
5.17513077261335
6.60411935245844
5.99013454406071
4.11121290362517
1.54034232686019
-1.99434459114378
-7.21006648995272
-14.2818998695889
-22.3658885220287
-30.2448383470351
-37.0837521070081
-42.0575104803031
-43.7681708730881
-41.1500420879219
-34.8670463380624
-26.651773407008
-17.0213156978061
-4.59936789415687
11.8087527446269
30.7920572731874
48.0682056860113
58.5071405315034
58.8751064695596
49.5265733758942
34.1861068565004
18.2037977701427
6.15753764987735
-0.224343394819564
-2.43093738937543
-3.19417058369689
-4.01744522653057
-4.7605922393192
-4.9791028207713
-4.65877365995542
-3.84969761231694
-2.6418267673458
-1.67281422078011
-1.98134556713437
-4.08031129749533
-7.26926720558975
-9.81094867027086
-9.98431594348475
-7.4572879000747
-3.6691252718052
-0.579681009666527
0.854984297041173
0.910909523389153
0.452215726200337
0.50574646264888
1.77001703046779
3.69916185589623
4.38339029284959
2.09277517952013
-3.04608271767134
-9.12499459767074
-13.8813546089212
-15.8635072389529
-14.7465172814861
-11.2066235653447
-6.6330788842462
-2.48743180924377
0.76329997242963
4.19287516512641
9.14619518727471
15.0384344947775
19.2097031381141
19.5560959929533
16.6330268669477
12.6792355062652
9.38552702562253
7.18794667136503
5.87853464841
5.03003406470766
4.13984232819473
2.92464463872644
1.50050731998412
0.254248829567664
-0.447414599551855
-0.695450295277901
-1.23489617279177
-2.77336519965313
-5.0239018024263
-6.98286239279746
-8.25031989613375
-9.45846295283323
-11.1892520802516
-13.0762879563685
-14.4156385897057
-15.3073963129983
-16.6178757549136
-18.7458170670518
-20.8557149259075
-21.6784403936604
-20.7859256370364
-18.4801749971704
-14.6762428475788
-9.01385616971073
-2.21547747141998
4.04690511779583
9.23938131201032
14.6617743175133
21.2324895032862
27.5275538696844
30.8412171226609
29.7056303292794
24.9984530193079
19.0506596527791
13.9300832999018
10.2851280708949
7.57239488732225
5.12811273816697
2.72869462661707
0.422558740928227
-1.52050409584975
-2.56141409661911
-2.35833299886294
-1.22946706143153
0.221852767568243
1.72481041866766
3.22710979837803
4.38038030933169
4.44693406286941
2.71009114362373
-0.933508298748928
-5.62141965943589
-9.9645586977717
-13.0694086556851
-14.8879401583854
-15.4363044617118
-14.2546859212182
-11.1107928227954
-6.73776803172665
-2.23334397916539
1.987019465186
6.02373930804994
9.36310409692355
10.4623941515241
7.86397001646547
1.87086173932099
-5.06211035508811
-9.98938288646575
-11.6153534693547
-10.6945839735752
-8.68974644617318
-6.53252061310817
-4.41552204318649
-2.11763790557874
0.538716408707657
3.27415633858896
5.45594894327896
6.6553005135645
6.84307148202299
6.13524598979586
4.80942711117738
3.44505010642954
2.46558193491415
1.59179342726636
0.223480738581292
-1.71845011211916
-3.68245324580486
-5.10398946579961
-5.89237066777256
-6.34668743553009
-6.60380732505004
-6.12950725686203
-3.98029606261018
0.228419995019591
5.8109859962322
11.6038812445738
16.7394964198618
20.617347007105
22.5403273491435
21.9103272809581
18.8102873366836
14.2053346610295
9.4443549033049
5.31844429403922
1.4581543456887
-3.13579551551317
-8.9317094073661
-15.529243903501
-22.2090575170028
-28.0072530880758
-31.3018838484821
-30.4280550769297
-25.2989855671447
-18.0124732482865
-11.4808610516729
-7.360236098061
-4.92504134610445
-1.6475946854126
4.75230718293465
14.2931354174345
24.5299770092567
32.1023462710808
34.4608921723443
30.967894745858
23.3170115966849
14.6991680385773
7.76238979681081
3.14785012496917
-0.0422021903747688
-2.8102682131622
-5.51007008537442
-8.07758127491286
-10.5738135197592
-13.4110492499829
-17.0072265490243
-21.1997164854604
-25.0744111469537
-27.2707339495269
-26.3147156262586
-21.1869754262947
-12.535056520913
-3.3535349477034
2.66585111139026
4.24075516393427
3.67663025444073
4.50210177578355
7.95267408216888
11.9989508410416
13.8604336911901
13.0698618059079
11.5241156166339
10.8454491511774
10.8594525516872
10.8893249799332
11.1805338526692
12.1496229527893
13.1025640741653
12.668340280388
10.1422736188386
5.89499460221738
0.890770812423305
-3.74490556056281
-6.98548607535386
-8.1997001177161
-7.43831663803755
-5.60521536672773
-4.15939669814217
-4.11139234624254
-5.20505859144985
-6.41061302015341
-7.10542953310308
-7.35793187055705
-7.26003130160968
-6.55758493411821
-4.93939475271572
-2.32185627632858
1.082608602351
4.68181761915314
7.600993418047
9.1202671083068
8.99317698894354
7.41046163745536
4.95551308448338
2.48853381756142
0.596079008715062
-0.902258181613908
-2.64694864380058
-4.99624345129957
-7.61746133619187
-9.4740992481795
-9.21369718551003
-6.15939988835679
-1.20776610196577
3.56305376942608
6.38607313589307
6.92676955566044
6.17401690415918
5.43348353868896
5.25408641357813
5.18446277632284
4.58455530966071
3.42192390849275
2.04974641459824
0.614973282129434
-0.889129584841678
-2.33605809491139
-3.61470343099259
-4.71415465655494
-5.37442648209511
-5.06603468350543
-3.65995852666345
-1.88126154755717
-0.864734217078037
-1.30073173184122
-2.91105449146504
-4.55188904393008
-4.97841295889516
-3.84389586817577
-1.98818451267813
-0.674874430142882
-0.620925701303973
-1.61249931505446
-2.69694836873133
-2.87743253017121
-2.05882284213519
-1.16517078163484
-0.936142652492927
-0.896108175875239
0.0007834128189888
1.87413610102465
3.43313729389803
2.97922828708703
-0.104637273604659
-4.68555825123086
-8.71060199874751
-10.7952653265644
-10.9629561917188
-10.0922387489054
-9.14299943866225
-8.72817324826481
-8.60237734226821
-7.3768264705277
-3.42734970094102
3.44161322170631
11.3169192914228
17.2812103457831
19.3912764235291
17.9382177500402
14.9089742701068
12.1812055054717
10.4085671914963
9.54805535166575
9.64036296216471
10.5376648783485
11.4934441822298
11.7504791114057
11.2337303476085
10.2067799814377
8.70085345453281
6.79724138678803
5.0551494257456
4.14661203597059
4.26981751666159
5.07016232441783
5.80851263334174
5.6017980129848
3.90903773494158
0.824718560251934
-3.26874227509512
-8.07073416237398
-13.1221223234544
-17.5225857551858
-20.3201884430448
-21.1845796628609
-20.5544816390897
-19.1676721342769
-17.5552045698231
-15.9649384317756
-14.498140159229
-12.9963810814906
-11.0212001973101
-8.58888567489456
-6.77399722055202
-6.56288077444807
-7.00387208747402
-5.69014896749194
