-0.220729053447465
-0.209026744222472
-0.23304908489846
-0.17444311188003
0.0035452141812004
0.181357237958016
0.261709379383641
0.24749779816221
0.156757053009452
0.0211270039016053
-0.0687935406049662
-0.0596035412750093
-0.0207357661698658
-0.0303303459479177
-0.0750340550830605
-0.132627777986905
-0.208824700070261
-0.247485166371707
-0.165180281171955
0.0064114872417696
0.141640946275302
0.158528286760874
0.0638513395298059
-0.0611561296971219
-0.101645020717077
-0.0365483666181329
0.0167046601455375
-0.0182084314173223
-0.0617728299333563
-0.0313251100797375
0.0440940959379863
0.118163032616177
0.166920859656408
0.144942257787295
0.0861520553519075
0.150621459252993
0.36427008575504
0.483640455052937
0.338764318063665
0.0942076810378254
-0.0299402321954216
-0.0514496975343389
-0.074913622196402
-0.0946302961082074
-0.081918487070709
-0.0664078782740443
-0.0525116786113938
-0.0073971810097228
0.0580077851519072
0.118705476866237
0.197598699556818
0.290764942243443
0.324482658863815
0.276780944494254
0.213208368978926
0.147585339944749
0.0324830441622903
-0.10146090821981
-0.18405254797107
-0.24666109895561
-0.3446420099525
-0.42400639366994
-0.419813506884268
-0.37336457921741
-0.345501423877052
-0.334072033489206
-0.319132996890776
-0.280909739503155
-0.198798973189985
-0.112376482123305
-0.0885889329294841
-0.0838120196476995
0.0046894785192455
0.137509291380912
0.179116339187363
0.123355914318265
0.0697345991578235
0.0406906771319098
0.0078317466958739
-0.0099720361846744
-0.0103886027254172
-0.0174885292013864
0.0261423101407778
0.169417223439277
0.271257588566748
0.169030576754027
-0.019582595424859
-0.0374209061479676
0.136076187281311
0.309774248430327
0.38790964885919
0.406502177258921
0.381400524179915
0.342508457018281
0.378212170249561
0.469479131405569
0.457993818701292
0.309739772822214
0.207688962251918
0.290112511806647
0.480773414119559
0.623073534243862
0.640974172328009
0.557271493128151
0.425682114628977
0.244857293236577
-0.0248796155114806
-0.335929208587964
-0.577316581797528
-0.770366397740477
-1.04872972047225
-1.40446637868229
-1.68260572211314
-1.82926279090713
-1.88487720975426
-1.77455378204104
-1.38612006327162
-0.795100684530369
-0.188407230029363
0.306757482989233
0.564636664139646
0.467337220020398
0.123171566403167
-0.158852847902187
-0.207351196647928
-0.0757892547329037
0.201838525618145
0.65478058850832
1.17236951222468
1.5298143566882
1.6317335846184
1.53466468025371
1.2887453646638
0.95386910545116
0.679961545509981
0.574833396118703
0.558848705149188
0.461216976237038
0.180239731543396
-0.274257168814275
-0.787341707467112
-1.20132837545388
-1.44824005851418
-1.5641553508533
-1.56172410698831
-1.41010840238711
-1.12302297710825
-0.731640643039564
-0.225048323517801
0.364534810661791
0.914905276313642
1.34000094446173
1.63997465740079
1.80162246268932
1.80910612125083
1.71837162587949
1.54585547793997
1.19390735657473
0.671297973097697
0.207363049076015
-0.0416487872449817
-0.188162239240838
-0.365658467472809
-0.524808433308751
-0.59011766250667
-0.58224529678107
-0.510552774042624
-0.36402004352854
-0.241867934994061
-0.282025104546207
-0.443218967779607
-0.542999912483234
-0.50780742686589
-0.437063730198563
-0.459670839945225
-0.63960546885616
-0.951161794478136
-1.27619352854787
-1.5017480649117
-1.61738715156738
-1.64387500108668
-1.55905668957734
-1.37538673958171
-1.14847890564853
-0.851176973665824
-0.410022285944815
0.117370408563937
0.580132683299331
0.918156006338291
1.14954221430391
1.2618225143927
1.25191059890122
1.16016215356504
0.995041563199999
0.775002350458585
0.631833401950209
0.668065322621786
0.773736277872161
0.790564366692495
0.733827386292996
0.670904970746102
0.578846465627535
0.488544548500508
0.530883918221895
0.689830892182535
0.742179760004145
0.55451628185892
0.23674131874832
-0.0474175152309061
-0.225605151304334
-0.275546547176882
-0.240756915659583
-0.264446401117895
-0.435177563678256
-0.658297791820854
-0.803765361723177
-0.855823633178901
-0.821622740395441
-0.658154469680024
-0.363371467405395
0.0025937578253745
0.390769852585171
0.743179244413384
0.967053968373153
1.02279296750515
0.95098502074584
0.78825204412814
0.565731863577861
0.348006206449232
0.157633802949177
-0.0478323516690312
-0.251093658176644
-0.391933516710139
-0.536617058514639
-0.79443207203019
-1.07012421129949
-1.17387511359604
-1.13441498765587
-1.12272096817075
-1.15225827183613
-1.11741409848412
-1.01164004594367
-0.891043737694554
-0.747930121879783
-0.558267136872509
-0.321932684801846
-0.0059262865191479
0.398830392396638
0.771414548605908
0.977848836853192
1.05284507626651
1.10188121869225
1.09923994093195
0.95003364694641
0.667117635742246
0.360012226324164
0.153285154819506
0.163411293925806
0.394600599942704
0.654638341063782
0.745729828384385
0.690318433806829
0.626989470986149
0.601408420244223
0.576139392747141
0.497679886357022
0.286927314467444
-0.0851995035795698
-0.514445910801753
-0.886771902893352
-1.19857733690489
-1.44324360240544
-1.54474396696585
-1.51342831999271
-1.48362456890227
-1.53141845053284
-1.62368531101474
-1.70494832157862
-1.64535815752599
-1.23690222963645
-0.464129010947105
0.374872843004479
0.997076147718302
1.39934225905889
1.67435084860204
1.79662800069696
1.71901449368401
1.48660020069891
1.16792820179819
0.827119925445238
0.575793010125749
0.488117812039557
0.486796951314133
0.459394461399417
0.412660222241721
0.387605862524846
0.358807976670047
0.330793711207501
0.371928192569248
0.472661600479844
0.523742897382508
0.459139627515708
0.29761348778724
0.0801825035251174
-0.147548806557667
-0.357419332831563
-0.560072131192057
-0.722900239747834
-0.739499629117768
-0.589288923351221
-0.402006134438619
-0.266684976492694
-0.148286448402512
-0.0485856678045858
-0.0179459723555018
0.0149872091416498
0.157188825453378
0.308879753972918
0.278920906664767
0.0856594947155051
-0.0986699393837571
-0.195339524612897
-0.221840550233811
-0.208077920342783
-0.246388361778874
-0.43819491744174
-0.714739335239168
-0.909966533470731
-1.02202420092923
-1.17452004819256
-1.33888976542642
-1.33952774311572
-1.10559273968661
-0.700768837992601
-0.184471598272106
0.340326920584454
0.655842379370338
0.620579200686259
0.349845547487518
0.0905033240497038
0.012606001122887
0.14918100316801
0.417012271976501
0.69254694034026
0.923531132287253
1.10923419510338
1.19215553028694
1.10721110064735
0.892308103940014
0.608344760401892
0.252097311498067
-0.120072386049216
-0.348304022067778
-0.378940296936233
-0.339793643275161
-0.333730366536523
-0.351816645735228
-0.388651274439844
-0.433356512466884
-0.408354299147346
-0.297001366982029
-0.193540770346689
-0.0972626118928723
0.113945076426432
0.401804419521121
0.544224134988354
0.487745085317886
0.431842556937344
0.482400944551036
0.503592331992896
0.384754739909527
0.196565534149032
0.0260129962703944
-0.123295548339517
-0.241479988899869
-0.297862095797799
-0.30060931902934
-0.263238408917797
-0.187515976726984
-0.134021079419369
-0.193688697619882
-0.3699532811923
-0.582334711998495
-0.74073302036882
-0.755658338083808
-0.583393535846663
-0.298524519932213
-0.0079816963042325
0.272186043227185
0.533256748396409
0.682252400227881
0.672282595365384
0.574357399595118
0.423555221413241
0.20269054854264
0.0234704974432135
0.0465336924812274
0.201960141686856
0.276979432686145
0.241167430849462
0.199605554006584
0.131473279062367
-0.0344645128889628
-0.207795385842416
-0.248783533429203
-0.174057815019859
-0.0827380377931143
-0.0119349848468958
0.0291857328383779
0.0274977243598283
0.0247420689724085
0.0619694745564109
0.0696628710809675
-0.0204063134230448
-0.104299077143903
-0.0336856774883728
0.149303356840479
0.266489520965039
0.219423718148435
0.0492946209942002
-0.133459043557207
-0.238138646650864
-0.277003712535116
-0.328019189573035
-0.394231822669076
-0.418933728537416
-0.429855900026323
-0.489153133119321
-0.534783992822921
-0.463522469260895
-0.297753068996048
-0.100177958694664
0.139712870341331
0.390303909117495
0.543759695149995
0.605265876274734
0.689221601352876
0.782382574025941
0.76330202543197
0.633905279450779
0.474061467801096
0.253534368315591
-0.0664861857025355
-0.37519390984929
-0.564415699669666
-0.690915313614386
-0.839359608128763
-0.991147033950805
-1.12200535861449
-1.23980329095974
-1.26628617227704
-1.08268659742793
-0.730372620255226
-0.382873747877
-0.126456949565815
0.0778945377430023
0.28979889757112
0.573186162269127
0.951915901800491
1.2935134522999
1.40079772824272
1.25592720940885
1.01051469022456
0.766884361975589
0.532127518342236
0.319254171866475
0.155604985700304
0.0520376238557264
0.0133838148720559
0.0056451221254587
-0.0460812144599623
-0.128784240485245
-0.106705109176668
0.0909983283965349
0.373279844733391
0.617038399683413
0.726839545832532
0.598528103870714
0.244219492697118
-0.120239280244309
-0.325411808594472
-0.447610063355851
-0.584379733084575
-0.663711123581926
-0.64786655683863
-0.650618938899857
-0.69032739908321
-0.608003192607604
-0.367824628569415
-0.165298461411304
-0.127549996697919
-0.163069213166163
-0.17461439395731
-0.169098150956248
-0.132027167934127
-0.0332222035930457
0.0555334673963532
0.0472419839057834
-0.0138518052304218
-0.0287532145671191
0.034767036491069
0.167884851494619
0.340990468313349
0.479077558221271
0.525835671784025
0.499888578468277
0.428742678406235
0.320405859779865
0.218090103005149
0.158437504819603
0.100007483269575
0.0092404379084077
-0.0694939063329799
-0.122077786055671
-0.190493269740992
-0.237276837804838
-0.201066209700751
-0.195347917710325
-0.378777422637265
-0.650655068894536
-0.758989913040618
-0.648818799302868
-0.446253667425607
-0.218371933764665
0.008274823169588
0.135118337854025
0.114612237210614
0.0574225921729209
0.0705161006770368
0.127462299792035
0.184448889363532
0.254150692295407
0.30732497798381
0.27857734580525
0.194287333879781
0.137975329756021
0.123957288419886
0.138097968197888
0.205500347399227
0.302985825022541
0.324192931222152
0.206221837230468
-0.005962139354006
-0.214258173852833
-0.310809649346179
-0.246669340349704
-0.107973897356857
-0.0133284690618638
0.0487558958321615
0.141410169241644
0.230937903542465
0.281422985125755
0.348155947941081
0.417831481292676
0.363717008865154
0.197352103054952
0.108791851443916
0.154829689327761
0.185805965289172
0.122901700610607
0.0222084682270607
-0.108579423236715
-0.278201416868593
-0.378291920568141
-0.326479555907224
-0.223526699753159
-0.181395486744536
-0.158824448811985
-0.111066670839574
-0.103210239479573
-0.15431421070324
-0.17648682247697
-0.152906593076685
-0.166871004238367
-0.218390387666695
-0.222825150104515
-0.18652943753621
-0.196973751784971
-0.277311698358474
-0.380383180772978
-0.45871245813592
-0.485408333013127
-0.487151217129567
-0.528457609479058
-0.583500518836626
-0.526611866111443
-0.317940701780789
-0.0542982456834004
0.189556480280529
0.400340115924112
0.538514423524829
0.590376958623289
0.626037395655064
0.65737220811032
0.594416087720234
0.456329610950841
0.396029639456261
0.431786200125713
0.421811147988724
0.337858914673416
0.282556309041496
0.261148276364941
0.207383433113325
0.159292521764329
0.175285174022942
0.194511824256941
0.163686221638163
0.149753379162048
0.188454753787492
0.194332877931341
0.123117376520752
0.0444497159684989
-0.0065472740617874
-0.0631824990210036
-0.0940810892312448
-0.0239411992363363
0.124464559723955
0.257798465298005
0.319982528208988
0.281258702493841
0.143794624661226
0.0105313526040843
0.0025031825337933
0.0952947048095889
0.156959335788084
0.101154717650713
-0.07439158638025
-0.298560253707511
-0.447436014772769
-0.487036379985377
-0.552164988158835
-0.726310837806841
-0.863492234141533
-0.816314470516564
-0.680404477188911
-0.627972490460697
-0.671919693921094
-0.72377686816487
-0.697700944863575
-0.511670716692271
-0.194779217232702
0.0330387240979503
-0.0076671276423997
-0.233727726849816
-0.47238635945033
-0.6859223723218
-0.866598738178063
-0.915381709845697
-0.784630758514826
-0.552105518842988
-0.238874618480919
0.241114582475754
0.85260861462089
1.36544406233452
1.59637051433022
1.56382549019363
1.38146497710916
1.14603128058969
0.914194689003387
0.690432027391491
0.48262929662468
0.3707403107299
0.400908756757701
0.460192156426113
0.411047520949791
0.279209152304003
0.178183523392748
0.15027786385005
0.171748950613668
0.19775235812672
0.170956542553308
0.0956426185878786
0.0486744056674618
0.0144986191212428
-0.138962104091093
-0.408138089644309
-0.590544965130475
-0.572132671743493
-0.435692834496011
-0.242942722309264
0.0058028747335762
0.194662041890699
0.172608488533417
-0.0036648499211905
-0.14455611062603
-0.178053439517173
-0.142656458219239
-0.0519086118920057
0.0721606244020941
0.154512809690521
0.166933857312224
0.146480033643987
0.0819971196637032
-0.0526289436551346
-0.179672762086199
-0.233993854659153
-0.31870040472918
-0.520976465946088
-0.691341651809938
-0.628382001332146
-0.35540824904731
-0.0455543900253208
0.185341417484344
0.30078603168052
0.292490655168054
0.168185255857755
-0.0698957833931697
-0.388893665020313
-0.651419736120381
-0.72095509513147
-0.654670949248692
-0.631353560072713
-0.71420075039331
-0.830611396905787
-0.888366812961339
-0.780373857424505
-0.437055781297666
0.0198810000976146
0.368305404624134
0.563572400176823
0.710786494771851
0.827969806867388
0.891241546549794
0.980198995900204
1.11137906474995
1.10046860984502
0.837805948470035
0.507663725443583
0.324139116308149
0.254928466490878
0.172532640037289
0.0563037170487224
-0.088076774227318
-0.280356118819945
-0.441061464749102
-0.434992418436717
-0.287660858060117
-0.169429892324894
-0.175758841478246
-0.266111648808421
-0.349107149244949
-0.333988292808613
-0.198161661133517
-0.0331998021489201
0.0723808849983103
0.137938829721894
0.190296521985286
0.192212595972202
0.150632730164763
0.134398589195846
0.147396860640617
0.148789270684333
0.161939267723088
0.198953396011297
0.190363508096626
0.140121096050463
0.167294541681557
0.272188873926217
0.297290681644071
0.198106007370355
0.0909670613525795
0.0180567071457784
-0.0648040010270802
-0.113778635995821
-0.0675333563384049
-0.0004371943697831
0.0093237568313774
0.027088210913219
0.0991511949123158
0.120007269102514
0.0287539371636056
-0.0425076322827452
0.0406390484518124
0.239561171297179
0.434451539522401
0.520248073514363
0.400893448881676
0.0695779245709202
-0.332630069122813
-0.672717704359292
-0.952625863417218
-1.20217232651743
-1.38825590438147
-1.47245280702444
-1.4214024100875
-1.18341138087787
-0.77822424460798
-0.342137667974142
-0.0048689452334922
0.18886416361326
0.252221261465962
0.296840537061056
0.513597943733432
0.921273851900507
1.25185998046472
1.26524459059884
1.02439603830863
0.731900865828501
0.507698038959864
0.412996022232711
0.444688568976586
0.458307808893143
0.324385484392065
0.132639807877665
0.0353600359295949
-0.0046223844482844
-0.10602205290932
-0.250167204892016
-0.35957314628235
-0.452618703880483
-0.567934731520403
-0.681507535205237
-0.801467896323804
-0.979201295289926
-1.16736814976155
-1.23886607382721
-1.14408548775471
-0.880500039649366
-0.395021549602005
0.281941923571576
0.907809571142516
1.21776522137781
1.18055625319451
0.989232527858234
0.867119287780955
0.878212436698808
0.876779686403835
0.710695760933973
0.464678635091258
0.344343261414954
0.365620936549642
0.38148827122018
0.347340405561345
0.31642784034343
0.268587132601089
0.170892591344796
0.079036055096383
0.0046204543730152
-0.139008717976996
-0.346167403220873
-0.49241385969975
-0.545258815452304
-0.573221552620628
-0.573719178899326
-0.516003129318547
-0.464079249481991
-0.453418487101228
-0.383287963005761
-0.207119870677505
-0.059051320202744
-0.04202935443507
-0.0838679287740138
-0.125975691579173
-0.233231829999567
-0.401263408325676
-0.474953209560751
-0.36338775762619
-0.167894515638181
-0.0488487239341022
-0.07390991174487
-0.174448411133238
-0.200623522222802
-0.0912239610722785
0.0367114349590322
0.0775141015768203
0.114056539700365
0.261501403082417
0.470901798561415
0.623512832056708
0.671784767456192
0.604354065168865
0.433768488352349
0.242247834628622
0.0923447261122758
-0.0411962450020465
-0.126481948506187
-0.047546496292598
0.140359196851275
0.18596844530838
0.0102630674960985
-0.171464935809558
-0.180709518318739
-0.0568308044189498
0.10612891088376
0.234675355461748
0.226067544393887
0.0644858263298383
-0.0868119476272664
-0.098462758960407
-0.0575682121607297
-0.0820128289687967
-0.120526390311985
-0.0916841303780168
-0.0524556038154964
-0.0967383889104336
-0.224498748852185
-0.362039797657407
-0.38822627378768
-0.192915787174053
0.155275386098025
0.409129015355507
0.419134670808114
0.268640094099501
0.0959126083686714
-0.0335867823871693
-0.0845686242781185
-0.0677861736157512
-0.0616631113083768
-0.0925575633426511
-0.0909186563968134
-0.0364642892965617
0.0005799478447875
-0.0119495767247221
-0.0546705751881978
-0.135138694386599
-0.23812931609584
-0.301793261775979
-0.343483968017529
-0.424523257466056
-0.442529330424301
-0.234965747522734
0.0866709762412921
0.22646685273266
0.134105303326707
0.0364332103634203
0.0681409772657356
0.154500613431083
0.209840533978084
0.211417769275643
0.145355363967641
0.0609214222103917
0.0756108542010777
0.203704230738733
0.332043856355086
0.431576196320242
0.574357733295926
0.708541890863514
0.679544196579704
0.492743303233115
0.308081566616446
0.189419815292306
0.0629316743365084
-0.125727385050073
-0.362348479822476
-0.611378385345954
-0.830795849238824
-0.985202952842168
-1.05044813800958
-0.997189500764413
-0.845554222873746
-0.708316077308927
-0.640248532018836
-0.510646873457038
-0.201900869744172
0.179456897258338
0.483069363244343
0.741424042536298
1.0224572453214
1.25111082013619
1.33996163870981
1.29399440821285
1.10658814172439
0.784038191227628
0.482748079669337
0.376521018161071
0.418282491913592
0.436533530413405
0.368830855521405
0.22132215144851
-0.0439536797496271
-0.393830281428252
-0.660023137915583
-0.754287623136096
-0.782675152588855
-0.834803983950839
-0.863292243320798
-0.86438442537494
-0.964047269889445
-1.23189126207303
-1.55157738009193
-1.70863169582753
-1.54421070682646
-1.08012051866703
-0.522922307977401
-0.0689266930910642
0.25361562558238
0.474840685180348
0.563162533011939
0.531902704176439
0.495123130579854
0.512838390626329
0.546453772982404
0.595848770176149
0.68918493396138
0.774016738901666
0.815197170321256
0.892164207630258
1.01178249986771
1.0028643967749
0.772058267317258
0.461565541791559
0.237332493387342
0.138603389649303
0.167349095146489
0.283360057829709
0.33201668834966
0.208002769224336
0.0276196360360934
-0.0533146407559404
-0.0738047875052463
-0.145356016124855
-0.249702287268913
-0.323705478532721
-0.383969010432143
-0.435155565569761
-0.420902922138108
-0.342686358985928
-0.262498775322701
-0.188335424277163
-0.116455689069535
-0.10108631892136
-0.127394633604423
-0.0625969427668683
0.125753369439659
0.267402317769419
0.207221064868602
-0.0185342087734026
-0.257240349522804
-0.371931234913204
-0.325008406941353
-0.21330770878765
-0.157402929202753
-0.14364645119451
-0.0868286098373803
-0.0022995699950123
0.0285238688173884
-0.0193473791854223
-0.143853136047531
-0.321028959537026
-0.409942646900978
-0.275767620910579
-0.044272665356038
0.0308599897411391
-0.0559772919780629
-0.101856650415718
-0.0530246632468132
-0.0293412580080923
-0.0591320969681586
-0.0581790940582209
-0.0077779124486283
0.0574944513925496
0.152630633578976
0.271510321546796
0.328760114365715
0.286147075271183
0.200125303289941
0.0986709760933453
-0.0174139089907889
-0.068873647190102
0.0074333680339479
0.10937876538374
0.0870408892321145
-0.0691689083736336
-0.259284348086101
-0.375888982596339
-0.342161320283344
-0.182137762024944
-0.0309558145094776
0.0296271997292771
0.0514088220893534
0.0714382439090173
0.0514173227558221
0.0055398646388153
-0.0016815972162072
0.0250282484704629
0.0765417680987275
0.224613196140716
0.456179193201079
0.591935510729655
0.543850962758506
0.444187235549739
0.399457802895117
0.366336568240864
0.333225245573994
0.351779955627077
0.369367052156202
0.287091174118131
0.155967754957552
0.0906711013936322
0.0680456272181263
0.0097404873787042
-0.0607155006448337
-0.11979705691363
-0.235705417467143
-0.404639167916302
-0.489145559508903
-0.43034644830118
-0.308554990209979
-0.144991165216402
0.11941462739821
0.435199394962512
0.649269786153511
0.686391411448443
0.587268811134008
0.422110048761611
0.236851708026797
0.0171046940326412
-0.283458775793993
-0.618328785731654
-0.855452959462025
-0.973034800148001
-1.09129833943264
-1.26955911815458
-1.46257675393313
-1.66812119590074
-1.88581364830376
-1.96147041576669
-1.69594480751525
-1.06514293160376
-0.204681806445912
0.685313474687529
1.34472225686513
1.58214231377307
1.47782868530686
1.2837355769157
1.1407129351008
1.06652519403406
1.10510661908524
1.24848566774801
1.3117642268151
1.11791658795492
0.731599918336007
0.343441297875019
0.0396906432409136
-0.177338773771443
-0.298368489366702
-0.359626816661313
-0.434788113674928
-0.512769070372203
-0.523496425242994
-0.466759762175128
-0.385366632268635
-0.288496251051468
-0.197093459354431
-0.144822757418586
-0.0894523758591189
0.0328736385092376
0.17023761584061
0.210372001121406
0.12895389875286
-0.009567421106006
-0.106239498122626
-0.0536935381004583
0.14419473651204
0.301245116682618
0.264729395103806
0.107941795269119
-0.058213491175454
-0.272230283536315
-0.532326976601719
-0.665383615395983
-0.571641534016222
-0.357621485783706
-0.111364171900666
0.191611761093158
0.502609772996225
0.690587748686892
0.743979610198321
0.747787980998087
0.687733507922881
0.498674511377239
0.247160001822063
0.0575490437281916
-0.0641203476152895
-0.164384429936922
-0.224195757111632
-0.244812895163267
-0.301964936634846
-0.416295890180015
-0.514784637556113
-0.548688774077483
-0.517507617803748
-0.423307069926126
-0.320749932489188
-0.321115608947283
-0.456695846661559
-0.633021791585096
-0.733426555894216
-0.680166076945509
-0.451055036689653
-0.129551096136849
0.153621285168575
0.368858006959711
0.545505074030338
0.626805094185385
0.569853398154481
0.496626767705238
0.511953921300464
0.507197562043058
0.366427922555756
0.182917031040309
0.0811068644728268
0.0381428782207929
0.0145872169845236
0.0328783918042233
0.0589722161264236
0.0322951977412225
0.0134437452128622
0.0859478330739108
0.173294916001186
0.168928206050017
0.140660740518835
0.185819360362268
0.219905784953677
0.132124701330214
0.0056869189852552
-0.0214055474128651
0.0200853123903269
-0.0003665843957855
-0.134206069367851
-0.323277695601981
-0.465605042462503
-0.510235236031062
-0.526870615157806
-0.613735736637371
-0.740034415655353
-0.78681684979947
-0.69000821948467
-0.430945991141818
-0.0085994337595682
0.460580343614558
0.780041560357846
0.906221808267353
0.961995784481269
0.988670430346622
0.906755226277045
0.711108847412567
0.486731212167945
0.291127959159103
0.187167132841399
0.245019393284281
0.38478556996698
0.427198175125632
0.373193350646432
0.37989601926347
0.444820415054263
0.403408010293493
0.230862511744581
0.0628738767221498
-0.0541967999688337
-0.175316416798766
-0.277700572821809
-0.312164709622668
-0.360090921415916
-0.523457367408424
-0.739859698398994
-0.873137305889896
-0.900479952801906
-0.919397646843221
-1.06059350445266
-1.38373058178819
-1.74374780604748
-1.83660500368385
-1.49688616000457
-0.857603040596829
-0.170201821767583
0.380702755521468
0.678669675973831
0.681752678956227
0.452962355545172
0.0994985284533796
-0.253388125041358
-0.424679632548818
-0.308316193927286
-0.042943503679182
0.169435756076717
0.346027371859153
0.578180779579746
0.762714292891805
0.771931031623563
0.705630302970281
0.700275337653416
0.695399001777776
0.606948535514691
0.504111823026984
0.451803251619243
0.401521089429165
0.342185484402722
0.347833799487456
0.419113320916193
0.468637325796601
0.477731877263089
0.500990291498002
0.546641569876325
0.586664836854169
0.598335269658813
0.505196633241032
0.237773072461675
-0.0813501728397795
-0.216191116512718
-0.126854286296884
-0.0142350550229985
-0.0557213415705129
-0.242396403916653
-0.435516046925465
-0.495093184962928
-0.416514039819305
-0.345785700697175
-0.381882662016453
-0.448256109662793
-0.452991150162996
-0.425878121184669
-0.401740077236818
-0.349395464873554
-0.280170428177001
-0.235993119223775
-0.175426234145995
-0.0731706062181899
-0.0449545743587621
-0.15906544185523
-0.271336052644267
-0.245407224505472
-0.147181037209327
-0.0690762378790006
0.0133658798293494
0.101733887564698
0.124555888820457
0.0971406956818791
0.125932875253114
0.231990499292754
0.34399458088485
0.425888053563607
0.448200740883811
0.334265830483414
0.107040489767701
-0.0490922607858673
-0.0354537416918607
0.0138177589484956
-0.0454315815499159
-0.179321915086886
-0.290139497879703
-0.348087676134305
-0.376440591066545
-0.421994057102926
-0.512755126676002
-0.597797815499724
-0.60938415947116
-0.557916537589736
-0.454395594700918
-0.245220941086782
0.0422303666386023
0.249149678822422
0.307582960872078
0.326520025749734
0.379843707543719
0.425739687782425
0.452515380588783
0.469779041181242
0.403825918499389
0.228885704980782
0.085914905847013
0.0770089416595185
0.122786973623216
0.166555435768807
0.27716696002098
0.442997678080054
0.532060980583614
0.52967803094304
0.552865819643742
0.596405047408945
0.52617654166805
0.337151701115712
0.171343739985131
0.0784193272202469
-0.0351941978304924
-0.24220858871772
-0.52082828285145
-0.772084730839948
-0.837982945747274
-0.634588612325691
-0.303194275437481
-0.0960513715451463
-0.125767755618931
-0.316889856852035
-0.511139631196768
-0.558411761718009
-0.433999940222727
-0.278502034628978
-0.197270573798923
-0.105746704156417
0.087623217941113
0.308929751098683
0.475972238407102
0.622863353008071
0.746770182802385
0.759277800095435
0.664022658543475
0.555026214864775
0.446029378496426
0.324349780150375
0.273521949849294
0.317845411500251
0.305734425951256
0.146514530668293
-0.0330687114174763
-0.117875015686244
-0.169445445315599
-0.261022514802945
-0.376930105208125
-0.540196646936281
-0.813037443018379
-1.12968626917221
-1.32987042468514
-1.35720987544313
-1.25484507122796
-1.03729457565298
-0.739937882277664
-0.495234569804167
-0.415044793433106
-0.488284428545847
-0.633853472105503
-0.725397427765145
-0.608301415130533
-0.265084344625912
0.0944955267362538
0.244260224762986
0.165712972665862
-0.002244030739997
-0.125161138365392
-0.160095723309995
-0.172277642669277
-0.237300687141908
-0.302871514077179
-0.272342647352715
-0.194923827715858
-0.147185343548373
0.0089361648949609
0.445181607193936
1.01680039973103
1.40550863419984
1.51714734643402
1.47480346991302
1.3787771764077
1.30576851586932
1.355102422378
1.50881001558381
1.62060601014415
1.63396410417093
1.6262792197909
1.62900006173401
1.61531473883114
1.62835135568249
1.69353793288956
1.6679707787532
1.40463152969216
0.986120962622549
0.606597621945419
0.344049980047485
0.199061406764515
0.196762283857722
0.316922277650312
0.447357734346381
0.467250349125213
0.311241061880306
0.0097191163043146
-0.281345108863284
-0.411194048780239
-0.416579762549082
-0.436440442627943
-0.494293308090133
-0.526767774490873
-0.53340966635689
-0.547506237020847
-0.583573470674334
-0.706989884543579
-0.985957072942738
-1.34717040241089
-1.67823305711607
-2.01423838047827
-2.39831884162888
-2.70074359578286
-2.8194351763257
-2.86811330289886
-2.95030722546042
-2.98051985883932
-2.90250443795882
-2.82718365303207
-2.82204665658852
-2.81564169820519
-2.78855289887941
-2.80776044549619
-2.83259363223674
-2.72692741527701
-2.46650753358781
-2.11812478407869
-1.66144890434734
-1.03374516271463
-0.287744912159193
0.429996378295798
0.970548473500392
1.21698933218258
1.1733291532725
1.02195005087524
0.969892624850709
1.07635952508948
1.28048979405902
1.4824393145975
1.58506269320958
1.593123850596
1.62782390376445
1.72451965736274
1.75442579954826
1.66726970080993
1.60229245573057
1.64184749593601
1.70137428299064
1.74951514660157
1.86942043220931
2.05823123566445
2.2246923015029
2.36928403086646
2.54327332001899
2.7221504580265
2.90511787175828
3.18553280042594
3.57694887584969
3.94933310367474
4.22224245505125
4.42086845290441
4.51868974543052
4.46168332569558
4.34697113539019
4.32531821384368
4.34166559485037
4.21403795091548
3.92101281698981
3.57704749374378
3.19381373729153
2.67235148825859
1.96172966778936
1.09566253435147
0.153323038183739
-0.764020799713132
-1.5949155169065
-2.3388233183334
-2.97141207521707
-3.43620389802162
-3.75761959474856
-4.05714702027644
-4.47417366742556
-5.15426711333746
-6.17633972202756
-7.34634022561959
-8.22286873450998
-8.48634967212254
-8.14610050804356
-7.38308747890725
-6.44118850276472
-5.63513072714505
-5.14286847685776
-4.81101273374262
-4.42081722082232
-4.03906279723897
-3.88563003283615
-4.03458937304648
-4.43617279388744
-5.00148717469242
-5.4806482913329
-5.48691507578054
-4.82619364049843
-3.65746452577287
-2.25764157962207
-0.800260288489566
0.610294052666673
1.87883343028762
2.92517745465665
3.6517400685243
3.99334924564504
4.09052167144784
4.25564516744324
4.67038617701571
5.25308763853281
5.83754042139427
6.32353492385328
6.66986743916331
6.86248785017957
6.85578466890624
6.53807523787713
5.88821400607448
5.13937028087332
4.61232450080135
4.41510079869499
4.41903265014879
4.40986725693472
4.16804815074551
3.59210851288784
2.84029805639092
2.17768356627082
1.68252943555651
1.28500884954432
0.973999928922576
0.735615882032869
0.467032151609042
0.174241977166113
0.0319698827628905
0.0705812684503767
0.0760676307198517
-0.0590076633990378
-0.188368407182347
-0.235029724571463
-0.355700077161985
-0.670416049474176
-1.09738928990911
-1.53318913515838
-1.96621361250702
-2.39102315487328
-2.8017696846649
-3.22608561625422
-3.62638253095923
-3.88522162773393
-3.9793682153264
-4.00814667879306
-4.02121618531986
-3.9943620921452
-3.93488720371378
-3.83156783722544
-3.57920112775025
-3.09976264773509
-2.45318314152687
-1.76814602703231
-1.16854868947554
-0.738677362923893
-0.432340471783685
-0.102864305273858
0.269692176189051
0.529872458630827
0.592529338261649
0.534883419919531
0.428291680326205
0.320750668606594
0.347590485391677
0.59456222786321
0.918667293304458
1.13265029963227
1.255045750868
1.39935544714164
1.56785040308477
1.69758776822093
1.75926313714738
1.72373341976162
1.57978311451887
1.41237234352952
1.30593942578378
1.19967204659478
1.01430246123986
0.837488463934215
0.775182019861823
0.725866782622256
0.511627975473884
0.128180751981623
-0.293464050688678
-0.664471757260158
-0.981898505265554
-1.28365298892689
-1.57585548515082
-1.76031094662826
-1.71776680589694
-1.48401600211892
-1.19883038339961
-0.898063786348003
-0.535966591772342
-0.148959889920443
0.195217002057661
0.505275905894142
0.75694790566579
0.840001789286561
0.750880401110006
0.634499587108857
0.549355807619095
0.421627650182152
0.254683177473262
0.145483024578827
0.128762018509581
0.208345490818206
0.426173187904373
0.722995652088309
0.9022296213971
0.88143400688424
0.789795790431229
0.721227798794914
0.617425067609546
0.46618926100923
0.362917639255252
0.300309197331524
0.125749706379144
-0.241870928977568
-0.727933825624419
-1.20536653755141
-1.53731286153145
-1.6186326282489
-1.49937856393711
-1.34693100494343
-1.23612325284334
-1.12611659725485
-1.02698154334251
-1.0148043752722
-1.10916570735776
-1.24907129862978
-1.32609078263593
-1.20763139554946
-0.849357015717915
-0.380856724163522
0.0359790752625229
0.362763896811502
0.608166542704051
0.758042193264682
0.873941548724937
1.05988495992775
1.27743205680827
1.41471921912016
1.51690302491252
1.70033212290992
1.92499947348113
2.10382414409299
2.29846797309525
2.57103024582747
2.81304498175471
2.92732623786215
2.99335714135149
3.08015001473853
3.0844537281635
2.90092765743389
2.58314116650744
2.23885858780948
1.92213207294319
1.65800380155473
1.41138466343633
1.0532640685886
0.505215552167755
-0.140992042810231
-0.735716814497226
-1.19725667788389
-1.50381515804846
-1.70475675350232
-1.92359206847827
-2.22791993628966
-2.56352207512569
-2.88735050079522
-3.23997179902965
-3.65710047444872
-4.143912424822
-4.68250658689344
-5.11526183106162
-5.1591440794011
-4.71231935411222
-3.98524798109897
-3.2046931075762
-2.40883700147027
-1.6076202995782
-0.874098131857638
-0.241745267322268
0.230730294523693
0.356270381934281
0.065002422413506
-0.351892437069146
-0.514429755047175
-0.360907008559978
-0.0849443997832343
0.182086749455111
0.451707241242943
0.78286332126089
1.22828326718254
1.74355596553939
2.10039356598
2.05550240684876
1.62395515077325
1.02828790996608
0.423454170460666
-0.15565987721308
-0.648684705339142
-0.939874990462278
-0.93825352175692
-0.637533851160327
-0.158961765526433
0.301978490882579
0.648067417409068
0.911425986284484
1.08404692471102
1.0965048318112
0.986053908014409
0.874253681591462
0.782586000095425
0.671733184054427
0.595743880426914
0.623969850531032
0.728426282191421
0.8941058702053
1.15047471350562
1.4030302337683
1.50667239021096
1.57124878030043
1.89252176150222
2.54786135338916
3.33829513101828
4.09917459464608
4.80667190968352
5.43137272294574
5.89032984769069
6.07792162131505
5.84154930943566
5.06539384134042
3.8527614373884
2.46683436228851
1.06975979320599
-0.288834091541943
-1.46818043748082
-2.29582700053052
-2.83322922523595
-3.36667007335728
-4.1459704476872
-5.2280968663948
-6.43930407423577
-7.3886317673484
-7.66897343119583
-7.136393378801
-5.9423837546908
-4.36097236953263
-2.66519285655178
-1.05779795241411
0.359260031361667
1.49213026411134
2.21611981585682
2.556488261432
2.74164441749134
2.90832490173216
2.97025723501054
2.92722716970336
2.98745542293172
3.1855192138627
3.18349212302456
2.63290868834509
1.49857040877009
-0.0374105174192724
-1.75306774438694
-3.45904233031291
-5.07031874930539
-6.54892706317484
-7.69921683499946
-8.22186916517337
-8.07851161357783
-7.57314330732402
-6.96679572793403
-6.25530427840371
-5.42909803193545
-4.69821522981517
-4.32426782461314
-4.36700342127871
-4.59741924911184
-4.52863509436543
-3.64021128156123
-1.75938166680404
0.823228335583871
3.63375540184175
6.26325599170121
8.39706113105396
9.85299737222601
10.6239087857206
10.7913719971275
10.4829881194594
9.93450161223204
9.38296715743143
8.83488235257171
8.08997493013539
6.964470162499
5.37805782096522
3.39426899895189
1.33710469772204
-0.343355662087714
-1.46648663551903
-2.18002054192933
-2.61509051770685
-2.78903204617412
-2.8248379272002
-2.91649682489398
-3.08096785267896
-3.19810526417507
-3.21398500345202
-3.11882265257207
-2.89398598360181
-2.64566309295379
-2.57584644589673
-2.66819855119029
-2.62900001948216
-2.26515322997261
-1.6907124668389
-1.07999871605394
-0.475273979738808
0.0809488754006695
0.445009295359311
0.476568149544059
0.14059512558335
-0.467251098079882
-1.13808300345922
-1.65141651660508
-1.85642792997016
-1.61818713646747
-0.824084379623859
0.458884480672238
1.99094812275112
3.59367983898586
5.20201331846308
6.67726813951749
7.79503415721636
8.42051512897042
8.50291552510651
7.9511951620984
6.69659075514685
4.82583894576625
2.58944767859392
0.403513287325655
-1.20980120111497
-1.9506694420269
-1.99958836107694
-1.7596556796991
-1.48337298290049
-1.34139563617754
-1.5782729024808
-2.28858479196389
-3.25132778357085
-4.25900436959471
-5.41532708925098
-6.8722304527486
-8.44868845447079
-9.69288842869654
-10.1611172689508
-9.54347897458736
-7.74461190994259
-4.98634574481496
-1.74140683740221
1.43909393145818
4.00237750379209
5.49121639129514
5.73876489367504
4.89731551937608
3.24632021093085
1.08147293728358
-1.25548946101596
-3.39847659105833
-5.01867346597171
-5.86987156296411
-5.90269480971274
-5.32091906570999
-4.38004039656494
-3.20730438756735
-1.95065111668148
-0.890806266914984
-0.199340908458195
0.182847155106299
0.255294780419363
-0.162536518412263
-1.10464692466283
-2.27699860148247
-3.24744050269721
-3.55130026500342
-2.73160804197445
-0.699563138269083
1.97179830930014
4.45838465791566
6.37707892032867
7.85648402918123
9.04151520025025
9.78848511867181
9.81418657246762
8.99292409055048
7.53392538838304
5.89795745481309
4.46701124408882
3.34030615406339
2.52636018311756
2.15605853655468
2.33990449970762
2.97324712704929
3.81153561207461
4.59449173392247
5.07219031939604
5.10323343219762
4.74124173325979
4.1050465681311
3.23691648088241
2.14527809123395
0.818089941823546
-0.825625273588001
-2.77099738786401
-4.71553224751266
-6.29813073118063
-7.469086131149
-8.40255315213178
-9.15645986686003
-9.62520418390675
-9.66788981714963
-9.12819004929684
-7.93225373799005
-6.27927398745767
-4.53878686215392
-2.91700633135707
-1.37956321292252
0.162693656924334
1.7329651939663
3.19820202370843
4.16767588761365
4.22472863205676
3.44464982231744
2.44810581748224
1.76858331752621
1.40683459409333
1.14479168684422
1.00575223448699
1.21853997288747
1.92876235320211
3.06368571746008
4.34513472893153
5.388405603308
5.86126199287807
5.56974756847548
4.47777755308548
2.77127308786427
0.818287322469509
-1.08327163943334
-2.85613054140697
-4.50854531401544
-6.01736101553535
-7.35588193300028
-8.42446595334185
-8.96508635960196
-8.74768649036432
-7.77982950442909
-6.18293079957491
-4.04191999389457
-1.53678534604488
0.99808786415309
3.24533270443341
4.88145290587956
5.43108677347528
4.58504372385504
2.70182383628898
0.599890570487
-1.16906969936371
-2.52273093157036
-3.43088028300093
-3.7390560375803
-3.45504891404608
-2.86718257707313
-2.24156200303368
-1.5354151644924
-0.454773080499636
1.2335177689551
3.39063601267948
5.5072940828042
7.08907154775676
7.96909476239224
8.18608717887149
7.78311524276945
6.90195383672776
5.87233550173645
5.00502418014401
4.38112459668508
3.88266928123212
3.29625321127298
2.41057901897541
1.19010101317831
-0.13059457643836
-1.22684244205
-1.98874816497398
-2.67521255548008
-3.77438436477898
-5.57000409538352
-7.76956683017136
-9.73053868771414
-11.0857111340769
-11.8881162304152
-12.1634222979089
-11.7268021719537
-10.4982169898172
-8.62736896440492
-6.27909727966023
-3.63405271562208
-1.0918085432599
0.85673296799944
2.02862187198134
2.70408407723748
3.43404685606289
4.69107638998084
6.46692287801443
8.15072280969587
9.07697366210466
9.24350036246063
9.1818275399145
9.11554454790262
8.64494927087636
7.34352692062213
5.33945723084866
3.22542824312515
1.6173912702617
0.850182577564455
0.94515066334869
1.73481219831527
2.9275689521889
4.11320612115665
4.9643829048834
5.50996814240031
5.97747313859205
6.33741430256507
6.29222490983022
5.72538393764342
4.84814435850488
3.90058221150574
2.96756773287752
1.99878408927808
0.749732306633302
-1.15997092718636
-3.88006710856896
-7.11568167518983
-10.3763858630445
-13.2967060402587
-15.7268863667971
-17.6979914580019
-19.2240410889298
-19.9697668632259
-19.2865276400831
-16.7721883458984
-12.593907468593
-7.10459304448903
-0.485378411963497
6.90500608584432
14.0451613361704
19.4484283110632
21.8632664187363
20.8549843345606
17.0176169169982
11.7086431833074
6.34869721912086
1.83470010848161
-1.49611072300145
-3.68782487415261
-5.13386068123577
-6.41445155315391
-7.84703667283084
-9.2065148055038
-9.94301810796093
-9.6589243661687
-8.45073944452862
-6.83153641022389
-5.23543473589646
-3.64783929966467
-1.86937776943041
0.0081155820217632
1.65390978391628
2.88044326131851
3.69149128396263
4.09167177834732
4.09514173779201
3.78474944215216
3.1926672688547
2.26437821551216
1.01428912495547
-0.434822493373745
-1.94918472758138
-3.35409682695021
-4.39185584439861
-4.89962495252577
-4.94031080210985
-4.61832444173427
-3.92666853751614
-2.91558141387982
-1.79010550023919
-0.659009827958481
0.619925886814071
2.21355700660348
4.11659408834943
6.21324740332763
8.29166367960877
9.9769777754371
10.8965743155868
10.9728487693329
10.4310302343742
9.52115046510109
8.30326914596924
6.69962903340027
4.74276157944756
2.72168108122893
0.967270743205908
-0.470087503669418
-1.753383023604
-2.93213747977505
-3.91566817962545
-4.69490354431317
-5.31394466265357
-5.63994620294327
-5.32297219657817
-3.93925867938729
-1.2282456057133
2.51421547937894
6.30007863103353
9.08479469665421
10.5454211277099
10.9061118513053
10.1411444409538
7.8643999156005
4.06160522691698
-0.441947588526238
-4.38697041129654
-6.88664810576439
-7.95823166620659
-8.41568814069496
-9.13705020107617
-10.3251811157057
-11.5452847531101
-12.3857486606691
-12.8102003928431
-12.9166590755426
-12.6823862200649
-11.9822065064642
-10.6508021957739
-8.53287498415903
-5.58912020403378
-1.93170679134153
2.20781358551336
6.41689071355434
10.0922756913268
12.6928041603979
14.0054284432273
14.132710237662
13.3498574252133
11.9907682511656
10.3138520793341
8.48561448358128
6.76691104435718
5.4833892526165
4.60780246322235
3.64165064950231
2.18728774368821
0.432301587342754
-1.15014768826282
-2.41042815537582
-3.67803114766496
-5.37597612343888
-7.47358512016409
-9.32874409323174
-10.3255232529876
-10.792609658157
-11.9745682333175
-14.8120851022629
-18.8783251285501
-22.6208709264922
-24.4266893183813
-23.4127861232987
-19.6379644721642
-13.947946215814
-7.54957284052576
-1.52492613819897
3.40588597551559
6.93295917259698
9.18506021338085
10.5989231059571
11.6210271570316
12.5494381857849
13.5210229373858
14.422648976712
14.9465407737
15.0109603389452
15.0386616920029
15.6352965363042
17.1274553779425
19.4984047094032
22.5000768099201
25.6589646267328
28.3377060778078
29.8636061095629
29.560621094148
26.9037636675248
21.9261660734287
15.3690556812933
8.30122978305398
1.72547207103782
-3.55742108108048
-7.19542345926478
-9.57042671171455
-11.5281508095039
-13.6847367053533
-16.1535163180886
-18.8791485501223
-21.909248682196
-25.2400585568044
-28.5733070346884
-31.3157519573786
-32.8129872294387
-32.6707097670888
-30.8962596223526
-27.6779046285475
-23.1355735953064
-17.484543717039
-11.3605336345275
-5.74861078701779
-1.54085504314408
0.882026459261602
1.83976544284618
2.16461221694607
2.59507071530746
3.22080586596825
3.53946489875025
2.99775674334262
1.47625367872442
-0.550358218306413
-2.23057670784486
-2.86075553826714
-2.26691259259279
-0.654576053013008
1.71579741260203
4.54744173400212
7.4680758549058
10.1829273291041
12.40584137779
13.529329606687
12.8066398424228
10.1536694782521
6.54196918164042
3.44727563118523
1.99868000912774
2.48326944587009
4.32424563283095
6.58127287554569
8.7386463886222
10.9674207162449
13.497818161032
15.9784583554723
17.7113894621062
18.3438690638891
18.0962372024326
17.4198225891713
16.5617895671036
15.3825357557665
13.5768704861213
11.1261792842519
8.440078261326
6.01656128368212
4.12774280085852
2.81890106482689
1.92837218449976
1.05526682551436
-0.245585496324206
-2.13775113854066
-4.41695464593368
-6.67789390689992
-8.57661204117479
-10.1345713202632
-11.7887126674641
-13.909431325909
-16.3004456015246
-18.4016295034567
-19.8754600957148
-20.7326764539388
-20.9901196748512
-20.4397414114752
-18.7228260078514
-15.6298238185963
-11.5201835166091
-7.42135119151346
-4.4404792623814
-2.99842211494481
-2.68629453504666
-2.681434304049
-2.1585691725339
-0.638743517579076
1.61966537823692
3.64157211606549
4.45527742042116
3.79969180542765
2.06002533952366
-0.230464777325058
-2.61362502974213
-4.67615774409619
-6.13468876924971
-7.00649977425218
-7.60827882350109
-8.31383508713808
-9.26307043077263
-10.306648062234
-11.1661566433014
-11.4538323083463
-10.5658289925272
-7.94036743877088
-3.62211410545289
1.6094850769992
6.69022937492295
10.6688597160043
12.9109134979016
13.4318928364458
13.0213410649567
12.6692728596683
12.8565669974196
13.4786475917162
14.1314438645553
14.3003869855081
13.6559453992552
12.371478963626
10.8992126683644
9.51400448698842
8.51616111025469
8.69106597502942
10.7996490457844
14.4610110933075
18.1274680630207
20.3788026447739
20.8550210117013
19.8878402830766
17.7666372320205
14.630629314842
10.7636423123453
6.68772757198533
2.95104681416473
-0.124943539025357
-2.49770417224387
-4.30902937580675
-5.87559708770857
-7.67600432897238
-10.0636606795377
-12.9684890675239
-16.06446164531
-19.1318117733248
-22.0321052198469
-24.4844651990294
-26.1342889775901
-26.7376816367265
-26.1250674966985
-24.156137771263
-20.8564971379065
-16.5299083729894
-11.8104348408039
-7.69020946610697
-5.11402900430744
-4.12044202055119
-3.61027941088225
-2.35399835229418
-0.054081177449873
2.79750919176973
5.71366934016102
8.47585573492326
10.9109572070895
12.8895914336008
14.523421694441
16.0422873388902
17.3449856629438
17.7673710683815
16.4540943922192
13.1025162206266
8.3443205869806
3.27204991166196
-1.37353660285172
-5.37842347768828
-8.58590914239512
-10.6774396014388
-11.4514667489354
-10.9733387334711
-9.40036763221327
-6.92927922963831
-3.94647223984627
-1.00097133381846
1.48888788994166
3.48163695312516
5.20426174144231
6.68514253459317
7.41548015401739
6.71683937283951
4.52951685620652
1.60726125784749
-1.15909311938055
-3.41684245016224
-5.33602556221906
-7.11936235295748
-8.50635375621067
-8.66832837212181
-6.84813166056966
-3.34952767023467
0.371983835137834
2.96075069202183
4.41748051951204
5.86826581531535
8.0849275721832
10.3521426816634
10.9067557333774
8.61438369842108
4.15660935668607
-0.646929695294815
-4.54059412211462
-7.36336405070588
-8.97206096300971
-8.54181008574043
-5.47894465906502
-0.55507308478806
4.39620109503273
7.80050368937845
9.25146219146967
9.39302601467069
9.09112140327285
8.66155367457418
7.88615357262117
6.67452572264212
5.42823703804016
4.6989566401489
4.67893907719485
4.99605667481386
4.82772242246854
3.33721040459221
0.277991758858048
-3.7653589772842
-7.73423540797384
-10.6367224801319
-11.9100498971658
-11.6052605873979
-10.3027405648779
-8.6768214849093
-7.04163767629284
-5.21295597852787
-2.66406552867201
0.979746125083085
5.16756743008267
8.24737758472791
8.6764975187686
6.58180788362505
3.6923007323614
1.59870798182087
0.492460865789201
-0.298094794162938
-1.12374353848435
-1.77791882236119
-2.12252131759251
-2.50032937742078
-3.4959052960712
-5.45580737704243
-8.28880230477502
-11.6067659305763
-14.8444395574635
-17.2431109379568
-18.0820587904474
-17.1855809310048
-15.03744959764
-12.2779916450673
-9.29818424646217
-6.35891411341793
-3.73945665320883
-1.52177662010729
0.639417692411777
3.32453353412081
6.77730444912842
10.4091946082732
12.9787921414901
13.5461333772989
12.336973328974
10.5936771907061
9.65465399535726
10.1688289543158
11.8168093530399
13.5189905919288
14.1597187298696
13.3821965058773
11.6552041173659
9.68204992467989
8.02268780367464
7.12866861223387
7.23674621914055
8.13168264939418
9.33152667922562
10.5504539223007
11.7353874875314
12.6850737030822
12.8908192414354
11.7602319978736
8.95872988792234
4.78592693421087
0.276856929222885
-3.53770393760023
-6.73039068840547
-10.4407035817879
-15.4368527781387
-20.9721361882102
-25.2818850405289
-27.0074886903296
-25.9880019090278
-22.9135285504274
-18.6118432108207
-13.8354516740534
-9.44665661345049
-6.27613409168248
-4.6195372638947
-4.10958229177074
-4.09923224241418
-3.90846053951826
-2.87818356782825
-0.760180458614682
1.88354496257913
4.1255192651308
5.62629574687027
6.89090824730181
8.57948040048633
10.7293532465482
12.6269453643518
13.4323360328564
13.0206050888317
12.0572543930236
11.0166317421505
9.35574782131496
6.07849916820657
1.0367280754249
-4.68373252024471
-9.57726638931437
-12.5921037392861
-13.3871178191899
-12.2655069272623
-10.0086433195783
-7.51630736572772
-5.37991075437793
-3.67512184872644
-2.10882450930481
-0.470177413273352
1.00254230199306
1.84385053509631
1.91797947726534
1.43858600385681
0.423895546260801
-1.42704625312458
-4.12621998242994
-6.9625866655321
-8.892004399445
-9.32345569191114
-8.56784964262379
-7.57589491479072
-7.08622763333392
-6.94269047572659
-6.37652562397536
-4.90490841815723
-2.68359023720571
-0.0444236327394095
2.90954284326372
6.13176459481585
9.31599232928688
11.9318314286871
13.5489901869509
14.080472206541
13.7389005909098
12.9214112799344
12.3314553474249
13.0570813162831
15.9881929322931
20.8491371467996
26.0615625547359
29.8029213630575
31.0228436733889
29.4338421566436
25.1215336509
18.5988229047685
10.8996536094992
3.17872175754909
-3.75123041969059
-9.46914656895981
-13.81843147866
-16.8478339996452
-18.7042172529479
-19.4841032447777
-19.2031552366118
-17.8959054711384
-15.8243815554835
-13.6992016441776
-12.5093192317122
-12.7660613108391
-13.8036600024915
-13.972894665928
-11.6989380299099
-6.58052402973229
0.324947970177101
7.28699705766793
12.9615753843613
16.5067628713932
16.9387699250052
13.3486769853728
6.2540734237021
-1.97152405805331
-8.7445155262223
-13.0925386984794
-15.5306843103206
-16.7207542933321
-16.9401698298045
-16.6292553592879
-16.7171743467228
-18.0698864044775
-20.7019233715921
-23.6331810159788
-25.5409548479264
-25.5215166353583
-23.2556000091571
-18.7978156252196
-12.650763710547
-5.92210067413131
0.105382238541205
4.64211184907451
7.40080030017917
8.17797197812165
6.96429962280401
4.52457795633478
2.46847086170797
2.42356141656391
4.96841679573246
9.31257397010476
14.1508386378978
18.8806961657177
23.7013278080642
28.4527045342024
31.9526796654423
32.9830522971262
31.6116362311762
29.0439685251776
26.3117936349853
23.4877228795227
20.1253543932797
16.1049522902973
11.8334238891143
7.71300114419776
3.74575994727682
-0.136985816950926
-3.62336832424535
-6.27294422009717
-8.08902381288022
-9.460138387157
-10.61910122708
-11.5610655842167
-12.4547695031481
-13.7121260022291
-15.5654166508723
-17.7759656962944
-19.6608474596454
-20.2204107595121
-18.5041055126303
-14.2223516778811
-7.96705745283898
-0.726090928941451
6.65991701841701
13.4943669921066
18.9321309478952
21.9580000918743
21.7809122434355
18.330883661165
12.4303074562661
5.53147325718814
-0.734678217062496
-5.08721641155598
-7.18658674414379
-7.78046760031942
-7.9418856149687
-8.17689148066398
-8.56253882915205
-9.4505680688698
-11.3313039776279
-13.9703785530376
-16.1665906654333
-16.3995478931704
-13.5480727010538
-7.39566659819851
1.01235735859253
9.61965005422655
16.3505037268821
19.9705827230197
20.2273279555254
17.739700597564
13.9021436184869
10.2749487145992
7.54461909775913
5.20756359920737
2.43984948927488
-0.943395453655432
-4.49620727242429
-7.78186605295417
-10.6851688934176
-13.1424387430455
-14.8746017250375
-15.6026468552829
-15.3860960755446
-14.5258914291337
-13.3589713503927
-12.5187713214838
-13.0483373485473
-15.4683885983278
-18.7027500581355
-20.6049874955221
-19.765033067806
-16.483114141591
-12.0615611827234
-7.59690982257127
-3.49015070967517
0.191348889106588
3.09287808033903
4.5798824755319
4.61008337204224
4.25868736838666
4.81694745510864
6.55174452769525
8.87082461206264
11.4156325313117
14.2700412591811
17.1817716454873
19.2803272426879
19.7552556808845
18.4775679219428
15.9054905208255
12.6767404221713
9.37211558697783
6.47582262758447
4.38647246850967
3.32181346853959
3.0970274719683
3.08559884100315
2.58405467666203
1.27036447170327
-0.617191614214582
-2.38524162967672
-3.25545360444991
-2.93274274366149
-1.82939666025219
-0.533037572818253
0.892603022288063
2.91187327554593
5.90271247305842
9.62413944810058
13.1705049618834
15.4380334747214
15.8437426309836
14.712207400407
12.9991931341697
11.7271018838092
11.555006159372
12.4957596712669
13.9293610088101
15.1247668899401
15.7667726707479
15.8321249457524
15.1772684593127
13.5508263883481
10.8514190310644
7.16720428432546
2.76145640254294
-1.87336815841289
-6.23216010265635
-10.1546928379728
-13.7019225128809
-16.7468669022584
-19.1279920465875
-21.158085015606
-23.3953047557054
-25.7740002890382
-27.4493022280799
-27.708148218927
-26.7368930332089
-25.3982902109399
-24.537373254601
-24.6067541708726
-25.6382405420117
-27.1381731393335
-27.9423505536363
-26.6746660227949
-22.9092170878209
-17.8083593970689
-13.1871854641077
-9.95271074287395
-7.67887371824204
-5.4347428599853
-2.67151110773543
0.374726847733653
2.70318479239263
3.23594702493974
1.88962405249114
-0.243598216364544
-1.97781635882189
-2.94653278949205
-3.31447786615823
-3.10976745047334
-2.18613094976497
-0.565108497780852
1.46525630060732
3.55661147528505
5.60932997440702
7.95695249013364
11.1274092804404
15.2440564593522
19.7228605106257
23.7069353443408
26.7294036600475
28.8066049124448
29.9926441346633
30.1189999233853
29.0664916079283
27.1172859059262
24.7926484607954
22.3136367830771
19.5092141447838
16.4715729424418
14.0187240303796
13.0882975317161
13.7341823825105
15.0129740085621
15.8004199150625
15.5313011654958
14.2913244808361
12.4704034378422
10.4092517516632
8.36196410199551
6.67790647798864
5.66990183231789
5.07858113181118
3.90935929299207
1.12102177514619
-3.49390811406482
-9.06782957051406
-14.1323783777895
-17.4986326568048
-19.0840176544707
-19.9681171307953
-21.4826277020488
-24.2493931683646
-28.0421157634955
-32.2056520821489
-35.9706239820503
-38.5688050679123
-39.3245201998882
-37.7743318308891
-33.8715427534555
-28.1271932263091
-21.2798363364191
-13.7379929546363
-5.77839811330792
1.61520573778944
6.94533114779723
9.84588638338033
11.9729604042261
15.5528248642332
21.2292199831996
27.63050222949
32.6912064609987
35.1189687588313
34.9425056829446
33.0862037432681
30.5360656457925
27.8589236157528
25.2409071309849
22.5265759212635
19.1237945068429
14.267487227716
7.66933560762451
-0.120648239792103
-7.98675888776127
-14.8461520456479
-20.1750979666523
-24.14508386618
-27.2171176051794
-29.614017892178
-31.2807640335048
-32.2028384375602
-32.5157960624149
-32.4085566214604
-32.1411993413449
-32.0271328714591
-32.1589962192157
-32.2262135778435
-31.7607074425898
-30.4610945039656
-28.1465961949852
-24.5429771310043
-19.3388952592801
-12.4923032261692
-4.46765589168636
3.79810579461947
11.212479812933
16.8767429901259
20.1422589612549
20.5640016862463
18.2150783533573
14.0588277177906
9.60258680451305
6.05059349604345
4.00977956088303
3.94919833048934
6.50981936915303
12.0760540937837
20.0343099864732
28.5985027920978
35.7185498025139
40.4923516032152
43.5756874423505
45.958063737556
47.5589822060668
47.3736635165313
44.7707066657421
40.2055082698296
34.7285974427935
29.12129703418
23.5405285794584
17.8605032538759
12.25431961249
7.28528101218413
3.37427111297435
0.408035075235157
-1.98310521458183
-3.99166253257837
-5.64871623799387
-7.04950334080989
-8.3781726553439
-9.89205165020168
-11.9785822308992
-14.894622116935
-18.1947334055501
-20.6753240142966
-21.2310210925614
-19.7695728137179
-17.1810711948285
-14.4751536489648
-12.066718320969
-9.89359944590638
-8.01792059215366
-6.84016340518577
-6.77606313428264
-8.05974309335511
-10.8327469662303
-14.9470806163226
-19.5833216518705
-23.5419027186647
-26.1115240454623
-27.3540294363218
-27.5130351793212
-26.5299592012907
-24.2640587279347
-21.0086584008186
-17.7788028758328
-16.0569680645567
-16.8895312700432
-19.985721291394
-23.8574960713257
-26.8988267321722
-28.1677892122181
-27.3032961260781
-24.2092757387502
-19.0499114508156
-12.3940711753275
-5.22614926731106
1.29535990366893
6.35171777843298
9.91270132341679
12.5656019099305
14.8268606088067
16.761424315312
18.2493304042366
19.3339724319195
20.2558428782595
21.4054647231074
23.2763854931322
26.1698098992355
29.7546668078707
32.976205090098
34.5885424154703
34.0485165049901
32.025193296816
29.8646886344446
28.3788516837239
27.2147006876595
25.4195847283262
22.4531138475678
18.5890906207737
14.4077479190679
9.9263394961308
4.41586885079006
-2.55182875220862
-9.92401635715738
-15.555529264586
-17.8978064136367
-16.938247441827
-13.6265208533273
-9.06546949877324
-4.30717650807561
-0.255254591308186
2.57963093091243
4.16040322609742
4.95166125951263
5.97750157598044
8.30255313919351
11.8889444719089
15.1123683275609
15.787331982727
12.7562719779711
6.66727678356905
-0.333657142462124
-5.596685929147
-7.21029345202398
-4.83555071927154
0.337361604907192
6.18127237337075
10.3476521162527
11.2116544969659
8.74945758499817
4.35973499545841
-0.436794677254694
-5.02495263966333
-9.49248175687152
-13.8774210889461
-17.9503438117345
-21.625116980844
-25.2824740732226
-29.4544827724454
-34.1500151178066
-38.6750387425358
-42.227774798517
-44.4783315210481
-45.4587241438207
-45.2113971524397
-43.8640295239236
-41.9192793115523
-40.1721060723331
-39.1263730382376
-38.2592717010621
-35.8612288965957
-30.0861073851985
-20.5352792048695
-8.59513058308244
3.9264301168726
16.0930493646357
27.6560975396602
38.2733463945704
47.4693829129086
55.0249610061743
60.8638000118305
64.6211582199446
65.6177159723983
63.2742994243437
57.5654146433356
49.2407989216013
39.615433538055
30.0117525082979
21.3848575878369
14.3605351552589
9.24998274315938
5.82871480579098
3.30139040293954
0.708230644757695
-2.51040107634691
-6.15523525987523
-9.3704842404767
-11.2732838706011
-11.6333599632812
-10.9158919500762
-9.73822739508952
-8.45789269370232
-7.26412829895358
-6.52219805559617
-6.92910844142652
-9.05404315363436
-12.334829953963
-14.6888336851883
-13.8521914349035
-9.50066598332049
-3.82525053070579
0.106225462721675
0.411336990168876
-2.89515479889477
-8.48513270646249
-14.5610049336321
-19.3390058676006
-21.2275931565938
-19.0718754559436
-12.6715114443679
-3.19801250379134
7.09471246670105
15.7829613747234
21.0822231514752
22.2057910192529
19.4589258554619
14.055091035746
7.53856653919652
1.17199100322146
-4.27737801139484
-8.43852354332886
-11.1748235229556
-12.4189801722188
-12.1415127642531
-10.5935331834832
-8.56230071979667
-7.23053009927288
-7.62937291365502
-10.0441146306559
-13.8091587738933
-17.7326990118822
-20.7884189697033
-22.3254587499607
-21.7688966186218
-18.6532963315278
-13.2073841012782
-6.55964406932165
-0.0787385921543939
5.39166956347136
9.75194891120304
13.5467591979391
17.6914898720769
22.7622584191607
28.1394820672012
31.9457189248784
32.151506289556
28.0212496554693
20.6723972362426
12.3042480632188
4.82902464291941
-0.878383776631558
-4.65430708648586
-6.45214208078881
-6.42717424710618
-5.36623474038925
-4.41633391810538
-4.16168383499009
-4.21782962121887
-3.86240099318247
-2.92869153283764
-2.02976536502265
-2.00085588774954
-3.20402470805484
-5.3787511307542
-7.94785904050907
-10.1124157053626
-10.7498064033357
-8.8866710905218
-4.63091293278066
0.718340873333633
5.75920843163286
9.95419987603857
13.4593207477725
16.3913211558427
18.4566308299197
19.0742651070677
17.7391637610738
14.3799626246283
9.45017343913821
3.78356650533146
-1.50916006922161
-5.1951321267693
-6.39868933538838
-5.09939357104775
-2.12253433552245
1.23822578492138
3.51068622960492
3.32918020480412
0.0151516523169637
-5.83191872360884
-12.34124902719
-17.1042793399282
-18.2516462528448
-15.3538821432411
-9.56808452548363
-2.78159799344367
3.53439738391055
8.66149626626977
12.1142163221945
13.2765725627373
11.7515871964217
7.86653389058405
2.61161141421983
-2.94164016567187
-8.1259005925431
-12.6905081395675
-16.5363471982677
-19.4761813714618
-21.0928683870706
-20.8956653802974
-19.010599676624
-16.7467328708393
-15.8328576037942
-16.6377962421387
-17.4520654681931
-15.8332335751956
-10.4723645215588
-1.8489584150938
8.22615593737253
17.4044862010014
23.7014369898936
26.2069962481437
25.1455226446154
21.4943713315464
16.6226383992756
11.7902094269654
7.46706245467101
3.27367606033549
-1.12694677171238
-5.34838679245041
-8.80475889885675
-11.5306163620466
-13.8791839323019
-15.5016824146098
-15.2208280480737
-12.1536326857675
-6.71353497958083
-0.321237866145979
5.72516925012405
10.9119761970516
15.2436709472206
18.7776429967258
21.5150033041341
23.3150138516094
23.7146914094223
22.2682557142648
19.3556226775079
16.2801052769122
14.2524140024873
13.5231073390365
13.6678853098253
14.3755130829474
15.6536240007914
17.337293784921
18.5755403252376
18.0285106864379
14.8647062971958
9.56073222100379
3.42098527973752
-2.68992255320874
-8.86350309011234
-15.5218680715414
-22.6696038087806
-29.7147000962062
-35.6461352845562
-39.322220102399
-39.8261124461757
-36.7415242531848
-30.3374068348031
-21.8139126050103
-13.322474510245
-7.25534244180411
-5.14201438577676
-7.09552101996384
-11.9880567490802
-17.830575181438
-22.3197065549151
-23.7925004661981
-22.0985122923954
-18.6079266513055
-15.2996940506037
-13.5008889973431
-13.0166917872539
-12.3048783428628
-9.62656389547645
-4.2373699585367
3.10296788387579
10.3133502042431
14.9255106711854
15.70533963429
13.773572567413
11.9036255780934
12.5877387482806
16.6943087605785
23.3417507644378
30.3747742555641
35.2299141776811
36.2129269300687
33.4390049466659
28.6690620425507
24.269114792567
21.9300807440119
21.6780041719595
21.9008239648864
20.6811752359938
17.3042561536255
12.4545172583985
7.20935072762481
2.21613000850525
-2.25524864027688
-5.91393801252335
-8.31954997924812
-9.09238553806372
-8.2541643770004
-6.39692248035668
-4.48905688682508
-3.51423158708945
-4.13740664118642
-6.23938546113338
-8.51417484282918
-8.91251390759464
-6.00495594621472
-0.109475320391814
6.77227311093544
12.0290644215459
13.802918169547
11.8625941394049
7.3980049683456
2.0139505033807
-3.12592823229072
-7.62964414053344
-11.8842177176061
-16.5366852601644
-21.4455933269141
-25.2517180710872
-26.3580723992174
-24.1947275000456
-19.4269303760667
-13.4867558216764
-8.24760560837837
-5.58509256908511
-6.59000476462396
-11.0634437017702
-17.6188634744908
-24.0460734183738
-27.974602064077
-27.9784033347955
-24.2726414011036
-18.1221405245418
-10.7067703325709
-2.83329393969882
4.59745010597269
10.5373770964517
14.4149628211334
16.553551623998
17.7201282715675
18.1779812383641
17.3476760623253
14.7044675827586
10.9080277898247
7.52638804515152
5.58103774747115
4.89752256438285
4.95247883854242
5.645335275549
6.83611122184941
7.61515417928564
6.67687364143286
3.57757329338305
-0.534648589924936
-3.6436002059643
-4.47800283626111
-3.44450379740265
-1.97341597395184
-1.08238971052173
-0.616356218681949
0.370403401349146
2.62083445354354
5.77716909227683
8.29772854909663
8.52741334987351
6.06260350714872
2.03872852041008
-1.74557296870387
-3.72020077529365
-2.87893648326741
1.00328867822009
7.11509104126237
13.8183532573267
19.4459132723188
23.0804322504031
24.7809012745918
25.1778294213664
24.6248418343176
22.5662599531199
18.0337785208906
11.0772255986448
3.48727050984151
-2.26050524334268
-4.79594499346204
-4.56135856691228
-3.01401448710713
-1.44361452289716
-0.497574459178373
-0.328320089300352
-0.62292180890988
-0.505693457880818
0.932814128157441
3.57973046906814
6.05344432393079
6.81607823411943
5.33094609687766
1.99993658067493
-2.65266355044733
-8.41846779431038
-15.1744509127488
-22.4171139137431
-29.1262828581855
-34.2454384620511
-37.2639809122492
-38.0656900320407
-36.3461345067648
-31.8037610518146
-25.1357499715982
-18.3843861459866
-13.87050135246
-12.7273722820573
-14.4023523434292
-17.3905718119874
-20.4158029155468
-22.98862820129
-24.889043823756
-25.357028844727
-23.1937033124973
-17.7069286872179
-9.28054203184081
0.884005837648267
11.1290793228623
19.5103000262185
24.2968832718712
24.8111852005493
21.8518630089776
17.3025930640549
13.2268598452548
10.9472853960891
10.6317631083819
11.6977840671806
13.6379640653272
16.4621834883473
20.4357549165177
25.4160840927247
30.3230475949997
33.3603647461294
33.15469861426
29.8332423352668
24.8041412066889
19.5211869371072
14.7159346996723
10.6817861997183
7.75417448412708
6.20755229190837
5.87666849502657
6.28938393749949
7.40543934304888
9.98589217193975
14.7166573269443
20.8440358108441
26.1235229084915
28.4761326761046
27.5785359363124
24.6952124138737
21.1827040804346
17.3682931601193
12.6965188637538
6.64190661190694
-0.625053153721399
-8.3771214104828
-15.9448404790925
-23.0396714702494
-29.6152636332418
-35.7478963275105
-41.6232985559131
-47.2894341292752
-52.4363597005355
-56.7233219529393
-60.1736051349107
-62.8199950535317
-64.0655505663662
-62.8253917071786
-58.275561146803
-50.2164611990507
-38.9395881959891
-25.2100413335487
-10.4015439935961
3.72192500089382
15.6972101441265
25.0165620504917
32.0514140372951
37.1468379252139
39.9368006828559
39.9978871954575
38.1059502058437
36.1146465908985
35.2033758987173
34.6325407702499
32.602504357313
28.2210111342757
22.4805538199283
17.3860896715272
14.1074868018008
11.8666274641653
8.71965426990903
3.50969869604497
-3.17472693276413
-10.007823782173
-16.3380900533423
-22.1732269306444
-27.121582702417
-29.981990079637
-29.5994784684347
-26.0171739853848
-20.6475968631733
-15.2308665820324
-10.6782290352554
-6.9812223962824
-3.94286772699344
-1.5230286340995
0.526398789056778
2.8386848291177
5.82016715094697
8.85086171148798
10.3760098995465
9.20380091830246
5.91287912755324
2.67825741057047
1.37802334871338
2.110768623048
3.89942180294831
6.47095540152144
10.6756575288512
17.0803952770703
24.5558164795806
30.5833431653913
33.1540457901999
32.4537364775961
30.5474865252706
29.2655449493785
28.4728675376933
26.4416982946571
21.723753827414
14.6156514337175
7.11019694780999
1.60224145658052
-0.658716537923039
-0.25582039380671
1.07056629198042
1.72313471137196
0.983590489034377
-1.03021821722491
-3.64588826049113
-6.01716313345995
-7.65474969491543
-8.66385291206643
-9.41199851172939
-10.1370143609887
-10.9545369655139
-12.0585246932046
-13.8579506800055
-17.0133664138471
-22.1404086398526
-29.0736389746822
-36.3290496573338
-41.5273701787815
-42.6347075972058
-39.1389092483231
-32.3497301027896
-24.5688197534277
-17.7464213945682
-12.7773843612589
-9.82294905063458
-8.82928310001754
-9.57357179787336
-11.6173405624146
-14.5793524669846
-18.3244155862594
-22.6194558897093
-26.6232525587376
-28.9538681209379
-28.4884936380627
-25.2375193370566
-20.4883149146495
-16.0325842874546
-13.0165649066936
-11.1136583273582
-8.39792403762054
-2.12949223996212
9.48727763440685
25.5007808592259
42.2921497768597
56.1281372957356
65.7349855227433
72.0053173076741
75.5047307381036
75.259806904136
70.3362755667127
61.8227296152688
52.4637664807824
44.4813553410419
38.2969851571156
33.2710697629256
28.9122964539688
24.9682516913873
20.9178961640054
16.1757640886763
10.7891979049907
5.3902149429256
0.369344652933699
-4.5190422857533
-9.61221124563484
-14.5674117302678
-18.128167206544
-18.6796135841527
-15.4277476793575
-9.44319328429823
-3.57086936740825
-1.0534265346361
-3.78644614656761
-11.2982615452524
-21.0785536623789
-30.1933523344469
-37.1679380460947
-42.6412047570834
-48.293725279282
-55.1513267784944
-62.6894648028671
-69.1626373566919
-72.6719242249329
-72.1879353045254
-67.8610145961468
-60.5356746815417
-51.0185914913131
-39.6339156628678
-26.3105393133429
-11.2996095175634
4.00052880789933
17.2850061379688
26.8165120233673
32.5062234963326
35.3926962878857
36.5365731595784
36.7618413765268
36.8788365631883
37.3706877320825
37.881588531118
37.5147804678266
35.8631138099657
33.7058848412159
32.5936593025588
33.5553213370342
36.0676691013398
38.3288087269661
38.5395226769705
35.9218473858121
30.8544758059196
24.4481791919047
17.8268066819667
11.3495703218059
4.53752226877269
-2.94079125206252
-10.3035487340132
-15.9274561255787
-18.431411308237
-17.3439167835393
-13.2100511350244
-7.64360595284828
-3.01064899197699
-1.27587407196478
-2.82095624021624
-6.48010965354487
-10.671052622201
-14.3626729497088
-17.155065472007
-18.9076638570809
-19.6083269096676
-19.4588515782374
-18.7126669953679
-17.413078939884
-15.6808778808462
-14.3054515380203
-14.4856608285462
-16.6356950765739
-19.7509489806678
-22.1378988495226
-22.4232222824888
-19.7907391637325
-13.888366784045
-5.05761632262207
5.41730303445813
15.5337696457887
23.2695672784518
27.4776065350169
28.3781581949382
27.0162884279139
24.1230651709941
19.7242905064663
13.8510890645329
7.19345376551186
0.862065501511639
-4.19907091188433
-7.44834866829586
-8.76974871036524
-8.55310083379369
-7.59854055794303
-6.64881377214467
-5.84037099656643
-4.57582488785345
-2.11303066367274
1.50540088163792
5.21940209671029
7.82208017612965
8.85090349976209
8.50472546420529
7.23799376122575
5.91161371090066
5.86365494150767
8.02326694125675
11.7829773608606
15.0155592529253
15.4159282673578
12.0842478430234
6.11461155868971
-0.282018199417723
-5.35341620824112
-8.68458035402898
-10.8884046455557
-12.851761601208
-15.1896200320305
-17.9175544344924
-20.4442475005486
-22.028299703865
-22.2534393641134
-21.042460168836
-18.4354727351015
-14.4398516677786
-8.82785132804135
-1.04665909331433
9.1747422587459
20.7569626190827
31.1187239922091
37.7057131884754
39.902948253132
39.2047369736141
37.2633042080881
33.8523016489761
27.0061163536272
15.2313310082074
-0.571243679411827
-17.3055606523359
-31.4329858137711
-40.641230675132
-44.6356782071175
-44.8772087432334
-43.2099504491247
-40.3137765928037
-35.5921400035653
-28.4798048548815
-19.235586100794
-8.2659404031379
4.5888888258974
19.3701046924906
34.6721183287909
47.4919369710558
54.7738767095698
55.2488248352303
49.7395598366596
39.7614599820497
26.2728394761621
10.1210402290809
-6.73952630880771
-21.3381245684329
-31.4161793339118
-37.0267652387141
-40.27108877479
-43.1877128306547
-45.6921382603206
-45.7709468667997
-41.8213804156237
-34.3385353969706
-25.0901119024838
-15.5487751434247
-6.93403666550301
-0.795355910447034
2.12525278499138
3.53301378823555
6.62451520625307
12.9965189076784
21.1762202085038
28.3503612028966
32.9496333226252
35.4903296423134
37.5250871395726
40.0872551046237
42.8571730912324
44.4548496812866
43.4381267698769
39.2176626465184
32.3218768240717
23.9275666984546
15.1101546299971
6.49806404107358
-1.57146179942264
-8.97146610382741
-15.9010163213246
-22.6279630402226
-28.9022359221961
-33.8288199982238
-36.2770673451024
-35.2730518064323
-30.5613792619849
-23.4949426375969
-16.909320807232
-13.0063474406617
-11.2299025864177
-8.96105884617819
-4.474992328344
1.27319004213884
5.77468408551357
7.23776877049175
5.63284605189486
2.32758025982172
-0.559169571710113
-0.872599836900809
2.25218204783907
7.16169377201806
10.4801903945559
10.1080996143058
7.4174201986296
5.85277542169523
7.34027569826387
10.5422907207961
12.5319002317833
11.5304181098
7.85471268701965
2.80059036141973
-2.72077511561966
-8.29854069917546
-13.2650597869703
-16.543257678062
-17.5216424408085
-16.7171549364234
-15.2497150528646
-13.8553609549084
-12.6187972085047
-11.4019761036332
-10.1741379992442
-8.95165644695655
-7.69621789841641
-6.48768145619821
-5.7489199626477
-5.88845132792852
-6.35302012089515
-5.36451161368638
-1.30079921080446
5.58903787119564
13.2762801915429
19.6814107240744
23.9059659413928
26.069344864469
26.7413033623112
26.5847072180527
25.8595354241274
24.0635415180178
20.510097437872
15.3541275739422
9.60431522408363
4.01807208389478
-1.58284989095348
-7.66335481244741
-13.921082450031
-19.2559287132091
-22.8541598507433
-24.9976715395814
-26.4906714448677
-27.4944269621885
-27.4674063054838
-26.2546182681966
-24.5375787593752
-22.7514161092208
-19.9116421382607
-14.1528924609113
-4.71262471703151
6.77797617701914
17.3041706622962
24.8200468415776
29.2654261692504
31.2801171462616
30.8332907017279
27.8290596746559
23.3265326807508
18.985235697906
15.4274308108318
12.0246256358565
8.21926445790648
4.23020848226902
0.409663884492531
-3.27137943942368
-6.67216491182949
-8.88475110695454
-8.86694112865781
-6.88853383911348
-4.98169149892437
-5.36503746721226
-8.2419608149699
-11.5528150098199
-13.1267877544111
-12.6537755853589
-11.2556919900895
-9.68310630989803
-7.56897205347668
-4.24484464464661
0.272258647011907
5.14412266662065
9.23525930223835
11.7404729803225
12.6616745207002
12.9618145079661
13.9735070689433
15.9961458783894
17.3553332716607
15.5864362192066
10.0905962924949
3.19321509474597
-1.90320962696885
-3.83416382676779
-3.41135258769398
-1.97806992396609
-0.356461137185209
0.73194232336544
0.21051643162499
-2.62331314066252
-6.96910778355737
-10.856153700459
-13.1925164825126
-15.0794112096324
-18.2671858328771
-22.4806392067303
-25.2316531340605
-24.4461509268715
-20.5334242043763
-15.6268764617986
-11.3761852730154
-7.77285627767824
-3.68361910329685
1.90820457972642
9.08034489150524
16.9048000234309
23.6925125883281
27.1943010387029
25.2167769827847
16.991171458146
4.2192332354311
-9.57428000557144
-20.8808888665528
-27.4701807732165
-28.5319170431347
-24.5774917538256
-17.4264766131525
-9.63863788642483
-3.27458179906747
1.13798893301432
4.65343392260479
8.98508533242404
15.1653448476122
22.5785814449101
29.0778192609006
32.2421709579227
30.9069732892161
25.7556563099559
18.5243356059765
10.7002808172184
3.01856638441167
-4.07436779184765
-9.97835034864242
-14.1166317708117
-16.350776978616
-17.2101416733768
-17.8052133734214
-19.0966896227591
-20.6136694253286
-20.0927166018144
-15.3636042639189
-6.99255265869016
1.60570759936878
7.22569904231129
9.74290739642722
11.6822652471228
15.3699987402034
20.90667681565
26.5911754238812
30.6548630423466
32.3497048542553
31.7691275302561
29.2685478218167
25.291187463992
20.4053509113262
15.1940309804404
10.2245015849991
6.190087632513
3.70416516670737
2.61920741886777
1.73475107340033
-0.411053566725139
-4.28360209951155
-8.94629976713244
-13.0031800616481
-15.8904160997544
-18.0440924568417
-19.8862549156602
-21.2321147639635
-22.0399775100363
-23.2000014706514
-25.8689119395374
-30.0576058374922
-34.2332309241229
-36.3113549286817
-35.037084445396
-30.7960941332752
-25.3932965115693
-20.86024729242
-18.1200266774649
-16.5302245502841
-14.4397452654646
-10.1720429156128
-3.03349906482414
6.03082371274719
14.8563765148464
21.5537424970434
25.6676860709686
27.8681474271482
28.9058456166751
29.173599411056
28.9063580033581
28.1977755415379
26.7263978493684
23.8432572057702
19.2155689158713
13.2840494908964
6.83424499244149
0.186800660267975
-6.77762795956299
-13.6690512371175
-19.1136948085112
-21.6051480717166
-20.7321946076159
-17.538208916334
-13.9418748593104
-11.6801616800469
-11.1640091476176
-11.0715792400269
-9.38750072900934
-5.10373626428468
1.03465130512762
7.19071696939675
11.6568955804779
13.8096023113167
14.3628476206977
14.7157526326389
15.8323562108142
17.6173811347004
19.1761588005424
19.4514928624818
17.7431321188937
14.0096764575793
8.82101754691824
2.9897491613244
-2.5853790696469
-6.7046499057122
-8.10591680806774
-6.535949451352
-3.42914318173714
-0.968625005241607
-0.273350309283795
-0.58607737591678
-0.222579671854783
1.73287981872392
4.59958089273426
6.81777427698496
7.36944200337398
6.51857968347356
5.38646516092592
4.89988744105023
4.9057432687377
4.24530699327027
2.12010020719112
-0.457242692021138
-1.14884435739726
1.29619504183017
5.34844838451173
7.7261954337779
6.11265234691178
1.05838774885514
-4.40546675283718
-7.12081539382269
-6.25754755434864
-3.66008071426653
-1.83029172896636
-1.87652250111644
-3.51788905957452
-6.38936082907443
-10.5349892755038
-15.6845396792906
-20.6692668591771
-23.9074852114901
-24.6261069779246
-23.827020197017
-23.899896986209
-26.6678847774559
-31.4995590183692
-35.6021806944322
-36.4067008480285
-33.6393239310515
-29.0948214814374
-24.5681948508597
-20.17492532765
-14.7397170023753
-7.60772259178318
0.332850355563419
7.46679046369554
12.8309087747213
16.4446713857333
18.6896907195122
19.8690851626186
20.3758046777851
20.9376953838922
22.3585844254527
24.8360621532589
27.5947355814843
29.4200698885655
29.6495380341671
28.5779708576662
26.926501728359
25.0152823357875
22.4793496270375
18.8796848529198
14.6948130025099
11.5005509622044
10.8234609861151
12.845115084505
16.4341697576097
20.1989760094975
23.0718257080504
24.1296360107776
22.7550230227439
19.4684906995531
16.2106799978692
15.1090224867983
16.5086975952058
18.152446466901
16.7367085135601
10.8721897753107
2.51970346534806
-4.94707969653187
-10.088571841881
-14.3909086364685
-20.021349555462
-27.2227866298975
-34.1793443414886
-39.0820377975537
-41.8940689851408
-43.9862015854773
-46.3113673938926
-48.3744563886989
-49.0680398317558
-48.0598920450605
-46.0549976377398
-43.9283563116076
-41.6994589532556
-38.0610854513777
-31.0591424675503
-19.9567968631499
-6.61643827723726
5.58524636645719
14.5652103768129
20.9462733354154
26.5568501422217
32.0289416172411
36.3031032711782
38.2401210622335
38.1462587882892
37.5498109449472
37.7220091488092
38.4576355436183
38.018998259971
34.2575581037641
26.3202086464031
15.7316568581337
5.64725544303376
-1.4166830413684
-5.29457026249171
-7.70015193715118
-10.3492974778407
-13.6497537301196
-16.7911753950579
-18.7736760238934
-19.5940181303624
-20.5310502096602
-22.7281098438174
-25.1521800648594
-24.4495994011334
-17.5221605470402
-4.54756307288606
10.4786618495959
22.2989975749599
27.9535516796804
28.3663960306961
26.7466342242946
25.6627959669814
25.6616573670934
25.9906360328927
25.6830647360645
23.8881110235266
19.9305965953561
13.5184718347475
4.79245866246666
-5.84879303171147
-17.8270874249116
-30.3090631284939
-42.1196180762497
-51.7230539286535
-57.5242320467753
-58.6707748990694
-55.70873933863
-50.1097076043888
-42.9713315685637
-34.4534407905185
-24.5817151736968
-14.1425976844386
-4.3820919824063
4.02959586816669
11.4223628695374
18.4906316092228
25.3728140693743
31.4438735877757
36.0021336776263
39.0836341895626
41.5509440006181
44.3071534305978
47.1599410793135
48.2659072502974
45.060903542065
36.3959361924049
23.927694849716
11.1413364667327
0.957025070971854
-5.68149301815836
-9.36736783059984
-11.058337082072
-11.3353761666301
-10.3011591313799
-7.81264186958659
-3.68453654595886
2.13900255262541
9.058692579271
15.2390221836006
18.2194578634732
16.8346382332792
12.3287158205566
7.04039857360363
2.15759379913024
-2.80161494174306
-8.56740744388728
-14.8261435460988
-20.4359681244531
-24.5989168015643
-27.6651074918824
-30.7244218578965
-34.2614274557278
-37.2304356158451
-37.6384656627978
-34.0594201374333
-26.5604139088499
-16.4207469833006
-5.28926747875026
5.34835642563524
14.1311167616654
19.7163959762059
21.264595367325
19.2614241541607
15.5761316842146
12.3313697112245
10.5176578897292
9.50736075447006
7.81161902140117
4.53637497522672
0.243153981185413
-3.86287303963603
-7.56350407110386
-11.8535511833831
-17.361130458081
-23.1957187677891
-27.7245693343506
-29.9549693228625
-29.7303550003741
-26.9624322144177
-21.2471821400593
-12.4291610703266
-1.54122422248529
8.93356282692091
16.108906476653
18.4512212405572
16.824282209418
14.0829546850445
13.6204530997874
17.5445332928477
25.2709051758023
33.7014424645534
39.2315516642114
39.8443690211525
35.5802595152416
27.8915962919824
19.0905362527072
11.6140825914803
6.64712288733223
3.30721567351286
-0.304996792088651
-5.11217662410126
-10.328967457713
-14.6532945006145
-17.673694651415
-19.6038319213537
-19.8779418569753
-17.07567060773
-10.9632496094179
-4.01503244968276
0.176894524707545
0.193639776096055
-1.96532141361049
-2.96499485174717
-1.21397417624415
2.00293655624905
4.13375825017383
3.92620450224416
2.26451445582562
0.555579471450688
-1.0699126164266
-3.38472063573518
-6.25920275373852
-8.09188540434146
-7.38455701189852
-4.62951584168238
-2.36449341672238
-3.17200949822
-7.34630586208296
-12.4391190106228
-15.3701019682586
-15.1289036592868
-13.1925515388765
-11.2975127886687
-9.30927142601813
-5.68419548241605
0.174464116596953
6.60545394684858
11.1395924790546
13.0860155368832
14.1096758120675
16.1582548762767
19.461758507454
22.8246612301239
25.1289463848147
26.0117760376774
25.6768466923743
24.7184030821727
23.821881468788
23.0827662076056
21.6582453360382
18.2782671528878
12.1200833761268
3.48306322148875
-5.98302935533754
-13.9393213854023
-18.8772232559327
-21.1789182433482
-22.4895565544895
-24.0458992693205
-25.7801298959002
-27.0602123059418
-28.0997543658283
-30.2219373942415
-34.2353854579952
-38.5356559369536
-39.6019227854137
-35.2573601921514
-27.4909307632743
-21.3871914329208
-20.6627569930639
-24.0478566862465
-26.1514150935921
-22.1720625626021
-11.9994198463011
0.261521689503546
10.5600927291715
18.2070922840487
25.0324264215952
32.1950390739774
38.5577927147492
42.0021345397456
41.8038031058375
39.5248988407628
37.5856731948878
36.9874081826442
36.532487572643
34.2481136444034
29.330513943426
22.6720329717913
15.8621775881994
9.96701902451196
5.19254107941973
1.41056154030816
-1.43559923952134
-3.70298598109372
-6.39721860019542
-10.3986929692543
-15.2901156807371
-19.5696697446008
-22.1928310904627
-23.3767599796376
-23.6826311887319
-22.8777371962503
-20.1837259858901
-15.3763694916417
-9.1942704749177
-2.75193882825896
3.13067771471399
8.08308253102819
11.9901602598968
14.7481288650734
16.1477256447162
16.0357250862225
14.5956759413981
12.1646014136741
8.47422555687218
2.45699041987263
-6.3319904724673
-15.9582689297934
-22.7116776230342
-24.2056513703665
-21.5501136361247
-18.0001327290243
-15.7742208732732
-14.5431229517618
-12.6402746165931
-9.20987604883912
-5.05965388327116
-1.41429096207633
1.99244327241129
6.85616116650307
13.8262053822533
20.772426540966
24.4774979407848
23.8401895169616
20.6565950790417
17.4484617716121
15.3276022395065
13.9873102288046
12.911099862863
11.9475931956109
10.8675642986592
8.96911098723789
5.55641220945068
0.764450979504478
-4.36779152556432
-8.6644738251686
-11.4654246615645
-12.6906761290291
-12.7912432091967
-12.7599587257385
-13.7035824124962
-16.0300236798839
-19.1023438010097
-21.7109950231749
-22.8274908879952
-22.1615317527978
-20.4199703489054
-19.0684363029499
-19.4209695469705
-21.5152281556635
-23.8112999681767
-24.3463216279488
-22.5078123566637
-19.5228226989561
-16.9310623686946
-14.8265771830593
-12.0606209407174
-7.98564878245067
-3.27796816937244
1.28100246795316
6.39786433256835
13.8678378365314
24.0704009795749
34.192958682827
39.9952683245249
39.8308510061974
36.2563693124621
33.2347157079771
32.5026732527849
33.1686885486983
33.8583392671288
34.1135097073898
34.0031384994368
33.3830641301116
31.849834688433
29.1320700190599
25.4066095462234
21.2995412571648
17.5764228763852
14.8036655323374
13.1639454345471
12.2505683088197
10.9806291465183
8.17113669402223
3.43814137012462
-2.74813644531946
-9.77037844501603
-16.9505610688809
-23.0092753514282
-26.5384112219048
-27.6262851339337
-28.455503685079
-31.650461853642
-38.0238465429558
-45.987906412032
-52.879553922964
-56.6786132121216
-56.7197455477361
-53.3332038775274
-47.3430357889141
-39.957014474165
-32.524047212313
-25.7046621994954
-18.8022865204527
-10.3283879711985
0.410074572269632
12.1562915725266
22.1439166702608
27.8333464327647
28.5034889195428
25.5274404082342
21.422153378802
18.5432611750376
18.0491344961234
19.4303969641451
20.982498752305
21.1817249077836
19.8300048994788
17.7884247072557
15.801452188635
13.9609419965927
12.1316840109434
10.3152719705795
8.52023418488805
6.65712953141279
4.60139686302099
2.10876771265818
-1.22289178317326
-5.51952717047597
-10.0291513794549
-13.1388720490415
-13.2819871977051
-10.1233297098467
-4.94629926832207
0.311443923894265
4.51077089637453
7.68620624842457
10.0703425687219
11.1909087024208
10.1857142099664
6.82883166635535
2.04315107531922
-2.61522591258304
-5.96997221629313
-7.73060655650759
-8.08966254083623
-7.15714460864961
-5.00688118148059
-1.90673955183735
1.96627484636918
6.83635128602588
12.8398442842877
19.2213110644644
24.375014774968
26.8091500187437
26.0798500020329
22.9723001986873
18.7748901467877
14.0134782657482
7.8386864332735
-0.898024046781524
-11.8983247067253
-23.2342956634575
-32.9241426727607
-40.0707513434245
-44.3336967497735
-45.0494634107384
-41.5442503296856
-34.2742113906239
-25.2661499636289
-17.0683073578517
-10.9993226865816
-6.32270226836317
-1.16564331648666
5.71651840358727
13.9994919011109
22.3931045206273
29.9161895622311
36.3086544263666
41.1180732312245
42.9037608899958
40.1928658482131
33.3701160839247
24.8712570264449
16.9989361797184
9.83290808850356
1.56330794547855
-9.2745029776413
-21.8815645524693
-33.2135809815069
-39.9662274281595
-40.9000303558688
-37.3731339786727
-31.7584257775505
-25.7265321341843
-20.0057394613629
-14.9203489561117
-10.4393367316842
-5.9796328811613
-0.727642463005737
5.77769051200156
13.3115785989349
20.7792599055493
26.327388512441
28.2945516767877
26.500276705325
22.3658156779346
17.5191474772013
12.4507926386954
6.69630088556295
0.129689371200907
-6.27618754107293
-11.1357434852092
-13.9933173610948
-15.7855070437047
-17.935343368455
-21.1078241123895
-24.7756121081338
-27.6656973293272
-28.5127358569823
-26.6671561966576
-22.2443574813747
-15.7567451638116
-7.70342547575198
1.46130626010176
11.2367337079597
21.1488752324613
30.7053417241448
39.0793458604564
44.9530072412483
46.8278419093403
43.6610060169501
35.6212940997262
24.5153607817071
13.1043976843439
3.43956876653794
-4.13264174853581
-10.1348591483274
-14.514972497724
-16.5875127605323
-16.28966175722
-14.820762026536
-13.535286256649
-12.2615525517041
-9.31595915042506
-3.75920197757787
2.70019620664184
7.03777996945221
8.29065846034509
8.69855178881397
11.1292742764943
16.0498047652954
21.2318948941143
23.6300578098561
21.2409620870459
14.0348886249
3.9827076859063
-5.86854987714023
-12.939683481229
-16.3319089539786
-16.9004376371845
-16.2052167369941
-15.2944303326854
-14.4847561541777
-14.0602597149932
-14.4650714854216
-15.3698439312888
-15.0449607020428
-11.5271313924957
-4.74013497995253
2.8094858342089
7.79681839598926
8.67162674639806
6.52319131121691
3.54064590810475
0.971468619294598
-1.24225612706619
-3.28839921157974
-4.77119892752748
-5.42682287135023
-6.01361209954042
-7.95970522360031
-12.096123557991
-17.7467945395333
-22.828696914777
-24.858502413268
-22.434015568134
-16.366400950517
-9.46652427721906
-4.80348917827902
-3.64934801596053
-4.79696541869174
-5.74228964826842
-4.54067676866956
-0.828035452292602
4.33211929328945
9.17509518551523
12.1457973265031
12.8461925849537
12.3870431606038
12.5316133679973
14.2389033938999
16.9886671031042
19.4087145289621
20.4787263565997
20.2464066505152
19.431455224445
18.3117168790887
16.2847537109347
12.8718767832778
8.87727330997162
5.9295833939203
4.84009241856263
4.90471464243269
4.91964360158417
4.46708590426644
4.05201896012686
4.26007777474586
4.95256368912166
5.30718576670008
4.80479571476652
4.15361181364423
4.80711347053332
7.32366463820852
10.4793815895246
12.2261182129184
11.4038771470226
8.49044899844504
4.89637608266553
1.62202047170708
-1.54807336633118
-5.71933670121929
-11.8189538702728
-19.6704183228382
-27.8265140679212
-34.2889252896694
-37.7184144774552
-38.1888018603712
-36.7838542032326
-34.5637847279857
-32.0029937846374
-29.1067539625797
-25.6465050983959
-21.2734080630854
-15.6098405531048
-8.40679568872715
0.0054303443560227
8.13643779514525
13.7045576502309
15.3768711497025
14.1344718120927
12.4067199199693
11.9168709171406
12.7680388319743
14.3512380794478
16.4011708204624
19.0452909339964
22.2828218198358
25.4839501842366
27.1508300616478
25.5414875971616
20.2859784855892
13.3979448784551
8.01765689979628
5.843610568727
5.97397748618699
6.20601272538507
5.06959494493147
2.49044469044429
-0.970735836285431
-4.73990580719491
-7.95334000692212
-9.30897723756401
-7.94227690079257
-4.36938533542415
-0.111872520338035
3.59024606263502
6.43877678323297
8.64012243418273
10.2399551781053
11.0400101346902
11.009502786121
10.4150621009206
9.17321640733068
6.25765130916421
0.522760924118183
-7.54948705535907
-15.5333217459888
-21.055271552965
-23.8813280677127
-25.6785095076373
-27.9422626071208
-30.4866476402376
-31.7872216043005
-30.4723083910786
-26.585679112729
-21.7099237102458
-17.8361488753098
-15.7790898414633
-14.4472846695846
-11.720057508505
-6.37371104514529
0.522355873515159
6.12539301105009
8.01053021184318
6.07751815802513
2.4883494382322
0.0104879826365822
0.416692336129714
3.88646547932429
9.1955837441417
14.2865500917089
17.1798051457642
17.1412656701465
15.379914592703
14.2755404889696
15.3708243960233
18.0914101920937
20.624039556169
21.6999138609372
21.1191492610303
19.0915136545328
15.9956774221501
12.6993563314468
10.2949747657215
9.25366815867526
9.0944710420922
8.86076195230153
7.79325837898888
5.78496434682797
3.43713926654707
1.55550640173067
0.44189923494206
-0.262778497234149
-1.05980297808533
-2.09515923528425
-3.19932197328553
-4.24922925626123
-5.34477260505216
-6.53368443167939
-7.40884132611534
-7.38477189621326
-6.74309599131683
-7.03534350294837
-9.73197237663168
-14.4272699246591
-18.8715650434192
-20.925970206794
-20.3457219486302
-18.7430132132439
-17.9390386327633
-18.2041959700961
-17.9629590591996
-15.2614700692668
-9.55331597352669
-2.115253203545
5.06180277553505
10.7056443607072
14.7882496047496
17.7656782012096
19.4367570213387
18.9669451195091
16.1613212591766
12.0844231348619
8.0445420799919
4.60568500653489
2.06494088347613
1.17500017133881
2.58613594624932
5.77097349420603
8.93100408303753
9.90693550324006
7.31056361983001
1.41425983317751
-5.78227530411546
-11.8232809247534
-15.5312197568206
-17.4379180925506
-18.6554735789648
-19.8085405301564
-21.0855881510854
-22.5758701274288
-23.8133223630634
-23.0929514546537
-18.1656654974852
-8.4917976042901
3.24259085999665
12.5941560352758
16.7994754361403
16.8020913263326
16.1085538437009
17.861707917253
22.618462404761
28.3311420978082
32.2983351253366
33.1411140669948
30.8772474807928
25.707266971011
17.8695299695268
8.81191880201322
1.21950384536638
-3.11652420388169
-5.11003782335782
-7.41397520143493
-11.7051594484693
-17.2924514448324
-22.3893211871427
-26.2489765524268
-29.4621297561622
-32.1973357104112
-32.9705671097713
-29.7906933817949
-22.240958495097
-11.9750671035216
-1.4553179508026
7.31623257367535
13.2242676862971
16.1609752330564
17.0353429039484
17.265352871408
17.9530820720921
19.388301509178
20.9488835787472
21.2391487373059
18.7386951749334
12.9347702486381
5.03411198450026
-2.53037942219106
-7.48117622293336
-8.97092063264885
-7.9767060761852
-6.61776876430824
-6.78944801389689
-8.97874066746494
-12.1113955518809
-14.5177514963899
-15.1166731010303
-13.8113800834682
-11.1466955412235
-8.04777526381763
-5.70970572882146
-4.89208990733212
-4.95133079341119
-4.19809722823296
-1.67656700474834
1.87313989937722
5.11849088989701
7.57704829934206
9.56781780244838
11.3694003356549
13.0097375722496
14.4991374057177
15.7014702650721
16.0563471185697
14.7191159435691
11.0228828535493
4.96347475470248
-2.46367730605659
-9.51105606142003
-14.6567598891484
-17.378852172953
-17.8797062624156
-16.4195758155133
-13.2883565716907
-9.1265652859286
-4.7582093719526
-0.666383461819438
3.16854466649609
6.94764889936899
10.765541750123
14.6593426777282
18.6140006440508
22.1158688541068
23.8565686863973
22.5851121576564
18.5296771202421
13.4725278074144
9.15196565977098
6.02306354371816
3.71183577722495
2.04590699430943
1.25697855996104
1.51721571662151
2.53168855217091
3.44018688121484
3.15505999887784
1.07006420017109
-2.46639776028077
-6.39024695447055
-9.61810653435105
-11.7117026041812
-13.1778473204087
-15.1141978443268
-18.2957411704003
-22.4425031495117
-26.2632793246406
-28.0899168674361
-26.7382556778875
-22.4192718707554
-17.0555995705848
-13.1922486106284
-12.1094172875033
-13.0107246785615
-14.0526116549053
-13.964157070808
-12.736536930932
-11.0730905065776
-9.37371618669282
-7.38376556963007
-4.87917322720231
-2.31144158059458
-0.336170303736776
1.05003908060401
2.46762658944648
4.57232546738339
7.9879472614172
13.3578397331033
20.6545468905955
28.4438446139548
34.377969325257
36.7055867247104
35.4313886300561
32.1715996336667
28.8308852593816
26.2600107851604
24.1478507590718
21.8789192920402
18.9373017777629
14.706534716393
8.85289162825276
2.13050857918141
-3.97337599790829
-8.63978237445895
-12.1065390752335
-14.5903350760112
-15.7660387239941
-15.7269614235175
-15.6182835022836
-16.5458941469292
-18.1151922354628
-18.5778033215123
-16.465202011905
-11.9371907737536
-6.55043120584926
-1.81356121778687
1.93493402805727
5.28913192579159
8.73181571396538
12.0081261004287
14.3354174713127
15.0587197511248
14.2553777712566
12.8312493732892
11.8666757762095
11.5868474357052
10.7479262777232
7.11458330726131
-0.838575009412494
-12.1054078054459
-23.2757221017553
-31.0847729764466
-34.7562300779845
-35.5999424795876
-35.0071011298446
-33.5682598535929
-31.4556971551217
-28.4764561005273
-23.8676933494297
-16.9753089710957
-8.25748066480369
0.948355354612244
9.68862983873254
17.9098443831204
25.6135294168779
32.0332536603693
36.1227730484811
37.7747089580381
38.1356041808437
38.4288784765579
38.5644756234339
37.2300855238855
33.4284308392241
27.6662314790873
21.5470354980442
16.4346144527309
12.5620824226062
9.19025116483528
5.48439558477782
1.16620464618155
-3.83399190785304
-10.1442514974811
-18.7331396483023
-29.7332354901273
-41.9395932971178
-53.6544149658835
-63.6498626841915
-71.1520548184115
-75.1566805606203
-73.991777516495
-65.9157541790226
-50.8199724196311
-31.4579624081947
-12.1875107721494
4.02938447405495
17.0523314897834
27.99672153614
37.0603312359829
43.3385322764294
46.2094929451391
46.2126687486014
44.5260173252561
41.8960506319653
38.2767785292153
33.4897644867509
28.0252642309848
22.9705922361621
19.1685488640382
16.6047774009054
14.5880079903634
12.4071392392616
9.90534087846488
7.52399612532377
5.68894231854744
4.19044958972051
2.41991153078526
0.151692970028366
-2.27857553152888
-4.56095122868572
-6.790964614812
-9.15441129069215
-11.4693075576039
-13.2483412316485
-14.2949044301457
-15.1199446046163
-16.4210913170165
-18.0538909494817
-18.9736563274853
-18.4965737927397
-17.2230468100587
-16.3257649975802
-16.1642369924838
-15.9014815356537
-14.3759883090194
-11.2538034214109
-7.41033126487634
-4.12751955373786
-1.8761022879533
-0.074169902476014
2.00518743079322
4.46714316760118
6.89073519865337
8.70810621303082
9.47599780507345
9.22208940537402
8.51720679377342
7.81528942843443
6.86060429856608
5.22978865028758
3.30543080985964
2.13969919229445
2.37729639723397
3.75781804509101
5.637706672958
7.60341413064591
9.51770966029168
11.1922902604727
12.1657428917352
11.9172296204737
10.3623736494114
8.05160411714648
5.85110028324007
4.47850949868177
4.13191773009817
4.28104735512893
4.04540921922393
3.19709663125835
2.6061324684526
3.19547562464197
4.46874253279201
4.41062352540182
0.924425614247155
-6.56303354648372
-16.5735694878211
-26.4488825107535
-33.8898907760868
-37.8026880805799
-37.9941471076984
-34.7848486417867
-29.2416097641927
-23.1100215237682
-17.7215543653999
-12.9162987112617
-7.30581496820897
0.321235759863629
9.66162802486124
18.6253128497999
24.4962617838928
25.8868541116059
23.8195986918012
20.8085298957518
18.8289021333278
18.0338293102511
17.0606490858025
14.4990679568031
10.4208228063195
6.54200509814951
4.56895933395586
4.48999814705498
4.91116324014889
4.84715418394822
4.54278899598084
4.64573884408279
5.37714073885243
6.78834976779554
9.18500343001154
12.6234771850368
16.0830370456195
17.7589683538322
16.4866054375594
12.5726342767082
7.01947939044939
0.433428398880396
-6.78576911941854
-13.5583617857935
-18.2303323860497
-19.8446086903892
-19.1959819613613
-18.5088692085007
-19.7264073456343
-22.6811510249471
-25.0695460232419
-24.6882196763791
-21.6834205212744
-18.2828933950842
-16.4526160495135
-16.1729033912752
-15.8049812667178
-13.6333161575718
-9.11957723901162
-3.17399762874393
2.63578856229064
7.28929039120563
10.681473205107
12.8340620712611
13.238031531687
11.3757085045832
7.72088835019626
3.86993403420064
1.48886678584139
1.03239096943132
1.59237587992319
2.18268010314016
2.9488229096474
4.69907504408013
7.44325691955805
9.99318866873399
11.0366865072647
10.205802206577
8.14104342655748
5.87631794689727
4.15264627088779
3.11605492706851
2.63448116562409
2.71373759038853
3.2717716919389
3.69900707746157
3.22824343239573
1.80857445065501
0.179367321052769
-1.02258210066408
-1.90440500698578
-2.90765732539213
-3.8955736331713
-3.83970059857684
-1.62910758117872
2.64261514085182
7.33116743015222
10.456977327585
11.2129433993145
10.0882107787251
7.86493034505879
5.09643182060614
2.43795457979787
0.75244210385575
0.579561039842164
1.75731045862845
3.71437802938193
6.00052489614566
8.42337473711386
10.7324192944213
12.4024307747005
12.9450829021833
12.3356047406988
10.8955485333208
8.87057264109249
6.3913616223205
3.67880104011485
0.928533380838205
-1.90846547672011
-4.94125023085175
-8.05711425859239
-11.0949218690135
-14.2622890651724
-18.2425442225583
-23.7883226184768
-30.8920439548573
-38.0665348211489
-42.7282001937123
-42.8663351193776
-38.5236667206738
-31.5710333089486
-24.2011627608885
-17.7793732872997
-12.716554969892
-8.73685046892333
-5.07048977669235
-0.806001815657088
4.48415941747593
10.2612239540075
15.1534625587511
17.7534068108278
17.5468832669809
15.2233794166157
12.1976067032244
9.82520164793845
8.69387749138087
8.25944641057254
7.36654720443042
5.56118627486349
3.7909507438201
3.4849935577758
5.04181988798982
7.41263154763914
9.0161291224252
8.99037582523256
7.82695434253791
6.92045816553244
7.34279328138176
9.00349502060942
10.9894601327225
12.4560194108937
13.0639104620862
12.9129774274525
12.3567399453765
11.7484310603843
11.2343250743759
10.8084715561427
10.384701904514
9.66584783974165
8.24543145492791
6.12879098116637
3.92684830342612
2.28081467275663
1.28211470167538
0.612047307781504
-0.0085526950160974
-0.68410254900745
-1.40765035711896
-2.08099083607007
-2.63273739197158
-3.17246512540108
-3.86070248479795
-4.63518704222951
-5.1964721198048
-5.20349077341089
-4.47533424675126
-3.24820199800049
-2.30831513598267
-2.60003077332023
-4.5166904346713
-7.58613489084771
-10.8041432589919
-13.2852563609909
-14.7955763657466
-15.7625856692995
-16.719352478388
-17.8327421087423
-19.0085325727618
-20.0879091272915
-20.6858442471523
-20.1926472718643
-18.249244289521
-15.0091872897729
-10.8972074659448
-6.49107735248331
-2.57210251931143
0.259868457500918
2.07793591475582
3.38443067591166
4.48635177424257
5.40177758795292
6.13408685236656
6.73202556021707
7.35221906372034
8.47565217431646
10.595745947068
13.3076064013116
15.1463264901402
14.9059907804494
13.0140603004435
11.2082591426481
10.7993983962507
11.4104791133068
11.5368496230381
10.3197421238798
8.47280409706574
7.20655130410194
6.59508977259796
5.5661629911549
3.35247027746154
0.414561644162175
-2.00623577228726
-2.82577654572465
-1.70391133650044
0.866824795695007
3.90906419070535
6.45686676845303
7.79650527914856
7.54870973371516
5.91206970141841
3.77376024299908
2.21950466418568
1.78394622495066
2.19543381950836
2.78298800968937
3.10427122443896
3.24903875358189
3.55923634781371
4.13240415235432
4.74107063402295
5.09113418021935
4.78843720739397
3.09511508868595
-0.764140798243694
-6.7718550266242
-13.7601025315721
-19.9962613791123
-24.1278906979777
-25.8647030332328
-26.0951914068093
-26.0759502604844
-26.0312811998459
-24.7883143433967
-21.3457374637735
-16.5983799601551
-12.8088138720254
-11.2109518531808
-10.5476441066313
-8.28710627637934
-3.26817864237487
3.01799212858166
7.8405766419069
9.73389198718001
9.42351272795836
8.5782588446915
8.23196982858166
8.53705076606007
9.5654563731603
11.8184376875487
15.7201820194536
20.7004103323404
25.1702937726223
27.6926914946268
27.9321421427137
26.2549266654164
22.9615924974184
18.4445341058412
13.5304177451244
8.83956750848543
4.06072015447605
-1.45557642832656
-7.57649724075001
-13.4218695833972
-18.2908301741724
-21.9911761952517
-24.4013087364805
-25.2014230246231
-23.9913890270395
-20.452049177269
-14.6427088653859
-7.37336394013423
-0.0335337082387449
6.09858570790394
10.2085077376019
11.8112840062393
10.8431599060995
7.99767789668668
4.53717543733915
1.49657143259293
-0.875385201093548
-2.8858734719163
-4.76293674064838
-6.34521415398595
-7.2739040524965
-7.19909498629785
-5.75121825531992
-2.72949015478482
1.38740573921211
5.44906357205685
8.48288769032049
10.3071971324947
11.1889146598424
11.3803651548988
11.2233919709324
11.2040852891105
11.5580796395206
12.0662228228124
12.330559302988
12.0063371540224
10.8244560820386
8.71217694942156
5.92022987002048
2.90135580695673
0.124175189096821
-2.05887731445565
-3.72251223661802
-5.60659589602936
-8.57396810499659
-12.5814780448737
-16.5120420189735
-19.2285146886171
-20.5274768497278
-20.900815326421
-20.6061770315102
-19.2447459020932
-16.3611431061056
-12.4213978659625
-8.93925624103779
-7.37999034147724
-7.99303695345321
-9.78300981644461
-11.4111920077773
-12.0867094200552
-11.8896317354518
-11.2934851039811
-10.182110406017
-7.58360198305637
-2.82488845459885
3.27641026177287
8.89611484111678
12.7459786403308
14.8225122193414
16.0240063636321
17.4894557821355
19.9387092625864
23.0947968678489
25.8023203540915
26.9051292326462
25.9342649657107
23.0957040733104
19.053828673164
14.8120950905413
11.3856898030073
9.27078185836837
8.19497226386222
7.35550466316985
5.95433705459314
3.77528082508208
1.36317859283411
-0.552038288546537
-1.82259462441241
-2.85351696664563
-3.94007270006176
-5.03796139159031
-6.14764314066512
-7.52090177820899
-9.37717909599466
-11.5583959603764
-13.4911577712378
-14.5083605721383
-14.2718783994906
-12.8007277887919
-10.1109981610134
-6.23061705142052
-1.83578209495534
1.46386799998185
1.98066995153522
-0.678530773848421
-5.01290506465001
-8.5037991115199
-9.50411049123532
-8.52112157281045
-7.4583975669418
-7.56053416131895
-8.37502788732092
-8.5855089167375
-7.3539022072425
-4.92040676430084
-2.41650210369994
-1.06025037258992
-1.0818208956522
-1.45230464674371
-0.972908412632555
0.495673153433088
2.17779937112515
3.54308602176294
4.83833307613473
6.34574146944959
7.4164001625752
6.67451543694228
3.50948070551331
-0.762777886853384
-3.79270938915558
-4.43702400264581
-3.61839172123933
-2.82327656181598
-2.42056281522726
-1.75210413228438
-0.19647723236237
2.32533222326975
5.44295774657993
8.47282785410361
10.635866483558
11.4555326524313
11.0709254960183
10.2308191874634
9.86842551477955
10.3699060874478
11.1943674495127
11.4261364808736
10.6960951576712
9.41139782468162
8.23946917740697
7.53343626202666
6.99504080710268
5.69442923487102
2.7377126057905
-1.77484236259434
-6.54621883294718
-9.95917715423234
-11.2180100353904
-10.8949156173613
-10.5383193277914
-11.4578373229418
-13.5775383516628
-15.5872446400132
-16.2760300528364
-15.3994634783075
-13.2373200520905
-9.94926114197246
-5.73064721610972
-1.11188048630111
3.40797559288955
7.85622674365747
12.5253399241948
17.1384883575108
20.4691438400977
21.1004353705527
18.7621836690787
14.7857853420971
11.0468524231628
8.54105666487598
7.01091801500002
5.60978817414274
3.6986665589206
1.20568751024693
-1.62498350097387
-4.86316313863346
-9.02677844698693
-14.2760661921217
-19.7661835560334
-24.2857366371223
-27.3435108567813
-29.196881456364
-30.0492462028546
-29.6907006922609
-27.7994944741577
-24.2029948481325
-18.8320042695713
-11.6873867272571
-3.12027533694182
5.70237526143242
12.8509686861207
16.760568743323
17.6165816522129
17.3269412242985
17.8677552623789
19.8156204567435
22.42190087796
24.4926070261728
24.9216937213542
22.9537621241487
18.5264802047355
12.3996137705191
5.92406206873617
0.710111591630768
-1.86316496471266
-1.38089275179607
1.21435049981544
4.13489243065453
5.82520744052606
5.74691847141625
4.30843299218545
2.11096521741156
-0.59025990461535
-3.59050750961797
-6.30506142037219
-8.14753747641201
-9.15075292413219
-9.73191244980804
-10.0477953015299
-10.0259498362935
-9.75613387394295
-9.4335738107034
-9.197119249828
-9.24411227527751
-9.62447248280773
-9.73251083110874
-8.61678872416949
-6.06774915766599
-2.85881465432239
0.321536505644841
3.63212580048191
7.45368170418988
11.3883081242546
14.2310469012779
14.829748101939
12.9052254197292
9.24091248823342
5.20225747632224
1.95282508530677
-0.0843870594336794
-1.25890562698006
-2.31489912965025
-3.77242435082995
-5.4423876839335
-6.59780493147669
-6.68900718370036
-5.82086320207004
-4.63445641661647
-3.89302562748241
-3.95893512658095
-4.36723713048378
-4.13034475897682
-2.8000893122605
-1.03041227883103
0.181912397574288
0.541605701802856
0.454871812898955
0.273437991363478
-0.0888963263720512
-0.843100135621883
-1.83351574364219
-2.45176525865413
-2.11346580455716
-0.78400178943706
1.08469785075781
2.97063222176267
4.38901670228776
4.91127395427053
4.64018012565645
4.5071112074497
5.45826791137264
7.30598536080807
8.85663380160202
9.12704593637832
7.93653919567616
5.43566563181045
1.85920129501313
-1.95146840811529
-4.40792264146976
-4.2661207768225
-1.94177347504136
0.661907246735875
1.93242807213246
1.9602737299112
1.90194371254545
2.2838297545383
2.54447872028121
2.08185962597445
1.00017068829568
-0.335518544204134
-1.97144622439793
-4.29103758279199
-7.31670268368038
-10.1358137187938
-11.2117764717952
-9.57649224020436
-5.71578918762783
-1.14722939904162
2.66586285330572
4.91340376380228
5.55120907890076
5.27477572225607
5.03090098963991
5.18832461614152
5.38261847267947
5.21334483100546
4.67870728169603
3.82669556444289
2.38312547462603
-0.0215676115023811
-3.29635763150408
-6.59994858999375
-8.76294674388373
-9.27859465048497
-8.7946984390732
-8.30549081804774
-8.10355118456303
-8.0673664501594
-8.55737698895757
-9.97221697921819
-11.5292783383354
-11.6816213050933
-10.0273749249515
-7.90762096266471
-6.76059047121252
-6.48778309317395
-5.76036906310545
-3.58498514643517
-0.266897523377739
3.13518154976618
6.09909853536039
9.08773951873249
12.6036371392415
16.1213070049704
18.2888382015375
18.0823098835385
15.6148488078014
12.0433938140111
8.90075991362092
7.32121819679857
7.55502215489621
8.96526281978397
10.3550721794614
10.5140469585378
8.97480555183059
6.44840653444924
4.24483048901752
3.11506248140869
2.77568198928348
2.42558929520334
1.39536659944324
-0.592516070591133
-3.32781309626253
-6.1632082317133
-8.41291173878264
-9.73927754240105
-10.0754677456678
-9.45003218053125
-8.18732781672438
-7.07169946107407
-6.91791601216387
-7.83253649714126
-8.89090530844494
-8.66642057465537
-6.38541387224411
-2.64387049267217
1.21806528256156
4.33030419848226
6.56830771607113
7.96156682710794
8.52789943899757
8.60596552821215
8.67009515040857
8.69707128039637
8.12321826564116
6.50935612872444
4.0678709802699
1.57108851023701
-0.232922351941646
-1.30629102209865
-2.47441672786455
-4.72787825108578
-8.29808381292877
-12.3956773161547
-15.808413009699
-17.9129954491181
-19.2624408748793
-20.943321112342
-23.1541629513576
-24.7397844483665
-24.3413394320846
-21.6060838457063
-17.0749909497563
-11.4537141766805
-5.36283021343074
0.706227715999426
6.61292035251085
12.3834845145056
17.5830526677468
21.3433210016742
23.2225778044586
23.5742562098339
22.8946255138748
21.2405859047358
18.5131973295618
15.1175173352483
12.1879032367437
11.0061090033678
11.9162484649992
13.7959776553595
14.8674546746351
14.1065656092821
11.8140392408945
9.03494840982692
6.62736673938502
4.71590048559567
2.85602662432039
0.748794630814073
-1.33728525423045
-2.99727744959837
-4.22377344771212
-5.21685663296928
-6.01741912087401
-6.62080746257056
-7.02121886422478
-6.90129754547646
-5.87960624738966
-4.45445125222069
-4.17613563286835
-6.40633877821186
-11.1246935295942
-17.1036725025581
-22.8541958293285
-27.1594812767152
-29.0986195989656
-28.1282202759463
-24.3975148493327
-18.9483246844791
-13.3510156403217
-8.81403615825534
-5.55828012600846
-3.07248428357249
-0.73244351299875
1.94086929542844
5.14420819949278
8.47700173206542
11.0199928036302
12.0862439697223
11.8619322268128
11.3440616536777
11.812854487722
14.0730918625609
17.7250115978675
21.2508130221276
23.1274325369212
22.7862198071648
20.5176026591802
16.9704475887876
12.9801862199866
9.41058201958596
6.79343250858066
5.21515549736339
4.50723261010275
4.29161923712652
3.87346201209231
2.35214261806422
-0.934213354393331
-5.8078886570526
-10.9880556163491
-14.7751458510019
-16.3340273270088
-16.1478208707873
-15.0996194995647
-13.5046504251499
-11.2252828342614
-8.16816750117985
-4.2641244227232
0.534248675267198
5.75212499649848
10.29115305965
13.2532239676787
14.5564552441526
14.4758640798981
12.9121655532999
9.34724493524921
3.37633354404704
-4.66280122339054
-13.3801004040562
-20.7989605522765
-25.4444090875728
-27.0890506694122
-26.550215170534
-24.8810721558484
-22.5303810314295
-18.9619929043502
-13.2116270209135
-5.12869074544423
3.89661284390608
11.4828494666969
15.5553169412043
15.4752266759865
12.3919613765885
8.46813514072736
5.43432985105634
3.81383024287524
3.37387655777389
3.75827932548216
4.43286009492297
4.55316556639112
3.53852276478338
1.91745892785263
1.36627248192245
3.48331345982703
8.05219679760989
12.4768886512382
13.4959829364022
9.93967907229329
3.76013797447021
-1.67105475561097
-4.06854225892378
-3.37135565107815
-1.25774224393825
0.226915452996198
0.180827570896205
-0.565060939587686
-0.432311404436654
1.32430022871281
4.06339952364072
6.52006374850279
7.86458638748159
8.11685907521178
7.77318626685219
7.22074432329749
6.58357961768552
5.84482017537024
4.68227998110872
2.3368031873528
-1.77248929604727
-7.25292895514759
-12.9181239977476
-17.61081171366
-20.5329749982598
-21.2074175681495
-19.7321912156665
-16.883612377557
-13.5662905766974
-10.274716202934
-7.05316116175181
-3.47742485407228
1.28836780456049
7.64666633849405
14.5153803422796
19.7073229874138
21.7014913648738
20.7636231198203
18.2400739630488
15.0951649349945
11.257505071123
6.17652352284773
-0.111374376188009
-6.5105870903171
-11.4940437941369
-14.060354924562
-14.0482850675828
-12.0039599854586
-9.094949595684
-6.64741400489147
-5.10774026667961
-3.55861443985092
-0.694931588136278
3.63635112860613
7.95619050742044
10.1999971004817
9.25358108893877
5.52557059380494
0.211572551983842
-5.55297904201699
-10.6239222739547
-13.5958301379563
-13.4595792519747
-10.5144186339847
-6.21083477328996
-2.17967938695384
0.424546316067165
1.1593107243863
0.514045437102043
-0.191324261968572
0.446155725124005
3.02150472858335
6.91690860198244
10.553973397442
12.3263465979711
11.8673287108775
10.4965944476045
9.99307432682591
10.7441017626664
11.362600857453
10.2251313464121
7.14603465665328
3.46541509434552
0.72426831924968
-0.599033681889803
-1.13816102890414
-1.6286272384744
-2.03286977239504
-1.73597320897226
-0.551696581945183
0.488472126805319
-0.564062942766995
-5.08496863734117
-12.3089799043319
-19.4067285484216
-23.5010265992043
-23.6743457894489
-21.0419609977999
-17.2408197254752
-13.0631643375453
-8.28935125453821
-2.62246348240266
3.2278412934492
7.6565792372191
9.63040672663908
9.68345822751302
9.05620271791745
8.31240460133298
7.37078176405047
6.44375836312773
6.15006805381864
6.7242045290027
7.5755725376465
7.69792730415364
6.39881372990797
3.74004156508271
0.408363010023233
-2.77956864360147
-5.10839671699087
-5.80248248396682
-4.26918390925994
-1.00115930658626
2.13580240392037
3.19828691209472
1.87383812490551
-0.313309382227645
-1.50378194997118
-1.10063423494819
0.13187377697526
1.41489940480808
3.03243736065741
5.76138560228416
9.46223233515421
12.674932387093
13.5837553941034
11.2399669542397
6.20119974004764
0.301540054897804
-4.54120151777166
-7.67503474554564
-9.78116648334524
-11.6163430951011
-13.0294716024616
-13.1487891440824
-11.0852876270277
-6.52919310799783
-0.184135368325966
6.27075487941886
10.9355825616878
12.6527020983469
11.5695123043959
9.11004759732042
7.17983278845071
6.81694118395494
7.48499208283327
7.88194021817052
7.29914036692832
5.98985096596181
4.58950273482432
3.61833482632558
3.22538946101292
2.89030228593105
1.59042540811914
-1.29865666248164
-5.42867530077335
-9.97732113960686
-14.3272438432727
-18.0774906000769
-20.930214668552
-22.9723841925146
-24.78302370707
-26.8850609000016
-29.0765950575772
-30.4388337006987
-30.0781028904773
-27.7844062200107
-23.8127317401378
-18.2326915475089
-11.0408179927175
-2.87816235835956
5.14382383617765
12.5734134606359
19.8229411407952
26.8406962821988
32.2116205921947
34.1823001089245
32.4615032421763
28.7536092143637
25.4654582692106
23.7781694543691
22.8627732800169
20.9733503491522
17.2138760615636
12.1593094968401
7.06724381490251
2.91899543437473
0.0938350144853693
-1.61353637148242
-2.89531316114326
-4.55606596024135
-6.96372762816422
-9.75993407685449
-11.9253294209107
-12.1561193062642
-9.6539884329222
-4.88700846019941
0.545061754550681
4.85501298106356
6.89319066292552
6.56454778342098
4.97249924148195
3.85122227764826
4.27729265918455
5.92755291642351
7.63878184858334
8.31448910235391
7.25109867177395
4.20946638696495
-0.403174379142941
-5.55385256155545
-9.96862078632681
-12.6564010350167
-13.3610077857921
-12.641378561384
-11.4183015705922
-10.4507691593821
-10.1321858296446
-10.3544843220796
-10.5725876969037
-10.6023777257656
-11.3039784297656
-13.5854204992571
-16.6023423972553
-17.9498705337893
-16.0986103224011
-11.9536294436989
-7.64109272093481
-4.40284690992929
-2.0697158982052
0.0403098717419385
2.35193299719972
4.96421909475055
7.87790321669231
11.0652542482458
14.2151683694651
16.5167129656523
17.0410843288207
15.4589076227727
12.2462393917429
8.3111734558961
4.64143238943598
2.06997754510303
0.972000471243496
1.17370731192413
2.23750795426333
3.68007987978767
4.92701728765071
5.43827850877297
5.15072135943846
4.69653721434874
4.9192965914491
5.93274693918696
6.67983246903306
5.82444584625756
3.27659443456066
0.382179554485279
-1.66778522924864
-3.01269702278728
-4.28181368857868
-5.24523309252299
-5.02150967257198
-3.34991770243602
-1.12045653087961
0.33455052392734
0.396702474655492
-0.139661151515397
0.450780697805224
3.18508985966586
7.08397346490314
9.86445476634008
9.97126930114767
7.63109699016232
4.03699874728513
0.0359760827023364
-4.21689983835061
-8.62014636540848
-12.4947503323341
-14.8746074240234
-15.516112273864
-15.3310003499005
-15.6004366224648
-16.9714117813231
-19.2642424210016
-21.7920177836188
-23.6136717402221
-23.7733067060408
-21.5617782294254
-16.6768006197176
-9.45029628832605
-1.02393649774953
7.13982214851297
14.1481587876046
19.7923126526631
23.9105625985395
26.2792614159804
27.0608431938953
26.6244680986241
24.9699561037571
22.0752965608657
18.7957772306253
16.6891608987732
16.7689109925779
18.7458489290859
21.4132974035362
23.4758136875581
24.1444046527362
23.2545225191711
20.8663599230323
16.8147289394495
10.8660606041071
3.23301626245152
-5.40683812932857
-14.390393311585
-23.342043233892
-32.096972894546
-40.4962304093122
-47.9435893366227
-52.9763102845058
-53.7282615178625
-49.3334461634823
-40.9213018714013
-31.0738698488203
-22.1715589359876
-15.1060758496659
-9.4633219848925
-4.73050499454662
-0.910365609450646
2.08468827720906
4.9413201860815
8.33297526877842
12.2069180547609
16.1014286245967
19.7769096426016
23.154921507352
26.0067213668152
28.089750458626
29.4299132686846
30.2699055872044
30.7270297739861
30.4220889251402
28.5389538887024
24.6438156397371
19.4998777786402
14.6220071621775
10.8409447104792
7.58783695648723
3.65818828500131
-1.57518179840462
-7.67076493431168
-13.5153662441932
-18.1226965991166
-21.0557495527704
-22.0004732008135
-20.3491491300353
-16.0302417943723
-10.7069614758672
-7.14608515693872
-6.96941710789773
-9.46682785652411
-12.6300025002865
-14.8569443632152
-15.7598720794684
-15.8721643700163
-15.6856941742998
-14.8919315195813
-12.7130837165629
-8.87996669189309
-3.91893953658581
1.37251324786021
6.22673209458617
9.81631986629099
11.5056838470109
11.4201949227161
10.5687950404656
10.2374783800704
11.0423600798903
12.3602676690543
12.8149276950946
11.4651033253813
8.31695298159418
3.78328372147528
-1.66065831776958
-7.12248589042477
-11.4330278370397
-14.1627819279074
-15.9770672264216
-17.5575622797778
-18.5616937410866
-17.8171584970354
-14.0102410569516
-6.24577687532265
4.97958348223515
16.9111987673653
25.6015648276684
28.7143111323628
27.189973057061
24.0473851748239
21.8687672240351
21.3721430849381
21.6940938883411
21.4602631714136
19.6895036361365
16.2249284960158
11.6968104370668
7.02750541781704
2.81073158235065
-0.808169752635733
-3.75853111390161
-5.9553758008934
-7.68010448463711
-9.62507059472713
-12.3123511546517
-15.6156914130193
-18.7512973136629
-20.4893254239299
-19.7922253623115
-16.8668585480197
-13.2487754562597
-10.1338865372278
-6.94548947005939
-2.36120820686123
3.44820743389736
8.47372512934463
10.8284403002994
10.3739556514696
8.20290065257282
5.07669665331257
0.818798817701388
-4.94123451622869
-11.8290506514161
-18.6387557146029
-24.0018021018203
-26.9811615246311
-27.1570231113528
-24.5833383918606
-20.0312068873165
-15.2425588761121
-12.5126743837399
-13.34749070832
-17.0039301841186
-20.4286615732686
-20.1241374544204
-14.4194115184402
-4.21438675210492
7.94010299021891
19.2698963960321
27.9499710335671
33.5972194653161
36.6420226726461
37.2193172653922
35.1826027695961
31.2604773068566
27.25939197647
24.459875874355
22.3215997056845
19.4229754085486
15.4693277755707
11.8187614796333
9.84146747641841
8.97454566671945
6.9037669378224
2.07047105627745
-4.3594562310537
-9.71935803487998
-12.8190225405135
-14.8053113301075
-17.1255412256324
-19.7861212310888
-21.9763626712912
-23.3624646376909
-24.1045047908104
-24.2556044961373
-23.7460652237867
-22.6381601734482
-21.0142955465828
-18.5944896298295
-14.3881861705776
-6.88552265279492
4.6962241610284
18.954652651291
32.4683578392965
41.7582680715698
45.1197018318865
42.960626249939
37.0109735855555
29.1648101191746
20.5407230567254
11.4614122466723
2.3643922443638
-5.55289336314192
-10.9316443298416
-13.5138597905055
-14.5855359087141
-15.8261601543517
-17.5510311528987
-18.4371644762553
-17.2926628830341
-14.5620692512958
-11.452591458407
-8.11508444784067
-3.73994614555156
1.55071392618341
5.75413462768979
6.31546367844511
2.2570099916094
-4.9405634456177
-12.2825459626928
-17.1311909377098
-18.6039834204264
-17.6343504077148
-15.9756797394158
-15.0921804187383
-15.4680901107616
-16.317386774369
-15.8202263914062
-12.1496093851017
-4.96173073421724
3.74541405778762
10.4981190112042
12.7729535842273
11.0106825213849
8.1357904501029
7.0636498472405
8.86854093097199
13.0029533443723
18.3500965037955
23.7442384270481
28.0528211459579
30.2389200855098
29.5351930035935
25.9721073260984
20.8137667585816
15.6817022903425
10.8445006575464
5.1751660113724
-1.77151663655381
-8.53788592144354
-13.1151754171239
-14.7111402307885
-13.8284761882157
-11.5796838362218
-9.55046491322085
-9.52327947326587
-12.2842519103118
-16.5902880404317
-19.779554370732
-19.7392486512403
-16.3974957750256
-11.3903495669287
-6.47798960007101
-2.44173362780764
0.836090091759272
3.99712832032802
8.0384177714262
13.6344602498593
20.0576647739439
25.2657994517375
27.539140440148
26.8510930934841
24.5817218234966
22.1547334362321
19.798579723492
16.2703882739868
9.92883004823491
0.359847829523375
-11.0947456823405
-22.3061008033201
-31.559253650387
-38.0748698918719
-42.0143720940939
-44.0986553178573
-44.9079823737261
-44.431573070522
-42.1746034220056
-37.4922584944436
-30.1512719441989
-21.1777371544928
-12.953928109761
-7.72119839250343
-5.7830935557987
-5.28407482323571
-3.42673641766111
2.1804787834596
12.4731752421144
26.2149054986697
40.2871288979319
51.2217859923384
56.8547347897643
56.9716090214408
53.0287117158098
47.360688486988
41.9328942873881
37.2401335440723
32.4144760460149
26.4010083144065
18.8582578631571
10.2046965288199
1.42127135485753
-6.07367121371245
-10.8859421732073
-12.5325189612612
-12.0154408269233
-11.2604595559076
-11.6718496601233
-13.2636828393611
-15.3082948212844
-17.4215085717054
-19.542329332549
-21.2856587293074
-22.1560850817597
-22.33287093846
-22.5547191222886
-23.174334193639
-23.7639360993969
-23.6835120407823
-22.864247968356
-22.0636038937163
-22.1282671051219
-22.5870357987869
-21.2116166419923
-15.6820629484231
-5.87325701588087
5.71807768520667
15.7346991674347
22.1764225111195
25.483609478501
27.8229817815096
30.8882878215129
34.0524761477319
35.0276286921693
32.4843853288923
27.4597234256504
22.030627430694
17.3543618418578
13.3993563987728
9.93505987725734
7.10493958095537
5.05075772328055
3.20981439575997
0.142164226505212
-5.60743547994669
-14.0713719850033
-23.2011013173943
-29.924220183618
-32.2681152081993
-30.7432009170498
-27.7113430599077
-25.3953779887376
-24.4941531474834
-24.3342327936249
-23.5858951748271
-20.7046628423039
-14.7010947807676
-6.36129583417171
1.72161181209427
7.24662723140275
10.503531247076
14.1139745875292
20.0330363935981
26.7113895276152
29.7381833953214
26.0478611668783
17.4790436003993
9.40807610947265
5.63636638579536
5.22113577441573
4.45638196218946
1.10210852299762
-3.87066542105034
-8.00088844962182
-9.8404460405125
-9.7456718167164
-8.89682056892144
-8.20095550888345
-8.26689641437648
-9.65042226404555
-12.0545189447926
-13.4454969726487
-11.1596160859159
-4.249620587909
5.82202469926568
16.5254327992379
25.3953508500178
30.3237991509192
