-2.31882650080037
-3.45255883136941
-4.08265520025246
-4.15739290287593
-3.66451727298065
-2.82877877895881
-1.95465142616286
-1.26094455078899
-0.886943850378052
-0.830447456341766
-0.9140382541135
-1.01307367371653
-1.2049928026904
-1.51300478659605
-1.68898673218829
-1.45081497723564
-0.797159532511716
-5.93168882127258e-05
0.582802309223163
0.734422681409792
0.590321843191683
0.545299944978209
0.830467343104992
1.30071095901114
1.67515725683895
1.81654781400317
1.7763561571193
1.71650722230717
1.73746067850119
1.70441243836817
1.37742725894328
0.728782187753756
-0.0794096577505865
-0.984466987346509
-2.00632768738099
-3.00748369459154
-3.74351918148663
-4.06772930884783
-3.93174065881449
-3.41118803173903
-2.84710047571202
-2.64532445652948
-2.8383269119144
-3.14113248134844
-3.40613255809706
-3.65795289715171
-3.75536701398808
-3.43194876988803
-2.65346803748125
-1.61623475612183
-0.450319961010606
0.809185221362397
2.05550872807287
3.14359997392198
3.9905010947308
4.52898296045047
4.72913367196172
4.71574975605428
4.68150240649073
4.70622640648467
4.80758000144727
5.03204701890646
5.34497182157454
5.59628340933718
5.68947387153248
5.61503283168449
5.31333484517457
4.6937176457809
3.76470270322814
2.63605771144437
1.49886845314964
0.630254407353322
0.199168077729011
0.056559842061571
-0.0441179344270652
-0.0626343971583955
0.273541622093207
1.15568221248259
2.59152659855692
4.35191780575938
5.86464948884745
6.50137808664924
6.1370480138378
5.14532613021553
3.83095749139725
2.2233464701352
0.38011319831544
-1.53431076375188
-3.47099044249634
-5.44404785092322
-7.30453747211046
-8.86639301859031
-10.1385000511356
-11.1604360548374
-11.7846159546486
-11.8617059720183
-11.4457764586644
-10.655268782412
-9.5477699555703
-8.20932616425749
-6.74989950633004
-5.20107648355955
-3.6062188362691
-2.17652113311204
-1.2081667935042
-0.838190449383108
-0.881224542659695
-0.899410937157399
-0.57008291286783
-0.0283319025277756
0.357242127176871
0.562246004055274
0.975885756237535
1.88972719346717
3.19791701247684
4.50826652579707
5.24793630713484
4.89437810819369
3.52864437785402
1.99533736457718
1.19891487116476
1.42670643495805
2.47496951904322
4.00064538525628
5.51930387892206
6.48936686231706
6.73814383696123
6.61488480757058
6.57767591102934
6.7980754480569
7.18006604888657
7.51538074864985
7.57565002347033
7.23486113511682
6.53113603673406
5.57445738488361
4.50465817469949
3.5083166596226
2.639771887301
1.63977986848254
0.168929285471004
-1.78670208553306
-3.86277129576378
-5.57146515410988
-6.58767589476389
-6.99855415064953
-7.29362605521908
-7.91619168216443
-8.86360632953066
-9.83987300748451
-10.584667983211
-10.9014992321207
-10.6545923171861
-9.91581326797053
-8.85429287736021
-7.41325809451755
-5.39799934653192
-2.88401235442154
-0.241354946016892
2.17969354423824
4.14531612266645
5.49033900343638
6.21717770361415
6.50007486081546
6.47052272324756
6.16943746807822
5.71102744684298
5.22889273759402
4.66037125974327
3.85403761462071
2.87989912918373
1.9919911058722
1.3378007966524
0.920563707308761
0.734702565504447
0.722379562693855
0.711271104655198
0.553275290595882
0.234174969681328
-0.176400099867656
-0.559194529623617
-0.784321774824434
-0.831960562021067
-0.781995747616903
-0.650586982745322
-0.399697315848803
-0.084837750306427
0.200663668486017
0.452699816610878
0.650617240947521
0.670564645094526
0.459079161018141
0.108180819937672
-0.322712561814273
-0.81619455245501
-1.21745749872833
-1.32823922413757
-1.14924728755737
-0.808783472723
-0.411819605859871
-0.152185152377763
-0.288364337555456
-0.786034018995091
-1.26231403982127
-1.44251121828807
-1.40214013738594
-1.29006013337815
-1.12230220636894
-0.909485353363837
-0.702164840916731
-0.462694964854735
-0.118529926238317
0.266628934024537
0.555207565185499
0.690590002079505
0.656926417970205
0.442684882805782
0.154654318110449
-0.0139794528134541
0.0056415562924976
0.134238814521901
0.3055489191384
0.51483706423341
0.790942380400303
1.20489198592107
1.77869912339088
2.36450372114406
2.7596981903957
2.89270853981862
2.76016227465963
2.31904993530092
1.59139572554576
0.726988132844651
-0.119344586222572
-0.816693727426391
-1.22860974222778
-1.39037129812757
-1.56068721953024
-1.82290474663765
-1.87643555203831
-1.5176399895393
-1.02606578162254
-0.773270219632887
-0.742335813407096
-0.679371659415626
-0.442114655457504
-0.0263270275501874
0.491406367676674
0.929285726824468
1.14405322485676
1.21199943996703
1.25109066372158
1.16102006347723
0.810059784170761
0.341174732055407
-0.0031676179831608
-0.232808250149405
-0.545931019763523
-1.03670859908114
-1.62101222671449
-2.15245288360503
-2.57235379447846
-3.02384614171867
-3.74050788047778
-4.72913364466886
-5.6618521029198
-6.12339151262327
-5.87580451988518
-4.96079463744321
-3.68747166675096
-2.40996519058427
-1.22073262782021
-0.0418885584446047
0.980867490159012
1.52741429379647
1.59926993799619
1.59450426457764
1.80921965869523
2.14461471100691
2.30419497197928
2.07836876958155
1.54884145295621
1.1669494824552
1.43282517401943
2.36166367368334
3.45729595663561
4.25145389848281
4.64125159142677
4.74145367036322
4.73972715803926
4.90626677589596
5.41439747467075
6.08931594752028
6.54849128308524
6.57185487598431
6.19028289442041
5.54744956707929
4.83002618584936
4.19097351328603
3.6402473943687
3.10370062175682
2.53634975827076
1.8678512257441
0.99659954729488
-0.0334463556232497
-1.03182705515171
-1.90269281681701
-2.6805169212206
-3.33942880440352
-3.80814972339571
-4.14251352408342
-4.50007987914569
-5.01241705855666
-5.73466067203102
-6.53484861449774
-7.06152248159308
-7.094288132329
-6.83229439677804
-6.54025548165638
-6.12110003163441
-5.40305047109283
-4.61891917821918
-4.23926785291801
-4.50149807721371
-5.29520973698768
-6.26100091305447
-6.88644354540621
-6.81692157065482
-6.20197038783936
-5.51367991734752
-5.01651847102858
-4.6213894212015
-4.12588982078556
-3.31005292847985
-1.95824073050639
-0.0961719940299166
1.92968993197928
3.80991116133128
5.51298496129893
7.05031390076558
8.27228797829417
9.04548702396594
9.4540980375031
9.72601322914664
10.0028250297746
10.1700408244161
9.95241385567016
9.26105044359054
8.33538646424838
7.42862740201772
6.55287536594523
5.67936311194607
4.923869185284
4.35711747875971
3.88764722729151
3.45493730440272
3.0902637764553
2.76164271152246
2.40711916141942
2.04321057542371
1.60468361388155
0.858610544790264
-0.288411007838209
-1.61827533580834
-2.9152335267069
-4.19477788798825
-5.49010396837797
-6.68314697234481
-7.64457515528206
-8.29802752484017
-8.53059307556538
-8.30653743951927
-7.84414424172673
-7.40886133641082
-6.98538058138621
-6.38652487924873
-5.57853103022762
-4.70715406428217
-3.93287858362396
-3.34646521687374
-2.89736686733749
-2.39161536166913
-1.7062503473819
-0.930770112164625
-0.175183378110409
0.611656090671909
1.52949660063764
2.58505896991623
3.68838375155483
4.64245892648705
5.19930239084236
5.26738201688527
4.94547503870375
4.29137896624218
3.30049819211664
2.14420051274417
1.09448778435031
0.179360581141396
-0.761897673625862
-1.71197661085004
-2.46045016141469
-2.8443823393139
-2.7665820353362
-2.18997362294899
-1.32603458105207
-0.558382504187886
-0.0020953911339745
0.568419634783495
1.23421990288678
1.72060386665394
1.80590832943048
1.62874979871338
1.47454040279374
1.50489374423198
1.72843685173922
2.02028803653203
2.20077654158739
2.24465715745521
2.3045458755531
2.45171974235649
2.57580826631053
2.58133197579294
2.50495063474741
2.43817300507453
2.44014890588265
2.45256677868867
2.2761001407908
1.78412600068617
1.12669682727571
0.538611235457387
0.0491476258751894
-0.422178331318225
-0.850704986942732
-1.18251925018447
-1.44047718340527
-1.6421525317626
-1.83252884981492
-2.18701063073614
-2.77864730606656
-3.32449357036186
-3.49936575751311
-3.36722590132704
-3.19013780179467
-3.01388510366323
-2.74571954551324
-2.42988691968462
-2.18085729783068
-2.01844411444442
-1.9327687588992
-1.9299366700709
-1.93138750496419
-1.83034616453621
-1.67090354085524
-1.56955233701881
-1.50816994071352
-1.39643915117902
-1.21363223498289
-0.918739792142341
-0.412347170630313
0.266755977813488
0.907549245979265
1.36727165877468
1.6728524873648
1.90852250712614
2.16103904703779
2.4879928678293
2.82972707391754
3.06940063363005
3.1926103978275
3.23447411973925
3.15963989367263
2.98541600577019
2.85651263992869
2.79924015815096
2.62507618673975
2.24853268244228
1.83682910191382
1.52933421915714
1.28655501180205
1.05077610193804
0.790727502970379
0.447524385397918
0.0621178167796737
-0.204268403923289
-0.353800421370629
-0.604562946670651
-1.01673783683947
-1.37417263679555
-1.55882185912492
-1.71113435687313
-1.91869553211681
-2.08549641010009
-2.19490505670238
-2.3819095961185
-2.68559247555218
-2.99458009945476
-3.23372224776762
-3.3958912964326
-3.44498935778228
-3.31854234278683
-2.94450604880596
-2.24980864927019
-1.29112911706547
-0.313741563888837
0.459027409781581
0.98824059672182
1.30464292405826
1.4244433791835
1.42217402359634
1.38867726529921
1.33347786871373
1.28595152026685
1.35011944805875
1.50102223256726
1.55635174646068
1.48227642307252
1.43613690199229
1.43739253663011
1.3488500871974
1.19868660340355
1.15241076536365
1.20338076495149
1.22044396463412
1.19500862567858
1.16480064837822
1.06136065159901
0.865281750637766
0.723700418988032
0.738750198586948
0.827970918258779
0.888519256811406
0.887641870468736
0.766499297336208
0.504253303976383
0.260077743128799
0.193243082784556
0.19679061553712
0.040173076704904
-0.317729568893576
-0.736177824199297
-1.09420625839613
-1.37394827223344
-1.64700567832378
-1.99524797364769
-2.37262163081227
-2.62690340116592
-2.69947552496253
-2.65428171619273
-2.51443712877506
-2.25779278939926
-1.91348222751753
-1.47416888009363
-0.852205575264098
-0.108305044493578
0.480486129872886
0.74593820827547
0.794103968722186
0.77135325044686
0.743593263651078
0.797456303490727
0.940480615935578
0.963288943601412
0.703730362068144
0.3302850726991
0.1141309388736
0.100021085782806
0.20193854992453
0.39062427199622
0.604096242265171
0.706584132672962
0.684833107552813
0.675088909782758
0.720813150573621
0.718417684921757
0.613391453470324
0.440293921284012
0.216926215877831
-0.0258875165423391
-0.213566152544966
-0.33149475143254
-0.402393616756241
-0.351030077208276
-0.112594805157449
0.168254675407142
0.280057299989914
0.215502749581571
0.126283680267398
0.124305320887103
0.2309033319027
0.373404934630622
0.40198805708409
0.261244257068997
0.0836206036085122
-0.0182313514356161
-0.0785859595938413
-0.0864874502670473
0.055459368403119
0.272111668806607
0.33345903537751
0.201476771783668
0.0541985156419957
-0.0185411730521295
-0.0524522554649935
-0.0396684571603133
0.0140135062427461
0.0067123277543983
-0.0787517860737724
-0.0954446357286755
0.0164600570178193
0.114996811740496
0.101146634003381
0.0455851508321017
0.0029429705231171
-0.0636137810303107
-0.150311290853103
-0.221950408364255
-0.306089998828274
-0.398166418484011
-0.400992810055051
-0.302289514266703
-0.236210336084875
-0.280737580771557
-0.374091771530651
-0.434419373267667
-0.400322124259765
-0.238800211131495
-0.0424269662593706
0.0318461792418612
-0.0069474163163278
-0.0082616012324035
0.0650937771054264
0.127562839780501
0.154341181788553
0.164474122928686
0.141803119484832
0.125762657667834
0.185772458037269
0.229422622851046
0.106955089175195
-0.0943583574366892
-0.174839440022257
-0.153427836780322
-0.142663868073475
-0.0668401607646076
0.148747045006926
0.318704885000121
0.255183423117506
0.0680993167206457
-0.0581938909634904
-0.144640647459345
-0.248286735072571
-0.275421454641428
-0.168436791973596
-0.0465239968612614
-0.0273369679541959
-0.118762284655939
-0.315245809084643
-0.579726143175445
-0.76692221069941
-0.768604770148975
-0.668143665054095
-0.612723622244759
-0.623983066287863
-0.607918282403908
-0.473292880844872
-0.233771356984296
-0.0179906228578045
0.0920204406842603
0.191456158970276
0.386228146248017
0.612349726131532
0.80628474836033
1.05568850167452
1.35284689499489
1.46308935668756
1.2822124773965
1.02125278132254
0.835307982454954
0.624373378358494
0.34927776737509
0.153059591433708
0.0638956931953912
-0.0553830219047364
-0.220205841710924
-0.298480104868008
-0.245556707151056
-0.121759790353073
0.0322030671039432
0.152339429612995
0.135647087574761
0.0146863700519283
-0.040391879807606
0.006375737667721
0.016284176750649
-0.0330294391858383
0.0138826829962317
0.215650773641994
0.436530452037327
0.526582732100187
0.435415448507171
0.214137051967418
-0.0013804457842509
-0.117914570614421
-0.204771162993832
-0.362001956697441
-0.553366700955372
-0.703661849556745
-0.815170536306961
-0.875989019575037
-0.840706423671343
-0.771648002995961
-0.799719330417845
-0.935314649441588
-1.08673480776979
-1.16925029659532
-1.0550238148406
-0.629743787370508
-0.0345349038510986
0.415672328957675
0.629150223488292
0.754562722001649
0.831837419444563
0.780582474590791
0.659530655832544
0.582541943115762
0.478054344312119
0.237656906324899
-0.0299855796169721
-0.148320261075927
-0.123229816895881
-0.0507206492830105
0.0446705204792318
0.13432755707476
0.149622226013812
0.114793247783219
0.112330727301397
0.0993945721757858
-0.028836789968333
-0.233137837372339
-0.376802455122825
-0.401817619122849
-0.336449354236618
-0.233865424958055
-0.15388741432312
-0.105932695154599
-0.0422333707832568
0.0284271139974234
0.0450403035035465
0.0384618293427244
0.075932698051831
0.0816363113584339
-0.044077367188349
-0.193395283338668
-0.20106941348042
-0.114186557976346
-0.0713318265978305
-0.0739591947880472
-0.0655121541511798
-0.0274703559829463
0.110056348897745
0.393553531595183
0.655974911721698
0.688618885414703
0.563629864548003
0.509577492822184
0.569742572515486
0.642756162529109
0.717813242206665
0.825108198866394
0.89596578038892
0.869834132530666
0.79644440362866
0.70121227107199
0.518127776052423
0.235425013514699
-0.0617494676463876
-0.301517015893152
-0.430189544209587
-0.399391342301249
-0.283197990669564
-0.250994021039411
-0.333279772705985
-0.405828408272282
-0.419135893075059
-0.426070817209752
-0.430644721022544
-0.41467345368455
-0.421912177744606
-0.467756629972704
-0.497614992317099
-0.500730382760517
-0.499983727951801
-0.456640777358227
-0.379071369045612
-0.413396676312052
-0.620477666743449
-0.835425405384435
-0.919907973189027
-0.922925892563631
-0.882298182212096
-0.753805665984007
-0.591553024212027
-0.502493823565614
-0.435088653090994
-0.281435236043594
-0.0934935044029669
0.0409009496183271
0.175228625975315
0.350962117829652
0.474056276362213
0.514024312782349
0.585614444396141
0.705381324398565
0.74079874192804
0.683963984681429
0.677965379522464
0.736303214289315
0.735388132025612
0.66955724040226
0.640251776051271
0.649734569240409
0.619532611692618
0.528958514210732
0.406918461678108
0.285044147866112
0.200113654554895
0.156146180673289
0.126342011751153
0.140395860221814
0.243270955004436
0.361785840385324
0.398890024424224
0.412053686984197
0.475368427793462
0.477302374775848
0.297839744112235
0.0277918595959548
-0.198256500996044
-0.37783965010348
-0.506503002290801
-0.526968345571726
-0.482908669232417
-0.456080694284079
-0.382883281376516
-0.206094176851038
-0.0792513869880819
-0.135873208316784
-0.237660244252754
-0.221729514001837
-0.175650876788239
-0.217228997055766
-0.257776541888045
-0.219335547682691
-0.215524439359324
-0.308895688021328
-0.355948031266908
-0.256571873072923
-0.128074398440245
-0.14037176581687
-0.340020467372675
-0.627591626489662
-0.809566704864752
-0.76316529669287
-0.586584228788222
-0.458361615428373
-0.397175586676469
-0.317929848581205
-0.213762004841179
-0.123378462491679
-0.0544423389213894
-0.0406461465166272
-0.110509580617765
-0.179105992613474
-0.154308362819075
-0.0792455431493731
0.0076301464464425
0.164327236903523
0.323994619437298
0.275811825874761
0.0332938829731391
-0.122485276675182
-0.0834414931037248
-0.0284190386333844
-0.0476489220708987
-0.0303108689743604
0.0646632447288783
0.159512892245067
0.245730595518745
0.354948309604788
0.429440121073929
0.432493424336342
0.452122589803395
0.534167083719042
0.594453191349443
0.605468812922626
0.640575887815039
0.670652871066658
0.57204353402655
0.358635409947856
0.175411007081055
0.0932566750686294
0.0855290783706576
0.121041691414849
0.164353999697184
0.188771868261204
0.224866850379082
0.299557861170375
0.38177649488541
0.465391913608454
0.574438469328742
0.643019138595557
0.578153443956912
0.441289307770696
0.35409925268942
0.288093865836293
0.166999112320989
0.0448453758877302
-0.0215136704976273
-0.0861865131540545
-0.148000097357917
-0.110679191560096
0.0074062124187767
0.0857866839057151
0.121490559259663
0.170619267237849
0.158575477193503
0.0166411597823793
-0.128025222305677
-0.147030100032998
-0.128560073335807
-0.183140230617698
-0.228281210574565
-0.166609879426554
-0.0780408716947125
-0.0766612973058584
-0.174030551539348
-0.365237793428136
-0.63615042583618
-0.866834687517958
-0.931004429526762
-0.860426226732427
-0.769364727768161
-0.710782344303664
-0.684822883855781
-0.656479803425919
-0.551951813489109
-0.369217835843149
-0.230354565207532
-0.212773404470954
-0.251848037897186
-0.278462918197819
-0.283299363872086
-0.239173930862535
-0.158281325105941
-0.156469617584082
-0.255006451513703
-0.27823094832567
-0.148868354034283
-0.0447198874341342
-0.0862864343643037
-0.164038465622829
-0.196330474484994
-0.229058707410436
-0.224595076166996
-0.0909792153663523
0.0798775129238238
0.115726861724129
0.0492510428291694
0.0255533734184218
0.0323483399405372
-0.0271410406269365
-0.12589403255864
-0.196175845482285
-0.272077436608103
-0.38290389677443
-0.468076201476079
-0.496438018215345
-0.503150947285049
-0.498789759898071
-0.50498221023741
-0.599747467896045
-0.773446409363645
-0.873515472317016
-0.807541210574523
-0.647743764931163
-0.484242229015593
-0.327723925892652
-0.145466141104302
0.116797570192543
0.461240678779463
0.737845423645933
0.79287831050827
0.719088968225728
0.732180818635
0.859250434707954
1.00345857983914
1.17842379858644
1.4000958378326
1.53036692727179
1.47898176490202
1.35268863710728
1.25013240336968
1.16559463091534
1.15029904293879
1.26409881750699
1.3778836302575
1.332339306062
1.22341071835562
1.24013691759771
1.34698607870852
1.4083467472259
1.46246294930142
1.59856556372208
1.73632822301454
1.75655291803701
1.67289840992743
1.53508324148563
1.37147693800384
1.28615561925484
1.38810603219729
1.62074202206371
1.83843988004517
1.98482772177287
2.07669056654454
2.11906222255716
2.0802480065944
1.84360949287351
1.25029226576464
0.315192379215371
-0.722407158113691
-1.65108845491295
-2.4192673804143
-3.00815684224821
-3.42103436226657
-3.77080555678309
-4.12782044029425
-4.38250326993807
-4.47955893499694
-4.57470612612388
-4.75584513506087
-4.90547205705432
-5.00363978029273
-5.21377333956356
-5.54464820119407
-5.77945772400043
-5.79742831768219
-5.64636034749797
-5.33360563118857
-4.86779500393909
-4.43050018982026
-4.19782982860579
-4.0680969702521
-3.79140179719845
-3.22883704132973
-2.31589837211461
-0.99228897232736
0.663192333417406
2.42868480033204
4.14234920888124
5.70439502944421
6.90741134263837
7.51318750948145
7.49455538476079
7.06649444484855
6.52307281583233
6.0651172767858
5.68304212277134
5.23142632778969
4.6813326139506
4.17036594251706
3.76169696950603
3.37090553375368
2.96721646561835
2.60228957634583
2.24965932280785
1.864764622091
1.52074185693122
1.24963153384541
0.923413365303613
0.503296132715399
0.149648121707474
-0.0845130262643639
-0.345421585322712
-0.642570421251462
-0.781186908934569
-0.719062131357789
-0.647973358931966
-0.675494466902203
-0.729152014324514
-0.762270565630912
-0.777408759421963
-0.707775633216241
-0.530963994282175
-0.404222520284938
-0.472434715092288
-0.673529256519991
-0.886372777027947
-1.09554025185892
-1.30847989619366
-1.48855135316594
-1.6135325808795
-1.67285685621543
-1.65485951894782
-1.61210775440583
-1.61625370779894
-1.62422172469601
-1.54349475363629
-1.38938210458358
-1.22701424904931
-1.06893314967701
-0.950319539304981
-0.926319747493052
-0.922770672321687
-0.820235749872788
-0.690152795581908
-0.682753494236745
-0.753881074590948
-0.775681069998539
-0.764282560423526
-0.745066920618001
-0.620325320657036
-0.385194386595067
-0.20808734930548
-0.154090306681941
-0.112659675118236
-0.0522830623122889
-0.0427520247638584
-0.0327521839927975
0.0921581773108359
0.277218339589365
0.396860624586338
0.485213090609606
0.616737635047791
0.710169683962987
0.690138901922979
0.654492217411999
0.670975779230432
0.615675577093548
0.37923714579327
0.0490294105927838
-0.197195808110179
-0.237666041923143
-0.0673144929564456
0.175772276123315
0.318523609649328
0.332663274148035
0.304199571419874
0.27516648512873
0.256489161648493
0.286613855238826
0.338423112175414
0.318630227918977
0.246374411175169
0.234945842494758
0.277166588503167
0.284658964111309
0.288955295004903
0.358545213948581
0.442798077737333
0.517766960854205
0.676755685722658
0.896387184340726
0.985862171623525
0.893401756929926
0.760045251989392
0.621277248460394
0.390343503485168
0.142523519612835
0.0752012080752082
0.188854767304863
0.298517991765756
0.322386250632916
0.31795679453766
0.3195180911957
0.332918575377167
0.359288962662809
0.30231178064242
0.0435783630164187
-0.330365558929201
-0.595715207618461
-0.679062065676075
-0.672681112879815
-0.649532068740821
-0.646287744918363
-0.702007451698366
-0.783058744814038
-0.801291529196135
-0.741033504526733
-0.636150635492154
-0.488884596609144
-0.341142510849822
-0.282416959338399
-0.287934843601903
-0.250557820285669
-0.207588688647719
-0.275300425535931
-0.388187952889256
-0.394810292850437
-0.31992734401574
-0.25354879168933
-0.145500150937846
0.0457229626797864
0.2174977248422
0.319224124928062
0.437232579348677
0.577104109447032
0.622685989459535
0.556026037219547
0.467112843511796
0.365946350081201
0.230427396092142
0.16356754598525
0.248733256641501
0.350936982905431
0.297696388531935
0.133770771514093
0.0112460441846997
-0.0222589129515386
-0.0078007478039481
-0.0109764669485391
-0.109564025849847
-0.295890087333323
-0.445938359736859
-0.506855807860824
-0.583154871290303
-0.745819298571174
-0.920596165657459
-1.00720958572544
-0.953320122536058
-0.743812941066364
-0.449152646050735
-0.182951903395163
0.0611495649336726
0.351040800415912
0.596586236466861
0.651421271688746
0.583218476074507
0.550727731023306
0.526489111955786
0.425167646974348
0.320042094099681
0.277825810681744
0.218121364041146
0.132191829928836
0.161557498217025
0.324063469545117
0.453733592908444
0.485195269153715
0.505735219136362
0.509856894310812
0.40329379151226
0.242780117898838
0.187153060910785
0.232848858932316
0.225913709301308
0.0734844711925185
-0.206788187640252
-0.517159896588323
-0.67474591154194
-0.552157497250034
-0.255196409839852
-0.0053184071062142
0.100451863784972
0.0909186964549543
0.0162432868101938
-0.0635153838880122
-0.125867536376392
-0.228234767452002
-0.36721597484526
-0.409161321328185
-0.317479122890344
-0.257164725456736
-0.322601159136408
-0.402755142439346
-0.421024159079994
-0.424479296792743
-0.396494697809593
-0.290822758651086
-0.210119769946535
-0.235086045498586
-0.195636524422791
0.0901807668223522
0.518740481341335
0.877302840125888
1.10558790774688
1.21401662659973
1.17501608423732
1.02087672014764
0.858993551972248
0.739584370135365
0.648264013186894
0.571303452366381
0.428855286508396
0.084967803789518
-0.417622541239736
-0.812676760088651
-0.944934713222179
-0.948931446102249
-1.00354407138264
-1.13604656428426
-1.30668205842234
-1.45473403389685
-1.4596428493885
-1.23231565045599
-0.800232234409376
-0.238201473541883
0.34146620482145
0.737520099728284
0.821617026075018
0.725322560383903
0.663256539457673
0.661726789546914
0.629495989575826
0.530942059561322
0.360535780770415
0.155462512997544
0.0795047246927737
0.237269795257353
0.444259978075036
0.458030240332349
0.308039456451873
0.12897833589908
-0.10339152655455
-0.393322455417706
-0.547997520306708
-0.44248314913928
-0.226661836870102
-0.085977957637389
-0.0288497280956826
-0.0216811469914248
-0.082404829363618
-0.155093740110165
-0.123892980731023
0.0065573014689884
0.141452389999405
0.270651212968266
0.424699215957114
0.535237280619627
0.49968772653221
0.309556977306801
0.0447694406299286
-0.179359102543566
-0.283516508964285
-0.316227099657448
-0.379997063385182
-0.437477857129053
-0.358286221246112
-0.151475113598966
0.0460516632805985
0.161008097144629
0.18183276671144
0.0938122874376786
-0.0192345888455266
-0.002328017879357
0.11002488465157
0.101546842303774
-0.0811665395450824
-0.262365466588414
-0.32437383211803
-0.287478273066891
-0.166258693519588
0.0023555897099834
0.10459517625894
0.107511621548833
0.101007873474072
0.0906244653229499
-0.0081422843116868
-0.128556514821834
-0.0957665407779814
0.0670001038472689
0.163203643351738
0.143962475851571
0.127111322577631
0.144948827927332
0.138416335561249
0.123381673161906
0.138648232948199
0.141137754854134
0.105260645846463
0.0781962245839726
0.0670504534861432
0.0373486880007825
0.0114186023622106
0.0138990600160243
0.0016523214711019
-0.0383055900752063
-0.0511506674205863
-0.0240085527376644
0.0171574620618235
0.0858217986832949
0.156223054815615
0.128480968543901
0.0181949008079548
-0.0096424502003515
0.0925667753231607
0.196154736585461
0.249363095602892
0.303195696902106
0.313040792343579
0.219916614669292
0.128555017001991
0.122897355899165
0.0861655581101229
-0.0577482045170222
-0.17625568081278
-0.191171495912962
-0.218372703062921
-0.307297698279527
-0.350317179399048
-0.345275874773535
-0.436188869628655
-0.629935663806458
-0.764241226126471
-0.77858324542546
-0.75612402530054
-0.729013189827168
-0.66256827519834
-0.547856805131591
-0.353818588008708
-0.0259686528593138
0.37740266930941
0.704758153272967
0.878380292545728
0.903992392984241
0.795504903032922
0.612694880711476
0.450459623635536
0.326849495893296
0.217337456632791
0.159407030933801
0.157881002956263
0.106927422331304
-0.0253343356142261
-0.112380805221725
-0.0956412151777279
-0.0591560504036718
-0.0167236611948559
0.0859728838354205
0.165749779931007
0.117381296395399
0.0531740460567829
0.112118947267323
0.184090174352601
0.117406039082284
-0.0040615012671368
-0.0455389994183907
-0.0548209914336219
-0.107990671748568
-0.150320530096291
-0.138185963719027
-0.12490764251452
-0.12478775009141
-0.0977024666005094
-0.0802013102341345
-0.133462681204931
-0.216239035501447
-0.281159559735956
-0.367210686064373
-0.462927930828696
-0.472380683496226
-0.408903672099009
-0.404817844110801
-0.492540335454331
-0.572233549177687
-0.562984189946472
-0.440474249133501
-0.22876238674694
-0.0394493061512305
0.0284878494032648
0.0333159642063951
0.0700030727114874
0.0980810713087386
0.069677885450439
0.0591823184830986
0.0997278329532739
0.117946981730101
0.142374038565784
0.293136056379382
0.515116543768317
0.629883712395922
0.633901249023369
0.656476513349491
0.722882135179319
0.803144333039233
0.914640424836644
0.984352553553792
0.850345083192692
0.545793936511517
0.317228627233411
0.269914094776521
0.271163332657558
0.23823020228551
0.222423312132716
0.206402896706756
0.119408948152168
0.0317178874076765
0.0706989123894301
0.20369068189999
0.299552763944308
0.294439688486042
0.176870849999405
-0.0377944756241927
-0.261695974186313
-0.413570320956629
-0.528064028111324
-0.669866847285288
-0.826630043216199
-0.962765737511463
-1.04779584466288
-1.01361845921812
-0.837360117010287
-0.624059097509063
-0.467364702657027
-0.341076195968031
-0.226130699546467
-0.152688572443781
-0.0724479167884989
0.0548752316527047
0.0780012481326624
-0.138515119061233
-0.425650119741429
-0.545173873985895
-0.542338394960995
-0.565294190129403
-0.555396460492691
-0.383231580508968
-0.0704479456915377
0.303091913205729
0.679685947415051
0.920812165460085
0.88889513962232
0.684562336722986
0.552689671404689
0.56316450640742
0.619825202748852
0.681098884695535
0.7089388371217
0.551782209206888
0.142965433570577
-0.333554402846991
-0.654140748447179
-0.765389154451929
-0.715560972420041
-0.584073372479379
-0.49700649199882
-0.534595756355714
-0.646224956243608
-0.742770454136096
-0.770202524018496
-0.669242351904718
-0.413077891534959
-0.0674190913324504
0.306402700106904
0.696453884119806
0.998326204848619
1.04144759875366
0.846103708759311
0.618093906572768
0.466669949046644
0.37929890788778
0.39545773075086
0.519995619432384
0.59706989344612
0.524990141939477
0.41151343770505
0.330747372395319
0.185329934496019
-0.0386716952639098
-0.174516755121564
-0.163144320903769
-0.154748334760594
-0.234453011823139
-0.321469704115319
-0.379263219167778
-0.451095673267514
-0.489019374511353
-0.403758053140599
-0.245653773065273
-0.137465224076338
-0.114623252317161
-0.151735127126166
-0.210310597602097
-0.210232460284824
-0.100953480719186
0.0605253231920885
0.214774047398984
0.372198295463649
0.502403064982529
0.521877132462173
0.431023812892848
0.290986568529974
0.114869979044521
-0.0454040732245005
-0.0591566356658769
0.0522625914118878
0.0667424305486766
-0.0962935483323239
-0.252305905350038
-0.272109497595591
-0.224055543909362
-0.16210036032026
-0.07960827801689
-0.0405712283201519
-0.0802924522960069
-0.0795546479320778
0.0345549039743324
0.127921381426477
0.0798247591870542
-0.0367345510333665
-0.124466370104956
-0.185819029827083
-0.195015481732184
-0.0939324852554398
0.0366970659169133
0.0478025884879983
-0.0419043824491842
-0.109009836820621
-0.146624860988311
-0.210240405682929
-0.267483033604559
-0.267614041904895
-0.219387470150334
-0.123357456912714
0.016546949825616
0.118845905371551
0.109022279882047
0.0180013953804656
-0.0901309555105767
-0.167010712254304
-0.140279230931451
0.0010978313692626
0.1200634559849
0.107280649520309
0.0345844441289432
-0.0144342335981432
-0.0601361547693476
-0.0527772465191109
0.122135301618257
0.364286062842101
0.413728569783951
0.236852394427102
0.0428889943294209
-0.0425543979565521
-0.0257283114407655
0.0993204615073365
0.266664330555142
0.287397351831528
0.105990211379146
-0.0917227487535054
-0.169143551609154
-0.191712252265476
-0.19744175864911
-0.103628173874086
0.0762091696183995
0.199962482670449
0.222688397357843
0.211354528214241
0.172245295644937
0.0899270597469652
0.0436879268650236
0.0925098105050556
0.154061780828134
0.113742279984995
-0.0489595834844249
-0.253148402945449
-0.347027435364423
-0.235409820197642
-0.039428229775637
0.0312911538885252
-0.0258673189608456
-0.0596083535534934
-0.0635539762220991
-0.151790547249851
-0.30882430050469
-0.418535434629631
-0.442535922119688
-0.391054417472122
-0.276602220326648
-0.187817275257423
-0.190708797008647
-0.1596849959336
0.0335358871784011
0.257589354559376
0.32539613280359
0.297331689910143
0.320717489613346
0.379762996600936
0.430641921086041
0.538716667483206
0.684703957960674
0.685095206030507
0.470035791627342
0.211919142654506
0.0747222836169166
0.0492823136733015
0.0638744541756702
0.0534494425411896
-0.036254636056857
-0.146741659573369
-0.135829349685501
-0.020398726817792
0.0152810996476927
-0.082875094011576
-0.175468101921266
-0.18076948674291
-0.158986377542856
-0.172623361527577
-0.236198392812118
-0.334696794949982
-0.401114058971494
-0.385286090224984
-0.346264066145586
-0.342057969863814
-0.316608968047141
-0.236295310713777
-0.166321147240333
-0.0914814659676484
0.0894771654317315
0.30906952320372
0.373380359022831
0.279464377888518
0.164462457299436
0.0054271570780333
-0.279536157803797
-0.554843615337644
-0.632291228700672
-0.561259843212234
-0.473634137179884
-0.330607685287412
-0.0615124521065247
0.247252780592484
0.481844157080125
0.612747571244831
0.581731147762881
0.332802540743068
0.0181357971781359
-0.0895405051165874
0.0719102444166285
0.310661274409695
0.429157110822696
0.36800946219369
0.200592696148315
0.0776056577042838
0.0728753470969292
0.0886293666784471
0.0215871914157597
-0.0764714325566802
-0.115757577953104
-0.0988393950913187
-0.0554947100505724
-0.0082980296397269
-0.0081693243708226
-0.0446298017173189
-0.0155602191487941
0.0601028556232959
0.0016673203553067
-0.210998598711881
-0.352743068105818
-0.312887165230583
-0.216519568736375
-0.125610812166077
0.0284207088608279
0.21087852026857
0.317190715747936
0.377202866989291
0.447108580319945
0.442009143039335
0.311507466363374
0.180757827386647
0.120946002999841
0.0153195195250396
-0.188620748844773
-0.351330003572315
-0.382798305159896
-0.346066721855964
-0.26181712031574
-0.0871747122298887
0.10501592149146
0.185552783468673
0.163800038969721
0.124863227049384
0.076671543233644
-0.0006809375188201
-0.0756294420219268
-0.100463867070194
-0.0330742679417813
0.134469835563753
0.301429663459731
0.335667289439393
0.254568715272312
0.167181289093238
0.0891519285437389
0.0221836656286099
0.0863885444665225
0.321972480582345
0.519503324147937
0.476307760314375
0.235468168502621
-0.0723434586182284
-0.373144819527784
-0.567827295490701
-0.599439036433318
-0.606920860207582
-0.737173529994391
-0.8958149142002
-0.940703284579406
-0.943242947014719
-1.00203343719548
-1.00872230376178
-0.833813427242777
-0.533850506852042
-0.194488429235484
0.197480648290095
0.583782312952588
0.786715354797885
0.746475577295716
0.591685383019135
0.44180588959974
0.332849181412699
0.288628272227472
0.295746230719025
0.295699447880166
0.288883258435866
0.317569073852292
0.347952134853222
0.323521094333005
0.26855612379765
0.210940001988275
0.135010067997507
0.0867301171007488
0.134010226170403
0.20169046396791
0.164556172832018
0.0585782167837797
-0.013568709564855
-0.0538395982855603
-0.0492098465326703
0.0966610432379952
0.333011925655557
0.434153659979003
0.328134457872644
0.162056023657583
0.0046648263546148
-0.19414928845128
-0.368805340090592
-0.377383816218303
-0.234169989008335
-0.0707042176743347
0.0380016510116831
0.0481669687753199
-0.0839276073005303
-0.270198933181345
-0.319949794764971
-0.203579546742091
-0.0877418166187336
-0.0719258221535609
-0.114800400832667
-0.193273341571334
-0.290963935796456
-0.300160758534229
-0.15234137365224
0.0536221152162071
0.188950137154875
0.223983841892091
0.175887715312157
0.0908125216162233
0.0563842716282265
0.0909031746521967
0.102374393758629
0.0406943240214062
-0.0518555346844566
-0.155568521524069
-0.251338447979109
-0.241730093775415
-0.0986010901949572
0.0396034233364991
0.0955648999178179
0.155072972103448
0.210765717382111
0.130618991210439
-0.0241431957276023
-0.0337127979420468
0.0934544330152569
0.166732228088098
0.190545563743635
0.282686973248766
0.335989912137734
0.176378676324061
-0.0779808617693882
-0.185605995764283
-0.158312353405469
-0.161486541092772
-0.212253228617005
-0.228335718976861
-0.199265035918993
-0.140348037883811
-0.0594294612010941
-0.0322528654258216
-0.111460479480687
-0.185664460844471
-0.12175874551887
0.0378639414670899
0.163995009168708
0.197317194655565
0.140977537724919
0.0397350031307318
-0.0283838251059991
-0.0496368043682075
-0.0809450350241372
-0.101920887815873
-0.0387788782306983
0.0467524877577238
0.0266828160802341
-0.0693903571666968
-0.152375093144502
-0.28266388687594
-0.510818246468868
-0.677409642815795
-0.622666140111116
-0.395888119992452
-0.0877448398792728
0.285692571929012
0.628979167313954
0.782601587592361
0.741667263587862
0.62185476959945
0.463857579689023
0.290148125564927
0.21657003452748
0.285976359495819
0.352862490609497
0.313108540578735
0.244402462000833
0.179173136613491
0.0074915292165592
-0.254406869575602
-0.384989299450409
-0.271344655104979
-0.0571056735214612
0.0732441122772111
0.0537564967783827
-0.0861812649853712
-0.239852256068487
-0.292134169608506
-0.255550062110553
-0.23524020141169
-0.263814919483662
-0.294250120688278
-0.292190735441236
-0.234932990390307
-0.127238864473958
-0.0550147610640328
-0.0726707896706585
-0.0811477108538984
-0.0009106195682669
0.06567788927988
0.0440453588274645
0.041793851980147
0.0988476464132563
0.0728547111865894
-0.0581790692351519
-0.111718439864655
-0.0299359566346065
0.0582125851136281
0.138732394997346
0.314119919719681
0.519328392961296
0.574965112356238
0.474165897648538
0.338378556865117
0.193798320123036
0.0301591647692006
-0.0667677645082446
-0.0459944168893952
0.0051796304925801
0.0125974124191494
-0.018013419550199
-0.115010269634357
-0.293498606042874
-0.431439453556724
-0.415023156126335
-0.312124588688037
-0.230732373031063
-0.16113484070385
-0.0750523211395897
-0.0046130819315139
0.0310965968363184
0.0306651622728389
-0.0235099521057756
-0.09587952491615
-0.106907600527866
-0.0664230824944411
-0.0310844610984903
0.0486280508084709
0.216249725942646
0.329733386902772
0.245104585836241
0.052929919626452
-0.0854067285957858
-0.149504006045967
-0.149041498001281
-0.0506854351196206
0.0801183820457864
0.124718963581196
0.112475589651841
0.12154260520259
0.0742660424368902
-0.0928130545645972
-0.212214565699995
-0.126018722347822
0.0318985020598019
0.0570766175270331
-0.0197245044098516
-0.0777657476134288
-0.125502487089429
-0.168849068040134
-0.10704002087548
0.0697939468456414
0.204097105231316
0.188778844830752
0.0740911345197895
-0.0488292375727071
-0.121038221691443
-0.128135466060232
-0.127743014188104
-0.178615778212344
-0.243064349583773
-0.263668042569183
-0.250240988455446
-0.188554823176871
-0.0238331587871367
0.177329553363615
0.253502860693445
0.188252472882317
0.112979656946497
0.0939653662989366
0.121356152377074
0.195921784969977
0.240859694266683
0.128676434361688
-0.0608311129097551
-0.0898211591291028
0.0427159082169549
0.0918766371235826
-0.0124176361378558
-0.0926564375650041
-0.0647350379895431
-0.0124886534304657
0.0381587378042818
0.125780010791973
0.21048241662354
0.26291844193542
0.372052404909155
0.570962107134397
0.72438870096303
0.732186149773766
0.636154389343805
0.455374662581633
0.176426596371627
-0.0718835829181885
-0.107545044790932
0.042093634650296
0.165264297608242
0.0996047115937657
-0.160303960374273
-0.475964311941272
-0.656866047528344
-0.656444408448654
-0.620854490046935
-0.657720172902167
-0.71328900334826
-0.741392899921974
-0.770252267900853
-0.770924214592218
-0.695621193474319
-0.592520625127423
-0.445159315941249
-0.0791387551122862
0.494577878380486
0.903137290970629
0.868395446376696
0.560969715970505
0.279945400216779
0.105907665460419
0.0302418841320927
0.0759148444858609
0.164716434694691
0.171172569805373
0.148476324903917
0.219236285195698
0.287113820660436
0.154065465161426
-0.144802901937736
-0.394176537333121
-0.49003584493777
-0.458897534872762
-0.325220196235632
-0.143830846210746
-0.0323244884899588
-0.0603755111188505
-0.201742897463173
-0.385445755466386
-0.505044099265297
-0.464216820782733
-0.281295680312541
-0.0461376905068003
0.209613681441238
0.468538721556984
0.644989589436485
0.692715110323631
0.672413126186044
0.618308403440921
0.513785956182439
0.428968249831084
0.446424736721808
0.469384996314464
0.359652712570499
0.184785818975915
0.0838063015347879
0.0429206348468532
0.0174288914956492
0.0522977385097697
0.11382612063911
0.0658711437844506
-0.0795754705711058
-0.160420254396354
-0.143314922836409
-0.137820640355217
-0.169986162206509
-0.194992830556979
-0.245022203794629
-0.333202957775677
-0.349471610296711
-0.261843216717936
-0.236647845263601
-0.367037616686441
-0.490585553957577
-0.434586649622187
-0.243316024590704
-0.0755316953907247
-0.0509815289542131
-0.192940972572622
-0.375773227439274
-0.403253513100529
-0.231912285138073
0.0014663800665175
0.184230377945693
0.297882245763065
0.337755218242418
0.335652280457866
0.371750946025364
0.440681700299343
0.449311609368969
0.40041501530281
0.376396011066434
0.353567982227808
0.268532941048834
0.18958575366252
0.188206180855974
0.190548981640596
0.154109401453572
0.167410747121267
0.228476496474274
0.204347228894017
0.097186688873677
0.0475844749050977
0.053679169619004
-0.0075679641863769
-0.119731907046104
-0.182347388856273
-0.239554266876412
-0.376782350432831
-0.508691825168063
-0.51741908856691
-0.460306749351478
-0.448994085552484
-0.491692591027452
-0.566963288997444
-0.651589443746331
-0.649448683301619
-0.509643070765626
-0.356249475313722
-0.298787102928827
-0.251471536797125
-0.113418921529049
0.0524935375385405
0.144702369357021
0.148412196167859
0.0914978243453561
0.031021566757343
0.0458420019564713
0.130961294280792
0.214735286020102
0.323168708862327
0.520939603019713
0.698460799279885
0.683595201274986
0.517681423425613
0.362473934764777
0.255336201222746
0.187395842903051
0.219660970287106
0.31903291350287
0.322998504157675
0.205714595324454
0.117322714758126
0.103241482407505
0.06465055467473
-0.0036544205155497
-0.0151983597519547
0.0053677137023708
-0.0277226620309967
-0.0819786668502967
-0.0883923498171054
-0.0803860895585226
-0.0808045773083254
-0.0255931514980451
0.0693010858622255
0.0762487369188804
-0.0254413161597966
-0.111149536133595
-0.113100428991597
-0.079610420180782
-0.0710130278248386
-0.116575318344433
-0.186695299207217
-0.171719816508677
-0.0163193776186555
0.169037148928074
0.264598036882231
0.279329795613869
0.21435202449724
0.0096335115739928
-0.256103690610837
-0.374704177897676
-0.309871949086939
-0.237076485910932
-0.272664696954966
-0.402509872687739
-0.589895392613042
-0.726968454633755
-0.647882131353037
-0.379615904366915
-0.157966851080566
-0.076859568016493
0.0061016298374686
0.161454605691457
0.291585968426411
0.362944321483483
0.438334448012503
0.48654144822121
0.423636413366215
0.298121105351096
0.212554423643976
0.154228077274343
0.0756634962940243
-0.0076389573534302
-0.111602628402682
-0.267535411982926
-0.365851545378522
-0.261341322217509
-0.0229840415992309
0.154210755058379
0.210398271725876
0.203519632343331
0.161633951821249
0.0918752087114939
0.0051834567363701
-0.109051628817751
-0.209845527267813
-0.180408754003286
-0.0060685957149404
0.167158049131664
0.245133991906662
0.261997992351861
0.226815740735881
0.14546655630255
0.137771908412251
0.251920536464692
0.298029221508455
0.141113009865468
-0.0550456865398903
-0.113973341552134
-0.0940991375555195
-0.0715426526559363
-0.0044971657130448
0.0641874341907449
0.0064134969527533
-0.130100596946676
-0.178924378953986
-0.158078350986711
-0.204759564047824
-0.278131570603021
-0.23399154955306
-0.0962053630719741
0.0181524454847975
0.111981699708276
0.229119661592215
0.324169101476558
0.361709024466166
0.378939834786201
0.383607265905072
0.340682993183931
0.245801967088577
0.1043855857168
-0.0759107801841465
-0.225066016171377
-0.281618195668165
-0.306590363396565
-0.371657351212578
-0.426624529421857
-0.434047404324637
-0.477463210492325
-0.596781915219834
-0.711440067003733
-0.785460874834055
-0.832194439365097
-0.748161432201348
-0.417675407773628
0.0493869135584047
0.423826318007048
0.602283716198882
0.585194791580324
0.418961842356733
0.285643420960567
0.381061589133185
0.608305246744487
0.662481338311126
0.453328255096727
0.175311077301425
-0.0119785635698629
-0.0925716343600829
-0.051241620735744
0.0940558165543267
0.196541245334801
0.161077919134438
0.107700051557435
0.170449795147698
0.291577745713956
0.345098603650449
0.291011025769539
0.149026725563718
-0.0175882575616895
-0.107469922328766
-0.0957556540480557
-0.06530767563133
-0.0620439751665486
-0.0526972428453203
-0.0316730834163142
-0.0169297293186366
0.011340643911056
0.039614248280366
0.0065761426584147
-0.0540392065116501
-0.0365280215824441
0.0415184136481126
0.0880651959405902
0.123994898750166
0.165444417195913
0.0688245055992424
-0.221325627290849
-0.481536343641997
-0.534514441472841
-0.507046138239556
-0.551477820443726
-0.610935431837531
-0.62057083944102
-0.626920822154507
-0.595773368910042
-0.401764019997027
-0.0749261234410908
0.204688835686297
0.360417552165628
0.436435438889878
0.435272974323683
0.359274167990409
0.294964459113956
0.272999801482524
0.203969565319685
0.0724066541248349
-0.0038977865718931
0.0299741002755326
0.100589072432188
0.131027505475998
0.0876058878512926
-0.0192198130602893
-0.0934441385031192
-0.0393121316719802
0.0927680791283436
0.186300453235053
0.219116833711311
0.207584175565844
0.138526575894017
0.0749575974616547
0.1197979764119
0.202173276668541
0.157545590072287
0.0240110049512617
-0.0325169943523149
-0.0157415153275907
-0.0229719202721812
-0.01702539785709
0.0512706345300754
0.0905242515470345
0.0508039306752683
0.0225192918775339
0.0295505061844239
-0.0038873582053357
-0.0337001879519408
0.0540360939323552
0.177245422466849
0.153906820885788
0.0224882191784794
-0.0381647757906435
-0.0240594377646572
-0.044145405660342
-0.0635802638738509
0.0143393852192715
0.136866143576052
0.179625617661325
0.107027123067416
-0.0476652589734543
-0.224435637798867
-0.341437307387491
-0.372250512083831
-0.368508075332313
-0.358181986096997
-0.342738053091844
-0.375480403463947
-0.469201921831141
-0.497992207911614
-0.369893698804537
-0.174284095763149
-0.0201480533265465
0.083607676132263
0.113276876646346
0.0552131963467905
0.0520091858877129
0.218873564953093
0.384651936461502
0.339927052205793
0.191805311408447
0.150054620921515
0.174894906213406
0.136829082465716
0.0851588967092017
0.103853670785543
0.131059139666189
0.101012686995441
0.0546427814370958
0.017031868993363
-0.0313557016387513
-0.0479668620448191
0.0005682520218897
0.0126386765774802
-0.0968183892610812
-0.223602047934907
-0.236364937220049
-0.162480755730454
-0.0781645067304508
0.0053086937059921
0.0756806850642034
0.122950347178288
0.198357152206852
0.30943356624576
0.344402036319685
0.230484118557313
0.0393264767279897
-0.129723034199034
-0.221709415117501
-0.198781534690769
-0.102982681497646
-0.0652140768057348
-0.120316567591664
-0.167180802579428
-0.186096395613959
-0.249295081999856
-0.28571566422368
-0.14716997710105
0.100466749506027
0.271502473982546
0.365260091689193
0.473589285409122
0.541122260500289
0.496724875684353
0.426504670023841
0.397849622095466
0.336261299465348
0.219144865528167
0.140014071447685
0.10110479963189
0.0118867601728806
-0.0792118453897363
-0.0328400018894526
0.112447037966772
0.182769508520779
0.122584293475789
-0.0114002335199973
-0.182360569883872
-0.325014644833124
-0.337101445953519
-0.238779644123137
-0.171925938306826
-0.209637305448088
-0.314518710767661
-0.428076395913171
-0.484078337150603
-0.445611246165027
-0.386110875335477
-0.396107693863677
-0.439908242862854
-0.454160136441053
-0.463884301435068
-0.446040629058585
-0.28000392191955
0.0177252307622293
0.246682768872417
0.30630868683016
0.274277446579969
0.197737459929067
0.0800030333517456
0.0019590810116851
1.55485888363102e-05
-0.0330201417424956
-0.127179985809818
-0.141671589558332
-0.0378676220086837
0.0392556558711137
0.0592365253651878
0.171428581168021
0.388042940944242
0.509682884552867
0.430478051128978
0.249614445285493
0.0739222282831508
-0.0478079311377987
-0.0504816905983068
0.0689105668467749
0.190772197964073
0.23175520759752
0.224089130501939
0.191637123981308
0.140323788170022
0.149445784580871
0.271232079879795
0.409764480389591
0.452165042653791
0.399320758864039
0.285524669862663
0.135978911472838
0.0238598084691697
-0.0048830689425565
-0.0150027794942537
-0.0470272196609696
-0.0404639018019398
-0.0068528649354043
-0.0630713447887974
-0.212294833281689
-0.33768440304198
-0.414063637843265
-0.462864604640812
-0.394574770840623
-0.173740173345296
0.0219527747119264
0.0547875196390973
0.0252648810470395
0.0285480545522622
-0.0211649749944144
-0.165554259649789
-0.275511907025301
-0.276448512738208
-0.250927514088129
-0.242931530135995
-0.196785345710959
-0.117781181717944
-0.0794986848870078
-0.0964313227808235
-0.15299092380628
-0.251968361558745
-0.316681714881612
-0.225235047548302
-0.0171832810353771
0.138730495833498
0.189175528408827
0.205848822144734
0.215972495463411
0.20510303240711
0.184245689273077
0.13867165637481
0.0472240003370198
-0.0204890229780591
0.0062242349849372
0.0661225044766993
0.0946643120844405
0.150037426986699
0.246225345318933
0.259504924292774
0.141877303011532
0.0036391589910325
-0.0846919891360119
-0.132413389688161
-0.0994576222504656
0.0186310524229031
0.0827137174370376
0.0228512764153961
-0.008321250611101
0.112149535000697
0.283210807304589
0.37929025353486
0.40749282199248
0.373831263432208
0.242527605418387
0.080645231054793
0.0019908721449457
-0.0268412837191229
-0.0939850280775553
-0.144438923682732
-0.114491181804651
-0.114682556619766
-0.242619179458633
-0.388280395787087
-0.418965438491963
-0.381344036217943
-0.393238199754707
-0.480881252103244
-0.566159372106252
-0.522881127049828
-0.29135130715223
0.0238618228847993
0.267043402626685
0.40330394267156
0.450258958692833
0.369893030529195
0.192202963723382
0.0661833242520891
0.0440564639923852
0.037759246988109
0.0599305783259197
0.208833240447354
0.395268813117753
0.423020316415638
0.313539040418397
0.239344896279736
0.241872140962466
0.278767841317626
0.355924126840583
0.391941727216413
0.207882068083972
-0.165722260747843
-0.448558024508062
-0.50666536294966
-0.49934190651945
-0.550738307525856
-0.585402707232283
-0.550073705303533
-0.497080955792784
-0.411857690030571
-0.219926866575637
0.0373123015096415
0.227954498395664
0.282462445252844
0.223301329815857
0.142694932469179
0.1599632751236
0.273373010508964
0.320694920387303
0.201477653822938
0.0039740726945901
-0.164170821093719
-0.282684117910884
-0.328830474409675
-0.291329531954521
-0.246232357693306
-0.231438619339692
-0.158542538258626
-0.0019608167757629
0.130286788575622
0.223721353552674
0.368870811561052
0.493350679659293
0.429907121971966
0.250872103699367
0.173317265678531
0.192728773803833
0.149093130939794
0.0378357810594294
-0.0379341610761929
-0.0701883638336708
-0.0785862869549324
-0.0254123644979405
0.0490453358668632
0.0187095340815036
-0.101385763294973
-0.149597550428022
-0.0856748408572235
-0.0266504759797929
-0.0264072530767193
-0.0509820156368563
-0.0985091397371046
-0.139052893826548
-0.0704854263633745
0.105902608710754
0.23283478696979
0.207412556578916
0.0751853817098425
-0.0822703734509922
-0.195604100520258
-0.216508552525938
-0.193886000896122
-0.222197540876224
-0.276041938117757
-0.259949158834077
-0.185773579935004
-0.112485490488299
-0.010461228677777
0.135069216455627
0.241891217839601
0.286362030648293
0.336600147377022
0.375191592110604
0.340233049492907
0.309854050657989
0.362545914079928
0.369722577340602
0.219891239601245
0.0699823731677719
0.0929535034273079
0.186442968114122
0.177386918104309
0.0928327448319762
0.028603619829997
-0.0258401751507103
-0.0854380651521186
-0.118695300956555
-0.179734641232643
-0.352049885500759
-0.542892370856877
-0.585663433364027
-0.514957152423121
-0.503775949866874
-0.598385800390658
-0.69875204266144
-0.704848256665636
-0.579979435945406
-0.375241210527799
-0.202292445981525
-0.0902532786613886
0.0493965528771181
0.250696503760619
0.43676104749667
0.561194231721393
0.623476368908609
0.581183122883296
0.441111150758339
0.330518058396276
0.30161253316918
0.250948146902005
0.165672886114349
0.173344990007318
0.251739180035483
0.222545614305376
0.0823602091732937
-0.0012558644306517
-0.0012147740972663
-0.0164695237414674
-0.0389838345186345
-0.0185279616660851
-0.0209417752766356
-0.0987968260784828
-0.177131732229485
-0.22378660095358
-0.323118747192718
-0.468467491975278
-0.51750193213474
-0.43842846559265
-0.365080476968108
-0.361496642261769
-0.344619423129195
-0.230430575444814
0.0071576452606234
0.333983963250513
0.603636270011018
0.667625300078976
0.592693066648571
0.580469156823084
0.68103689968942
0.768738707141517
0.72892567561879
0.523338170458135
0.198345992018776
-0.0827518382720671
-0.175789411714712
-0.135895710400091
-0.0937436063336197
-0.0484996858547467
0.0195848862034133
0.0033151083423148
-0.153001645878881
-0.319559281392213
-0.375005914743804
-0.32811219133318
-0.205629628305227
-0.0596850205283772
-0.0340803677342444
-0.173882990165731
-0.29655677317031
-0.271378887853727
-0.22226609015944
-0.260992442304638
-0.281611711822385
-0.205454317106653
-0.154568270105839
-0.212278269578926
-0.277199288789489
-0.282115335188111
-0.293390289388345
-0.31605763219616
-0.258601997889144
-0.117284141228257
0.0247861639218713
0.139512163363375
0.228260038783433
0.260803321514052
0.249542952567521
0.255294905057786
0.283701407059968
0.298425670666778
0.292110326151021
0.243626111322378
0.111853527148796
-0.0646010264235405
-0.194979543694569
-0.260160058848758
-0.271044288400883
-0.19763332820202
-0.078768483778171
-0.0256884023551841
-0.0011819638674207
0.148034550342208
0.369483096700528
0.44544876980307
0.373848820875436
0.336270506610745
0.321478565125241
0.165858593509739
-0.100635548504714
-0.295325222197917
-0.369621156068584
-0.384331529698027
-0.342991240089965
-0.262114013591245
-0.239945514660988
-0.302902371288993
-0.361652753302804
-0.386732513694624
-0.409389281432334
-0.35623694601368
-0.148937304295054
0.0885194905723759
0.195250681037477
0.24413557699595
0.405137647016796
0.67546374342004
0.927017467481357
1.07013348771529
1.07119616005379
0.957442064433416
0.826213495586067
0.742237542645117
0.691967438480096
0.68708557295974
0.750139950716476
0.785864617763731
0.677835213836982
0.48197520615342
0.321917965247205
0.206607169321191
0.131572188326774
0.151145612111229
0.192629102178571
0.072795980625892
-0.189454129429132
-0.376942925174546
-0.425520514908046
-0.470213378662845
-0.583348250057645
-0.742726864530351
-0.951156329848588
-1.15861746122981
-1.2350132555791
-1.2029559250142
-1.27875963834064
-1.53326468980619
-1.76173986003125
-1.80382872489294
-1.71922759136104
-1.57057958059531
-1.31851470273297
-0.980724879210862
-0.65172243522671
-0.373766901310494
-0.159577326855376
-0.0511139978485254
-0.0395111905029001
-0.0562400732110887
-0.0803977343958966
-0.108600195151687
-0.0624861065223959
0.124417987778653
0.410661861306356
0.724166145476025
0.999841600338831
1.13093917925641
1.07335269526478
0.953273149840919
0.880991031728678
0.786936723097755
0.619652809236186
0.4873323526701
0.439620400594987
0.380942532348808
0.312772004685306
0.354767809594338
0.480043766526887
0.545322660816105
0.55473038714414
0.586028207326053
0.549143815402343
0.319554439894141
0.0038864320030605
-0.181071496188448
-0.175848595282565
-0.0433481854355763
0.168738315848723
0.380911890137037
0.476452841421353
0.448213747701053
0.387229748711562
0.317605470678447
0.220349872025567
0.152621489378695
0.169587172202566
0.237324870525916
0.341184223868182
0.534638636179359
0.825002626523437
1.14996624396658
1.43582212992146
1.56747960595079
1.43480599315561
1.11158582185306
0.80726857003577
0.585366040770815
0.340515792749327
0.0414717338778405
-0.245561212220102
-0.522387876933949
-0.829097760221622
-1.14487228248574
-1.45887263002297
-1.77337568946324
-1.98183323045637
-1.98006962993657
-1.87837335677425
-1.83349293276815
-1.76678889911482
-1.53060130045633
-1.19954506502607
-0.91829545199035
-0.634848812339545
-0.22690845365474
0.292546937102914
0.877063050610274
1.52691449167758
2.11932066260866
2.41443765806945
2.35759720123371
2.13454985177635
1.87250268367265
1.53466287081853
1.11132447383067
0.682201474667759
0.303486933290035
-0.0259657015097812
-0.338565574886936
-0.677263813164524
-1.01638899775444
-1.25345264712243
-1.37366062836002
-1.51029312415932
-1.77476964378736
-2.17110704810097
-2.65951379817715
-3.10643821882391
-3.27492777176635
-3.10949366699395
-2.86680146450724
-2.73297890251421
-2.5719699400852
-2.27168563110959
-1.99570428047995
-1.87812891479549
-1.8134868550599
-1.68334135604564
-1.45758579489738
-1.04883086907683
-0.405091414436459
0.299412257553138
0.865835472045912
1.34504045381606
1.8512192996328
2.2907426320912
2.54041475455833
2.70075601732093
2.93013281048147
3.19410415389384
3.33823020472631
3.25082645510702
2.90987709284466
2.45127978968561
2.14757821619747
2.13601713479548
2.26408049131111
2.32258418730686
2.25601045987766
2.07114650663308
1.76075623464813
1.37799448837961
1.02504019940758
0.781436144067589
0.719978743323978
0.857342570890792
1.04105462046682
1.08171464350476
0.999546515027832
0.926815443259193
0.849321721988228
0.688379091524002
0.50791313638377
0.41669254442544
0.425263185465868
0.527996189119085
0.695768849523466
0.743406050889909
0.496467970073038
0.083301176660628
-0.222815782202338
-0.370794269210517
-0.476166525784222
-0.562267345843464
-0.63967754629414
-0.862400146332197
-1.32633957637977
-1.87617980156299
-2.32880768650245
-2.7010908371813
-3.05511387486728
-3.33299411229985
-3.47080757190157
-3.49568837108782
-3.4701366714508
-3.47436874414163
-3.57552021836559
-3.70269524029813
-3.66734071510757
-3.35851278356144
-2.79488741997973
-2.03729891469281
-1.20357063739087
-0.464382914132144
0.107598246833702
0.552224245061607
0.846371058414622
0.9183510312298
0.818497347101087
0.640238759643607
0.356273562999002
-0.0374411508510522
-0.389378599373044
-0.621268356454383
-0.840583102272617
-1.0486345467848
-1.05193106675587
-0.797579524272019
-0.4556125632994
-0.0972695019674141
0.358247388404683
0.857018484449487
1.20650189150008
1.35683358320117
1.42472017028073
1.50274896997706
1.65599608020742
1.96982735086099
2.40225785503951
2.75516386687288
2.94272663239815
3.08723572666639
3.25741034079448
3.34994766269143
3.29188195697416
3.15201186641947
3.03541855351311
2.99687037412509
3.00249195115469
2.91757296162626
2.62972211454721
2.17187375082096
1.63212854258683
1.05823524331013
0.548504697982997
0.24477520556031
0.131602313764143
0.0389655947316367
-0.120186452347118
-0.3205473901295
-0.568399033143177
-0.843663214197875
-1.03212542411575
-1.12760513459128
-1.29427706482723
-1.56754550970299
-1.77646768364875
-1.86501474839598
-1.96221929704247
-2.10605478812512
-2.24449374355632
-2.45890817012751
-2.82772708316223
-3.16627290764742
-3.2440947007159
-3.13560111275736
-3.0585799508814
-3.02684940638694
-2.91123542787106
-2.6441367006825
-2.17211551386361
-1.45096691231804
-0.63258621632438
-0.0058678285899857
0.323746975535837
0.476296301297665
0.557390019351853
0.603417352046772
0.69046339683567
0.906657501309055
1.26515607355748
1.70273963883248
2.08997491562392
2.28270558449087
2.24750284286104
2.0475164061695
1.69493114185291
1.20315201842357
0.738520590558795
0.455009937351432
0.263928582576867
0.0471539194814441
-0.0744362357002103
0.0133441731161707
0.139767926315676
0.106551151122577
-0.0368299206105027
-0.191065523634056
-0.388007618399679
-0.625565674094779
-0.800030673206612
-0.873380314027436
-0.880542876486718
-0.804707425933652
-0.646800130681346
-0.5060402836805
-0.408973341735111
-0.225709356469539
0.0835452648532169
0.349316207222107
0.453116662804353
0.472181730772848
0.483620473710555
0.479760538814933
0.508995421508829
0.654153528180445
0.87723494157569
1.05852630119542
1.12305229730356
1.04929850990428
0.886520251987363
0.769792713313727
0.762696822520118
0.752732030316179
0.640274327822444
0.482750978315076
0.3438457727637
0.210893599396829
0.125424886250691
0.149050784206097
0.194898794274663
0.137333439068291
0.007192756850161
-0.138500110967549
-0.345499474049961
-0.568219107968533
-0.634008481091737
-0.562512023477341
-0.588304724531483
-0.764290136619865
-0.89697621268975
-0.913005162079782
-0.92931014353703
-0.965880348964603
-0.932027867947296
-0.864143141367497
-0.875899833765271
-0.936076602940935
-0.939303860405591
-0.883216271450638
-0.780985892417823
-0.559917544168169
-0.202752391912596
0.170970301097922
0.442941990800132
0.582178259608409
0.627421575847355
0.697707199164275
0.897149936759586
1.12514020486129
1.15393758159753
0.929072114882542
0.60900362304367
0.346423936542824
0.217585236875092
0.272868468997602
0.482902243505868
0.729992834103123
0.923863884978345
0.99782321727097
0.856051838632582
0.540137299918394
0.310409166812292
0.310345146936044
0.339880725762286
0.188065269206574
-0.0665266955121534
-0.278656628239771
-0.463850027238716
-0.65699055383492
-0.829163741148015
-1.02056459384332
-1.29416127451262
-1.55176486033946
-1.63264908234314
-1.54785579241184
-1.41598906800487
-1.27147201495594
-1.11528010708818
-1.00209781435725
-0.917651614068027
-0.747818701800822
-0.473899137405735
-0.195379722291778
0.0698424124817199
0.37962150829118
0.692453505578525
0.912293458837324
1.03593357285279
1.10487819996426
1.1274904529053
1.12687158889726
1.12657223034511
1.08797920980233
0.994207331016667
0.91105290031959
0.849674044181961
0.727634281300405
0.554040467094782
0.444887077083697
0.407156778330136
0.331677760660175
0.181902181179731
-0.0254527500804442
-0.323513668326005
-0.680642082928832
-0.94950552605108
-1.07395504481318
-1.1359649101983
-1.1479251376986
-1.06779814848192
-1.00009951228282
-1.07632344180114
-1.19171199186002
-1.15439489997298
-0.997126690106604
-0.861809946994379
-0.711157404337871
-0.429547071227254
-0.067634930375657
0.244314397146574
0.473362932146661
0.627620049306094
0.71699485335894
0.843634847030825
1.11990544612596
1.4859211920036
1.78646207945378
1.96063902428166
2.02602841472942
2.00721492447124
1.96059252007492
1.92687101915374
1.85906597528556
1.73078581101942
1.62311385592359
1.58102610331758
1.54038901058186
1.48005092721709
1.43308236892444
1.31519458544256
0.998355138089824
0.548074591089566
0.145406783124108
-0.151984401823911
-0.372113709248569
-0.523921012247728
-0.70546056340304
-1.09646813645187
-1.71204604075597
-2.3836043921068
-3.01442648576835
-3.59786005522059
-4.01437457245266
-4.1020898993669
-3.90246330686136
-3.59368245432576
-3.25230654766491
-2.88980251204486
-2.59288382611463
-2.41792660714284
-2.28106269965703
-2.09576994180504
-1.86382708452835
-1.57999988102947
-1.24030086657902
-0.9320863454056
-0.733680436792582
-0.596401235160928
-0.452033667960001
-0.294480610961647
-0.077629379182246
0.289856030029715
0.810980476968938
1.398801393524
1.94884213189995
2.31573877311451
2.3915938942932
2.30847577845653
2.3511686838797
2.61342501288017
2.96129167448106
3.28525184739066
3.52091789717804
3.54167972343665
3.31058014888044
2.98469408062037
2.67177569910642
2.32284585565701
1.99191033295895
1.87873504837141
2.00806276867433
2.18514420988095
2.31499780765961
2.45200633734202
2.54415704571386
2.45281577586139
2.20622942154333
1.94953761122304
1.69964399719686
1.38223761941644
1.00205731329067
0.59978157869633
0.192995703327884
-0.145760332265337
-0.34677542697826
-0.495672566631779
-0.729131726803147
-1.03978076542371
-1.36302000422748
-1.7388300038915
-2.24649069002547
-2.90103951184176
-3.66034090464628
-4.40457280819233
-4.95753604648065
-5.26163659347962
-5.43166685565073
-5.56956700524799
-5.70642285811951
-5.91674505686894
-6.21478171367103
-6.38213512332224
-6.19251565013599
-5.69874465820014
-5.02215024725089
-4.06497271480242
-2.71529091531957
-1.10805289927092
0.538600958556474
2.09938936262885
3.4206352263338
4.30159929808436
4.69804533092013
4.72053630953829
4.43103631819652
3.86804735530189
3.20280733740941
2.62149897130839
2.13649334279307
1.71422069181042
1.43516068163393
1.34574629536839
1.34702166880462
1.37643937135275
1.49977494150376
1.73912013608415
1.99088440634148
2.13933120360486
2.14405760417407
2.07517121861318
2.0938950573782
2.26670740544967
2.43458706650399
2.42904153338288
2.30330184425499
2.17393454865623
2.01486350215094
1.78014455343967
1.51645150392047
1.22793138829284
0.857909297830649
0.438535714845191
0.0041169572663714
-0.58845124316842
-1.48365371824433
-2.58274116516413
-3.68100416826229
-4.63365969950507
-5.21003227358564
-5.08279064881411
-4.18023904622823
-2.83567480413602
-1.47593113097521
-0.353439801154287
0.430743173045809
0.920036731846095
1.32922226096874
1.83707314967625
2.37304177456187
2.78377414636203
3.08126104409412
3.34085951696594
3.51221755951264
3.47430673753946
3.12598010119801
2.39602984723131
1.34899292971629
0.230950488381502
-0.762245698836107
-1.6425091619921
-2.42554136054285
-2.96493295875699
-3.12965967207696
-3.00156971902929
-2.83983305488937
-2.94404694474909
-3.47952781079993
-4.32593299932677
-5.19282341508248
-5.90325449229336
-6.39904645236975
-6.54799462285228
-6.21140857958164
-5.40231763327545
-4.13945865427547
-2.3529945511285
-0.178992772778465
1.92943688778667
3.62254689967159
4.91887438744423
5.93015810300163
6.66871835460686
7.22702342110495
7.78690242570039
8.34662753075717
8.71815113842125
8.79656421266901
8.56697618637762
7.9447174273983
6.91233106162343
5.69023132162486
4.50199494396783
3.3331685269389
2.12697414657499
1.00439466060125
0.116860165284158
-0.549982802390361
-1.15774942743504
-1.92764541841668
-3.02643103244288
-4.43473718321246
-5.99898457432955
-7.59339598399899
-9.06860444295642
-10.1310440405569
-10.4979645828047
-10.0805481362784
-8.88208781225607
-6.9605938924383
-4.66181031955435
-2.60218998553677
-1.22994062405872
-0.590630647352626
-0.527105551238421
-0.841132557379202
-1.29911996478963
-1.74100253945163
-2.15181201032667
-2.52127767767658
-2.78370825637257
-2.9227915761332
-2.90175129776317
-2.51865746108041
-1.62518235566355
-0.444090320465218
0.635466143485846
1.51559269290631
2.35499225986765
3.18298175840075
3.83370092883866
4.149599797751
4.03191729665797
3.46569340501968
2.67247764094586
2.04547516238368
1.82381969065339
1.99014151091875
2.44818693574225
3.08331081909524
3.7115767889907
4.15535407152654
4.32725152302513
4.20885690898418
3.87629741947745
3.52100596295393
3.30449236311452
3.26027797505646
3.39403189252178
3.67877475014521
3.92981448765462
3.99231313661362
4.05588865982575
4.42992254253132
5.04538290747748
5.52878058990745
5.65439815972049
5.39370606476934
4.71801588255557
3.68527670628537
2.53061204540147
1.42791056832802
0.356666679269969
-0.676303943024566
-1.54054729123518
-2.18857372657902
-2.70414053150527
-3.10691365808607
-3.33946748762635
-3.41875162343191
-3.38200333821558
-3.18434144108921
-2.8733728330533
-2.73101156963492
-3.04192858692097
-3.83798757904868
-4.96385127731301
-6.24479962684252
-7.5413848288545
-8.73522197801279
-9.64930168999972
-10.0102608831038
-9.65625937840438
-8.74574785153986
-7.56222312447709
-6.2111501627205
-4.71934379776537
-3.24786521980147
-1.94551387267121
-0.755717820041671
0.437366321205089
1.62973363767478
2.72244179739663
3.52058191917817
3.7656362241007
3.40683416179431
2.69415661202154
1.80355195840057
0.668675374475187
-0.596934082466125
-1.50724249194338
-1.71451744260157
-1.37696513384322
-0.808261034753363
-0.0937150432284009
0.771486134249956
1.66402308017859
2.40182542974452
2.83329250120351
2.85943562041544
2.59021861190529
2.40196093769188
2.59773158326961
3.08501200746207
3.52622469851827
3.6602258484272
3.42957401134741
3.02948819510909
2.86350650831356
3.21909998443424
3.95998560980791
4.6559462234473
4.95572785770932
4.79737956169232
4.39273952417342
4.01516044327828
3.70081738945624
3.25623574295077
2.61874313166377
1.96417844816235
1.39274478036646
0.832586431212229
0.281448715978777
-0.241938778498643
-0.94722902552751
-2.02324506044919
-3.19864449511105
-3.9769884800872
-4.22338018508286
-4.18919849639791
-4.12432498502489
-4.13662180314098
-4.23425068712509
-4.30001783581734
-4.21082211443492
-4.07592119214153
-4.13374920353679
-4.38761467704375
-4.60319894986831
-4.65767445588652
-4.61395647935695
-4.46773276103493
-4.06368963953223
-3.23230231304391
-1.88144461795986
-0.0861598856918823
1.81996106901428
3.4015776046703
4.42121201524737
4.90502841218689
5.03323498522903
5.08458503232101
5.307392915077
5.70739991521716
6.0886022230267
6.30954115645598
6.3392062649603
6.13835249135389
5.67384835774773
4.96283734133426
4.00959283573376
2.87148682023941
1.79121349891673
0.982462393910479
0.319861705970514
-0.44666204237444
-1.28200824065152
-1.99427979187598
-2.58541954121402
-3.14885238898497
-3.62788606926098
-3.94536413832071
-4.14790135218723
-4.23275758950859
-4.08637298535647
-3.7292979408584
-3.35696096086288
-3.05327409934504
-2.74017092090219
-2.44753684030258
-2.33070948586618
-2.39118294897879
-2.44712627889407
-2.37241701121998
-2.1558846518891
-1.78946014347774
-1.27109412887616
-0.672233021922164
-0.140850973538433
0.123289318405112
-0.0351223782636364
-0.575697683457726
-1.29520373577072
-2.02343898613099
-2.64882115599466
-3.01708963764698
-3.01083768183292
-2.64266110030944
-1.90356962857867
-0.726376919249028
0.709670424583178
1.93455846192836
2.7091600742904
3.35904945206768
4.40226766467704
6.02574874887121
7.95989704466435
9.65254423201594
10.5966692855355
10.6623187349962
10.0292126504966
8.76145068005911
6.72722664297668
4.01859541574101
1.10529890410376
-1.58160051912263
-3.93258471898629
-5.91517744563693
-7.35992227451383
-8.15818355658324
-8.47134374921093
-8.64142376202133
-8.990217275963
-9.64088552567011
-10.41771055507
-11.0123003413618
-11.2628885555711
-11.0889379251976
-10.2160613526835
-8.26437967952983
-5.14220679117595
-1.21981774162591
2.81841743961261
6.27393183937813
8.79450608407911
10.4665856525325
11.3971729152462
11.3556221321252
10.0837849180093
7.77394016934338
4.98065251697542
2.26593922887322
0.108536730535151
-1.13715796183827
-1.38796136836676
-0.740746607807313
0.745697127845675
2.92186057398529
5.34650445870582
7.53181830437777
9.24732838399717
10.3723624303939
10.7152136583689
10.2153385683665
9.09266248387314
7.64129657789587
6.09324437799322
4.69842329066865
3.59482143187549
2.5632090475522
1.26116720113592
-0.270916877155144
-1.63349510902335
-2.53859211612163
-2.97883288798037
-3.05574473514759
-2.93606037684598
-2.91695610339606
-3.35260393428424
-4.49554416139785
-6.32852145228551
-8.44950170011526
-10.2781806737868
-11.5447701395888
-12.4643065344816
-13.3581657033437
-14.2574807558253
-14.8977025958921
-14.9480964780306
-14.2620642308085
-12.9709902485242
-11.2287461650146
-8.93287619595764
-6.00612561069545
-2.87092123893677
-0.213565250758756
1.66562678763347
2.86741203546268
3.44091136074313
3.39946265058499
3.02620262336886
2.69497663236868
2.49416461523374
2.38016854728001
2.5643954265644
3.42160264904819
5.0745046694408
7.2473346073098
9.44057353964552
11.1733947047691
12.2101962612528
12.6235180367927
12.558595908994
12.0147437266822
10.9617418061834
9.51526287480995
7.88905179037395
6.331650690646
5.11357215618184
4.33651075901713
3.75239379100763
2.97553248301654
1.85337239132625
0.536010028545848
-0.688180651432387
-1.56329090870581
-2.04494720857768
-2.34495922039426
-2.67864339032407
-3.05456915634643
-3.42445887222123
-3.83129023236552
-4.26474333836902
-4.61836438252733
-4.90807014326162
-5.25707368564685
-5.58098493973956
-5.54110454574347
-4.82897690300296
-3.32111196441249
-1.09560746344294
1.47822213200922
3.82964336094796
5.56088442754828
6.56845641725798
6.71148452805513
5.68501473076949
3.43829110612625
0.49151577826445
-2.35617189255382
-4.53255507734122
-5.93720742433897
-6.92140626835487
-8.01530410058705
-9.46684716012104
-11.0487920281476
-12.3551926388891
-13.1123231621083
-13.1605840922564
-12.372369520315
-10.6989985765366
-8.23255406193582
-5.26801951755771
-2.3122473050533
0.157041357189739
1.9927190127756
3.32015197681705
4.29938940206751
5.14605899225975
6.18260306107203
7.57461749174287
9.14806627684838
10.6126719337271
11.7325198138746
12.2345952300782
11.9403310778636
11.0686620213813
10.0464449110641
9.00248103313664
7.7716521304813
6.32049694655959
4.843719112606
3.51291809506711
2.35411292487672
1.26782074096849
0.0598140259396259
-1.35293864730472
-2.69383912521198
-3.52919688199324
-3.7635309773377
-3.66526617409939
-3.41212832862036
-2.92878297715862
-2.1630911616465
-1.24286608438873
-0.400928862596089
0.0575253225781994
-0.174335481576819
-1.19906662838197
-2.83895123521235
-4.7696563240833
-6.63724751210746
-8.13748862572252
-9.09892758316337
-9.40181394315806
-8.83200074902949
-7.23690189329079
-4.81487549562455
-2.02968799195123
0.699528148793499
3.04691650906905
4.71906461483944
5.60123162726389
5.83314305724354
5.63433859572941
5.24515595241722
4.99067947332083
5.05813397363585
5.24750966848799
5.25463484713995
5.07947947828369
4.85879740921188
4.50066070313929
3.80977030709277
2.79540995456958
1.59543383078242
0.282918838790786
-1.05808550494683
-2.2851937149784
-3.38593719936234
-4.49186457658221
-5.60253637979392
-6.5153164593784
-7.0716905867735
-7.286129022474
-7.27059471937995
-7.18039869646448
-7.13084904914032
-7.0678420945659
-6.83873866898004
-6.39277081029296
-5.77457675597296
-4.99936515423635
-4.07394060910391
-3.02516341701768
-1.82113972130631
-0.406529591678771
1.18689414140234
2.92996066432634
4.86569058983074
6.84782102516804
8.40023890902196
9.12355084194903
9.0603204913633
8.45595058512856
7.42401968865581
6.02028526411192
4.35727760335433
2.51023736726292
0.542870806643453
-1.35473509062219
-2.95737679567875
-4.14174158975456
-4.74363713691524
-4.47482581962042
-3.24019993792045
-1.38640766539685
0.582157842472271
2.40449174981298
4.05665562848291
5.5331159484419
6.73640771417997
7.42643605206666
7.30191786893994
6.34562935707115
5.03047796472194
3.99437598062764
3.59282735089021
3.83927664200962
4.5562823000985
5.45932195802778
6.25955487200952
6.77959270745205
6.9432591721101
6.73404305876442
6.19071000275794
5.30370547247807
3.93697642225217
2.03957792076601
-0.121481426061776
-2.12216962899265
-3.68134849030964
-4.71012031403137
-5.31908802343075
-5.90808314597743
-6.96419153305087
-8.64730750485258
-10.764294531461
-13.0386756709325
-15.0963543823201
-16.3896832651749
-16.5667476843654
-15.8197064671319
-14.5928009873402
-13.1343738043489
-11.5484957956468
-9.98860323396251
-8.52365736613516
-7.05385162085952
-5.56920508380193
-4.26575065390881
-3.29704674332609
-2.67898298211383
-2.48721734467845
-2.83569658058176
-3.57454922259589
-4.20135098583008
-4.1145474759668
-2.94473255346074
-0.778624975341077
1.9150964721401
4.70418217013625
7.4825460625712
10.2489825112312
12.7809048550313
14.6963118904401
15.7239180249328
15.8735765036957
15.4948403704336
15.0932469078203
14.8606866175359
14.486616537022
13.6174188250411
12.3019410907869
10.8215986113044
9.37074008592025
8.05938505415914
6.91376830108577
5.7501752627253
4.32877146111304
2.66905017191548
0.98506768804392
-0.589568668577344
-1.95633786662366
-2.8916770908643
-3.22358466478241
-3.06693246789278
-2.69454916962566
-2.31644232602682
-2.10166889290636
-2.18818307240755
-2.52023463533824
-2.83687516773467
-2.86925133753256
-2.43633719096728
-1.49255806174618
-0.30673836436888
0.548024604334663
0.600808946816029
-0.1840840648385
-1.50036912437145
-2.96120660674552
-4.29133283088129
-5.42896839909922
-6.40408516263425
-7.07795452042604
-7.20659865038342
-6.83614684373322
-6.41550927503932
-6.45793799019212
-7.23862750185181
-8.7206263658412
-10.5472843601614
-12.1953630129818
-13.2628475373206
-13.4512806640734
-12.3168802808984
-9.48114071903215
-5.20911204802648
-0.429592271098791
3.92215991353692
7.37915139862344
9.85346348635628
11.3655206794932
11.8702407740674
11.255838282908
9.6174645744315
7.52516738380007
5.74057763447173
4.58955123621859
3.85701921740476
3.28321021334467
2.83531889051661
2.52880258261256
2.35831630766893
2.39670577232515
2.65732432562708
2.89732149005039
2.7655202938605
2.06697673577224
0.798305374727752
-0.910522332334073
-2.82255625374619
-4.69637279849517
-6.39357690032229
-7.87103350718813
-9.15283235644099
-10.2439646575641
-10.8931249419889
-10.5960968759386
-9.11806852023366
-6.84341871835995
-4.34593601313118
-1.8826824296563
0.434250988775767
2.36225906270391
3.75599627981274
4.72965515953014
5.34768701172682
5.47804595959622
5.10599007145924
4.50116953569872
3.99757341287919
3.81324243229976
4.01899846741124
4.4681622513063
4.85010786909094
4.95732184868927
4.75671610949128
4.17839581194588
3.17753428889417
2.11358263699416
1.70837614109221
2.4538055428571
4.24796264007201
6.58685028000409
8.88080568800977
10.6543636017745
11.6521972832496
11.7526307403757
10.8330217578455
8.92605523062794
6.44308069853395
3.97831016258892
1.90394111856394
0.267931946735699
-1.08409411586882
-2.41328297628067
-3.89079639969192
-5.3517137337526
-6.38483880924007
-6.68387166580922
-6.200426437862
-5.10722063559827
-3.80355371777855
-2.78266087053455
-2.31099385126856
-2.34014123970559
-2.68380776025834
-3.04660908980443
-3.04271557726227
-2.55891488930412
-1.97221103916062
-1.68181362895627
-1.61758011286598
-1.54372456345273
-1.61722626657877
-2.25071772076022
-3.56231076924124
-5.2895908450933
-7.1399065011419
-8.97454698632782
-10.7319268744614
-12.3182832151832
-13.5323664488052
-14.1573940449129
-14.2720569000483
-14.3254974892875
-14.6615101391851
-15.0345973125091
-14.7364894363858
-13.1312389701426
-10.0622867346888
-5.92805899198743
-1.46153034407143
2.60470940296143
5.71043394556914
7.50250263396658
7.97730920573917
7.55471566776218
6.75604546255282
5.85001230726031
5.00291286751242
4.57199516356611
4.92400691121105
6.06577684519527
7.66371594355219
9.32467190286306
10.8049386064952
12.1330992835024
13.5232737706118
14.9829140597489
16.106379859519
16.4592321044972
16.029303542025
15.1216479089067
13.9923545044478
12.7561064922638
11.4561221751358
10.0687274393815
8.60732259425781
7.26324526217721
6.18958399958795
5.12921385133501
3.55145966634834
1.20468942558633
-1.63249866186015
-4.35560911527912
-6.35173202462777
-7.30629065082722
-7.35695384030545
-6.84028621780592
-5.93315473243745
-4.74281872312748
-3.59114918023734
-2.87425076847059
-2.71477816622228
-2.99488774626128
-3.63012419928235
-4.63375924343709
-5.98425373643094
-7.44974005856053
-8.45650405289948
-8.31370717392967
-6.82220792763874
-4.55561887173629
-2.43443308609655
-1.23014677729763
-1.42233487529337
-3.02559092264263
-5.41396803675998
-7.71988028557093
-9.51693996906821
-10.833718143796
-11.60372182175
-11.5533205283657
-10.646967129766
-9.27043972071633
-7.92229379153731
-6.94782287635117
-6.49674142045751
-6.44404266100797
-6.29888976893391
-5.32860909988658
-2.90246877050645
1.08205611333708
5.9719432150607
10.6947870597031
14.4403986353892
16.9075729772652
17.9813668684291
17.5410148080977
15.6382161877501
12.5948386836161
8.93266558417671
5.37807378246987
2.73889690687387
1.46892407312879
1.39426218761568
1.94286640566818
2.48859277537854
2.50437570536508
1.6805061749387
-0.0236517668186868
-2.50461383168086
-5.48720406654069
-8.27219796545757
-9.90378680228606
-9.8849357517281
-8.53254035771752
-6.53780946400419
-4.43195715566265
-2.48711602968568
-0.8261615148285
0.443627429280751
1.09482810068838
0.921422818454707
0.158077296436052
-0.488905409774384
-0.423411580042168
0.476681523159176
2.17022214873433
4.66564070462063
7.65783952638854
10.3456801050572
11.9298810290874
12.109117053338
10.9886182767714
8.7593293627828
5.64204948189726
2.08425553424658
-1.13361686187298
-3.23184700385418
-4.06101096891423
-4.26940055158048
-4.66829506488527
-5.5480736201653
-6.67248677862848
-7.65943521622564
-8.23483026697346
-8.35116966669981
-8.14196393778915
-7.63348678857053
-6.65933402721433
-5.24070147967743
-3.69884618505632
-2.07351380518839
0.157142831308344
3.31824492816796
6.74153498839255
9.08120322853336
9.34133601221886
7.55813606547976
4.74109834205334
2.22431620807868
0.857875339290739
0.733189461982982
1.65360640947802
3.56195549190297
6.2708482869897
9.06488107728154
10.95196153353
11.2428007937534
9.77099322883645
6.81745484549773
3.05430733772907
-0.579813308101156
-3.14814457268853
-3.98966591464006
-2.97799181357176
-0.710342419913501
1.63898615737736
2.84394535527163
2.21968002918147
-0.0139536578942753
-2.8636775215429
-5.32759016496997
-7.21956707739555
-9.11023045025693
-11.4635987000125
-14.066405707811
-16.2366428902746
-17.2953151156425
-16.9308859178704
-15.4193549771549
-13.4505842353577
-11.613676966973
-10.1495927630968
-9.01348476646566
-7.70755490100121
-5.24363586571168
-1.0304555936163
4.08498442403106
8.20784448314081
9.95353558850298
9.35188108821945
7.42824229147448
5.39144117578675
4.11318347726015
3.84706636222419
4.27846635153798
4.94297136965718
5.47911098233754
5.48220130538626
4.54020348651648
2.64228778455366
0.295988854372126
-1.87002757644616
-3.44612675969567
-4.30259171642711
-4.63586233702211
-4.90062261914222
-5.37308632273325
-5.68140034292245
-4.90325378446073
-2.29516363696893
1.95257913669889
6.73041117483079
10.9285964581603
14.2624448504368
16.9775356597488
18.9590087114964
19.6226696614601
18.658625246516
16.4409512651249
13.6795072832603
10.9890770558985
8.75068345633139
7.06351745930613
5.72513537290423
4.3085590420854
2.34858287992628
-0.265333732179355
-2.89735489577477
-4.47214379820105
-4.5065754735411
-3.63715494521
-2.87370719653935
-2.63681308469851
-2.85802593157495
-3.66805562378159
-5.45609053629982
-8.33857921537019
-11.8929128534531
-15.332159674543
-17.7906722589179
-18.6435560347888
-17.7861786996083
-15.6319796959164
-12.8310299245661
-9.91145359998493
-7.01235733949708
-3.98641022976623
-0.926224033967838
1.55763237078936
2.8748445792061
3.21315076257615
3.58274737125621
5.19099997876642
8.72812950307719
13.8390256480937
19.0791085528648
22.6686692031542
23.5451881099998
21.7963502452134
18.3791950703808
14.5221524886484
10.8829076218779
6.96224884605568
1.7944088651435
-4.52314737764043
-10.521310826816
-14.8790375372628
-17.7435340093766
-20.2144984029983
-22.968792099071
-25.7839020884374
-28.1145869888808
-29.6717672241171
-30.3835453454443
-30.0307538915317
-28.1717337396815
-24.5273938562731
-19.2882461313272
-12.8947889652356
-5.75154686108756
1.5833928847063
8.22210269642052
13.3816322863387
16.8918989163319
19.0562282948494
20.1813294671684
20.3775104380616
19.6589642303695
18.2277895937106
16.7588254487312
16.1476208303045
16.675363594375
17.5873437215699
17.7108961821382
16.3733822682155
13.7769370063348
10.843260236501
8.63907332675645
7.47181818820088
6.4841048086947
4.46536919561462
1.06763383704799
-2.92941054434892
-6.34903108392381
-8.43472136965208
-9.17866381263848
-9.02696270038047
-8.18878097517485
-6.34618502676322
-3.28494248469299
0.346592923572834
3.2785113696676
4.58661697793969
4.18537661526308
2.54745849182118
0.319041572011182
-1.85516218514179
-3.46864684226896
-4.21674131427381
-3.94223107468182
-2.65235412477071
-0.534647858477227
2.223899753269
5.49285387749423
8.86833757643229
11.525093193341
12.7169990650404
12.3281867810197
10.7535154882274
8.3367264115328
5.04391779493066
0.694874041083905
-4.43755717174208
-9.33614815049842
-12.8294916199345
-14.5227498350435
-14.9065017317043
-14.6219743664054
-13.9818463881454
-13.1579065793022
-12.4371226397681
-12.2047337757149
-12.787085810795
-14.193589962596
-15.9263779287012
-17.1993647698752
-17.4007743773313
-16.3221821428351
-14.1972293890474
-11.733138772506
-9.77601136149324
-8.52292937344935
-7.17615320863326
-4.64689839595644
-0.51859121407371
4.69466528835363
9.85593991349719
13.694086098105
15.5537329865004
15.9793658333493
16.2226343578542
16.9865293580007
17.8761968750188
18.0352949539323
17.0100637769418
15.0687405607048
13.0114133154851
11.6937185061176
11.5399840582913
12.3838636752494
13.6384721977728
14.5618992649114
14.5759501390423
13.5490576589575
11.7385151267821
9.450176169036
6.86236517806531
4.07357427523712
1.13030785471217
-1.85731069066217
-4.48786130828607
-6.21475326124545
-6.86603611982464
-6.73914186613091
-6.16403137523314
-5.41139676163976
-5.05376813035099
-5.85032084577363
-8.02531616790443
-10.9437485363788
-13.6169097408545
-15.3825552854007
-16.1946293621465
-16.4792893152916
-16.5774573461715
-16.1264123806388
-14.2389676094412
-10.6187830039806
-6.37949384758153
-3.51409545523072
-3.46802290230297
-6.02126351839445
-9.33956349918794
-11.2855842322146
-10.9440480370959
-8.881666003475
-6.13406421182714
-3.39161136987536
-1.01146122202239
0.924954740043945
2.77379764550659
5.06305227375305
7.85401191666086
10.5715967396491
12.480263175003
13.2220810236482
13.0074319723107
12.3488786752366
11.515577279386
10.3810201714721
8.96338221640826
7.76168449567868
7.16558401159265
6.79793678705088
5.82248245595795
3.71718862227864
0.549301667179693
-3.14235034466915
-6.38245242232175
-7.91791197032991
-6.77618338383057
-2.82928348774035
3.1502933078477
9.93072772235529
16.4077146486362
21.9296754082039
26.106759029014
28.4408467313807
28.4417165057853
26.1171639090214
22.0383046888633
16.9073078058945
11.3112013903807
5.76042578666559
0.591308576874031
-4.15322078530788
-8.56338899123478
-12.6921044519055
-16.6113161938041
-20.4223871691442
-24.1310894045672
-27.6363807913213
-30.7745467152081
-33.2474865784657
-34.647731499163
-34.636854304309
-32.9287935031146
-29.2152595803409
-23.5742889866504
-16.9760588502159
-10.8878909079043
-6.18980718325061
-2.68915168604076
0.334956000151031
3.36813441037603
6.42969639858841
9.39130045177669
12.3442863200084
15.4355914343606
18.266679656579
19.7949737333886
19.1943001037928
16.684983983976
13.2598745519251
9.78626898090999
6.63531079436446
3.92667754884491
1.78128430086246
0.451451256293819
0.316440000926721
1.44056394219494
3.00892483793041
3.60742688459032
2.39593596205749
-0.0443406177417297
-2.08840132964214
-2.29515380290437
-0.425585470212893
2.58075132430908
5.55970543603627
7.92859498344092
9.59173549946238
10.5152503027995
10.7356650181226
10.4623830201273
9.75994073441315
8.27207542477241
5.49796795629886
1.26215354598979
-4.02182983456464
-9.28405475153636
-13.1522222552613
-14.8005338172297
-14.4411897859599
-12.8279107795966
-10.5705265839595
-8.15109837919043
-6.16972796625892
-5.10624872235541
-4.96632749305094
-5.39438624847604
-6.01826915759047
-6.62209851837265
-7.19959049231342
-7.87334780373413
-8.52955959053982
-8.55864665380462
-7.24254634048625
-4.43067865221655
-0.683652905929647
3.18111614110308
6.56742462890875
9.25337432860673
11.2609918411071
12.668069020925
13.5752119101446
14.1046220336488
14.1809394185943
13.3676614303138
11.1985844859786
7.67677179377866
3.30484203897367
-1.21894962856004
-5.17569084871207
-7.96781607971592
-9.33706397165283
-9.29147439123606
-7.77755032352473
-4.71697209800214
-0.39528124229675
4.47898132399539
9.10752926966827
12.8568048895699
15.4309339426069
17.0246786841472
18.0466432843927
18.5511268088093
18.3043468062373
17.4425480602362
16.4041150960336
14.9352358338785
11.8483429459528
6.3284059479603
-0.88165247220689
-8.01929156241903
-13.7407306573966
-17.7339433917469
-20.2726228303622
-21.6558987519202
-22.0969245068645
-21.8799520513636
-21.4241685185045
-21.1700555856291
-21.4722477348001
-22.5477173135766
-24.3284076941338
-26.3220837091537
-27.7362031625816
-27.7086900675072
-25.4395885875698
-20.5092721240986
-13.3471741340482
-5.05809284515862
3.40598964888318
11.4673324999008
18.2940053190738
22.8305793819109
24.8972247401088
25.5852889939627
26.0648691069496
26.3384737659794
25.3282513696375
21.8925896651335
15.9120932400667
8.86958451526041
3.25576373085632
0.899996525308937
1.72836376764748
4.13534453531648
6.3536353907147
7.52481046458016
7.91374447092099
8.27531341845594
8.78652224786607
8.63925534025938
6.98689172902679
4.14716959734904
1.42351526457531
-0.242120641293822
-1.11775800674181
-2.23734529200275
-4.34280172639741
-7.21642703790982
-9.90059749580377
-11.5168310660663
-11.8254099047562
-11.0881057390545
-9.70404583203992
-8.0828798320754
-6.61206450126886
-5.60302391434058
-5.34601718465035
-6.10360245015718
-7.84188457448807
-10.0807940432405
-12.1953876858683
-13.7489372900875
-14.4627858666085
-14.0900391694219
-12.391726618748
-9.08660889029565
-4.01128155185085
2.30874628019235
8.42582900665158
12.7697789138118
14.6912518400876
14.5370300917913
12.9378812545764
10.3453332156897
7.12194089076282
3.75784770504269
0.911747510242087
-0.809684570041428
-1.28042339828387
-1.0323836859252
-0.767392087691086
-0.691144428744231
-0.495878634911333
0.129390997380396
1.20470343947862
2.549686283298
3.95981637018053
5.35691649056353
6.82389808634294
8.4078659739143
9.95470003417918
11.2621576985271
12.262820275984
12.9006307770366
12.9760707053072
12.3235874543505
11.1483957864531
10.1086592166225
9.94347156291959
10.8402541987419
12.1776672560922
13.0853427032681
13.1870135416999
12.5432865082416
11.0811336848191
8.57941256098215
5.13601894187356
1.1605929893332
-3.10434147123749
-7.73959267790609
-12.8819609913565
-18.4478999188791
-23.8929677055541
-28.1064244005365
-29.8863344619326
-28.816338986535
-25.575976583119
-21.3365019301145
-17.052592116076
-13.371382338686
-10.9546070962832
-10.6378477300235
-13.0607012041499
-17.8493361128248
-23.1646608239469
-26.4987674291334
-26.2390801844146
-22.4869382181574
-16.5841289797279
-10.1282332438912
-4.15410925217349
1.26116476834328
6.61397816046523
12.0178343573749
16.7925832466582
20.0680160709509
21.4155047585497
20.7526133633737
18.1278847394054
14.0125701955151
9.61303040741113
6.4879968156672
5.59461424054232
6.59413468976326
8.18143035215843
9.25366128523238
9.67880854413049
9.86210790427596
9.91828299667041
9.55622762698796
8.47896653330086
6.62257572293182
4.2811174589808
2.1959630316879
1.20845729272412
1.63498904240048
3.20460283888836
5.59149196267743
8.63348698750838
12.0495018704814
15.4002907705771
18.3909860734219
20.8625396943478
22.4944071116461
22.8149068768402
21.466509139404
18.3160201110884
13.5208537839186
7.68114661545026
1.72508118715088
-3.59154775095969
-8.1113640333252
-12.2282841052471
-16.387039677574
-20.5046926420701
-23.9158847225824
-25.9821215954352
-26.5901185486975
-25.9604613869061
-24.3696785464064
-22.3606049161484
-20.8133134489988
-20.3443239751063
-20.7992815220916
-21.5608553527481
-22.1573321150822
-22.4863463200697
-22.6586457375965
-22.5692233036108
-21.4015637116927
-17.8029123272835
-11.0021734520145
-1.75549544071554
8.02071547534954
16.4901998424945
22.744155205382
26.7670067761065
28.9269708660926
29.5344108615106
28.7885038868516
27.0089119933616
24.6536475520678
22.0043411037205
19.1032530902161
16.1247414702504
13.470934304984
11.3393012834216
9.5135973827541
7.68388222954402
5.65652954084326
3.22053164642552
0.172501921482045
-3.39088848998728
-6.9392083203162
-9.69132856409213
-10.9906596496903
-10.740934302083
-9.5350495597275
-8.1632196839037
-6.96182656249295
-5.78099460788422
-4.55663985472563
-3.80029565206997
-4.48893154833861
-7.25307941811396
-11.3747590912095
-14.7679978622396
-15.4183283527172
-12.9125266959045
-8.47033213720939
-3.78143656499492
0.0383180269171046
2.87350783424595
5.42800104561617
8.35421733132375
11.3449725741886
13.3625914951646
13.8191962744084
13.1482765130321
12.2167143774491
11.6477537863849
11.7049027447532
12.2577630708895
12.6944613504876
12.2323701235171
10.4546125919704
7.4657438752683
3.69579358063721
-0.288633087185111
-3.95349807209332
-6.93545437594802
-9.02152608701045
-10.166375902983
-10.6896888280509
-11.2047211226789
-12.003679361839
-12.5470657462107
-11.7902928092738
-9.15380206243776
-5.284455410318
-1.85913297008083
-0.390717753584682
-1.08815363730103
-3.01564596702078
-5.20915034008511
-7.17509777832813
-8.4603361912703
-8.55640024300217
-7.48238436885712
-5.89682710295699
-4.37868482118564
-2.98784958988591
-1.70593184769895
-0.959561424183202
-1.41399960404893
-3.26481594059953
-5.82451106682828
-7.92053782012964
-8.85425779847518
-8.97269193300509
-9.17614281904003
-9.92299388684823
-10.8380343987188
-11.0761643791323
-9.78004765831211
-6.38817546384424
-0.929996378943589
5.88682277266504
12.9639755461058
19.1734595564315
23.5794335421848
25.6597858204812
25.506746551612
23.7836691903268
21.3902335143115
18.9499818355094
16.4191659006363
13.3176136077671
9.50680016333216
5.52094718126918
2.00094870882371
-0.755437625580487
-2.42112946148124
-2.42847824323933
-0.748319397794458
1.40973023160645
2.29035807340116
1.12134506408589
-1.1771035278595
-2.85797857725617
-2.97670112167911
-2.16850541965029
-1.75733904229944
-2.30037898445028
-3.33155470381379
-4.30216294265471
-5.10347081766848
-5.57150605300119
-5.160672913382
-3.51751894251753
-0.998707906458801
1.74216073059973
4.45525614150105
7.30447699037814
10.2919404427494
12.9032347517925
14.4483686021766
14.7380529976755
14.1796095848388
13.0402023958267
10.9530595132841
7.53785268504315
3.27001541083504
-0.690133445380519
-3.46051736119437
-5.08721810743307
-6.52208640768597
-9.10658523172072
-13.63917512183
-19.5100767123558
-24.8145714028671
-27.588610944784
-27.1521706909782
-24.4619075668492
-21.2550623588643
-18.7655316966044
-17.179280371954
-16.1270727111897
-15.225447790796
-13.9578846663454
-11.5990485486016
-7.80736735783625
-3.07768604110949
1.76102281787021
6.32925173468334
10.7440194817434
15.0558463557197
18.8113131957095
21.1246819741332
21.318874883372
19.7344827191116
17.6464511553341
15.9217432517334
13.984433751989
10.6591146778449
5.81629580421943
0.52633489420937
-4.28079999379523
-8.56753018821041
-12.4756467560001
-15.4819335201951
-16.7494641857836
-16.2226296526674
-14.9603874396042
-14.1153497270483
-13.7169791350845
-12.7342067596091
-10.294465644054
-6.65985629468104
-3.14836776519779
-1.28453508823721
-1.74943650240944
-3.79745328860316
-5.77006519016344
-6.30046854475412
-4.90340505158297
-1.60469413346795
3.42198515314188
9.74882058053891
16.6100212212333
22.9665812962238
27.5273575388712
29.1213774335063
27.5303588664859
23.7166639925211
18.8598159955726
13.469518158693
7.78033817086862
2.54271027776265
-1.21177348186694
-3.04434546643664
-3.3047192854705
-2.55460365004902
-1.1424684319371
0.66806653714686
2.41731997504116
3.50946991759887
3.64635437861224
3.12069540634529
2.55929080234504
2.49965827649768
3.34097873537787
5.40018511083493
8.62875517350442
12.3685288768033
15.6612234321752
17.8069666553974
18.6340167517507
18.4264232926723
17.6005590102129
16.2669103970256
14.1674858405912
11.1881403268614
7.73827707025668
4.45557397166967
1.7621218216196
-0.246775248539124
-1.91142622796389
-4.11019004968825
-7.73959877844304
-12.8438248188421
-18.5301259750538
-23.744748467552
-27.7869096813366
-30.1833451584783
-30.6757529055139
-29.5971436023735
-27.9747816055785
-27.0145255936064
-27.4721938234005
-29.4554942645064
-32.6515433582124
-36.5727460866031
-40.4333423822892
-42.8834686481637
-42.3784436392658
-38.2121078051999
-31.0135189261029
-22.0469427483365
-12.3641824971711
-2.86673571863685
5.31180980180448
11.1548871285093
14.5636076401131
16.4476273372049
17.7831583409803
18.7174188907441
18.9104176049661
18.6816302452511
19.2006357254202
21.2070488045466
24.0452749882712
26.4089082071732
27.6147537319493
27.7572238366277
27.1258310804992
25.9542468009926
24.3583593429182
22.1736682874256
19.2104175466186
15.8816094281365
13.2025877634647
11.9814825520343
12.2496911957402
13.463262722705
14.8723995371825
15.6020849449241
14.7474609557915
11.7682235872713
6.93670693457441
1.39779586198411
-3.36003150855411
-6.30740891712919
-7.27592376883202
-6.75461442909004
-5.620946562157
-5.03524922872105
-6.00268056813443
-8.61210911903408
-11.8346119913354
-14.2127960280834
-14.727386470854
-13.219636666277
-10.277765601697
-6.65059853353033
-2.65702496461869
1.68564518723908
6.04262250172019
9.72018455950297
12.3153850299093
14.0185438901839
15.1787945519682
15.8114566077586
15.517309784763
13.7749948487944
10.4857924502408
6.24708733448517
1.76595140461366
-2.95131176194673
-8.3926958512932
-14.5945534380762
-20.884021190808
-26.5309914923314
-31.2533391474883
-35.1212919561826
-38.2128430800537
-40.1635771968893
-39.8544572518552
-35.962872245054
-28.2389450820253
-18.0025465013179
-7.21925442405133
2.43794117932475
9.51874875988949
12.7922641286848
12.2364113513772
9.77768589848147
8.23311964396516
9.11619474597084
11.521306525788
13.2423570922544
12.8984948057329
10.8332368138819
8.16960436374253
5.57772172498209
3.12057133322566
0.721240894185503
-1.62455270547401
-3.76917892521705
-5.24004800447408
-5.36065738639389
-3.70685887247892
-0.335306904593369
4.32288543288482
9.54257265512912
14.4158910636312
18.1707556884734
20.3814192895716
20.878307718286
19.655077954469
16.841085288703
12.5522029114314
6.87325695575859
0.230687795622205
-6.35039345518857
-11.6141877237051
-14.6453710872022
-15.0504957495243
-12.9133980340974
-8.8217352780493
-3.73093595981952
1.45364702032422
6.1782529982851
10.2043489897591
13.4119153580487
15.5615294209369
16.2405649556452
15.3321894213577
13.5392585092217
11.9682628432294
11.0456940277403
10.1907651867501
8.57121026032317
5.83431348319722
2.19811535919858
-1.71756554449164
-5.12688465487437
-7.49624657487122
-8.86401920751924
-9.69603899478444
-10.4325713020535
-11.1188277592952
-11.3984368744136
-11.0141528576567
-10.4591915530971
-10.9487896735836
-13.528893149694
-18.2172600498346
-23.918640441438
-28.9474003347848
-31.7548759660144
-31.5478574203251
-28.3761077382158
-22.7213534129344
-15.3087316654815
-7.32192398696611
-0.217043719300144
5.04900627138405
8.32543934253506
9.71989012935958
9.2890209944069
7.50953566642387
5.51967544245695
4.52649945188403
5.18551840302629
7.50981468760623
10.9243384699227
14.4206153365029
17.1277360621655
18.8020362065857
19.5293595901117
19.1220924731297
17.1851899320705
13.778071746841
9.78562600210688
6.51256953275025
4.82769040123048
4.64658119928796
5.26102893499203
6.05703600223834
6.74350072708324
7.08878313788686
6.84669602943246
5.9440151951809
4.53835118846822
3.06727194393705
2.41735009437457
3.6612084389694
7.1978960441483
12.2181445481615
17.113390239187
20.241530815068
20.4088266252382
17.179565955582
11.1056966822084
3.5458961557382
-3.96442668409091
-10.3068288267332
-14.9942335593901
-18.0642532934354
-19.7947239922316
-20.4605101414369
-20.3978391112383
-20.2023332608489
-20.5715112740667
-21.8543756894594
-23.841266851062
-25.8705425376345
-26.9613039088336
-26.0173918974113
-22.2340318536657
-15.5020580278923
-6.65057788155667
2.50319226151506
9.61350652894403
12.9108377872373
12.1961280464393
8.82687574374451
4.77471017143352
1.49763457999314
-0.713400289387443
-2.44780731588132
-4.12480833435535
-5.35778272383208
-5.52564375489824
-4.60369698743782
-3.03247538345229
-1.09487612664685
1.07557385318472
3.03117835324199
4.03258040855727
3.70330540705058
2.62532870379712
2.18762306514423
3.58978164247474
6.80104783447431
10.6070282104814
13.7780656617926
16.0306986222643
17.7906162987334
19.2952070671183
20.1118647318435
19.4095158907392
16.6958802362349
12.4917649804757
8.23478883878892
5.24755396995855
3.72785786450882
2.76216879886525
1.18319169030275
-1.55334843291065
-5.00838860465691
-8.16119399765967
-10.3627603601264
-11.8700650888641
-13.2674360702973
-14.5499109074104
-15.1025768398047
-14.4849537709265
-12.9625518422999
-11.3437588307582
-10.4934249330745
-10.9131984272672
-12.5947453636908
-15.1861208306627
-18.1648665402125
-20.7430121532085
-21.7900616256639
-20.1741376026011
-15.3621163469663
-7.80370620778641
1.18520280805317
10.0348399525064
17.6637297607681
23.753683359515
28.3897669558662
31.5966160606382
33.2524015941271
33.2282830098624
31.4846158923199
28.2208924808046
24.045771229031
19.7864187563259
16.0064907954215
12.8575209491341
10.3487835677736
8.4492532105305
6.89564087379487
5.17116315353516
2.79676648493229
-0.334235835713797
-3.79355811896864
-6.80467204294325
-8.76691608372822
-9.63303531238955
-9.82233705440934
-10.0475295554195
-11.2311324602981
-14.0190662579485
-18.0190563864147
-21.8621843472188
-24.2759235804971
-24.8024459923417
-23.3626141754024
-19.6142758002158
-13.1891625542076
-4.61524990317047
4.07164524973003
9.92642951900163
10.914083566813
7.51489838036167
2.41986748271659
-1.45371406655014
-2.66959410414757
-1.50155593887347
0.836790099319048
3.14546520447728
4.94937908380536
6.53125303839442
8.19351594500202
9.60214928839288
10.0680591742718
9.37336216856262
8.10043370863161
7.11825114516574
6.73581652331493
6.33130793274704
4.94482049054611
2.2413835717487
-1.43641729391627
-5.99392360556673
-11.9702495447642
-19.6323609852493
-28.0450196844589
-35.4332817868474
-40.3796841058912
-42.516905037516
-42.1717984909905
-39.5751994899289
-34.6503872326464
-27.6384933298765
-19.6194495601745
-12.0356218923563
-5.73788608470568
-0.664422358274555
3.73367974183208
7.91781676607135
11.8935322834215
15.3695084944165
18.5372840386957
22.4150782756215
27.7241184114846
33.5451867029783
37.9249300929454
39.9246141972777
40.4044808492196
40.6995616732746
41.1234462576768
40.8874845433952
39.0507991258863
35.5312101730245
31.4917028137445
28.5422904249652
27.1657768280997
26.0734194587681
23.3910421504104
18.3061991389646
11.4241830535022
3.89871237874647
-3.39925753052309
-9.97384781628046
-15.396727487985
-19.286714024391
-21.7046188403089
-23.325874094824
-24.9575257638329
-26.959741920598
-29.2952929571723
-31.9916949179534
-35.2930563453925
-39.2553252331258
-43.127207446523
-45.1790255824227
-43.5284319908067
-37.4614494098752
-27.8014611934195
-15.9585339091141
-3.15985997977825
9.17026236974493
19.0636517869822
24.8769732265762
26.4606854607207
25.1258335271137
22.5386302836395
19.7689761040207
17.0976827168371
14.3277606819362
11.2110183372191
7.71390339367524
3.97025398817246
0.0883363746620407
-3.87719501191342
-7.79458150661107
-11.3958364787486
-14.3686668043145
-16.5492698196527
-18.0705397301924
-19.2040366594548
-19.953576332676
-19.9041598812136
-18.4825808927201
-15.2099392217809
-9.81256646396911
-2.43207124959397
6.24084157340215
15.2195172018895
23.5599701684662
30.4831953993727
35.5584149744107
38.8955174266616
40.7775911248641
41.0362877386719
39.1999819873754
35.2110655304556
29.4748038737669
22.277819006595
13.8085041772543
4.85165742874177
-3.09455005870359
-8.76112503593816
-12.1874920317055
-14.8676472514287
-18.7311486100678
-24.724956633076
-32.2441757499199
-39.8617816813854
-46.3717047354925
-51.0403507216993
-53.2944836764478
-52.6917353682859
-49.1833895980751
-43.1691259053172
-35.3667293633754
-26.6890610572906
-17.9703761640963
-9.69845617603552
-2.25270800874886
3.68943896915465
7.5406640520621
9.83231722714988
12.491522652463
17.6104949916154
25.6445112457039
34.7853705717094
42.3365207845088
46.8638304972542
48.8594099978772
49.3498308315146
48.3989989596386
45.2912623882712
39.7527999433649
32.5315910276762
24.9367645940889
18.1057782898775
12.6210285006031
8.54494277657078
5.56458212736142
2.95797525613821
-0.288216041152339
-4.73596473203807
-9.77680572813762
-14.091562026737
-16.9013493980393
-18.4290002223245
-19.2824091544347
-19.9781533088268
-21.0358672595666
-22.7789067249638
-24.6705326458371
-25.3056744079509
-23.5607642390583
-19.7620299566581
-15.5569210424062
-12.5583202458209
-11.0354060278041
-9.85942171649356
-7.63520915046405
-3.71848212429161
1.7337540869865
8.05650945732562
14.0213933296772
17.9826688871872
18.7973808475545
16.7661634357052
13.5361776695434
11.0086791130522
10.0838049390496
10.0654507290141
9.24653655576771
6.37515790613121
1.71432007058256
-3.28250820365875
-7.16806395312908
-9.40059376588259
-10.4683260748667
-11.3774720425664
-12.7831793863111
-14.3443794584988
-14.8929212363028
-13.2245409084126
-8.79447830897356
-2.0298240573977
5.67020055171014
12.4303400748656
16.9318912439406
19.2053898472861
20.2899503118357
21.0124168068117
21.1171787683523
19.5657465236188
15.6194223611695
9.5879104839606
2.5355028298041
-4.5549121588617
-11.0954471457208
-16.5959358386508
-20.6456249761819
-23.3515490571142
-25.3757374946292
-27.3307045822039
-29.3806026499692
-31.4636248473573
-33.5045999744574
-35.167121193877
-35.6312564503233
-33.9916666791252
-29.9945183658942
-24.1836867338088
-17.1225438123035
-8.65931014957826
1.65741696576903
13.4681074249387
25.2762858618893
35.2531986249945
42.1379770053782
45.589548228959
46.172720828925
44.9376493732373
42.5410439069155
38.7076160943044
32.7757564130087
24.7355013016904
15.6014530300213
6.84754696403513
-0.484009423059935
-6.24755563547155
-10.8052691150889
-14.1535500376481
-15.6877990080651
-15.1038124752398
-13.2620158345924
-11.6343231243505
-10.9066300909013
-10.5565204037342
-9.83046958619841
-8.65701335192446
-7.32051003883096
-5.55273443337564
-2.55272011903089
1.82905903647008
6.3433308736062
9.33779034029397
10.3877615779875
10.4283182134315
10.3419207869359
9.98541699789361
8.73022620897608
6.57939730064398
4.58289378516873
4.22549148641977
6.31052279749009
10.3050536829824
14.7509429121748
18.1569241757807
19.4098412401786
17.8225609351681
13.3763132323854
6.77092160973657
-1.11973371860638
-9.56730125914084
-17.5176681287206
-23.3666412389622
-25.8214082711779
-24.860968631188
-21.5999203543779
-17.4242273708595
-13.4017486765748
-10.2043784541169
-8.24704023661853
-7.75618643617249
-8.53061031452403
-9.65069488693967
-9.92012880770434
-8.91395179158379
-7.17638649662407
-5.117597504085
-2.32304917268452
1.58381664791477
5.91896063823563
9.28456405858261
10.6174977684424
9.61120953623814
6.51324803869121
1.9282259795197
-3.27119550019441
-8.06503571685302
-11.4682887934821
-12.8581242198614
-12.3720654318249
-10.9631222936786
-9.90973438794625
-10.1843195812414
-12.1987619013992
-15.9529778361004
-21.1485765286841
-26.9399757893323
-31.638851446743
-32.9787759698223
-28.9115835144506
-18.4084691208115
-2.14055812008073
17.1196616895649
35.302492972093
49.1909946340636
57.8857892921725
61.8868991160158
61.286941706034
55.6549053216077
45.4400983282413
32.6785519849075
20.1640059324449
10.1050253615642
3.22965587875937
-1.26811688704191
-4.76395026175355
-7.89950599248034
-10.2952266823007
-11.4661214260382
-11.5809191047496
-11.1808296305201
-10.4618829662134
-9.00195545535885
-6.14043279653062
-1.72627421194297
3.36476340305535
7.53391906756851
9.44507283960949
8.86496367592639
6.71877872089268
4.32230794335499
2.30664251983547
0.226758472447324
-2.5992085048408
-6.00087002016856
-9.03218272635655
-10.9489553612653
-11.7349708725818
-11.9895403825103
-12.8324275346996
-15.5102586425422
-20.1873975589674
-25.0172089082851
-27.0327747798364
-24.3787625943112
-17.7609710923995
-9.79917334748611
-2.95083021185831
2.11436789600161
6.17854233423685
9.58926425088342
11.1201919686555
9.14685757769593
3.69734985874427
-3.29131732573962
-9.75407091124201
-15.0159039879201
-19.4715958565458
-23.265260767363
-25.6787586119694
-25.7879237385584
-23.4802035101575
-19.6652401194077
-15.5431198413157
-11.7846585329639
-8.30131357925585
-4.48607235495689
0.506397818712869
7.58024152958158
17.3578006678805
29.4387070999771
41.7814629367472
51.3203780846334
55.8475484055731
55.3669001700499
51.4877430419542
45.8478166285719
39.3887866063504
32.5749616549469
25.5821921406006
18.3582276731069
10.8630843353086
3.12806041304576
-4.99170412521488
-13.6487405409891
-22.28408978335
-29.3898851153119
-33.2478954720801
-32.7957643574485
-27.9445147756227
-19.6469714346924
-9.81108033952421
-0.559641287591362
6.96065978311224
13.0832095252039
18.8399908869737
24.5605647154555
29.0680567308148
30.2937443848436
26.923512391207
19.5166675280726
10.0418264601986
0.54920167726444
-7.70976807848374
-14.3568295688775
-19.4734549141811
-23.0976622056878
-25.1526434004688
-25.8925001193712
-26.0785037547281
-26.4198632531356
-26.9934501825147
-27.2817771175973
-26.4966824412605
-23.9150543892838
-19.4124385400266
-13.8643628035543
-8.84055120638107
-5.94431189843844
-6.42394503476401
-10.8102038619963
-18.4031900051637
-27.3508177349812
-35.5682666651356
-41.5139656543643
-44.2737232287254
-43.5753063078816
-39.9705570233367
-34.5531507236152
-28.2039256827559
-21.19639188553
-13.3282854510313
-4.0323446708359
7.38356964266578
20.8624036249377
34.804164930286
46.6316396956203
54.4372019124077
58.0386245298445
58.5833005488786
57.4867838126238
55.8245648004982
54.3005211417611
53.1558287057901
51.8876159759087
49.4705705337729
45.2516515228358
39.4808555429173
32.832944524314
25.823953237092
18.9547488161
12.9055397083338
8.09583138719035
4.32504314633441
1.1613817094818
-1.57911672213706
-3.91591627233998
-5.97710193148078
-8.09086774128494
-10.7628557865653
-14.3290023413411
-18.2648152878692
-21.070828693706
-21.2703887220257
-18.4320749864545
-13.0754447408394
-6.03309500596907
1.61908856162418
8.29003737601416
12.1985127118728
12.2631923800119
8.62978167103613
2.2765262433282
-5.90800760346198
-15.5546590457743
-26.1226094446298
-35.9579001649979
-42.703501319097
-44.9803204699866
-43.3754579609176
-39.6915720829181
-35.5749877185472
-31.8100254565182
-28.3453272409158
-24.72713358874
-20.7478872559212
-16.8940679201275
-14.2636172830194
-14.1014153158331
-17.1225068778459
-22.7726292417266
-29.0534306596697
-33.3669180516777
-33.7356798681092
-29.5465996163281
-21.8136790723222
-12.9316439768659
-5.36971998717806
0.244053851995073
5.79288636636777
14.0673449511037
26.1145954654065
39.7581743300804
50.6358531709051
55.2118683051101
53.3398688930254
47.9964275373823
42.5536772980555
38.4692415557813
35.3048867239989
32.0994609403481
28.2653780777258
23.6268754016203
18.2256229799531
12.3069382827398
6.56993882403545
2.37841379341994
1.24963084167342
3.64311304745069
8.29491785840094
12.9982217208015
16.0799152874422
17.1880459599815
16.9301502883594
16.0065290234701
14.7853653513702
13.5678402921434
12.7225301464022
12.0215505100465
10.0813802842218
5.26172536008116
-2.59661217282089
-11.7313204370867
-19.941481790786
-26.2385692242164
-30.9169658755288
-34.2332352342423
-35.2994067709266
-32.5334060667403
-25.3422152531513
-15.1824719686607
-4.75822598201312
3.69875240020262
9.34139334192862
12.3999432521829
13.3500608502683
12.2245303390534
8.61035614042087
2.53522037483814
-4.67674993429586
-10.9003682029932
-14.738252612874
-16.2322572678004
-16.0184854699674
-14.3263783303672
-11.1982461777355
-7.45482544593279
-4.90431718924907
-5.10767375440653
-7.79541046875416
-10.9577199852568
-12.9571817420619
-14.1940580140345
-16.1340504854158
-19.1251660408082
-22.0028868350176
-23.622167184714
-23.8346663348265
-22.8234047678891
-20.2995167518419
-15.9647238262109
-10.6224961422909
-6.37800599032293
-5.40800998317242
-8.36435277392765
-13.7855517702977
-18.7329233115154
-19.9788580852841
-15.3966889496171
-5.27671918956236
7.51354924307663
19.260617871463
27.6773600033236
32.5266628223036
34.4450923356043
33.8514116454194
31.063986302089
26.8219658312489
22.2524330346399
18.5343293132186
16.8091476848131
18.1597556514767
23.1911282802782
31.2550357277158
40.0405421273662
46.3872815142984
48.1106035250849
45.1983772369128
39.1614797894363
31.4587021346376
22.7780842200202
13.5089751108288
4.33095109663932
-3.90325110630311
-10.7664369134192
-16.5215602049354
-21.6223274809271
-26.027178641852
-29.1819830039107
-30.5621213500465
-30.0369520479907
-27.9249391147762
-24.9534632428323
-21.8441728840943
-18.547186575663
-14.1669351008871
-8.09172337357786
-1.08379427981698
5.01767351856783
8.60635076794373
9.27533422775448
7.68091555619514
4.6070581730556
0.30168037513356
-5.07485290889864
-10.5523437456447
-14.5508810634795
-16.2267861144401
-16.1711448851544
-15.5073624971602
-14.682602827001
-13.3999651079732
-11.3691388972181
-8.80986956573315
-6.37207573379088
-4.64023259039466
-3.51731768386862
-2.07863111452128
0.785863496234423
5.52175861573569
11.5874343791083
17.6729542392696
22.1389651081698
23.5570244830349
21.2681364847009
15.7406866257285
8.43794522117515
1.00474866127677
-5.78698826725916
-12.2057162150891
-18.4319749553398
-23.4549421800732
-25.4282189054353
-23.0212972614597
-16.3203577476947
-6.87946998729883
2.69992496648289
9.64388273509441
12.1347969917357
9.85044420899046
3.64341297955094
-4.88541984813369
-13.5590474936089
-20.0916414185129
-23.0098205861746
-22.2547246052053
-18.8753728406062
-14.1725400688591
-9.0602055962765
-4.05890638688561
0.308389724979529
3.45331531731077
5.37663794763563
7.16564794918588
10.1395429214067
14.246139685997
17.7934688176861
19.0902423532502
18.0061577099891
15.6530173539398
13.0117742915203
10.5469289567158
9.02297707172422
9.71576882673384
13.1770673085189
18.2265213339778
22.7867084647734
25.5366331478383
26.4614804492496
26.3385743649876
26.2611406150378
27.1247824885644
28.705798567429
29.3322045759666
27.0529807520401
21.1912244332513
12.6130022607687
2.79170540892637
-7.07896489386116
-16.2617370663042
-24.1334565602847
-29.8777089986133
-32.740940453156
-32.6601570760748
-30.3588278105055
-26.6727435036526
-22.0495861018289
-16.8426408795315
-11.7625308735945
-7.77389001727792
-5.65265303146776
-5.67636624337053
-7.53697885266469
-10.4967909489432
-13.7430996435221
-16.5998050261252
-18.5333469493164
-19.3332864040103
-19.2356916927269
-18.2988069679023
-15.6428244110602
-10.0627372038492
-1.67838203653106
7.59612366542633
15.5526662787721
21.3503601462452
25.594169302989
29.1567129574212
32.0997172484843
33.4485364432844
31.7215640237079
25.7933851650906
15.7174277012619
3.10388059455845
-9.48761214927272
-20.1018753699154
-28.5226210905466
-35.5916581796907
-41.4809001951338
-45.0914910870413
-45.0748849705415
-40.8672998683388
-32.7746269956818
-21.8724371574534
-10.2385946814038
-0.664679979913299
4.81235939513374
6.59603068914301
7.74897495822867
12.0746697473483
21.0777533306368
32.1176674812325
39.883751042131
40.6237119100092
35.281730010504
28.2207078561932
22.8853144022194
19.0530048566386
14.1706481868051
6.63856763205003
-2.62182030970143
-11.2734621460738
-17.352113198662
-19.9748201678944
-19.1988587242824
-15.7948872728086
-10.893010569194
-5.47496214895067
-0.215672454339004
4.31735115095896
7.73356580824054
10.1842234137605
12.4053258023409
15.307023440848
19.4166990893082
24.3161444972603
28.5299416625719
30.5166464092083
30.0408640448036
28.1261735519861
25.4909958478393
21.5824664225537
15.4794068407828
7.42904095630399
-0.757106402025835
-6.75329839130445
-9.33342738236438
-9.44219786708982
-9.85524030995157
-13.3721469688978
-20.7530939226288
-30.0784619813073
-38.0820329496611
-42.3350942197397
-42.567700233652
-40.2980543351735
-37.3757014909927
-34.7054411337488
-31.8691448235321
-27.6084070091418
-20.8955846087563
-11.933892611861
-2.05080764071148
7.48689600139768
16.1229652148711
23.2585967597752
27.5434134381128
27.6611964258142
23.6806256737827
17.1979944225303
10.1709598005322
3.66059858062307
-2.54497425219771
-9.08915079247436
-15.5114761579259
-19.6013157524067
-18.7664276693936
-12.2950305418146
-2.2427664341902
7.81057398307351
14.910883016403
18.1748987205627
18.6896615043431
18.1282586038908
17.3357466496402
16.0689079107648
13.7556824985324
10.1989032046726
5.69594425817191
0.90300955357433
-3.33489417601839
-6.33791979377654
-7.98978417912709
-8.71500847732456
-8.86656298951235
-7.89442140845413
-4.13515923099776
3.95566415688296
15.6808228455947
27.3305339435999
34.1678322848343
33.501885292046
25.9851185249729
14.5174467344556
2.46284008173325
-7.435613860304
-13.548830544668
-15.7173915521628
-15.2394713465234
-13.9957362295355
-12.977746847437
-11.4613481632313
-7.84318407590029
-1.52493357276954
6.02282095614165
12.1391787560417
14.981168668838
14.7507703464453
12.9519716593921
10.4960610665434
6.82246105270682
0.971156016238734
-6.98785675075498
-15.985588688513
-24.9686165235984
-33.3267717789604
-40.55150098762
-46.05224885939
-49.4431303204538
-50.8380047129173
-50.7320942067096
-49.4045025175803
-46.3445155424004
-40.5999243173477
-31.9688664019515
-21.4665865001208
-10.2778609815277
1.21173891367125
12.8099377280891
23.490054939408
31.7516363843213
36.9173676950046
39.684527470927
41.4758008601596
43.333090106252
45.1645242382456
45.9075652260982
44.5309299997604
40.8970937625988
35.7259831200595
30.077658999968
24.9817038049536
21.0951834549555
18.3251668839625
15.931123689063
13.1824137707017
9.85397223169055
6.19650197851133
2.77351337733647
0.3973850270527
-0.126531349268937
1.39567775901446
4.0700768370208
6.34079246063105
7.32380557618981
7.691035066673
8.8353570808518
11.2053477250724
13.9807562961982
16.3846897784442
18.5966350712699
21.0540181869315
23.3552407669315
24.1267300086917
21.5552742167485
13.9668196586058
0.62619465665421
-17.4066723139208
-37.3076765820768
-55.6847552144737
-69.9655730877498
-78.9525378429629
-82.4809191854621
-80.9152098573584
-75.1358416661833
-66.6995162555971
-57.2366980961325
-47.1514330863187
-35.1404432244841
-19.5817072131235
-0.722591197287044
18.5296969976066
34.2526129094141
44.3206526275249
49.6726627056352
52.4979027588659
53.2385068556682
50.0285244492477
41.2039298336787
27.5880936489733
12.0437473646452
-2.44860607683953
-14.0489808224667
-22.4832324562104
-29.0033007336072
-35.4137467304195
-42.4261757034775
-48.9746467568335
-53.2490049202215
-54.1204770192032
-51.5303484176748
-46.0740621510857
-38.6775640612827
-30.4180471794187
-22.0719859092816
-13.6126084473192
-4.37569616979438
6.10264399041292
17.7074839732191
30.5069328243871
45.2586508623768
61.9112338917668
77.4232580640744
86.3933010743407
85.0277102537532
74.4999564747253
60.1534200459066
47.5220600439463
38.9307567356603
33.2016253911769
28.0221011948992
22.415540022554
17.0473099263417
12.6714545812099
8.98216495750454
5.0712651327704
0.512648212432276
-4.20108988907832
-8.06596095781552
-10.394859630388
-11.4460738399388
-12.2164630456993
-13.4671344435885
-14.9051147884718
-15.3179264563181
-13.6061058184129
-9.90737191208927
-5.7254952871292
-2.72217053264127
-1.39610735333609
-1.17434291432532
-1.52260995535388
-2.33484537854707
-3.37150212846215
-4.19817444638048
-4.87349959579185
-5.96902988619681
-7.6967580032822
-9.69745347525213
-11.946594466029
-15.1864928389731
-19.8415958872377
-24.6109613130901
-26.647316214361
-23.6405168486104
-16.0158561398042
-7.04317382961124
-0.585205660983652
1.48024213650336
-0.0107561832822731
-2.92314602148653
-5.91598106872113
-9.35399420303466
-14.2705058830568
-20.6357969225934
-27.0435137889221
-32.0364116592974
-35.092496920869
-36.1647749706688
-34.9474663120442
-30.9221436018614
-23.694108372175
-13.2583609751725
-0.506833841520511
12.6185219593723
24.2687643787906
34.0428402969372
42.4366630121692
48.8600524731436
51.1052618188182
47.2542187013627
37.6327006060797
24.607791417821
10.9126541643476
-1.61104052395069
-12.1395268795846
-20.3080880518808
-25.6727951423687
-27.7159398637198
-26.3301106356952
-22.1950542077536
-16.7021554484969
-11.5248328059495
-7.93820732428542
-6.14171269489826
-5.20263810880088
-3.8119168456954
-1.11178054493493
3.11427599356314
8.76447434735437
15.8101893637697
24.3929366420447
34.2183907032682
43.5073373766201
49.001498289615
47.9764821430073
40.6050201771387
29.9685264187026
19.5455388978532
10.9053740649163
3.82803893542305
-1.96196271480685
-5.87988064866535
-7.2654898806552
-6.44897934858494
-4.68836693906771
-3.33878329783073
-3.2684734856451
-4.60932273742524
-6.57488204677529
-7.78619270199987
-7.39285072088077
-5.95975412163535
-4.91490102140714
-5.05012401361779
-5.74654654199486
-5.71310330074277
-4.4510746963574
-3.02930128372537
-3.33385323153433
-6.3499700994564
-11.123147636537
-15.4816286874973
-17.840218240686
-18.3966326074118
-18.6430479506228
-19.6377589430642
-20.7386811787455
-20.2101480671744
-17.1145195677058
-12.4212015709365
-8.30141523416036
-6.55367328007629
-7.40448428268207
-9.13539189916261
-8.8583113835872
-4.47354434446818
3.54346036899379
12.3510556455062
18.8678618749302
21.7709893666755
21.722617181932
20.0789686193269
17.5973799307946
14.3507102257792
10.5979158516725
7.31646127598549
5.75122896751156
6.61987171459899
9.6951067223309
13.7977553473758
17.2255480755058
18.756359001998
18.5461288298422
17.7990498211946
17.4259142941368
17.2223769015535
16.2504746227618
13.5832920861314
8.66462836688947
1.39137496911941
-7.92868812830342
-18.7334837700006
-30.1770351095179
-40.7734329869788
-48.2894456585404
-50.5451322534065
-46.9343923078326
-39.5358291682299
-32.44403286462
-29.0553470769046
-29.1968327303386
-28.9178011335468
-23.6451188275097
-12.1115916781996
2.43211328289502
14.8667163812194
22.3746715655506
26.0755388936989
28.4053193609096
29.4990462113402
27.3266465435899
21.2918743694661
14.0738627645213
9.06355685445343
6.99465551638996
6.13351326903132
5.2913774016797
5.57996331820318
8.95163521341907
15.4694754609669
22.4875663542076
26.7374174868821
27.0197909731529
24.3948131906982
19.9073484774651
13.1509617144629
3.60329184091449
-7.40862249149888
-16.9832838069275
-22.7846689503537
-24.4932205694337
-23.3068100573042
-20.462011335997
-16.3980540431426
-11.2431595189995
-5.85450626668466
-1.96259461061182
-0.918523488625301
-2.32954828793656
-4.38092094870173
-5.86784303983444
-7.63580555572485
-11.2886886660535
-16.2771437387238
-19.103721658776
-16.3346412897241
-8.26642504913056
1.13689944521311
8.07898232516251
12.24622048824
16.2059673208433
21.9648075783074
28.5915995146369
33.3372255591432
34.6846196420915
33.6105270870989
31.7137763683677
28.9502986707995
24.0497604433376
16.8231541841995
9.08074007454587
3.07149779180825
-0.418515799968509
-2.26050424433941
-3.73180388103796
-5.30620832765483
-6.47429391126586
