25.4772034028472
-17.4514802759747
-67.7224366270713
-119.355843121643
-180.404242159503
-265.353299185097
-362.827489536526
-450.034171594801
-513.958648875126
-541.331364896453
-520.851975702827
-469.004438919126
-424.52432352519
-404.98565753659
-389.827942491383
-353.785983633437
-301.885354746784
-258.930333193819
-234.350955794973
-220.058212642774
-213.148367571252
-214.792067418467
-220.218215019532
-225.260655587015
-224.609622079558
-202.031254191248
-146.01983399765
-76.6409080855269
-36.5215772218003
-48.4525436547022
-91.1851519932275
-124.20011575187
-132.194481068456
-135.102189036782
-162.655077946989
-232.818115397125
-334.795640860339
-416.435313760095
-413.126385893271
-304.375839761649
-130.666223872529
44.9630202863133
187.034207628065
301.198803845338
403.098681163864
498.267109275795
597.132442936027
708.708772667763
809.331686544183
848.191077285854
792.368646391117
659.301544181753
499.995895786289
347.869920831867
193.909967307588
21.040039587916
-153.138592402646
-291.42112177748
-379.913053921385
-426.407541566746
-431.158794198002
-393.755512911948
-349.451559921336
-362.519883129403
-455.98116743453
-566.656330633914
-596.629032419466
-507.118922853242
-353.004233242808
-228.469542109728
-183.438445617901
-189.273190189405
-181.908101309263
-128.521152460922
-46.017749138237
27.3861386453771
66.1458443516628
72.5737568917609
67.4801227461757
72.6397319740106
100.673344088206
146.676368001453
187.604403620367
195.626465935662
149.695378730158
46.1851704668258
-90.7189841291295
-220.189812020972
-311.27056388843
-351.472849574062
-330.996862226608
-235.582773682024
-68.8100736350304
133.554562465974
331.843534130845
510.800155636051
665.094534762417
784.3752925279
871.763211493753
946.69098548001
1010.06751619747
1035.87052399131
1011.14635951212
954.047703101886
880.162417052199
766.361594321743
558.394266937987
234.835429314302
-138.452440484554
-459.164746602903
-684.691272752168
-831.52585641827
-904.979438454234
-887.655170147685
-787.307645727076
-649.33878530511
-520.574646255124
-427.536093819143
-382.743734203218
-384.781263122922
-411.912747008271
-433.306350725676
-429.43791242392
-395.613504432466
-334.708503037797
-258.901187826759
-189.791506478667
-143.705106694293
-120.152019095014
-105.07798345562
-78.9126008947561
-29.261281306111
36.8187844485724
98.6869650770343
139.821411293058
157.801968741052
160.469798309063
152.681822713979
131.171500849937
95.481646762778
56.1684207512102
29.3370058159701
26.6045793941116
51.0482133541343
97.1858218182879
146.50198189019
172.68142438764
168.848178942734
164.706270493861
198.694112729673
267.743238771583
318.7853535013
302.067610568956
224.191598329263
138.079295163568
88.7553858603315
82.2304048542171
100.143125765672
128.918576282784
172.046952467637
231.119521180483
282.620649476414
298.639115890628
282.103877063844
249.202404199067
190.408534032149
85.3493593935343
-48.247532769717
-152.66840336591
-188.29305721566
-170.822167828212
-139.259947700618
-114.799709483674
-102.667541612864
-103.715758949325
-111.687066728769
-118.05335350529
-120.492116998811
-119.070468936072
-118.566520097539
-132.571728095333
-162.750016606751
-190.273441378119
-209.806600685748
-241.287798966773
-290.854589867025
-335.494198617695
-359.568006216074
-372.820978979882
-381.070039446157
-374.531048356116
-354.734211229663
-337.386013416512
-320.857891326925
-281.70427290723
-208.43782770419
-118.020797194776
-35.5995272428734
27.1633775813295
73.974518234868
112.937429574315
145.792635250831
168.509907935671
181.559056615881
194.479295396137
214.576239341871
231.527565730118
224.185956203282
189.932078376818
158.557601296996
173.15001547077
258.440572437593
397.396117212285
536.374379018795
621.05930745204
629.294992114431
576.672695963065
500.193598767652
429.381013574978
363.754232744376
285.924341730172
195.548270306382
111.995728725117
51.7070953551744
16.8290196981184
-12.3437106385959
-72.5314098453228
-184.78152035546
-325.949885010023
-431.428241656718
-439.603439986379
-353.741466018637
-242.109504044075
-165.922580803589
-130.235522485947
-105.622424735205
-70.152859192484
-22.9081421510268
23.7732905028327
49.0518966322126
31.230184521364
-31.5870092823257
-112.32067016479
-176.612128388765
-212.843199257546
-234.736988439287
-255.144223927891
-269.22850003226
-267.507044122659
-254.455186483231
-250.353191775552
-275.662383194943
-327.686952281769
-379.111840713953
-405.016793355457
-397.803078747618
-359.162217390135
-294.083368259919
-212.074249771699
-127.333834506176
-47.4240369218125
39.5473269377404
147.369103221509
266.400348548627
378.4564154527
480.476672845016
574.600911516151
654.774805888267
715.522973210623
760.150147592508
791.168095014665
799.183056214634
772.687902640701
716.717085537377
646.960095896863
567.465067302661
468.34567473062
341.064925565578
186.315665046587
12.9439565999091
-162.793163265612
-316.229046221174
-415.0400554337
-434.792635847427
-387.050772176836
-322.489241801766
-292.542932631845
-307.099553828462
-333.824595536567
-339.352177542201
-324.572321440486
-316.932893677848
-334.766530527584
-365.396150162662
-378.213383079193
-354.695955431551
-306.08228277689
-261.579792877803
-235.953488744582
-221.516934062872
-211.856937165561
-207.338006349301
-203.504008264743
-193.803100666238
-177.489809300209
-164.715529960863
-172.164045371287
-203.843756679106
-242.160081764941
-265.781767368301
-271.505646844814
-268.740773046724
-258.354485197847
-234.118849482037
-200.001215682062
-168.04997145142
-138.817267947593
-98.1763341544472
-37.8504231150694
33.8509054819058
103.822135754123
165.800095170174
224.621848009452
290.939332795027
364.402276729992
432.634983901595
490.962521949574
545.592763626299
596.292459432551
633.260490073049
651.637204569759
655.412292882332
647.489665335556
625.569300665522
587.972517005213
537.336024119478
478.408268456035
416.200087694185
352.910048205567
282.974854652872
197.363461239034
98.859151397722
6.84990388894306
-58.0435418969009
-91.6551650587501
-115.026908800829
-163.66209370706
-259.655381581305
-399.678761980832
-559.368647044573
-695.072453996945
-761.542922430157
-743.049737912617
-657.062326370813
-534.138096302789
-406.389609563371
-299.384803977966
-223.88509057835
-180.46647139221
-160.331966054124
-139.645117941091
-97.6096863148821
-39.1968617089368
14.3632591527826
48.0096245230895
62.830403832084
71.4684662788173
83.683640223978
100.154229363089
121.565173772109
149.061115098717
168.208747590303
149.523837231016
78.749801009641
-17.2405833889002
-83.4269651552829
-84.3024578829071
-35.2031469824319
23.4125519380796
73.6958317938427
128.53771342358
198.307891086219
270.03328692301
327.897482978481
374.508862012069
417.931260148747
453.585507025481
469.58491494876
462.973461860169
444.953035139975
428.065672513851
408.319018266676
361.222808833876
262.471995019559
120.342505744025
-23.1326078485067
-136.562911839732
-229.61079196207
-322.094655925899
-404.44320717786
-454.937788186853
-479.359203426687
-504.511100798087
-538.984463953519
-563.742013942463
-558.215050012053
-517.741628507719
-451.708388823117
-380.898563514132
-330.100639294156
-309.241216838312
-304.421627650459
-294.789799837395
-273.748115287837
-248.73117695898
-229.045862775212
-221.475307308651
-226.927417593546
-234.093836439408
-228.323854724615
-206.883344051221
-172.805046063363
-124.927829482681
-64.55197788346
3.55635754617138
77.9500049891842
156.525384509455
231.109207342975
294.124795230546
350.579906088094
420.302587874478
519.605928701527
638.110669860369
749.89207613656
846.73356677463
935.995108396309
1014.56986031584
1067.7576125108
1081.01882168343
1043.64771124964
952.716746085086
815.748475674643
649.40889134983
473.772815098887
303.367128156749
150.690124001865
28.9573249280069
-69.1614025704562
-181.748122922266
-350.368315802708
-587.32193784326
-857.111122748596
-1080.15267404863
-1179.49541504276
-1137.70139649415
-997.624990119141
-817.591935935361
-642.371977571139
-502.618910096252
-417.184927238104
-389.087396346524
-402.426749153206
-429.851842511348
-447.505214719162
-442.731828521505
-415.417858121381
-378.083026180408
-347.359973918109
-330.947758477327
-325.569948011394
-326.439839384883
-333.607057953117
-344.738582595881
-346.729584487575
-328.255160597211
-297.882755685542
-272.660533486289
-253.940262057395
-228.019055905296
-181.72452732809
-113.146678318309
-30.6722503002313
66.9007819201464
203.140903751952
403.117226075372
663.579905774728
944.719785323234
1191.80059001601
1372.24022463022
1486.73348215268
1545.78381359799
1555.38405063321
1523.20557763914
1454.58127591326
1347.95005975188
1212.01039288065
1067.54746314344
922.96622466002
780.7083325963
662.217046923397
582.515457580181
505.706803175303
357.02402087803
76.1888529679049
-346.898378283562
-856.573672280392
-1322.84955977311
-1593.13115984953
-1607.67702182757
-1445.4202791235
-1235.77717317095
-1055.68255675211
-918.399120157248
-815.978833161257
-742.530001929961
-689.691768429589
-639.377582757487
-572.644011177271
-488.074841038989
-401.707799880444
-327.567357121724
-267.321420144794
-214.966997883251
-165.327263109211
-121.541454363229
-93.4637373280229
-89.7543173766301
-111.629998158309
-145.258374889478
-163.361624568418
-144.939657584892
-93.1836708575788
-31.5507986621204
17.8049498879546
54.7165090648331
101.242478768651
176.898860347639
277.963554136314
385.331851584182
478.946667689437
541.565797476183
565.40682431115
558.753307510328
538.460877074633
517.746522987745
504.32963496364
502.333736459281
508.910612664563
516.456267774972
521.39309814905
523.410161334946
519.274254898424
504.001881610301
471.249309266456
404.71155770158
279.15773411302
86.0639576101177
-147.48487333783
-375.681228984977
-556.746923690574
-659.534207065534
-676.136756456118
-626.777389823505
-535.541599911723
-421.78519942141
-320.110393140791
-271.401615791772
-283.062900890963
-320.012007325025
-343.506238906158
-350.77500889616
-369.137554978782
-414.28952278521
-466.893742207016
-492.835939398045
-475.448079911615
-424.058891894136
-354.930033514166
-271.699067879466
-174.127853328229
-73.3925313400663
18.9893981825147
102.815869320661
181.513588948522
258.656782452365
336.185782842503
406.214291899657
456.592290926923
485.140607194876
499.177967044939
505.028613334401
504.8404681098
502.016567893488
503.061803830954
510.287825353105
517.573032429656
515.389203687199
491.236824453402
431.638476581099
342.195192925999
250.309850597388
167.085925357982
70.5445734955138
-56.2266546765362
-188.0863587498
-270.342818353531
-273.234438265424
-227.534522505957
-190.168537747406
-187.660168777625
-208.355544052997
-232.723811612707
-255.545717886952
-281.71388968229
-308.705656465765
-322.229318079171
-313.702875336326
-292.905062698876
-275.439340619044
-270.587814016905
-282.174659889252
-301.388634856036
-307.816971923827
-292.047882985177
-261.047179197531
-219.166347749746
-160.91432031389
-84.7196134117506
-5.1153736048563
57.8982834112383
97.4112039572807
116.485260592045
120.483312767127
125.992194265694
153.926452780709
200.854146755887
243.036614195143
270.973600690111
293.112065925989
316.650656584187
344.745725581866
375.641782125594
400.591531102735
411.067947965229
398.891232501961
356.698736691232
290.258945389746
219.718314377619
163.996221592683
128.353053259501
103.111053029184
70.2097369029314
17.0310493683146
-49.5284510828915
-104.589579321909
-124.832857395399
-112.985606959008
-105.46397597291
-141.345090758781
-217.417092601481
-287.568301106947
-309.333146831869
-283.883397125667
-246.698263769913
-219.050209578107
-182.941132637804
-112.025397162116
-12.3394410253298
78.8763716624866
128.965169528186
132.101295873605
98.6024509664427
38.3218332351876
-43.691228959962
-143.585595524283
-250.410231521126
-338.585672454534
-378.268086549646
-361.683675336726
-310.456054749809
-256.583618210613
-224.536056011094
-219.873502363386
-228.690546750648
-237.868848750066
-248.734511532492
-265.378024224252
-282.577266782237
-291.094118017471
-288.983450021601
-279.33571150478
-256.440160951463
-203.276237718805
-108.410385232564
16.3106346841247
141.951747444934
247.207720173191
328.876592104848
389.627025758115
425.517113785085
430.981290627381
412.18474224326
383.999250232307
356.668484813462
335.281087298286
323.432009272616
320.625346554265
319.680633093468
306.385397813962
265.171856296786
189.651605981735
86.1229693986182
-30.3289656737181
-137.975344675082
-215.492029622606
-250.276954482744
-226.470712207251
-126.65130324361
27.9475691534265
179.263605520938
290.078767192391
362.094765541251
411.137066030338
450.261198414013
483.178214161552
508.232742239357
525.175402355119
533.635895858102
532.213992801688
519.178063988369
492.394243586421
451.611077742194
400.995022011773
349.261512986755
302.095011527673
247.77991514225
159.647521726387
28.4233007959393
-116.192268943894
-239.248718320848
-346.835308512245
-469.091790478353
-607.444746344558
-725.432293221494
-787.96782060284
-800.060215636661
-798.212638887984
-802.900864674325
-799.649728109026
-768.497801310543
-710.809248395389
-643.485979372065
-580.54859622844
-524.69934188995
-473.048975789316
-426.58645826484
-386.516573479335
-348.229406956179
-309.410209336757
-273.515008781367
-240.845758515688
-206.254099508341
-163.916797573024
-109.54183288529
-43.492564722419
25.4238539014523
85.5617884746186
136.955603039995
193.108906837363
259.277978247801
317.701884620257
346.956930151123
349.699195342492
349.335137627158
363.140354286694
387.547361117944
407.285305052553
412.474104212871
403.157640080668
377.970687098484
330.785191816652
268.975573383942
221.759369279784
218.539673306824
266.660522970661
345.719333919501
417.134478090988
451.82136898687
446.525900898176
407.696244220397
341.698457508278
268.853135837212
218.631912920119
198.708487536898
186.627307515539
157.47562141429
110.14189816503
61.242756895181
18.79833890264
-23.3086941168848
-70.2928505214169
-126.299193128366
-201.370137058899
-302.473187823704
-419.951957998628
-528.627428975157
-609.226453618815
-664.429577354821
-705.557544851137
-736.83145382376
-755.221608166858
-754.590296953251
-737.095385434508
-721.465400477645
-728.444679323311
-758.120416489167
-782.012140577722
-754.403732442864
-644.709736907359
-462.231568056879
-231.808678295616
31.0761355130274
298.167578254436
530.762804502325
712.531026628045
836.408837317758
893.131672508946
898.123642035242
879.590335824295
842.633939100308
782.020890898453
711.51924037913
657.533870344169
637.210227012951
653.206345472449
697.193801028828
749.396355165028
780.433563458666
760.786971570972
681.093975594692
562.60218750099
425.695576854506
262.355098242039
71.4030062214548
-106.496937769016
-223.065015026055
-264.804503406904
-242.654341847195
-173.26860910537
-82.0596037439157
7.15787686837104
93.1057351837649
182.706752014983
250.720896552253
242.152352598284
128.23647494541
-61.2054544945381
-266.878936306825
-441.760884378369
-562.931322433361
-625.723823837204
-643.038248407951
-642.887627945912
-643.808354371993
-631.597838717354
-584.974760701534
-520.215765751051
-488.785900933342
-532.116809053135
-636.431141505889
-730.831107976108
-751.066105596889
-705.23687797672
-652.34034135896
-629.170643229843
-625.277234138046
-610.225355862771
-558.047763546031
-456.420297108539
-314.165283655746
-153.637840190072
20.1084468369158
223.609475464176
447.425561882163
634.328228039662
732.341556967452
747.310745383556
731.13454440323
735.363368149079
773.266125776146
815.722045390929
830.336563464536
818.057657590005
801.237838908484
795.934491705985
802.957284559501
804.576826519309
774.897537473821
704.593229594291
599.922963369871
467.868570963321
325.415674818312
199.052203125475
96.1440103531681
-2.08091565954078
-114.842155623847
-241.01838291267
-361.434038901003
-456.562605515302
-521.258625594538
-561.829037295644
-579.257165920475
-563.815063306788
-513.929907421178
-450.709053595121
-402.90270769303
-381.622355915318
-381.309122241024
-402.739183828269
-451.881879675859
-517.227658481464
-576.378799436279
-622.305774441855
-666.144400995587
-716.296440709938
-756.104373086284
-750.823286940141
-688.519438910812
-599.76644228186
-521.785855641074
-457.434886247781
-386.506602501359
-303.383735454665
-221.260696779176
-149.140752950421
-85.5700284905087
-30.5435211641921
12.8815075971897
49.2711055079956
89.4381485245747
137.673615746408
187.211619630212
222.983846215948
230.082332500543
205.70104141541
161.090797814605
119.758050384862
119.350456135303
196.965856615294
356.788092016484
563.354271570094
772.178032099372
946.167660775992
1051.05211819832
1072.19169065207
1031.80014839222
970.705199201682
914.348677486801
857.330173917367
787.821857599096
718.549031016064
667.568175878705
623.560928763036
559.37764547973
465.948671173631
362.151988412938
287.40733909643
273.146028835424
299.204246181378
300.378131915688
234.585468924866
118.078919331245
-16.1799132783575
-164.004653643965
-337.223382262605
-522.430093388434
-671.887174514903
-739.849351026906
-727.285391138283
-685.638512464818
-661.06187210857
-639.051546254032
-572.128192632819
-446.803133373665
-287.821316616201
-125.4403469944
11.0937733878697
93.6227198409269
106.690916238683
57.564182036493
-22.7187893835838
-94.5582250424725
-133.199132431214
-138.328152604796
-124.970672613918
-106.376065294202
-86.0178195104615
-68.5788979086332
-70.150918652611
-104.076732724286
-162.647951823465
-219.919846034549
-242.309264126697
-209.366644033774
-143.339112988658
-98.1103523739958
-112.374293131647
-191.491139066658
-313.611046573474
-420.85467577201
-433.25157921596
-323.118767599135
-159.776782041479
-40.3900556304317
3.24958052814103
8.8754728421981
24.1919754479379
64.6717767808459
119.809524380801
179.691810253229
242.36915562291
301.358315985456
338.111287724915
329.991851980545
270.982623469943
187.393332287416
121.041673340253
93.5943082995898
93.5268493871738
92.6813355328641
70.0276525474612
20.1194638360709
-52.6850962950978
-135.605986262745
-208.835265494869
-256.86955000399
-276.111488922394
-273.270767063744
-260.857255656497
-249.150317031062
-243.24978214432
-245.748360932057
-252.110501164431
-253.873160310502
-254.28843932815
-266.683200441339
-299.697267531852
-349.074817601233
-393.301363669546
-403.905274265664
-370.082433806589
-307.749049060711
-244.596665427389
-201.513093730434
-185.361372971653
-190.670898005045
-206.104406066273
-221.208063599708
-224.788339240223
-202.232948251377
-138.752608275459
-21.2014684820057
153.636102471037
371.483571416123
619.962286386238
900.652624530709
1192.67245244696
1432.51533783456
1568.34866298311
1605.78465583138
1576.1484011984
1497.21686966829
1379.53076615115
1238.09398225607
1082.85647527977
912.429173041388
730.404158909583
560.337205199305
430.005211024746
343.466191373954
274.019304994876
179.29844546439
25.4525163551902
-191.660049820762
-440.085753778714
-675.196574511888
-885.399560692343
-1094.19689056073
-1302.25073229237
-1470.53708615607
-1571.00233040622
-1601.60329857464
-1547.1034828813
-1373.28026691028
-1071.29976510721
-688.400336277137
-309.757254656835
-8.20748192451227
190.991915475599
298.909075680608
338.709382755083
338.766632160636
318.878256009165
277.645203382832
212.65192529979
140.351526826796
82.3760914109724
45.8821001792068
21.1800535235966
-7.13460177943037
-43.5098508855267
-76.9918433446181
-98.0958601322585
-116.247463689944
-152.738350651016
-219.023720299002
-316.692125089187
-447.601504575933
-594.596226733746
-711.120277720687
-759.717833123644
-735.627298662969
-636.398796228369
-449.419389566026
-190.273257503512
85.306456015771
325.150958055761
507.725895387513
626.42443615371
681.123892842735
690.67962240738
685.280759819338
674.323898122757
642.527230067401
583.184789936479
510.921736746852
438.120701486657
360.453406572054
267.201587165039
157.227068999588
50.7393453013422
-24.2778971374961
-68.4357269422228
-107.048883602771
-149.987664357354
-196.399344759278
-263.438532535028
-361.887059103078
-456.884347688484
-495.573008738418
-468.625168666571
-416.854310652203
-384.64730316421
-373.385967277124
-329.62042674246
-192.08303273387
44.7711950944754
322.739560567298
561.415039013043
707.344381157209
757.944708030744
741.114073254354
681.754483582846
601.549837251469
537.691316089325
525.281085535289
552.938131073107
571.098405562238
550.115434887421
497.886692657596
431.904699139339
362.723573742852
289.233147201819
196.845822815974
68.4933644287578
-104.249882374469
-313.799115947469
-522.065997131982
-670.836797461588
-732.990468834719
-729.040138873397
-680.017115298888
-578.182978426808
-410.59406715996
-197.473225398878
3.40763684539366
144.949433846888
225.628138146159
268.941878608396
295.275411766399
307.063785385579
288.022350431517
232.496304256321
171.541676404506
149.918244036534
180.75377336727
236.489206731324
275.075680428597
263.648758121578
194.082764347431
90.1740917023231
-8.31737510617178
-76.650389031917
-123.013968312373
-174.699156453853
-245.952360132135
-327.591045393947
-413.855309122619
-527.926777073538
-695.791477234427
-896.009743319566
-1072.33360180095
-1193.91823349947
-1263.61761479796
-1277.57380945537
-1214.82258369429
-1070.22542041513
-880.938747092113
-703.299014939433
-563.671710830111
-450.580566149789
-350.038822797047
-263.13482598113
-189.638431821717
-118.577468436854
-39.5181415279865
56.224367319289
183.78479799866
358.884990780579
584.685256219212
838.354534925653
1069.22496171221
1226.57865545917
1292.06683640284
1281.28166333592
1222.89221834862
1142.04248330578
1051.65775385061
953.64919562127
856.736835332739
780.441885127193
733.708963165575
706.462658144758
671.543561451527
590.711231684488
452.349201246246
298.179621918053
184.296699750744
124.530289748674
83.3081683065219
18.6198957182097
-74.2731129913928
-164.355034140736
-227.385939055112
-278.488336611009
-351.571508801316
-458.938566136859
-590.844962990408
-739.270501415731
-903.054633452115
-1070.76607199268
-1202.61586641921
-1240.01766654282
-1142.09424570381
-916.065894294102
-616.165422508107
-307.823773432074
-31.0702094453599
198.607524356327
371.608834777913
485.617952594748
556.22530453203
606.659011444146
646.916869224343
670.719570664575
667.255198569163
629.496017081986
559.237166004561
472.565001304083
389.992151718363
314.918066136543
233.14272786509
133.094226884163
19.0217404858861
-93.2120673730105
-192.777479392015
-283.085154091017
-366.044576446465
-426.974741096406
-447.110498061402
-423.306424683299
-380.273346640669
-363.932592810422
-400.560007595223
-469.623469970243
-531.508276012365
-562.530748753941
-553.147737724536
-497.589331322942
-402.91393080932
-289.93470570522
-176.450401330591
-74.2748953773515
6.76110363632296
67.4267215364052
116.210346565334
152.485829860677
170.695725302126
176.772587219958
184.788828417508
206.307987496985
251.871569557944
329.686634525188
428.005731369807
503.606890544171
509.68796207355
441.394246377251
335.235422056293
230.896941160821
154.865904194778
118.189056689768
113.703038020889
134.926589707143
182.681123232798
237.681776648069
262.655063066509
240.842781029565
185.210751443851
113.353355724077
30.2698695021893
-66.1611755541742
-171.505339316927
-269.757385606781
-339.106786915413
-362.231828572361
-340.052868996367
-302.024292225503
-288.885181934601
-315.488260548813
-366.865462691972
-428.502770828651
-498.88942781353
-584.082729515684
-689.599163613464
-801.213666825677
-883.673596416803
-911.406599668697
-885.953228325691
-823.073532142674
-737.739735664604
-642.505651998622
-552.807961677588
-484.536464061143
-429.130099915005
-328.630447612523
-111.522557696142
228.902102278941
637.110767834867
1076.00462686389
1522.85559381472
1903.20706735927
2136.19795638567
2225.65076357481
2225.73018456792
2150.87305554538
1982.20707041028
1736.74711692977
1481.33482269754
1277.14838118603
1133.29493804792
1023.02680613565
925.134591522988
833.056632503269
740.609775942051
638.475339707873
516.223030749656
352.588093096895
117.884467032684
-189.036757063417
-518.084836689846
-807.63231153549
-1039.28519177185
-1237.88353650829
-1425.71509572206
-1595.99653805564
-1737.03312210676
-1853.37529559236
-1938.14668717138
-1957.02348927528
-1889.15838637192
-1753.86920193523
-1584.29507574199
-1410.40172180944
-1264.40180272844
-1166.63973739662
-1109.82957817372
-1068.60049148838
-1018.70382872492
-953.342903404478
-883.631173224321
-814.590728316652
-727.117999634218
-590.767052954482
-378.373922433981
-74.6207932488449
295.614891855317
662.79310841654
959.584985575645
1153.33159158642
1245.11611902044
1262.15233165082
1239.69652508716
1200.89521698513
1153.90196518084
1103.78808734644
1056.50520867981
1005.44138571166
930.697836911089
824.709121282714
707.650133076604
613.099582123675
562.343499533658
543.696066454703
526.115981790156
504.54829297144
498.603347664913
501.733328056603
477.892537222912
399.416242488076
249.626157010523
23.5921089802531
-235.198605171344
-439.643063581134
-527.765756064295
-505.783453562267
-427.553230108788
-345.483522412181
-271.102945528999
-176.475415879704
-37.3829713350835
124.846638755759
249.279402511357
288.711579419876
253.519346231886
195.135221579432
158.178621937761
157.619281983664
181.809593186439
204.297139126545
202.754255584763
170.969989823496
112.758219696579
37.8881531585389
-35.5442544910363
-96.1940684415106
-153.94665180456
-220.875346932508
-286.258254755462
-326.426255014942
-330.016978343135
-301.450942809291
-259.395464921338
-241.095414158712
-276.746994936892
-357.642192805948
-456.958272933027
-561.667881365663
-658.354364865524
-722.641994098356
-750.322182910348
-766.669104333051
-784.696613160524
-780.900875388699
-724.718453348759
-619.17417561296
-506.355745825828
-431.469510765674
-410.647705693821
-438.959542419677
-504.927565338098
-584.319210256841
-639.680784914857
-639.376046640995
-581.404090687284
-498.11418704573
-426.522662508961
-372.924698674073
-313.292643698151
-229.040245187791
-137.427205591662
-72.7560586949227
-33.0615990017708
34.7344689093551
175.664588944252
366.406266757089
553.711959816254
744.975815704377
1005.04647503777
1355.39264293552
1720.39668829861
1995.02535771766
2144.48584756469
2211.2934180873
2239.27583073283
2225.49136627548
2143.82749070891
1987.68277642389
1781.9235406262
1566.47370265224
1374.27470808785
1217.96359040488
1089.35052697135
970.427151474953
855.137990883558
749.643669480001
635.166551721295
466.698755050243
222.364241554771
-80.0595296541606
-404.298681400308
-718.755684950194
-1018.15624275303
-1315.03290157648
-1605.41180029327
-1861.21036572159
-2056.80164193782
-2190.44110494832
-2266.50129729698
-2268.09579179235
-2183.40771617541
-2046.01488249981
-1908.36180816898
-1796.68736825157
-1717.83897789829
-1673.96487238663
-1649.21887878147
-1601.64673129581
-1471.79974867495
-1213.61115563699
-849.996010610702
-478.014040801483
-184.008097714204
23.3190866821759
184.692377307723
338.519880329532
509.456048423448
708.352067825007
923.698010108881
1121.16229754804
1260.71500638701
1329.37732258544
1355.21645052596
1375.42627813559
1398.71050061035
1403.54361186025
1359.15317209288
1246.06255237482
1070.31929697326
863.36377688782
660.480625645547
475.476786443062
298.708430435401
119.95730521526
-46.6162937716704
-163.791530919964
-203.873343481956
-168.827301854484
-69.6296533087644
83.1355862525089
255.232162417528
397.195723806714
485.681936626704
529.613422862522
543.839173228213
533.809668317776
500.307662186728
447.688170920765
383.87323319242
311.938599501334
220.417272919437
92.1068401424351
-72.7814114242461
-250.019029117769
-400.200872053299
-484.829992988665
-492.912312555964
-451.678105958966
-407.792057066353
-403.589405454197
-462.32698714677
-582.705030303419
-743.416397911025
-915.375338746669
-1071.19364123911
-1189.8702383627
-1268.962617599
-1330.60039614844
-1404.86311789239
-1503.18283490852
-1591.28890997714
-1589.04055934679
-1429.86505517373
-1130.69807895596
-780.494749200499
-452.51951972539
-151.132012430039
145.258026098173
424.672092207934
658.561957769352
852.307894484656
1038.47362316428
1226.43918698053
1386.19245183035
1484.34667793937
1513.48258779825
1479.80910730001
1389.93501505993
1265.55673473498
1143.15344130142
1037.07373188265
928.463529695762
802.235917424416
665.857024218558
530.691105352773
392.147252504358
221.831667364499
-14.9367461268107
-312.873714047646
-598.222068009419
-770.28589476235
-793.284517917087
-730.583783910802
-669.837894146085
-642.518357948725
-618.036874235293
-533.993646008317
-344.206271630716
-81.6224454777675
145.352703373199
246.182958141371
206.504852385713
52.9655814692983
-179.337720042482
-425.974127342954
-601.43763091649
-673.731454139581
-698.814192631668
-757.444310648601
-868.311712791662
-949.126738591889
-876.385283949576
-611.998894596245
-234.637494162121
155.564270487451
505.396792585007
799.343927296054
1043.90264495706
1256.34785016177
1426.13863334865
1498.80428277789
1439.55680143258
1296.44008847612
1166.56717162598
1112.19925500039
1128.40027768461
1182.14453663482
1257.96634220191
1353.81972514652
1447.22811196911
1482.90498552168
1401.31547391308
1187.02325478947
883.746230072001
555.018492393421
239.364729183282
-56.3387465940679
-338.218131654222
-613.525899750979
-885.148393710357
-1146.91928885914
-1401.34682306435
-1666.5449171703
-1925.90344028632
-2115.09758476685
-2207.59610063842
-2248.2129950606
-2275.36329201311
-2277.28783075607
-2228.14354091615
-2125.84257745657
-1994.34389322015
-1860.48626182903
-1728.15026152581
-1574.88302905697
-1379.04596899639
-1144.65394929563
-889.768935128477
-613.915372571616
-299.665205591398
43.2954643553189
375.949802818219
673.315565577959
919.573557983858
1086.50982663498
1162.90621133086
1190.12728219216
1259.89009779797
1451.25954091525
1741.58341485137
2018.68910853113
2188.55832818908
2235.70365615077
2198.92365221072
2114.88994515486
1982.42558385444
1785.60995180401
1540.18062246256
1287.33042478865
1045.33106730624
801.93455183446
545.093481002331
264.218797208771
-44.4669064409321
-339.6339525188
-552.023492673299
-656.736165081507
-687.787630119832
-683.642453420432
-656.155235262907
-618.115783497163
-604.36033407725
-649.700710931774
-767.405116580632
-950.416535462309
-1166.72695027557
-1348.57094463188
-1420.75636086045
-1364.0063573956
-1239.1142267926
-1135.05702373711
-1096.34170654738
-1106.53131298341
-1123.55309506171
-1112.84650248282
-1068.60002417957
-1014.83298020349
-972.02054010578
-933.996997591618
-875.660885500022
-753.075228639784
-517.124483619048
-182.404521551462
141.639427836188
357.510272314182
482.845500950632
592.780476702106
732.715308529087
930.184814137095
1198.53521188594
1491.45575770867
1737.15394890201
1930.69523909534
2114.54365841951
2279.83290073275
2361.63238435862
2317.30145657318
2158.77270644094
1919.61290737113
1619.99190289235
1260.04561070185
838.837339546804
381.964551013928
-59.6051289511662
-445.588083029433
-762.819120553413
-999.206950028339
-1135.75406557358
-1186.46422986234
-1207.07048090225
-1224.64752350251
-1186.30057408573
-1021.05876667187
-743.606964453562
-454.056347041992
-234.226443897889
-100.313334687454
-52.0670116443309
-88.3241842714593
-172.99980716016
-249.646089054411
-294.052129273173
-318.166095773824
-324.986635697859
-294.560748584871
-223.459629033434
-148.615375931901
-112.619862680856
-127.917653931889
-188.650292221527
-271.51785129554
-310.069314063726
-236.712309387146
-70.6779902076566
83.7032670628795
128.809781980193
56.512055654035
-42.169656371794
-74.1807513065114
-49.1237890397907
-24.8435687679315
7.59126126940285
87.1267676743952
197.385793911001
307.503884851527
422.860641232014
547.375235677998
667.117114628168
782.178426377052
896.054047438121
975.7309562729
969.545976580184
857.270147281261
654.157319599875
389.824913557656
100.36760345645
-181.197772278829
-437.828333580794
-664.282199628805
-857.151260577879
-1024.77646029827
-1190.57211979955
-1368.89705183353
-1553.33263162398
-1730.51351127475
-1890.02789875895
-2018.67855915588
-2097.41891898975
-2120.69009393133
-2092.88366196933
-1973.93591717169
-1684.34925718962
-1206.13836980164
-624.672408297973
-58.8120492137864
411.255812531508
765.260566550049
1017.37927117678
1173.76805741769
1233.56841316233
1226.7447503384
1231.34790949782
1336.22733304312
1554.42624664254
1786.61419569694
1917.69997029344
1923.80864926494
1850.78666601795
1756.99043056251
1711.4367843939
1751.08004094104
1806.69985569269
1754.83642754364
1542.53572725223
1215.36797090955
867.000293267264
568.623366758827
302.237539524073
-9.59731894514221
-389.323880351022
-763.794275201585
-1045.57367488086
-1222.16956658366
-1348.96853480837
-1465.96562338379
-1555.01142067034
-1588.69564434444
-1572.55949723204
-1508.46071555921
-1374.24180440329
-1164.73194392019
-874.733142347023
-459.766788035048
80.5605633414435
626.063417377373
1023.26551596323
1205.84662723136
1210.27436802112
1116.24975141429
986.026153089757
847.437780931603
709.337221381135
576.336256538171
460.158878016702
379.364804003738
334.254088683319
289.709505713923
198.883154675596
50.9218878732568
-110.234340289505
-242.76362707504
-377.978062488944
-584.860086693515
-864.942302805905
-1130.05456190605
-1297.3570549894
-1382.05237845553
-1466.94216427579
-1596.36630808962
-1746.23245436254
-1874.77131998008
-1943.8082698785
-1908.96828374327
-1749.77276249662
-1502.34413702599
-1213.72502490379
-878.213362938361
-446.959232244208
122.027151043881
823.410352323691
1582.02990405946
2268.66288515834
2758.49301095188
2997.78468818192
3039.99640040645
3008.04108922978
2985.24664940448
2947.61485846902
2821.00480700765
2579.01801732033
2258.53093298025
1901.24072275826
1513.32519522269
1083.37184325931
619.832450647117
162.666165619452
-231.277759518691
-525.682893622789
-753.987995233359
-1007.6088513759
-1328.80309006864
-1634.8911426292
-1818.83914968955
-1915.73906105826
-2073.11131396989
-2353.95835537537
-2668.32289309491
-2898.21302757338
-2999.33040902239
-2981.90520043304
-2860.20261454409
-2638.7351543591
-2336.11474141987
-1995.28774734106
-1646.30373850839
-1291.45413272085
-945.377522032615
-645.185097347504
-412.208112387915
-242.564517128043
-130.568218792717
-71.5397089502297
-42.136148389536
9.94941708980329
136.38489677316
331.697507324624
541.760239490471
761.893129712117
1074.20183138532
1536.37832274173
2072.94800232494
2514.4432853971
2718.91936444296
2664.63381405311
2476.11153883025
2331.64903553551
2291.11749213818
2242.0000362599
2034.41785353798
1633.76895531865
1129.65906521204
644.536145093379
270.890034020628
52.9921826622351
-17.3812694525082
28.4069324448458
196.026338196143
541.740680374613
1071.98142976159
1643.06701164461
2041.41693793362
2162.03409841244
2053.33506180949
1808.32958972312
1470.93417888132
1048.64542856036
571.308499205101
107.64853313758
-280.592305444082
-589.560688898614
-858.34866990564
-1109.74814588674
-1336.4507666796
-1537.67712981695
-1734.60281452203
-1949.59967870116
-2181.32465015853
-2405.2481868256
-2618.7664233381
-2856.12624603597
-3099.16867841407
-3229.70477862003
-3140.90001999441
-2839.37367748004
-2410.08442079107
-1939.64513867648
-1496.652500173
-1148.12446373881
-932.298083154301
-795.394160073337
-602.033445024916
-250.050294577064
230.620032995746
713.489638254133
1096.17765654362
1357.46943718955
1511.47270657192
1559.18493609859
1508.96547787695
1405.57221230095
1298.67202777741
1208.71981741534
1146.75222052741
1123.84212056174
1131.3940174628
1150.63745215434
1160.50617722532
1121.48215646828
995.190648396705
773.377102919832
465.985700586071
86.036147319572
-356.628269586649
-841.964133912415
-1285.75499589136
-1546.42841856752
-1547.48506019623
-1345.10377016162
-1039.62259947138
-694.193393267351
-368.690437147152
-144.37944483008
-67.9089785754695
-115.478484886725
-227.696787934098
-347.145504924675
-424.8442461435
-423.738476927114
-322.391020249302
-127.276720964651
115.307008237107
366.317614914037
635.834936566672
928.339057364554
1199.65350945316
1397.9748914143
1498.0336446328
1499.31071723157
1417.00094088238
1259.39509918166
1017.57426217208
698.720130063996
352.151897082489
29.801974456555
-258.531806107496
-507.665335952389
-663.387842871903
-665.86238969741
-531.617860016485
-348.54738621211
-220.416347724797
-241.747213984121
-446.685258154753
-741.214346194898
-973.620011905443
-1086.41092022433
-1087.75768409642
-900.525925255221
-409.733657667728
345.626841646975
1182.74538658691
1955.27562094884
2598.73244286243
3060.64860315719
3303.47762696953
3343.34068815368
3233.34731661889
3020.6989863588
2732.48606431984
2385.24600563492
1979.91873225495
1503.5586990625
968.312891761924
433.17479372654
-27.3904634625632
-366.040572445911
-582.722360686778
-720.250653874318
-849.360084809675
-1046.25989951835
-1348.59364758552
-1728.35013810914
-2118.66137253782
-2447.05752262069
-2660.35527878549
-2771.00519904755
-2865.14935565827
-3016.9909400225
-3195.67959054965
-3268.77205977941
-3109.96845126022
-2727.35632247289
-2266.93585557264
-1870.37722411657
-1569.5378840931
-1331.43653937811
-1147.714505874
-1044.18128012567
-1028.30092378029
-1059.50116066789
-1069.33786763895
-1004.90744508009
-864.200962507113
-673.587084022033
-421.706133542319
-76.3033975621345
323.440509428954
672.766114846013
899.269578416282
998.320239940988
1003.27657048018
965.534965998958
940.191991468232
973.144870220506
1101.45986178552
1340.2168342775
1667.10337170018
2036.54495124301
2389.52656079728
2656.3009901043
2782.41146724518
2744.3267998859
2547.63702508269
2234.68901789528
1870.07491665549
1504.57629852947
1169.97591539331
888.178559799253
653.621730398371
424.124751781614
165.781041162059
-93.4079372403142
-290.721340239867
-416.577001038155
-534.856071263725
-708.855777362414
-951.969724656901
-1253.58446017679
-1599.14732723164
-1956.5097102844
-2273.35389555532
-2483.48358232029
-2529.55286160782
-2413.98567393676
-2213.5327737084
-2024.13802678249
-1896.28744331679
-1819.86308735526
-1747.12416724866
-1619.76648427094
-1397.17515663721
-1065.3808633941
-614.515978297558
-38.5403649995049
616.721337196979
1247.81211889604
1787.35767758029
2250.17927526674
2638.99769605905
2889.24245517427
2953.30872472339
2864.5190440383
2695.70772553811
2507.41573466898
2335.69386717678
2186.65715831809
2033.2749136695
1841.02962105382
1607.33690891132
1362.21222451996
1131.5958822551
917.733217900842
722.832381108311
577.301157029584
493.733152290673
389.646227396145
141.739473713967
-282.104331708278
-802.406051632358
-1281.72043614552
-1585.36789131803
-1669.61053491741
-1595.06069034568
-1426.37890012308
-1174.22443985311
-851.475548120915
-517.986090541225
-224.135653888831
35.3122924122101
264.050655344557
416.01649297511
445.758844473844
355.44070069687
163.491174404799
-120.265703379415
-474.413926507172
-870.100431331848
-1286.83964723337
-1674.79557305463
-1927.54502473764
-1953.59266247304
-1757.86829939596
-1425.3818727295
-1069.99997876391
-807.881398583913
-719.712918032992
-806.945616849051
-998.46462539967
-1205.9580419408
-1335.67292774764
-1254.17736942096
-868.30860531953
-276.123431759393
296.990629782173
725.833432580108
1037.15976354009
1274.08569987412
1415.57153272981
1433.64906975628
1364.1289918373
1268.75272243132
1158.42761072985
1004.52652094366
810.899620228502
633.377616903487
522.36301520066
479.459156561503
475.538050304023
480.468495903
474.919404118892
456.854134208964
438.427938252748
412.063185168193
332.553083353439
176.33291412938
-13.1015311909436
-183.265363845186
-328.006082884883
-451.342636114959
-526.972615220672
-525.875660036122
-461.484138855244
-385.765873254506
-339.779365596154
-323.852697666031
-323.175873812345
-329.172413287122
-317.660358767025
-262.001568387079
-180.673159611353
-105.775839402267
-35.522774656835
23.7708975024773
44.3382233404499
34.3889339894166
22.3036036556251
-12.2332198114494
-108.464626366865
-239.811620132958
-336.256844886133
-371.534791811057
-362.323864188247
-319.64613445548
-253.565922776329
-190.972384526624
-161.499177824487
-182.808216284672
-261.684918254573
-389.683545969654
-534.972694751054
-656.032541755411
-716.919547708938
-687.979012205251
-570.216073005679
-417.235454244217
-296.742936154679
-234.941987052764
-209.516640524908
-200.599831783391
-236.38167943889
-329.318828022608
-387.013903242437
-292.478462388393
-46.7345358127616
248.037048347661
494.830352318146
654.350328552868
745.808261544329
817.916400885571
896.423147990736
952.000727386685
935.063962577923
841.308912474147
724.142677117373
647.430855103956
651.849757414743
782.644904436778
1101.52461215814
1585.14454793793
2047.85101265499
2275.84984708327
2220.7280529876
1997.8108402301
1733.32393557354
1465.14082367028
1165.76185632463
814.370238154889
442.450298369533
122.256081833501
-87.7475671944395
-181.742091240036
-190.805698738735
-155.805382594125
-125.411492996822
-147.780114620506
-261.550249863439
-514.008147283992
-957.864974597915
-1578.92890354096
-2236.25564595935
-2738.98392232422
-2998.2342279471
-3070.32509204717
-3065.23098926184
-3028.384016457
-2887.18826307706
-2527.26495518237
-1942.69548646527
-1277.91980868494
-707.045705106902
-309.773018738564
-65.0129366668795
96.643113136924
254.725955604557
472.752736333789
777.350264047981
1133.55555103157
1437.23698655086
1579.92112399011
1537.91499288602
1381.12092312388
1215.72676328732
1124.11228802852
1118.7691359593
1152.38465178259
1191.25225681509
1232.69384917789
1236.22816062222
1128.16948568358
904.244877636669
647.275147144469
426.866782086446
234.276642932459
20.1349338078121
-233.439639946932
-495.190025372565
-718.054117184177
-851.060357282241
-846.79270251178
-717.037029246793
-555.441198405177
-437.84608635579
-309.488740458266
-48.4898833277713
343.418610007897
697.318926576561
853.889677589368
806.533917869365
640.31953412799
415.921663772547
164.463307009918
-75.0668558141467
-264.409591842114
-384.601813005952
-443.835243639715
-473.485422042587
-496.695589737119
-508.912233746226
-512.274941419812
-548.246953171353
-653.985808148553
-808.310421590314
-977.426134089126
-1177.58377089648
-1406.75242072918
-1559.60819035371
-1523.36671689133
-1309.96172946497
-1007.46311716131
-678.313040173085
-353.336998244608
-37.8935702129167
299.353271222464
672.453348866731
1019.09495031839
1252.78744555355
1340.90612141943
1297.5190234333
1157.08446122618
979.74285527007
841.055738917591
799.383225641844
867.286986936033
1001.69879006879
1131.87364255125
1196.16351755294
1144.68735337952
953.222180123623
663.917785520225
365.998048270853
131.975194151555
-1.98135501458994
-48.0312032226229
-81.2625880422195
-183.677984333534
-361.657822831859
-540.732776452624
-638.503790225024
-622.462297833154
-496.03276038864
-285.940313724495
-67.7972726765161
59.0078414764445
42.4394239617285
-107.993650621273
-364.454809385752
-709.94144538805
-1112.57213518348
-1466.10949095656
-1606.4818465559
-1456.83075737832
-1126.47373516321
-809.094726830669
-617.922072263993
-543.052694517122
-514.57943538918
-473.98919975679
-403.200221373761
-308.294586376762
-187.35468710726
-28.0409454884614
160.518615264877
335.627206169291
453.424004680064
512.079209512538
558.993885534715
660.557292612169
883.992828968781
1264.47463249159
1734.86348701549
2149.17421368714
2410.85015997665
2521.24109948777
2523.78730694467
2458.50508945724
2338.91419836984
2132.15419895308
1781.54755475169
1272.77198187553
666.528418928999
57.3756462344657
-481.379247011609
-904.71006111868
-1181.66267288832
-1313.66961752893
-1355.47529337071
-1378.92582102229
-1417.13991087861
-1466.57914333553
-1536.60721004763
-1669.12838806797
-1892.87786167836
-2173.22055501853
-2419.73158741092
-2522.4641906844
-2397.01370295248
-2046.28793522675
-1572.50845546781
-1105.27409784942
-727.8614135823
-465.360324727096
-311.340042018892
-245.574531825029
-235.081746154903
-240.996280611406
-234.540650801865
-199.201836930642
-117.135102756249
13.0574935979844
143.397259073215
222.002544002995
269.572496936755
352.911119206151
498.344397674496
674.421024845276
844.979938990948
1008.72983039551
1186.49989107888
1383.85422660279
1573.01223987029
1711.76859186754
1774.71102385684
1760.92326294797
1680.01996029341
1542.8863036661
1366.4621667642
1179.41881925217
1013.4613257735
881.711055767301
765.777579821315
635.147930977733
486.765642144058
346.921880619048
210.858652405803
7.83001508939372
-317.571979870707
-698.174375983145
-989.702332180214
-1135.50714132891
-1217.66082081309
-1331.13149922248
-1469.00694512096
-1543.72788469973
-1483.01945466358
-1297.8717345589
-1067.83069812313
-865.116858910396
-709.602325319983
-602.887154559989
-569.143108964431
-623.951931666398
-727.632957455198
-824.130073900317
-906.869123875971
-974.22083468553
-939.285572357492
-694.147678721428
-254.025238253479
272.484408963005
798.71109191833
1262.88846055859
1616.09620758827
1846.87751933181
1956.69864134351
1934.29579344531
1790.31903863283
1586.85535455871
1407.9691816262
1303.2111859914
1248.76719081118
1165.62871504273
1002.49330062567
786.819408619725
568.128745947805
340.768470835367
52.2283111772257
-323.200490165791
-733.495697583563
-1074.53024596979
-1259.46055440875
-1259.96844423526
-1096.98858780562
-813.841244213042
-460.920782220306
-82.337355871374
292.11463503941
627.1815838213
874.15686012322
1002.72598509489
1020.99834512975
963.611067545427
865.230783714693
735.777289169514
572.263476379846
383.271511013829
163.395014673586
-134.345218380587
-545.572316372133
-1023.24717285489
-1464.34114510107
-1794.87101951602
-1987.77393240267
-2036.91391331056
-1974.22058565712
-1870.35344438156
-1759.41695979192
-1602.44535928497
-1369.17262097509
-1102.58965188492
-865.841932045326
-680.418905020107
-533.880203225183
-405.758639467602
-281.4413852212
-154.904092641023
-20.7624385157451
137.754785892813
359.175966715333
675.853074004899
1051.08254232647
1378.11309997491
1559.65030920749
1559.54867333557
1390.51397198389
1106.33943638961
801.014210993065
560.088537780738
406.055445256611
309.087883234512
229.005999741949
140.044101476674
43.9552191504008
-34.2404745610851
-74.4889284815827
-88.3034924160769
-112.197877006012
-165.250183319583
-214.701434328798
-205.555762172594
-140.880195837873
-107.248652463321
-190.473771222553
-381.03486422737
-574.547217347001
-651.974682885627
-560.206923535055
-329.350830162619
-32.9493880116515
252.20704248814
468.44098540763
598.335283686607
665.959258391112
694.058678237576
662.871796089164
533.239194619041
303.818633537158
31.2374292552649
-193.285314878122
-283.671527578505
-202.787159891084
-0.316829359951708
198.065767634805
294.036121714652
314.664909544563
346.866807419986
397.42765968327
406.837996621244
377.265659764362
386.791961329977
473.867469732811
580.381679640325
624.837322155466
590.149184009505
519.992210741794
444.421258401431
330.105973979101
116.40138474285
-203.788698742387
-562.616071522575
-879.635969458221
-1112.47711158881
-1252.18997107441
-1314.89237704276
-1325.70056904955
-1284.83346072715
-1183.9441136903
-1051.19684697254
-927.311304826004
-825.431375789365
-761.904248599858
-768.688506334217
-822.481587282362
-816.290727454963
-646.776169696672
-295.724083302458
183.798406935013
713.191272285298
1217.35052826632
1648.61236843461
1980.6084703708
2175.06567875969
2184.4153561306
1991.93172490342
1638.89639254797
1220.16929275429
845.238228902237
574.358087777059
389.3477119894
241.093231516443
102.655513549474
-43.8749426984346
-236.713471168849
-522.631104291722
-922.057144838295
-1398.30013099726
-1846.4690789424
-2115.75465105667
-2067.15609087765
-1658.16277062305
-1000.48739652373
-307.334994318009
246.670038903259
616.33106245165
855.831046208003
1030.5522713943
1163.77360171686
1243.4899887808
1254.21448548757
1203.11825777914
1124.7676553124
1047.98831818249
952.149883795598
776.290680765908
482.830462310075
104.219416689198
-281.484762033104
-620.289398691188
-920.849064261755
-1224.36628992092
-1531.94549418112
-1760.4001555007
-1807.75497440483
-1669.71242292205
-1442.06473767266
-1209.97729356624
-976.981473840224
-706.247649921382
-403.388562794551
-130.62076081963
59.8560462639688
170.516870489262
227.762793493602
256.685911700734
291.06552576924
353.264978910557
428.451536129083
487.218263934953
521.588397770834
558.575257357926
640.50154171213
769.604671357091
881.144400053725
902.851364961209
827.346419404477
705.937271471704
590.415818986864
487.648812111962
364.846978587143
210.370927409887
59.8736261577616
-73.7151020155655
-241.736170466452
-485.149451858185
-758.505829605662
-960.193867680673
-1031.07144308205
-1007.92703839865
-967.530337506185
-923.249225727196
-788.721572586063
-466.522984719043
16.9564616174603
507.92686769684
871.01783526984
1092.63905933198
1234.96937560292
1338.4494424365
1396.61949832624
1397.43086727358
1348.91969409799
1268.95313295856
1172.16152592458
1061.26557601039
922.797544578315
736.234862752555
487.370726324528
173.366990970095
-198.130044528083
-608.355470169586
-1018.17436577138
-1353.4502840225
-1523.45410824977
-1495.4018238113
-1349.08582878036
-1221.38361081867
-1183.85041526664
-1195.57787019779
-1178.35569448565
-1095.05662615395
-949.085969683275
-756.670937750373
-529.858931508839
-272.239240450639
4.96390319023132
275.820338842421
517.824372795161
721.805743315816
880.326390805515
972.668508883464
968.501677423058
854.085409291005
647.143791261691
385.173134914692
119.31984756872
-92.9047174940599
-233.476853600277
-358.363435278309
-543.023469402878
-788.450446574327
-998.349374842662
-1056.22719918895
-934.123513186417
-714.669193929312
-503.296786820953
-340.103589324166
-183.884826252503
28.4923149294786
298.893897948936
562.050092497089
751.554018969978
838.437356691459
826.443016843488
746.96933047353
652.555992545831
584.163292163864
534.926279959508
462.469433385281
334.828211031836
153.501966137411
-53.4612383320131
-249.534767027449
-396.95652288681
-453.337578643692
-398.295134346804
-257.598733238139
-70.9071888352986
132.230566330325
323.550715137091
489.542375836452
634.454720641128
750.981398037544
825.562502367014
872.641014913543
928.619290684913
1011.53188894629
1099.75167672243
1142.94010254473
1083.69954794806
885.781048461349
566.752307457109
202.533321371688
-112.387369748089
-324.782698160493
-450.833559758677
-538.286900591949
-611.615739605829
-667.286473174367
-706.599701427208
-748.419758928908
-806.736376694397
-874.347257219488
-937.796388977122
-994.011483905614
-1035.19092109798
-1030.77357726693
-951.231494192413
-800.542085643819
-611.367876161904
-422.965657274182
-265.034239287598
-144.685312141668
-46.89116957473
44.4571958421612
134.779828626928
231.892315689734
341.440467208893
436.218491457628
466.403855626101
411.450046436271
290.766674431833
133.196094887241
-31.1834624742697
-168.648949022167
-263.785416109752
-332.541843658304
-398.036381306708
-462.653273815807
-506.883312342501
-509.72586483007
-468.940981370762
-402.865931153931
-334.106348944309
-269.005452662253
-192.459841529523
-82.3598425822169
66.9752339580814
224.670999646523
335.938750881413
372.717189012295
359.678077762781
336.134680528785
316.390625253903
303.243569657638
304.170234888888
306.292974852752
266.36493422659
157.747593765833
9.05190803599427
-118.689254531049
-170.34631682121
-112.149393740934
57.6859091035218
303.534780171599
568.960425015882
802.334385540009
971.775344354352
1063.22201252471
1068.11368981519
987.168285666587
853.061462380669
724.200241882991
631.937520892806
548.351649664455
426.805725156732
253.079522629827
39.5727295064589
-195.162116089797
-421.5384567868
-600.329043245472
-703.676553162283
-726.816559469021
-673.154105684401
-547.788588019943
-386.191377687898
-261.795629293613
-232.883925039122
-287.838411650844
-359.601054344828
-395.588782676879
-398.734262762606
-395.887381349569
-390.674561130903
-367.386011142292
-321.31624579786
-261.472352701304
-196.804663207957
-137.274276733815
-93.01016205688
-54.7298052356367
-1.2363082044278
57.4134817478873
87.5242470257583
89.3185158563207
99.3245080403076
142.017835076572
209.33109171026
271.378823344029
295.878912808639
267.944635942227
195.725580336183
105.912779370529
32.4952563739988
-11.0633851524898
-40.6874088019571
-65.7445181917374
-74.7739731794827
-68.612020511826
-66.8988004205275
-76.4979219800855
-82.7594272653275
-71.1226144945311
-48.7791304999497
-46.5219342709587
-83.4248774188667
-128.531897043376
-126.634101191814
-64.4943378022196
11.5456240567955
48.1567933604306
37.794024246535
11.1715584922013
0.0109234282124541
18.9497042132301
59.8000164452593
98.4528155381844
131.136075638524
185.522444685167
264.922737254614
322.603315281099
321.018841744392
270.730060433578
199.770741050419
116.71960808336
0.849603612315712
-172.76551309855
-386.799224067853
-575.238339053791
-673.828704166319
-668.002588923349
-590.605300516227
-487.057134248159
-391.560237262369
-321.294190375744
-276.002484256516
-242.491194868193
-203.190347984043
-145.159412165392
-64.1763561031548
36.4684840221089
148.722835024462
264.662823956673
377.117832098964
477.680737748848
563.392164599303
640.278644198122
710.70563979851
765.554973648958
797.326523103548
809.113105358547
802.644119646
765.563138469938
675.176527555789
519.352905558816
318.020086815192
111.74159310424
-79.1852532432206
-268.072291232965
-455.830288474465
-580.14467564628
-558.439457327299
-402.709382396415
-233.06686656394
-150.743609221607
-150.122488222771
-167.695705524641
-171.345056281423
-175.938700747915
-192.219091335151
-207.473403815278
-223.051206855241
-261.99820239191
-324.428406427298
-370.183261148372
-357.679962644379
-283.567432389719
-179.337958496072
-80.8645131401079
-12.4486944870284
7.66147709107735
-26.8163403827959
-91.6744915773684
-144.875275337536
-166.179698958221
-168.881630961254
-176.268392569711
-195.795062421822
-210.018581447684
-195.181380432603
-148.071440501655
-80.8500516844733
2.47277766524988
104.647787372883
214.063477568249
302.69804270616
353.644272154409
380.134511908906
405.70909100471
432.189000007091
438.237229502862
404.645306233316
325.808231719706
206.547002063603
68.5145300677024
-52.8929240383877
-129.511346046229
-152.998207105047
-140.895716607226
-137.066148225053
-175.650094834768
-233.669405788606
-252.132562543393
-207.434553379527
-127.441926628733
-39.7444134698096
58.9495645689285
173.472818151286
282.193708323342
358.623017487586
395.387521405125
392.294582891258
350.149296527636
283.981451178343
220.966696129884
182.947376550014
170.483539996335
158.579956567069
118.391970619032
48.3241936496443
-31.4262251332134
-119.938268384931
-237.682565434565
-371.752121168394
-469.4191666692
-508.951555335699
-525.481951360274
-544.324171174068
-538.340897677974
-482.3199639187
-399.623441059626
-326.212264613446
-276.403882421855
-248.744835726874
-227.764653676559
-191.710127722831
-134.30060405454
-65.2557355754882
10.3252590862484
97.6698230963158
194.471724060344
280.716185526436
334.644495179218
353.315136725611
351.63453962536
343.465564091737
331.832383966547
314.088761247167
286.848653918325
252.222700235073
217.199415799951
180.755072151001
137.772256649053
91.562706563939
45.1545106722723
-3.77659332709493
-50.1760483041138
-79.6252691749627
-80.8218372402917
-55.1060057201807
-18.1457312334282
8.05980161037927
11.3982541626991
-0.159286296669299
-10.1624391898512
-18.2702896544296
-41.2227556171597
-78.8242730331101
-94.4771950937911
-48.4608270645411
60.8233603138168
197.95390005993
313.983094204079
369.505637420064
357.439113484336
306.355838363941
254.747539418264
215.011069389226
158.786009556085
53.2798170414506
-82.9897849512558
-188.50524517267
-228.757135299584
-222.281445539782
-199.052925339463
-179.596851151679
-188.372002950315
-237.944212429846
-298.611317746236
-319.09897746673
-283.93892405272
-230.505511561184
-205.148883940678
-217.797807350026
-240.478177553722
-234.110716130222
-179.824377797371
-97.3855707115081
-28.8356568614179
-1.0744127354946
-8.03017595563837
-23.9659263729575
-25.9372646631298
-4.62135350960774
35.8390576018787
80.7451889603722
112.25876893375
122.195239271385
117.549787641737
110.491795165497
108.069496858897
115.865662138384
143.639085462742
202.636861344333
298.51777183296
420.972337717692
540.89566136931
625.078933268468
651.872061855512
617.401400849477
538.485155674511
446.334027288475
368.71668862631
313.41946703581
265.493901508385
202.479141390138
110.515551902125
-17.0969291905627
-182.649616277327
-372.733479695347
-553.65548636646
-685.162447954967
-737.221175955651
-706.426875395484
-625.451243510277
-539.506743755915
-467.002433195996
-399.159249998314
-334.553507584068
-290.725168280453
-277.88193202841
-283.569072660883
-292.674334603444
-302.620044993234
-314.008285039603
-323.105255864829
-323.981611876703
-310.734096398924
-281.354423873015
-242.138634430358
-203.861369599443
-174.369129574794
-158.002295579553
-152.585401706956
-145.672824312951
-127.000509212047
-99.3025894097404
-67.6618421655204
-28.0580270408329
25.8469211364943
88.3120385677686
141.176338746398
169.0996070624
170.543238299612
155.423985748755
136.363825279475
121.053662376732
109.85212756293
99.0712825050996
84.8596542200982
62.6850263011582
29.559191875138
-7.44872197679768
-33.9926808154106
-42.0701603377047
-29.7290816476385
6.98108511312084
68.9476602133245
145.397974599127
220.919945107782
293.075531577579
373.491920932099
469.72348102457
578.071839078573
689.877816690779
791.227191180324
864.920188047526
904.021879971883
911.518406562504
879.600655093343
793.131892937955
663.474916995903
529.771719275767
419.267299158337
323.568152776287
205.779621909122
30.144347365763
-195.511194444825
-414.933442924272
-570.769756596387
-636.255924458502
-609.835224871698
-517.478619259916
-409.792133815295
-327.345722153529
-277.440773285886
-248.258809964166
-231.21066658214
-225.990651659436
-226.1264907219
-213.171465191156
-177.666532749251
-137.113266979282
-126.081027483992
-164.608194584219
-235.829654765645
-302.882564544333
-340.013809977664
-342.884653673892
-322.537988753786
-290.512643219926
-249.793307553717
-200.923555738378
-143.64557240837
-75.5447549721055
-1.59397987373247
62.4983310770011
104.757342685948
127.790509573168
136.786153247884
127.465930958343
103.679055510437
92.918360929758
122.519351493758
187.554794767717
247.691519122322
256.862414062543
206.541605161244
137.670702945554
104.741874896343
129.954909790302
188.383169487772
233.928129687027
235.383113242477
185.186221232066
91.4427446087332
-24.1932691977521
-134.768928022465
-220.339493713858
-265.978201695161
-261.362619305603
-209.437017887254
-124.167885899265
-26.2457475839423
55.475085719908
96.3899968039508
94.8372295654525
75.1933355883399
69.7613766728952
86.3863992032076
98.917835382854
82.4051872672563
43.8962058136999
2.40641680583707
-43.0603657553598
-103.712896073497
-172.61717395346
-225.451236624175
-245.564535717648
-235.326809011851
-204.796065312335
-165.478885205292
-132.609650006949
-113.206308654052
-96.3020244894014
-71.0208052445049
-41.9247699243255
-15.9608837225059
10.0551584685043
41.7219779156257
73.2781263498508
85.5160919856898
62.218528183164
9.85291905272669
-42.8560616620283
-66.9054608769151
-55.5913407186257
-26.1792924042969
2.14974604394261
28.209922930327
58.5085332569035
87.9518484809594
106.720521819304
112.732461177834
107.755872544709
97.6783529987939
93.3869205206384
96.561849577817
95.9836445716129
85.4829194897737
74.2696940530178
75.6276942935796
89.5092801493936
98.5551261483776
83.3409585174434
43.7099190575251
1.94666725431486
-16.4504814527039
-1.77145811599757
33.7384906470829
65.754222988411
81.2160774684107
90.0449079721106
110.0554506321
140.400445841707
153.711919492326
129.783743123784
91.4532251114777
74.077969907453
66.2249677375216
26.6347552104316
-42.5510783337163
-89.1169419845148
-81.7739977218108
-47.4006630275718
-30.2196917923391
-43.9778689446401
-74.7572968581823
-104.126624009479
-114.125902200147
-93.1817451190031
-51.6592104392969
-18.2903192091754
-15.4884368793323
-39.2145714215757
-62.2846022784647
-62.9169622498438
-50.478573703377
-56.3818543813792
-100.024188882292
-168.078619410406
-226.98800360126
-252.168971615038
-243.558408392873
-218.007613093509
-192.227751701848
-172.220845079365
-156.210236895134
-144.731660516306
-142.790193454168
-150.137668064677
-157.937148148846
-160.000784629588
-156.841143632466
-147.442108292609
-127.960133935598
-96.5865484742879
-55.4115184789512
-10.9184814207199
28.0491186567422
54.6446984818935
66.7115976395092
67.4511746495557
66.1816738397143
77.4326845087308
112.051578073039
167.909506739408
234.450824099855
303.310843857507
371.462049453695
435.960442360749
487.03782430732
509.309204569848
488.669517296021
419.009946837932
309.801768021238
191.333251522897
110.898574815599
106.645920121321
171.64313040985
258.659375474905
326.216807607706
363.057015487383
370.505139079531
346.134718952111
287.463376679908
193.228898261632
66.2952967476259
-74.1519956102256
-200.406846178731
-302.690309623624
-397.300263666234
-507.121175073133
-630.11727659633
-730.87836932594
-771.223347702064
-737.17668846295
-638.145267585358
-500.939556503317
-364.04364722099
-263.919643165342
-218.420803277118
-218.713101488085
-239.199523747705
-258.633516665787
-270.207755287847
-272.242093220357
-260.51857096947
-234.777388697735
-201.242163115251
-167.537568544656
-138.606983464662
-109.036178887579
-62.8044785581575
9.89580140638059
101.949032812102
198.59710288829
291.305269769485
382.245348142369
475.743698196583
566.860391630992
644.002400892108
702.326754225738
752.132429948997
811.150872844584
881.216380031069
934.534603771738
929.744973947912
835.54033699502
643.761587366977
385.162732481196
126.967630728517
-76.1252596676389
-226.401801237422
-363.623196420269
-503.460786983975
-605.992031212532
-622.455789882873
-562.12390504309
-480.690004010902
-416.697761586174
-369.487193610842
-326.873629161945
-286.780812300225
-247.6054889428
-198.545658977009
-133.359481517914
-61.9650992668515
0.811972779748084
50.4590952962652
89.7103546320569
119.015604174187
139.776255468254
157.058956527964
171.636716023973
175.376276538318
153.242800343108
90.176919816179
-13.8262273103496
-136.896497401412
-252.147731629893
-343.842487619892
-400.486624221742
-407.511022182868
-361.611550817904
-284.291909737866
-206.302550533739
-141.970883480142
-88.4459214224459
-43.5368945079026
-11.2572687887197
7.69795718349267
18.3816805085787
27.345224364372
42.2497145579299
67.1233276890045
97.1312252051332
124.232702269005
143.857888589015
155.400907103623
160.623911696285
160.153079423341
151.447535162556
132.978419110456
108.371372187666
84.5056980931261
69.4496944622753
69.6385119545015
81.7997131605578
91.3526889894628
81.7989714599292
48.580355850908
9.75925181825951
-9.29968574840627
-5.3065099396207
7.05062902882118
18.1718190542969
24.7592691496674
23.0517421566665
10.7394194456507
-10.6329565021662
-36.1772309103527
-60.9062321652387
-82.2981413709302
-98.6765069596783
-106.591920135878
-101.728126984525
-82.8866719953076
-54.2001744644793
-24.3620934547917
-1.34158424408908
13.0838453158275
19.8323403108721
20.6310681806764
21.9697401678333
29.9066198412723
43.1878723853721
56.8291918093944
66.9909788402804
73.1352498526043
77.021371661453
77.8711249722301
72.941590085642
62.4836567952678
49.2960338130685
35.9432837671263
25.1254524738908
19.3912603911385
19.7195805392965
26.1796197337141
36.7386109878817
46.1181055035161
49.80207938335
46.5329168135738
37.9211461860316
29.521980033172
26.5540114455892
24.9845508268244
13.7948401534025
-11.073553620701
-40.0113021075919
-60.756118152662
-72.9458535514906
-85.4674234198889
-103.051596281161
-121.877983838753
-134.309622811576
-133.505592816123
-115.60813326693
-83.5795996106129
-47.932596419862
-17.9512407977301
2.61525605142812
13.7109401320261
20.6293539101234
29.1290853057185
38.7427269429138
47.7462589628872
57.177429643009
66.3919134164287
71.1524938811515
68.0714143848033
58.5974342711207
46.9094360417528
34.9504833636279
21.8337714149725
7.50383926842635
-5.72917497728278
-15.2474574609854
-19.2946392013034
-18.6838728220508
-17.7401758352416
-18.4416736148714
-19.1479000954326
-20.4715135121485
-21.7417293913339
-18.2651167675796
-10.3083226107165
-4.46337225376379
-5.75148467901337
-15.2405609473962
-31.4136370704601
-50.6106811419655
-66.8283638906921
-73.8573868256178
-69.9815788578043
-58.7638060712963
-44.9484366443859
-31.7566694230053
-22.3014631274888
-18.2437946153978
-16.8117387829504
-15.3095119607637
-12.4757879508683
-4.72020373345868
8.4931311404494
21.9308295067598
31.7619840758007
37.717772806909
41.3611866438074
45.0052258780913
48.03453660008
47.0224809359249
40.8427396132819
32.055611861646
24.3879589972974
19.2930447998795
13.5924243906726
4.00931497558418
-6.14244428937723
-12.9682308029876
-19.5233004244579
-26.4569326515872
-28.192578264713
-24.6222291563997
-21.4361496384589
-20.782193288401
-20.1908798053662
-16.4390004382625
-8.13809912747919
4.06376629228352
17.8729593785666
30.3627531734967
41.7834507189015
55.3704450566163
71.458701077256
86.6002213843051
97.3778528906622
99.675217010357
88.8524933822338
68.087243859041
46.431339450496
23.9846182394632
-1.12756409035291
-15.7413035111545
-7.34340132843357
12.2011702588356
16.4953464273877
-5.58821401150129
-35.4742510965432
-45.3158115181673
-31.0314851949347
-12.6117265633573
-6.29637526590229
-12.0685304855792
-22.666438726658
-29.9318449151194
-26.3361509614553
-9.992134149586
12.4201984416997
26.8377792613482
20.0202112788049
-5.67881871160327
-32.3598955715828
-42.1926557492363
-29.0563533332211
-4.21593910921875
11.1025440891553
6.42913053603748
-9.77171292617894
-22.4188279295639
-25.1357546501515
-23.5585267413377
-26.9164732874922
-41.0299988877435
-66.794018767471
-98.3195048104356
-124.838167471141
-138.060721522194
-135.731054993783
-119.872014253484
-95.2627558294831
-69.3006051491785
-48.0774980963156
-31.8637145232093
-18.9685860095705
-7.60272028673671
7.28041875478825
28.5466741262219
51.8008443907747
71.4416791059252
85.2840331573935
91.5778476940375
88.1545876963239
76.0654337271559
60.9820768758878
51.4413366572501
53.3416180016811
64.0752828337142
76.0155414301513
82.9730182863092
80.8578690771285
69.1185032562517
53.1775571481219
42.7983891272449
47.1011886768174
65.7128405129834
84.2317477678113
85.7699346530958
64.718621912393
26.0265223778125
-20.9371316572723
-65.3415102681074
-96.3133375817948
-106.023431974438
-95.1834254144395
-73.4035162708024
-51.5919566122884
-34.4786034591928
-21.0633652862914
-9.18072782816317
1.2804414281882
4.44190127819544
-6.33127751675494
-25.9067122769786
-41.1963229390753
-43.4938334047598
-30.7901738446729
-7.72338715569185
16.6692854626863
35.4640803687495
45.8370914993829
48.4984094163426
45.9958442491489
39.7451107574761
31.3702535920324
23.7039791521928
17.2387786442092
10.2992419522643
4.70834446372508
4.12025489741156
5.65369954159864
1.52355637717033
-12.0116492316963
-30.5830052754963
-43.5035270232607
-42.3546441247763
-30.5210952715992
-20.3706045005402
-20.3722045732914
-28.3960028372124
-38.5922014744847
-49.0532816684555
-57.8661137335702
-60.3906465320668
-56.0646640757345
-49.3961316057958
-42.9142161558285
-36.6429447336861
-34.5834775734917
-42.3923088225223
-57.0439138107179
-68.314792360882
-68.2313181688492
-53.6995684986801
-26.3454939471715
8.93663894048812
48.0861971510987
88.0799154088733
124.234029006428
152.924635001321
175.740385562336
195.645430765522
211.161726512144
217.205733925816
209.350320541922
186.211298387878
149.064776596172
102.283637947921
54.6169495434195
14.4321671478023
-16.2636212868465
-38.7062783639466
-55.0577471924278
-71.7679832354102
-94.1811892645225
-119.415061196796
-142.058427204339
-158.507306536887
-164.200622848159
-157.491349720462
-143.683683241527
-129.185539637832
-117.881855182239
-113.117883390135
-114.698104948119
-115.402244900743
-105.710284582355
-82.4673346076333
-53.0995555627666
-29.280773572924
-18.5582608581706
-25.1248301268307
-47.0714054375531
-69.7264225323197
-76.3749488823666
-65.7870426948502
-50.7923690265202
-41.6957535718305
-35.3499462350021
-22.6138751234133
-3.20326103780747
14.2941518787793
25.5770024048726
36.5277535791785
56.8122909414185
90.5987448624035
130.773350861979
163.433660482766
181.398544425315
188.959462557841
192.584724530605
194.033255983988
193.187371980906
191.872377510733
193.392423425454
200.853415911308
215.130105687113
230.431236691339
235.25126554561
224.02480321609
201.003493275009
167.887482650539
120.332184392495
61.9006503268548
9.42177449032068
-27.3448087213287
-69.4394092992277
-151.767179976203
-272.160444562477
-374.125212857792
-397.523742222748
-342.353058726513
-262.81158668679
-204.340115223653
-172.76421301381
-151.740326982228
-124.014187539678
-85.0640951131219
-45.3278379177884
-15.2330027752165
5.22546823608759
18.8749357666276
23.489535609577
16.7583018678595
1.92601858271328
-16.251328130484
-35.3588605685415
-50.9160251166897
-54.1130116905435
-43.2509232117807
-31.0788941147537
-29.022671249352
-33.9587471337859
-35.9643954268313
-27.0554121418968
-6.93511663110633
13.5456552712029
23.7310939552253
24.4332463708881
22.5565951031021
23.3291730534787
29.6375197819201
41.7680977647285
56.1798681418422
67.6320723853804
73.4403577379276
75.572934323554
79.9526970095843
93.0367422684345
115.760253513992
139.620849848101
151.799582384952
146.67602219908
128.401315353652
101.811331528073
67.5327115341524
24.6270426575345
-25.6698996529424
-77.7077425159917
-125.164814476454
-166.431329484993
-201.798156490424
-225.864733110719
-226.66381104298
-195.24857564457
-137.371832468045
-75.7681450618733
-35.4027670361754
-22.6549643647713
-26.2188676947204
-34.4269055999683
-40.615903227269
-42.7281849952107
-45.4123689123098
-52.6872472741504
-60.2851776433155
-60.6494392873615
-49.483836322076
-25.183703340996
11.787341510128
57.2607591968856
105.607894258521
152.737835939796
195.492957116118
231.952122719617
261.887913486782
285.607002305441
302.35652922166
307.595400303371
296.520933766584
273.047763952009
248.478436761937
229.24263874437
204.781618941131
151.413550938085
61.8347200988948
-35.2908643165341
-103.615945454459
-140.417995928785
-172.773317381293
-217.014542906663
-255.513150477803
-255.859732598428
-209.344350847522
-143.482442865101
-93.1356858300546
-70.1686954699315
-65.791265624041
-69.418908711247
-78.822871955773
-96.2412462492918
-118.013533660877
-134.556140992024
-141.3436470108
-140.659242471421
-135.212254318651
-127.838467770362
-121.28889011149
-113.875190925696
-100.133720893162
-78.2545897067689
-54.0438059481519
-34.0697748085964
-17.7576938097951
0.302740477217171
23.8625852537422
54.6282741072576
93.8351605964343
136.741474270961
173.040016058126
198.577794900688
213.657306221933
213.515186143464
194.38314736664
161.577203654491
126.800260663707
98.8159630502427
75.4382129789787
47.7979210178442
7.08636782933528
-52.9137471189571
-122.312639644907
-166.318966059093
-152.907138163266
-91.4591486712597
-30.8312465226727
-17.0895724069828
-53.9216018339916
-105.141067928308
-138.642318727504
-155.644310598793
-168.225543459167
-174.084200786022
-166.502260687143
-143.169552896938
-102.115348118659
-48.9546593351339
-2.21489838651115
22.2541507275849
27.8242041934326
31.5198542890127
45.8525243225468
71.6588760804622
106.813359984534
154.033745519625
215.103430425055
284.541366078049
355.117666974148
420.304146280063
466.961775766773
474.278376255918
427.99572327836
339.072574235286
235.393489939627
126.635887918645
0.474521907121909
-139.667434257636
-258.822434202659
-318.050866730494
-308.53198800278
-261.117826930939
-223.111146734425
-221.683607269757
-246.825328039927
-265.419292019728
-251.501662567135
-207.207068206023
-154.454437220647
-107.581358675144
-65.2486783941214
-24.5142175677275
15.3451186614306
55.2068862616299
91.9172551209652
118.838805002972
130.280820798674
125.39162341973
110.845267447731
96.7706357373187
88.818763237258
84.328926127149
76.7717496305993
64.2930897608758
49.8264913602989
29.4269690670961
-12.4028087553072
-82.4191938410433
-158.716629779398
-209.037904201738
-222.052751836914
-207.783218656979
-179.882161414236
-144.877126381547
-103.819778974498
-64.2978434900571
-41.0812751159275
-37.4928672649305
-40.2771669016619
-38.7053098465978
-34.0355864034837
-27.7940162992399
-14.3091927055182
11.9647778415696
46.7397512092569
74.1148593139854
76.4751706799078
50.6939770514849
14.3988813352384
-8.13979046766366
-9.42777011001187
-2.95882113837793
-1.24724527068846
-4.11159106205647
-8.89183532047785
-12.3002391985197
-7.90664925898289
6.14023506377387
25.4753022529214
45.0478121748453
60.264060419861
66.6748471767543
63.2099727475627
55.0485289998923
48.2381155060474
43.4872225219212
38.8834803432017
33.5215382357432
27.5967102772464
20.2174883505039
6.12442867399199
-19.4807400598869
-49.3553532275341
-62.0072016425868
-39.8804357214202
5.53946602578029
40.6756845707493
47.4916472992716
37.9050556382869
34.3887512318943
53.7407331172983
103.955711679795
182.372062466032
275.041048142026
361.951882818607
425.732196427535
454.490455624942
435.705160517205
360.157728164444
242.809399733528
121.127823055907
20.0897498855694
-63.8184989515495
-148.141566586694
-247.740060422179
-355.050128848028
-434.902023834293
-454.873296850576
-413.459519995993
-336.352884291227
-258.616075832609
-205.378189677913
-178.358564900865
-164.421920796038
-158.06094536701
-168.753551986068
-206.478182485907
-264.961036881396
-320.108883676251
-343.830744078133
-321.822912497522
-264.407894465447
-201.41028098041
-158.386992877211
-135.069916477019
-111.695940841375
-70.9843709113509
-7.70067216678828
73.4752100853353
162.347365173694
248.890376070568
324.669279783501
382.760398924915
423.474882618046
452.88732118663
469.94605777516
468.533216416335
453.714936230019
440.610860781979
438.520420866743
441.077616614618
431.706244167311
402.008679630898
356.81246772023
300.058875404199
228.227457121006
134.503670462528
17.0806837116502
-113.064831175173
-239.539512199625
-350.669853975537
-432.925133687292
-467.38583478613
-449.105664197818
-402.954985948648
-361.458027959373
-330.40617586711
-293.767227942062
-247.27334299598
-209.534715832384
-198.243169613716
-208.044947187325
-219.019685237907
-215.832230461197
-192.913527656888
-155.178133874571
-118.337226439108
-99.6676053870674
-105.914109158062
-127.471671301195
-144.103646535347
-142.237248983218
-121.901279486112
-87.2372171015722
-45.5786401084457
-12.941381616407
-3.20598745600173
-13.7192466586968
-29.9763861096445
-35.9323670435643
-16.8106612314591
36.3409786451721
121.888440492497
226.500514467347
325.371297541888
393.129883232607
422.129111787756
427.207429857557
433.278980261976
454.69536764363
479.957709443453
481.94082805461
448.266898511557
392.122528053252
327.238630878071
248.21847051065
147.389018294149
37.3156031074727
-52.7301720977163
-95.7546673446271
-84.4256089897741
-39.1107239049836
4.18679419461746
23.5858998035074
26.4914942778015
32.741173723373
51.5510910629645
70.4457396353762
60.5166289008789
5.10192442330638
-77.9931118452437
-154.958734950187
-207.968034858533
-238.893369203971
-250.747298601008
-239.197948161357
-203.237709099246
-157.997532868813
-132.190686801288
-145.479748823003
-189.933090075747
-237.426853020307
-259.182685545927
-248.748072372187
-232.370446198487
-236.794336776552
-249.598060448674
-236.449963043409
-193.75042427257
-156.251681900049
-149.90572242799
-164.531927714497
-176.076635516935
-170.760344999375
-148.393043408974
-120.63198962613
-99.7618122208206
-79.650191623514
-41.0390565589331
20.7664361076819
93.7681733568974
173.847302735728
267.604227909862
372.10432701903
466.001215150253
521.88008218246
528.110640913567
498.18762508685
458.738254487974
431.061960845209
417.836021105742
398.726588995466
339.609397946977
211.929442628764
9.99803052749391
-238.049442234286
-469.504778731898
-614.919931932328
-643.020907889337
-573.363835848607
-449.949940543524
-312.333925888869
-184.643009216358
-78.3112632075653
7.21604715095591
81.8530533789072
148.869140864995
198.366265764056
222.089905090482
223.875279705099
215.060563530091
202.673067475312
178.465849546222
127.222651314798
56.8343550422639
9.84002834079788
26.1944859662594
96.7875309235154
166.362967157118
183.498693032668
145.628059800901
92.9952587904432
63.1544420027526
57.8809727289209
38.8669448705725
-39.751321171324
-167.439503586104
-271.327926807611
-294.408898963753
-242.878041976335
-154.033680414918
-53.3025730531659
47.4222731387563
127.481589371558
158.946265824208
133.792629906521
73.6363149097684
2.96852397132531
-74.8938264924496
-158.822739340922
-231.717561988065
-284.618810596492
-323.423394375389
-338.561677168728
-310.368261944398
-245.502718224526
-175.023123894845
-121.307791030298
-82.6540940428802
-43.0883485177621
11.6493243535671
77.9919569002905
128.276381052601
139.523937542163
132.254046189631
156.21881640799
232.269602637868
325.365410841235
377.657874514746
354.400869723125
258.253843058087
121.161558763243
-2.93730964680624
-55.5771541440635
-15.5726450071683
78.7962982451786
166.51059164398
214.487630270954
225.204260379306
204.690779446012
137.40247822323
3.91522625419928
-181.974951075601
-369.855262731991
-511.139148740338
-587.989475938197
-600.175397811968
-550.928138984391
-458.592325073747
-357.54000085178
-277.684245777566
-228.962517849074
-200.785133850653
-176.424073788599
-147.967098562874
-115.114157013805
-80.3923238889999
-47.2892494485614
-16.2316138519265
8.79201397197343
11.738413772098
-21.3668271566077
-84.5050389269234
-156.105065391886
-211.071846529437
-229.092400937517
-205.04778314731
-146.610437005223
-59.3737249191919
55.3137627292219
194.121236412958
341.98779778764
461.109799262807
516.632779139867
523.486159232811
534.888217819407
586.018005291743
671.319367886301
754.945360293056
787.095095735037
733.194313167094
600.978630056905
434.9343951088
278.507529595161
142.128175810055
22.3626155994414
-59.5379996049902
-78.6933468616185
-52.3714837452806
-23.0262176660205
-14.6823195993247
-31.7243273082091
-77.0200378265295
-150.692631126087
-233.277605291222
-281.387178100229
-261.352576032851
-184.176021165015
-85.2602063004182
12.9230344011264
94.3116774770223
131.946386037915
106.18253381255
29.975956738545
-61.1614408604583
-140.250889053816
-201.019620419097
-246.975171605088
-278.09514791795
-284.888502115845
-255.096229266165
-196.217857935527
-148.260873121256
-151.577335091579
-199.476894106304
-245.855591422781
-257.104744651738
-233.34607731071
-189.543162794364
-141.380525260012
-104.348574104549
-89.8464701778359
-99.9723154976072
-129.277756267008
-168.04163978069
-200.440624839463
-204.804713723506
-165.415652855963
-91.071766297459
-15.99499664591
29.6590649331792
48.0085886148433
62.6931440547613
82.8344191143356
94.484420820618
91.1498869205687
89.4692669026799
104.056469916971
123.615024871659
124.071246867252
100.874277439039
76.22399114552
70.4436570920532
77.697370600546
76.0471643032772
52.292283341521
14.3072091688939
-12.8823914571667
-6.11892220845333
31.7377078690242
71.9382472024402
89.1742829916512
84.4099546457481
80.8346032540348
102.918365134573
155.3975433888
220.07491741053
270.004082673271
286.990844952663
273.29469178247
244.51128320601
205.553136247268
141.449141540331
40.4959848273786
-83.5732350213038
-205.474692110975
-309.679364748131
-383.785790368649
-412.125226924215
-394.100310127715
-354.460792315637
-322.583930569981
-313.182126871576
-329.421730816214
-358.237457050448
-360.285500419223
-298.14755874632
-180.325754676287
-57.7657464971186
24.3126449954385
62.70245019862
86.2837918512496
120.408066035188
169.43709526206
228.953853876834
298.167164102254
376.615392521196
461.746943701055
547.523900126979
616.63018359416
646.356099390359
627.012825510327
565.42446013526
482.85018523448
410.928863400991
366.506199257123
335.411012801568
288.097347620811
198.998735830427
64.1945920256132
-87.3180108237599
-220.488377612947
-327.27219925768
-411.637611955189
-469.116107981594
-496.842199617776
-495.806410447485
-463.884762271391
-401.616102849328
-319.357030125135
-239.77651313199
-190.990757962661
-182.173684568711
-191.815264595213
-191.906654696078
-172.76390444107
-141.883174502955
-107.991685179026
-66.1873965343442
-2.56884069123323
83.927317334425
172.782444646692
238.71846782587
268.191026396677
255.05618008437
200.659946276686
133.290000372433
103.621073221391
136.201145401484
199.496213079647
240.057539478307
224.412392338508
140.589956924469
2.8843716405316
-135.226922702647
-218.117091930848
-243.902599666799
-256.498000967902
-288.209974276209
-328.994086795379
-346.972966147273
-320.705234532515
-247.316015608161
-137.149717873873
-13.3284510997539
92.5655965411618
154.559181716047
166.000357532082
147.667007783589
140.491955720356
170.000037813786
216.161072983406
239.025712622474
227.621155409542
200.774130005004
166.557852218788
106.334699751258
7.71715187599989
-102.605631795047
-172.661640441039
-171.076575843919
-114.989496316471
-45.5263135823418
17.113831512259
76.2832172773821
127.110517127833
148.464141588819
125.73439448236
64.8338786223017
-10.7293933785077
-67.5461576266569
-85.8693442047211
-79.3562095326551
-73.3100027471884
-77.9643764843423
-97.2939731216277
-139.282184810142
-205.705219617358
-285.535293231176
-360.145421154931
-408.526911184736
-412.933248890098
-369.76117221778
-297.238301586561
-227.578825640768
-183.022980361797
-159.764992139113
-143.032549532085
-126.702061209934
-108.119661329514
-79.8980353605388
-31.9488777895222
43.3353584766812
139.367092804538
235.917085334247
319.871569810984
391.710178660257
454.582069145444
511.146706340746
564.036415383788
610.696761000789
644.025141937681
661.860651569449
663.043523648191
627.576904606741
518.930243816638
321.894671593931
74.4476340717215
-148.390944742801
-290.087203876117
-351.503367779671
-372.363687754774
-384.63700402497
-396.082653699918
-410.350848821198
-437.047531560227
-471.803813373877
-489.596757048099
-472.751255384432
-425.716758915104
-358.440467812631
-277.727032254966
-188.564832427205
-85.4122955930983
42.3937570227115
184.607519022288
308.749456720892
388.717931707522
418.460054126001
406.324672932966
372.055232183408
339.415061553573
320.593893583601
310.931479042731
299.934211263431
281.611851756655
255.454090648688
220.372454096982
163.559609477572
64.943120572884
-77.5372786826296
-236.718521628614
-371.827639742816
-452.695455276023
-476.724466468701
-462.993874776277
-428.447226506713
-377.311383788681
-312.511592255297
-241.744992849719
-166.915254576487
-83.5360798992762
5.04947830971954
89.5930332712553
167.054075507619
234.95839079378
281.760564165102
289.565060157769
246.950762625378
170.588130501764
105.363997699897
83.6693632627287
96.383055848703
113.950418661649
114.939364092378
88.759668512058
35.8260632766068
-26.3218538116703
-66.7317932777144
-58.0351637250646
2.24255603946894
90.1653617998026
174.793894582245
230.137163646149
243.830597017397
228.681157424684
208.935534058471
189.538429614201
154.172620145707
90.8754386170435
7.83305226811772
-75.5135648298562
-149.947273958812
-220.038764287365
-281.882419978005
-314.510738766469
-302.89642368909
-258.402448267069
-211.283053350009
-187.717440410519
-194.47187881264
-219.255183221467
-239.622027192292
-235.87562558498
-206.568540919426
-170.335717870357
-144.738885066675
-128.003779236341
-107.295878505546
-78.0556511382711
-48.4710323141398
-28.7363650430074
-21.0003811630165
-19.6093640546454
-18.196433766518
-13.9611036391264
-7.64432819999733
-2.69843640124131
-2.45362721351501
-8.44377342728052
-24.4874320330422
-54.8470674164622
-92.2019244460484
-118.721902513854
-121.851399923448
-101.530888821436
-69.6076180192409
-44.0066841817107
-33.5622280895483
-30.584828082011
-19.7673168371297
9.66113786166667
54.8159519152086
97.265471553219
120.158484951778
131.572617769686
156.922073692417
204.617155398692
250.085373828511
259.955937692709
232.526434021021
201.104173564986
190.61144451065
186.922668733098
152.513909372604
74.1188683386737
-1.50578718633236
-9.33145834794131
53.8844133603173
137.025228980288
211.636094023091
287.971283336789
365.24579905451
419.200285522332
441.812398620703
452.575027110376
462.121542865328
450.931805954491
391.19643273535
279.396360735195
147.912987796003
45.6946820162124
-4.41355297405792
-31.1295155254132
-82.8035631899943
-173.237459796292
-279.178284150987
-380.669936536779
-473.373736162271
-552.526904250642
-615.979229701579
-672.385100956982
-719.428371725335
-724.667181712381
-657.683711892392
-534.191595478876
-403.24552082668
-302.817732258869
-246.618116637581
-229.955368181962
-222.365096771997
-177.460121532989
-73.7328996604438
69.4530761293773
217.892901255359
346.451436308694
447.576416897265
530.588557600465
605.121532728458
666.2310132593
701.868070749824
709.493260207781
700.095576881231
684.222812513804
657.377574834528
603.865053167838
508.389852760346
360.363697639051
164.657422064248
-41.0780874464683
-202.59772366855
-298.021934054072
-352.589437390505
-402.729071553463
-467.245856972428
-544.596792888358
-609.194881389688
-618.300756170827
-551.000734403512
-436.166717583805
-326.067134114799
-253.844158933652
-224.007361066375
-224.032539657169
-230.917072020009
-217.857859349374
-172.304876556964
-107.977682387141
-49.9568650582816
-12.945558630935
0.88692526114567
-3.41732498668689
-14.5195045027869
-21.7371101166443
-27.2073004986578
-46.2304884072423
-88.4550963736546
-140.533543977711
-174.918086460685
-171.62590695326
-126.836902368578
-50.4929014620868
38.2240979639122
119.142597146293
180.297946771145
222.983430868263
257.230300116979
286.539104211847
304.933633496321
313.594802926364
323.134737818405
339.872988343411
364.495020485456
394.597385671461
421.002238538487
434.807068405123
435.745394299708
422.018059614338
384.655923674364
323.327816244033
257.703487078542
212.562645459983
189.827561394757
162.124776632722
100.773323069367
4.07745524473572
-111.026417723821
-233.328424646704
-351.965319067205
-437.563956792447
-459.927834801785
-425.768183105542
-373.857806083619
-330.712545687454
-297.173433595387
-275.017304749852
-273.094219252227
-288.443637254315
-305.348492936432
-312.17580970172
-309.214129052196
-302.027808602587
-291.810475906813
-276.380846618123
-263.24283952816
-270.694008188718
-303.993499390132
-340.660594121074
-351.476227882998
-330.277755264543
-296.756434524966
-269.391110386182
-239.75910071976
-183.90149427697
-95.0178985658283
9.60489410267719
107.831270390615
185.604151802601
236.865704409267
263.940916828918
275.240550196076
274.530393838581
268.193227731643
283.736485596907
342.993841180096
422.481710938073
480.699467693184
510.719702877699
538.151019816563
579.11728612152
616.89898135232
616.754814233557
554.589483371014
437.507665562182
302.892531507487
193.777142277495
136.72625768168
135.239276227611
173.296765263559
226.020016639631
260.223022595887
234.454349970731
131.827147117406
-10.5542658245549
-131.843043089263
-197.598930779416
-209.611238434916
-185.384748764486
-136.144357362982
-67.5861310369281
-4.9316642719253
7.08008824267463
-52.9712912882391
-155.588627876078
-246.353971279428
-289.625641350504
-284.718550212119
-253.318152013357
-217.655449276775
-188.438363581049
-172.356388768459
-184.92290256702
-243.120647143635
-337.757671202988
-424.449429225826
-456.778011506063
-422.376210844286
-341.081371770853
-247.245229793023
-179.063486775741
-152.848454532755
-141.276608030167
-104.768609062466
-37.9286608530468
33.31384269525
85.4312881240057
116.871117556198
142.168729108748
170.101244181763
192.379717530822
201.989931930383
211.516027112342
237.817807185992
278.552400410309
315.655906696935
336.924722388451
348.903548522451
365.707030894675
388.024689902429
401.051701192604
389.603914585428
350.560886849208
295.036861926588
238.945961760627
185.411035951347
112.397650755503
-11.1112697923963
-184.917495554785
-365.849239903612
-502.080395520711
-567.000940615208
-567.073108051191
-532.670543286215
-493.186551443863
-454.119419125654
-405.424822283319
-344.051730100873
-277.68026534973
-216.581179921965
-168.747889049725
-137.977057095676
-127.140627700892
-138.673741922326
-161.852879945035
-171.836648460765
-153.821526659633
-115.878888720633
-75.2280597871459
-44.4769860527995
-29.9987412513238
-32.6591902946523
-46.9844259201029
-63.4041722615949
-72.5592097117859
-67.7856651360909
-47.4873496281637
-15.1140358314651
26.4321470788536
77.3984018155255
133.321098618136
179.107009608262
207.358807127151
239.076826089053
297.249308127011
370.116744780649
431.504701104004
476.583040287948
514.145195631593
542.921398930438
549.390113714669
524.962706382882
478.19475336516
420.767204759814
350.120164608826
261.586546620078
167.283810268938
87.8413275808361
31.4056758313664
-12.4873108256528
-62.9423738977869
-133.23014245911
-218.59148858965
-289.402981357887
-309.063587177034
-277.343191807134
-235.757385204466
-216.199398716846
-212.238591929053
-206.325304186211
-196.83679352093
-188.914598082565
-176.325632541319
-146.352638422161
-96.6004525264599
-38.0503839891128
14.081067062312
46.240136994107
49.0070825981028
24.1664360017989
-9.98161621302286
-28.9301624489694
-16.58945567525
33.2608027652725
113.101149317828
194.165767374555
237.530436899335
212.526618783571
109.536442629215
-45.605779063612
-193.245480221995
-277.545900252458
-288.004056036041
-255.607347542205
-214.177572617339
-178.785251068866
-150.351995276751
-122.846605152385
-91.4202359319398
-58.3200853523165
-28.6295622876565
-6.53005592694873
2.69151203187333
-6.30009485867995
-28.9487550573629
-48.3446764201121
-53.0956331182974
-47.2369464566602
-38.5926336068875
-31.8515006914898
-34.0932780328267
-54.8764968802882
-94.2491900934679
-135.629343265619
-156.071664458601
-141.954430191039
-96.1421701247593
-32.5504986663345
35.2798847775128
100.691119609555
163.585761314123
218.574592928596
246.604354766588
239.081314929689
224.373312824543
248.24779186146
326.522807994025
428.414950878383
511.714015457363
558.054242455801
565.719722131163
532.366215262056
462.427829795386
381.140060300898
320.002365613462
283.286714549248
245.136344764427
179.027935711509
73.1488004420159
-70.0383824227976
-222.382965043917
-329.435064534294
-356.514075733136
-338.502989402527
-352.247132746554
-434.264989628273
-551.48681201979
-647.881269720894
-689.894422174783
-667.569403807477
-580.805814969847
-443.54921574706
-293.623114190885
-175.736599447923
-109.223648745585
-84.3290457902625
-84.2311504540629
-96.1876765591757
-110.453870867595
-122.396652140192
-136.444826266951
-166.320666254308
-217.64019604899
-267.964169956243
-289.349443509334
-280.184041638125
-247.882967977035
-186.878835835632
-97.7506011324994
-7.13629667112912
49.2445054693337
62.7421910045988
64.234642201179
96.29609995537
176.85685057471
291.104558051541
409.394718034622
506.575881748155
573.213135101225
616.764932188227
646.266485351733
656.80182160905
637.098365565924
587.103106833067
519.14971702357
441.721860324694
349.258921999257
234.863298924393
110.51483715789
5.01057322032202
-64.5463329371561
-109.618178811367
-151.355148972523
-194.974158586548
-226.302674667118
-232.20894625457
-217.568832270828
-194.898483333023
-177.019152147968
-181.44123124989
-215.110401314431
-260.842652970457
-291.475762966153
-291.035586695048
-265.713442008654
-232.261788317709
-195.071397382009
-149.655364718603
-95.6505017721242
-24.8220570926192
79.7993568614576
208.455793614849
315.166747979532
365.253493630377
361.070464045806
309.470003763527
211.121855717152
96.6863008586433
26.1866624345987
31.7163700819922
84.4613904031648
126.848383673561
125.706753139607
90.4118964773712
49.8005217665723
23.8909712258743
16.0225523402643
18.5466184812239
20.2717933802995
15.233443726611
6.01640878413208
-5.1055596230675
-24.3056173771966
-62.3807136111598
-126.939929483498
-213.656398665812
-298.94220919583
-356.440921987602
-386.097681787578
-408.112876570491
-430.478211966818
-435.950080860166
-399.453953790507
-322.079623557334
-240.488254429038
-183.51293461478
-138.417314836567
-80.0620806363579
-2.80980617458047
90.3612334479275
195.291830256091
292.871928258594
355.046395808891
370.984942376214
355.291713120726
332.555936497375
318.507640069538
313.138774347494
308.635410573311
298.231775073002
278.459727046937
252.700426853525
230.991073565317
217.831764084778
199.195128333869
147.113820815089
47.318091351226
-79.4551407364652
-196.822376728747
-286.22711143527
-345.460053406373
-365.512178589904
-330.99841490628
-242.849686149641
-124.841598553054
-5.67376864337261
92.9863819467571
150.526884139836
147.354042082222
82.5442574070924
-18.5376740356261
-123.237836019739
-206.263711400422
-246.390810910937
-235.767328518614
-195.770274086298
-158.964741739695
-136.277972298049
-119.931653825687
-112.6403158283
-136.319006957636
-206.543974046073
-309.039578404459
-410.054588006516
-480.154143939296
-502.841402850908
-474.673300555116
-407.416317447794
-322.661302749321
-241.045850229446
-180.952103802407
-157.746444784481
-173.372980762543
-208.270573515705
-223.452631202191
-174.09584892147
-32.474726828768
193.620962935809
458.681047685643
701.244223320118
882.36243121425
1000.11092071241
1061.7717755358
1059.86129855168
988.524898634698
869.439301120411
748.018366839294
664.143117515913
626.115317822243
615.022430166694
611.838288106049
607.076255008448
588.6928739091
540.214154545581
449.818187542795
311.968826979104
129.963554011096
-73.9537552062658
-266.17370433379
-429.690042483938
-565.983189834454
-663.511957734862
-693.779936117016
-649.635896711784
-564.560313699277
-488.258379717502
-452.624111033733
-456.511383458403
-478.363363331295
-502.437119238649
-525.417555197999
-541.422096384948
-540.243548740948
-520.979270497084
-491.254259004231
-456.700094310551
-420.292462898636
-385.528904882503
-354.46613887436
-322.217346067922
-279.920008044928
-230.128755667632
-184.47613068796
-140.00836834499
-83.6518899600648
-21.7969125970768
24.7497015696461
54.0275174813099
86.3798134433284
138.702996530978
209.584422230643
284.962348907813
356.391532010351
436.46825195577
543.529113721934
663.820867082874
744.151669020652
734.133017189883
633.290035293096
495.433951876036
387.699344479141
337.213843208882
312.141082951658
263.645008198269
181.946981281332
95.4486749495341
29.5402413794147
-13.2209262534142
-41.372572732615
-55.2592649764107
-45.7648360419461
-17.475404162939
-3.0118577426663
-38.1738855708314
-121.532638576484
-211.457468366638
-267.680616628596
-285.60648150523
-288.562763556376
-296.361341079072
-305.940037821605
-300.740782081827
-275.722847251162
-252.284138142314
-260.749015781536
-305.28886261073
-364.679880208321
-422.127107339564
-469.240556289371
-494.359915768767
-490.528801723212
-467.353550774153
-440.091010106858
-413.938647324892
-391.114821362053
-377.187240760764
-364.40378405761
-328.680624874346
-256.630585069156
-153.266573081406
-21.9727120208553
140.523138035934
342.351244067738
584.229144574947
823.739526218062
992.065753744417
1062.25138715014
1057.24447475616
1006.35998909455
928.904922341681
840.192855407496
753.322091574159
674.998224384584
600.3118475469
516.341082167231
410.816155568778
280.544482309254
140.112759680843
8.64887341377702
-120.294260377931
-269.506349591829
-428.323707385786
-542.53208366087
-565.718550622382
-491.055427670455
-340.933027617587
-163.095349914821
-17.1583216270804
62.9148155104218
84.2337227459014
73.8248236349665
50.0818001240445
16.2061301496312
-25.0786324777825
-67.0979079656629
-108.914930702606
-152.454744759753
-190.189925264729
-208.602382239803
-204.555822833258
-190.891020572195
-188.519166439273
-219.549499602438
-299.356497532995
-424.34246602102
-577.938022296016
-750.945763697356
-931.773695624893
-1078.13362154786
-1131.33043722014
-1063.6368691269
-892.734278566468
-656.84105554773
-394.931127950383
-140.822201760192
82.0310111981038
261.887116321728
396.305034529009
492.118494268609
563.50614978355
620.423167653951
660.15658070005
676.722827438621
672.528146209189
661.760491635624
667.01242532658
702.327149004123
761.135166875218
827.200575242516
889.010447265823
943.302120977351
989.82021463038
1024.63977888733
1039.333523847
1022.30756189642
957.260892952579
817.239381480448
580.508071996761
276.037956397511
-22.4103341099404
-269.910027500178
-474.742149531345
-650.349870097147
-789.25065236895
-881.254963392067
-932.714435592957
-962.763186961872
-981.954469882465
-982.550576202322
-957.880394143526
-925.514991098001
-917.401230970873
-944.229244932577
-976.79925324078
-968.609836569468
-899.634727949637
-785.703131572323
-644.028901328549
-481.305918797117
-314.74543635038
-168.443158151558
-51.6883217234306
41.0612369378624
120.313203730733
195.96134624624
267.779256507729
329.883396296249
396.337471885591
492.146423488076
604.506132627065
685.871796829083
712.026613406493
698.600768778446
666.633486374227
619.086945981546
552.54301841645
478.272132595448
414.518938744036
363.276478378721
310.441673923621
245.135451479971
178.549438380664
145.435341436271
174.977901776393
261.591078935672
373.088336194793
473.801860252894
530.392463628538
519.067615251433
444.592095531406
336.908164633778
228.009920315257
145.77939552528
110.366419850882
115.039778327623
128.856035270058
131.859715793642
127.526460944585
116.30122432453
83.8401995423484
17.1614354014123
-86.3963383620444
-221.919836092348
-378.485647659567
-535.123243333588
-656.275563659417
-710.186928846199
-705.629807773191
-693.189168340879
-712.781607010483
-750.462820762019
-762.406777672386
-731.15574822626
-683.030287253704
-658.222942665431
-672.519198176068
-704.225194192431
-716.319703020659
-688.084170174542
-623.063812106986
-540.204772753978
-463.298796169016
-399.914428481872
-333.150005286825
-250.229772358389
-162.080240161795
-90.9720634034076
-55.5904288779949
-57.2269926619323
-76.5023128317202
-88.9687671747252
-67.9220323908981
13.5302551649043
153.84998129831
325.577291928832
519.361871807253
739.044683422223
954.308298948691
1108.77603534037
1179.38945426437
1197.47645798835
1207.75018969912
1224.62871633865
1232.29711202614
1208.61222551923
1137.50930421644
1016.2444308359
859.167695963157
678.813259389382
476.497341659594
273.015629598699
113.354236704072
5.86521859299768
-107.873507697891
-280.811590098555
-477.064679910741
-603.802226613759
-622.641034995284
-586.598146232228
-571.619355948609
-615.563688250738
-715.22219559222
-832.769049229179
-901.980526314029
-873.361172762278
-758.659376691398
-608.74014563184
-463.187373154892
-331.05667338209
-202.489435004812
-67.9811531933153
76.5286578418454
236.688190927964
416.422279077356
599.043841587234
733.254822188854
750.88966704783
618.364036136711
372.360630996085
98.1655927328329
-118.913991364562
-231.020523011108
-242.314150231547
-194.175536784546
-140.623892183882
-129.310727632617
-173.180100152752
-218.738742886641
-167.186131424243
26.1659885268166
281.134159253535
464.140863201074
517.410092020159
477.522936930462
388.5298456685
255.67274063812
82.5091477653078
-102.285761785018
-264.325736868873
-378.739875949165
-427.111140562091
-400.072033118081
-314.125774428949
-217.82317277463
-158.563258973285
-144.831669448391
-154.826466180686
-168.454436808943
-181.555034866463
-206.514018224418
-267.895751808084
-381.106437149765
-522.947348107234
-637.986691579249
-685.768686225213
-664.924884714727
-586.168768459381
-450.607566759072
-269.17719619913
-80.4423261471454
71.4418701505568
167.127605616557
206.67404941181
190.570130728244
131.665739611032
67.52118606693
36.4309444585375
64.4451376050878
172.978192127795
354.432773210401
551.626182839378
698.182724593322
775.871046914253
828.929028746215
925.498056230748
1090.35806279062
1266.8809591257
1361.92572931487
1326.93302404175
1175.12584048213
949.050185491471
701.849491744819
480.430734942566
306.705707676317
182.366996207556
99.8214032440644
38.1810889756286
-33.1525335827633
-135.315283526108
-273.574503919123
-440.842634067279
-612.937988994355
-763.336760158927
-894.67378458584
-1025.06185688756
-1152.25781650646
-1272.96581559106
-1407.42953291599
-1549.15333012353
-1618.59935815078
-1530.74716637345
-1297.09529158778
-1007.14650082728
-732.703715907969
-503.33280957003
-336.721898408456
-237.113819499261
-186.146157980765
-163.4652371502
-162.453158949656
-175.886919657225
-180.31140238056
-148.816383747682
-74.7419489487567
27.2571824288438
141.495494451105
263.751015993529
390.447262589027
506.770285918528
598.899901920292
676.502025146746
770.591603717357
893.795618151742
1007.44349627925
1055.90787403586
1034.26825410209
994.476776507865
982.619364647718
989.114130060556
970.239765718981
914.377279756562
866.303064129113
863.213993569731
866.635439359665
802.924717049106
657.420668072735
485.326518728232
340.742217383209
223.190713388426
93.4153991510434
-67.3949106066629
-229.933336139808
-355.552199891817
-431.759682460984
-460.653660139506
-454.816550359773
-446.51925818973
-465.307717887619
-508.217261581626
-549.764698987406
-581.060622702026
-628.737241192558
-725.441866803418
-861.621372134114
-973.412502747358
-982.963675420787
-862.948526349843
-671.349023240546
-506.774003641626
-421.929433084913
-392.772550742574
-359.766778566433
-284.692584917811
-179.125191541807
-82.2587999312637
-16.7194215020359
16.2121306734799
19.1866853809839
13.0627408413778
47.9057078185016
164.869204620337
351.485941760158
546.436717862002
686.910065448225
745.828477513665
728.402964849626
654.177804933329
546.817942464542
423.474885381355
290.248843699964
148.813624517496
3.69122242446846
-131.372184934965
-237.767154811988
-309.441020199928
-355.371403252965
-386.375156528148
-415.947633726751
-461.613594025995
-523.046408809375
-574.063182215293
-594.62498359566
-593.218034486028
-587.098884264939
-581.193196549226
-570.076352942523
-540.940969353308
-468.284497575166
-313.768603646526
-53.3798151774351
283.139040188132
621.694393042351
897.072203377087
1079.41855655121
1166.54158128578
1178.11713217275
1147.88648463219
1104.32407822382
1058.12904535874
1007.32136404076
947.530493197796
874.497724456385
781.607053677721
662.620191703906
519.864107404127
365.525159998472
213.741175676112
76.823597841765
-37.3129503703899
-137.302761478054
-253.257673223343
-416.044389203664
-628.29057614686
-864.271218921415
-1094.7826865037
-1288.25262976775
-1399.58836721218
-1399.19318113515
-1305.91936837285
-1163.33958924411
-992.975310204418
-787.314975823338
-539.510425735788
-265.994349857042
-3.23110708862156
213.911254836186
376.797998723844
500.394403388693
589.214288935663
624.716263128451
593.323809427137
502.390196432279
371.120132736597
229.571276626787
110.267075870551
23.9194136149892
-37.9985113684343
-81.5041216211556
-108.669206245422
-120.829718222438
-116.958851507719
-108.253466085566
-128.323988706395
-205.321785492241
-325.658584890339
-442.522210175711
-517.696528653098
-545.078658195918
-540.229849818506
-511.135319053292
-438.521963704925
-294.147533216526
-79.1521432479183
166.301443666399
397.654921254769
605.657037005472
806.532915302884
994.89552954182
1133.04820534211
1193.71491448436
1188.36497902407
1139.84721506783
1049.11602308569
906.814431320447
721.498688356389
520.498312970278
324.988551721663
137.538510403015
-33.9199153974575
-160.443729415145
-221.941751575603
-231.291980566868
-218.259751059226
-211.386956846634
-225.688183640002
-247.183442806962
-251.091566988378
-245.955871765227
-276.000254418891
-375.774120734913
-532.193675426074
-685.723490903074
-773.109470186578
-773.243799089411
-700.386768346139
-575.538866810144
-428.995964518732
-297.220710661524
-193.343209824258
-101.961298053202
-11.3929436673889
66.819969572216
118.246366691624
145.402738055457
156.381694473721
154.417629171363
146.568002120979
144.183503996292
148.257875573954
146.724025248798
128.065886484953
85.270517232855
13.2198330755713
-80.4609907781852
-165.625498461798
-198.411561140688
-151.410140510123
-47.5602980839575
50.8199938614848
87.7587037314791
32.2846415046961
-117.103175499704
-314.36482077507
-477.402810597651
-542.362006226009
-501.904816855109
-392.892283921469
-263.115606809008
-151.961396082775
-81.8163024265291
-55.4831862035693
-67.8928688752766
-110.509858420418
-148.932715480934
-123.383211593237
-10.9092377772218
138.336786638427
263.568180017541
360.262326151357
460.782091984641
577.353529336329
685.134937167857
752.907262507716
773.839150863048
767.44692463091
762.894429651832
775.223164679057
795.467000382411
810.131996674796
821.139478456344
835.144551883923
839.685578161381
807.663977302796
727.044155578181
608.164592122426
463.070390255538
295.032549030813
106.903514505759
-92.5406807968509
-293.884966078895
-487.454275401054
-654.653120568271
-778.507762199367
-862.72020320698
-925.250202793097
-985.57366498922
-1057.85082814892
-1134.05998772762
-1184.26581334388
-1190.50645998703
-1161.11455684558
-1106.26497927729
-1026.35984162799
-924.818689226455
-810.877306202198
-690.27919511452
-564.46170754261
-439.819017424317
-329.299409100007
-242.174462880457
-178.422379988297
-132.938749224097
-97.0852306044297
-51.2780874238925
33.8706463396999
175.729855556025
359.7850351448
544.695390363406
690.430560758994
785.194992806297
840.152333776903
866.348109793413
875.423467783459
886.688552308594
905.739750445118
909.322626355557
866.913301232434
770.844988508759
650.488457364905
556.185715039148
516.859259641246
515.256072148896
507.655050920855
464.035934924354
388.545196596636
302.838234513981
211.306173166293
93.7749132616424
-63.3112435107961
-252.35830016389
-460.136055327341
-664.349400583272
-820.612005199291
-884.447457792473
-852.031547743682
-764.838120398023
-663.240069911336
-545.375384281014
-387.485115766046
-196.708414141216
-19.915272369992
100.874276291206
159.325083166062
173.018451675504
163.141179571203
144.119408727193
117.171517341524
67.992385186176
-21.1867228948749
-143.061645638526
-257.843874640039
-328.636081100194
-342.866374313436
-297.453880746663
-203.682154372473
-96.3061437285012
3.72947713779838
111.573041125541
236.008040699352
345.970996410618
397.517757330033
376.673789555643
308.56085426538
233.73078991654
187.809718076983
196.188778716575
259.66477166028
345.016085474037
410.43271246176
435.798886511084
422.535546718181
379.734341347252
314.873563884223
226.416922177395
108.379604116011
-29.2179232403611
-152.757976708476
-229.954088048061
-262.138038973628
-288.590608241956
-358.772095905807
-491.471777663177
-653.589153435971
-782.867587438735
-831.742585252265
-795.128622103126
-711.800063347765
-636.874210958662
-602.675086276206
-607.651112798217
-633.899050378743
-649.288659233323
-591.871890853545
-403.627396597945
-112.173095672776
167.223700036813
341.874873394696
413.809452518486
434.975146367181
441.832336457151
447.413088224613
456.400685447653
461.827031350075
444.29894062782
394.299547321345
328.017272993863
273.553358425487
254.464775223704
289.369933661568
383.83212305068
517.447678878545
656.538892551463
773.484202437598
849.994016464498
880.171305749314
865.91110427664
802.049168025042
677.814705232299
489.243888367508
251.431205735617
10.4371401170709
-173.306378755914
-268.785242667472
-293.663053224691
-293.756773862214
-310.917292440129
-363.545438382451
-449.078704369347
-555.373283974831
-665.528739656137
-762.13966724325
-835.099130030525
-885.058865036149
-923.589727729435
-963.656068996204
-993.439452790045
-978.107843052072
-909.572175222783
-822.031620300064
-736.108936229952
-626.897303084519
-462.909874245799
-238.787598434912
26.1709238928971
290.722694382223
513.061761763133
687.510718637548
845.08505584956
1012.55069291523
1178.94241775769
1308.32332064505
1376.57938969345
1384.48285867083
1347.85313731762
1288.15888189046
1218.19049018328
1131.26124099329
1018.01126984286
884.382260493842
740.117394139379
585.178513033047
417.735451201546
243.088395183809
65.4323331460481
-122.537419729014
-329.362532496202
-539.635134467864
-713.42453414381
-824.583437837325
-883.821368395906
-916.409297445894
-940.579365322346
-964.960160172989
-982.161991986057
-969.180130612516
-905.883278327368
-793.06324650648
-656.129865248986
-528.940937227165
-426.501291188511
-339.071046316421
-257.036355371227
-188.448152097729
-147.795282543696
-139.997470784721
-156.803447432518
-180.810248160765
-194.2829616356
-190.090433841369
-177.344760406915
-175.402364915473
-198.798089474113
-248.982967114113
-317.135722329064
-384.819855209028
-428.001233932638
-432.121536870686
-398.453185136444
-333.097764602756
-240.030174848428
-130.832190141231
-30.5435558430207
40.7899581518922
88.5941630839477
136.040369684754
199.603410979596
275.41927177659
344.813802256685
391.936509122967
417.700574591034
433.251252541744
440.595036105422
430.570399530735
398.851901157159
351.057868457834
300.82655027088
274.327682260354
296.198297587563
357.706681371595
420.089062145449
458.787961803436
483.01364371772
505.426479311662
516.960935034708
502.936246158472
463.928533688405
408.003887964785
336.396236786791
246.292339828135
138.667268823004
19.2195782916969
-100.946221296681
-204.08432722888
-267.742801911642
-267.97471611687
-192.248948905352
-57.4782712024682
93.6529229044897
217.550088035704
290.579543973485
310.7068275314
288.035386406339
244.688587394215
212.207005874206
203.205390251974
193.217782407507
153.635504166439
87.0512469785664
15.0820832171347
-39.4325327451438
-52.7188592017206
-18.2056679488536
36.5261599184859
73.0516786449628
71.2880156044098
31.6228424577753
-30.1283307269516
-91.9929622436264
-144.449864191745
-192.560229317043
-244.162839476664
-311.216042075423
-408.444579676828
-534.194322223362
-663.265863820875
-766.249415447802
-827.368609338667
-835.752289606344
-771.051907011581
-626.062073678362
-436.28633265503
-254.323931979526
-107.74061039286
1.09954471466059
78.3148200340116
130.335092796143
159.293409891117
168.021571765512
167.443747685103
167.44327153076
164.869438666635
153.008774943441
138.450560218589
133.767451151579
134.504170345762
119.09607773575
71.1378223814082
-13.186426828522
-130.407143641717
-258.332518788346
-350.580447495902
-374.34466225046
-347.684520929173
-314.226319779651
-295.406925045517
-288.312378336546
-286.766985755597
-280.91882719543
-252.182260628298
-191.737049441322
-117.039112673038
-50.9923718897856
8.19833957268775
83.2741923463909
192.970192092082
335.395525647368
488.129970143077
630.291232350081
762.111278728583
884.473851603065
978.802772186147
1030.23298855925
1040.52084045689
1007.26548685534
923.227250038407
795.564609985897
644.947483351365
494.158039168987
362.702853723341
261.392622282187
190.912323475769
144.766050408379
109.011447142895
65.2948751150218
-0.906568889589784
-97.4278584694471
-228.879959438732
-397.007679655332
-589.097409669686
-769.991064055842
-906.520681274911
-998.616870895335
-1067.69208065218
-1126.68440914858
-1177.92018756173
-1218.21193422346
-1228.88300778759
-1173.32814910844
-1014.99895659319
-747.516270507922
-414.756751247479
-91.475721974308
168.525178492078
363.96897149451
522.455718077492
658.566826304707
764.2785530241
825.539140166471
838.890421983827
817.779692146457
784.86538343857
756.863926954332
737.901060059403
725.274316799596
712.739302617231
685.151096382685
621.614153454068
513.802324540258
377.492374160887
242.040760191362
127.686300170235
30.5895337173309
-70.3167475293592
-191.968750953085
-331.460808149949
-469.866668210449
-591.603011671365
-694.613712259014
-780.742181894366
-841.152690808244
-851.77505951976
-790.296072833201
-662.059771676528
-501.384095227699
-350.393557133234
-243.837578538129
-203.507434000171
-232.242602466651
-309.779551350685
-394.88990607155
-437.56855362323
-409.448590923213
-333.064356841585
-263.790668623579
-236.1284584926
-243.321725896083
-257.73844219883
-244.253842727847
-175.486012448481
-61.2643268892082
68.507808007051
215.600296537218
395.762033272057
579.808438411056
708.521839849701
759.125437934184
771.833023983256
815.84485129738
920.718949164645
1038.50062523793
1096.07610692411
1074.50859770168
1009.90452157401
936.94428257252
860.014444615681
767.793575822565
657.533738616316
539.118912354536
417.444442978783
286.557672663994
144.062840794435
-4.97140753827113
-153.688142397958
-289.465012447094
-392.400720106399
-446.218883239921
-450.375910563997
-423.548874922485
-393.73367598971
-381.147408161779
-391.625077108618
-423.061440838679
-472.169478331344
-537.312077691861
-616.990295754629
-704.319384657497
-784.788617538677
-835.241556395852
-823.779413569946
-730.478570747697
-572.931861280112
-393.416658539138
-230.329063730245
-109.12025014766
-34.9333861182549
9.05010755968032
43.1938185689843
78.830311052359
119.523926189098
161.576085231128
201.581312366181
250.050385802764
322.185509251284
407.713062197864
470.808879888998
489.787529503205
476.318676103952
450.804902861989
417.584302982072
368.16908877989
294.524377734362
193.397357907368
73.7415077273755
-34.3971665923775
-99.8419846507521
-121.397333972401
-123.522627135255
-128.592255468955
-143.382013396605
-166.80411444827
-200.362825811349
-241.488967645865
-275.001792291351
-287.637757747644
-283.917486216335
-277.133823765807
-275.933931658506
-283.170915893274
-293.914143169092
-298.104177159847
-292.797829221979
-278.700531923246
-248.739238628046
-199.047215283732
-141.800092950448
-95.2109644986645
-68.2376324132989
-52.0559380770331
-21.7475332113772
40.5935203602405
122.992712377371
196.435855268139
243.050334939389
261.652807798709
261.502521934402
260.418907974982
273.490979632748
295.474795196416
304.441772753342
288.000325632168
255.824938105624
221.40841328546
190.158253687544
172.526018063558
182.533245175219
214.860067930693
242.843822328149
239.612580449184
192.540487541449
105.83588747049
-2.75284508602282
-107.636213351535
-183.208855703541
-219.402740516409
-233.252580207318
-252.253628531433
-278.985490113687
-287.664804516515
-267.793889673588
-249.194916567856
-264.890083331391
-306.768598420524
-336.381538274808
-326.59802511848
-273.725305356831
-184.153346490795
-74.3362251291653
25.8459200583127
92.1461241351612
128.111013899345
156.479277612936
192.717883464081
239.801641165415
298.209386147873
360.398521645853
405.323567338083
416.99260754181
399.582233093082
366.895632529978
327.903114550901
281.764456739456
218.818667186068
133.271283550064
37.4449814580834
-43.6418225082046
-90.0201544821079
-102.476270378387
-106.328631045837
-129.439070957643
-169.085952379751
-189.168556560941
-160.489245899246
-96.6417735191598
-37.0065447311137
0.0724790256128293
35.4100704515588
97.1610533172843
177.461199540295
237.613303993933
256.125860529949
248.393443232398
236.570428929413
217.177235884652
163.46664341993
59.3413116792305
-72.6454573272403
-184.456059668012
-241.504627077142
-238.14142289646
-182.936162387967
-95.0376733797898
-10.6923350155244
25.888171903838
-21.1550041542094
-154.234983021772
-323.483420882606
-455.396452570959
-503.510177719483
-470.151510612922
-390.343470380894
-295.457548231245
-202.422566520477
-129.500919072278
-83.31395021141
-39.8204258186567
26.3266017947169
113.311669483402
213.981707569026
327.834822593171
435.687537482639
507.944666484292
537.639340465765
526.979422398303
467.460429525704
360.154967495865
227.250139779003
94.973362856789
-21.4241372035743
-123.449684033246
-223.218707910091
-317.125560930144
-372.521037309594
-364.458057220202
-315.802274118901
-276.565179969202
-271.986203590887
-282.456362880679
-268.64427632781
-213.411675576749
-134.617141121146
-62.2910855461479
-18.0774556257335
-3.88403511215445
2.65471557063851
23.973343636554
56.456793772171
91.4708904056981
139.278791877579
200.316283966886
244.839466731064
250.777966867947
234.990126691931
231.462195213917
255.990621751854
296.424305348064
326.420634042547
324.414586772756
282.493701213613
206.072731428817
110.290155744453
6.53885253409229
-111.268579344862
-254.603232378312
-410.735248818705
-538.562004703922
-610.466837273472
-649.54886893654
-700.601768265591
-771.310391646716
-823.287195398431
-820.58273579143
-778.565748938758
-756.041893613532
-790.882439241601
-849.254882993826
-857.61323714733
-783.040898211029
-657.844055237519
-531.641215403778
-420.478353352788
-298.126551285201
-132.483305358664
74.6216533111229
292.674775636165
500.290653137084
710.669642237204
952.458183707248
1224.57190228307
1482.64346911283
1666.73030014364
1742.95979486082
1727.42989682632
1664.86840057965
1589.73044298575
1510.3559601252
1415.99659455162
1293.01678442635
1135.4130858458
946.428140209838
741.501823421544
545.86637360636
379.799226327271
253.583766877981
175.167412037478
142.779096684734
129.636979161141
92.6378431062023
3.48430732167432
-124.992710773172
-243.071263531513
-305.852050602573
-315.560230166454
-316.574034428204
-350.899028343727
-428.249554131567
-539.586286900704
-678.195864151086
-828.805815936033
-956.73692276021
-1036.20879737662
-1076.45269066684
-1098.91899452514
-1104.37058987234
-1083.82167243097
-1044.73401554126
-1004.01262071135
-974.158477192304
-970.554814649291
-1002.73541534186
-1041.67371560849
-1023.91417676776
-908.189927559874
-714.829198885317
-505.650440145889
-330.833153586375
-188.132167467824
-46.0940840486549
89.0973552852963
166.8928019781
153.957307113789
68.8888777960384
-39.9456621636915
-129.878011566513
-182.653642395091
-198.947502919131
-179.50209884221
-122.5577868314
-33.2246796770135
75.6077788872527
179.397493097127
250.603262310259
290.392647806928
326.263839729896
375.67816135961
449.908030545691
574.409416375504
750.204158554338
912.800448621012
991.12486077709
999.987617529184
1008.3072576727
1021.86670120844
977.470630139405
851.328488222408
692.845804318598
550.87804855835
435.149733063303
352.00010454869
322.89562367524
356.997720089826
430.844211242137
498.898633511999
519.074364849686
470.431023053164
354.08267415667
185.66872226133
-21.441538038298
-261.484610238271
-508.008001323632
-701.59233529012
-782.000775085784
-724.470604017406
-559.769886513589
-350.527288189025
-129.643289716886
95.1536975852394
277.385725044135
353.414625066424
325.615374124368
254.517934571033
181.863485302633
106.220101745897
8.57389648025281
-127.297552641511
-298.348858470067
-477.478647800686
-634.872977604266
-755.538730814214
-838.520732440889
-885.284383691797
-883.77967125629
-819.759952100199
-711.710622322744
-613.539701557661
-578.030788714909
-619.912646365689
-697.004403284918
-732.727008263386
-678.422134774914
-536.260232521124
-324.578703978811
-69.7978689377168
185.339239845402
422.053136518274
670.170542921094
950.763455621721
1220.83245792729
1412.83958130967
1508.6630225925
1535.92612508459
1509.81084691736
1418.48972125119
1255.36686596762
1036.04327258962
784.482732315252
513.563779122486
224.871152400288
-66.6970391541049
-324.183125964723
-519.585979676236
-652.010602753853
-730.405992326399
-749.643031768446
-679.483813237267
-509.91831957733
-308.724984730304
-166.590973554671
-96.8834341969873
-44.6397566570624
29.7989208840025
111.078441300912
155.730740700097
126.951925730246
5.95530828626725
-192.429146992133
-407.557815480754
-569.803948781733
-658.236596757884
-705.02383095775
-748.199261597949
-796.162451962417
-835.08849440466
-853.438258367364
-852.776438164381
-843.14602680806
-820.783705599879
-749.088742461399
-603.755720162309
-445.393119923519
-381.634028655937
-433.209321370499
-491.41630660717
-440.86689003645
-284.760829707434
-96.154008991941
101.347028947106
317.69709223388
516.574226056882
629.692988564995
626.036814345139
545.584241512052
467.30598421379
432.676697178024
416.635492779717
386.518721985922
354.094060712794
354.764753030748
397.887267705388
440.095169362553
408.665063011859
269.059727672111
80.2846297478618
-15.8879014287954
112.637705740784
458.688766814047
848.741748844433
1091.74368049788
1129.3829016494
1021.13318736943
850.61481506603
674.247689048901
516.406599668132
384.417796136373
272.829728595142
158.307651612983
28.7396784258394
-67.9874214115276
-30.9763579059956
196.767108206447
526.271021665251
770.890194038007
828.283059412325
770.689965772879
