45.8231952918266
52.5110228582765
52.1670699044184
47.0599241055184
45.1264225836404
49.7353078769279
57.4575596192452
65.1116707490582
63.924622741707
51.4919803764473
44.9045395237608
51.4604699700409
52.7565502468932
39.4886680643348
30.8709331944721
43.3956559115598
63.7885998045758
68.2775401143095
54.4248391163636
40.033392577371
34.6191770424538
30.8152043577267
26.5938460495787
27.4860692326635
31.2334792199995
32.9611226509976
29.3596169509421
20.8198051876983
19.496737735339
28.7079539700322
29.228502883341
14.9250317127421
6.69032965182447
13.705543742753
17.1175825276338
1.09086852797864
-24.263197568766
-38.7405354134345
-40.2171242224333
-44.393151531053
-55.5774071124055
-61.7121050927814
-61.4798357206642
-62.5514050986264
-62.8316205087378
-59.2993870452511
-51.7171405583239
-39.3400610300408
-31.7945094891201
-35.6047682301157
-35.5858250233259
-22.1556120208995
-11.0249023270793
-12.9658989426102
-13.6665160870266
1.67101815604052
25.2487422303464
40.4846050195811
45.6557681423818
50.6449205047811
56.776381038113
57.010468407778
52.5572054512204
48.9214438446095
45.3716743860207
41.1031165371746
34.9782178624757
26.6710844057575
25.2210352485785
31.7942701728648
28.7823930863466
10.8805651311123
-1.67791024312958
2.03775916573862
4.62732507088924
-10.0903565836385
-32.1597111533621
-43.3631020112591
-44.3986186224197
-49.510193238071
-59.1957376552263
-61.0033645218532
-56.688829161029
-55.9038351137855
-55.334968703961
-51.2719166591358
-45.024168189513
-35.9349356343569
-30.8317344999978
-34.3754557294371
-33.9992218904982
-23.4907353945188
-17.2587880023938
-22.0358652093018
-22.3474123496111
-7.21624160181476
12.349525719133
22.8056442500939
27.1982398845756
35.4280970797127
44.8237580601104
45.6394079916444
40.4079503360833
36.3964852717038
32.5559237544701
27.5052174031179
20.288665930054
12.0538482692875
12.1932597304034
18.4775994508947
13.8427114918372
0.315150565383455
-2.81340519866757
4.53773423621619
4.15294465551762
-10.971705902417
-29.7003785400364
-38.7139918385479
-39.5137251552588
-46.2057035555726
-60.6736714735509
-69.2650404263903
-66.0368658941868
-50.4000799264894
-20.9037623626618
11.5491992094718
34.8094766215198
47.052585302522
44.9653431459662
32.9763859865695
29.5034312114125
38.4379523400456
42.6543717690181
35.6272395194004
32.3347781576528
44.1817498316246
61.9313660591406
70.3229962979451
69.5619039867151
71.7749106064102
78.614543356745
80.6820124119772
77.6991887818993
74.5162887609965
70.4268082497752
65.5471904027753
56.5234792423982
41.7894075176078
34.221188480402
35.673047526659
26.7731945474156
4.45380475543461
-12.2934538208891
-18.7368466373751
-31.1025440474146
-58.4995349317577
-89.7046119470792
-109.233916449173
-117.728838638405
-126.054966648861
-130.690638399714
-119.933667067453
-99.6142951745464
-81.8247755791519
-67.8840543404815
-58.1784132859302
-50.961354197508
-42.3318939207
-39.0575496633356
-43.6740901352339
-41.5151062113312
-27.8062588727289
-19.2333283478143
-23.2655402857379
-24.7393688504803
-12.2044026423037
6.05217039440073
17.7132458123917
22.7128232756748
28.7645062994541
35.5509898272741
36.2443656689624
33.2483077393071
31.7498157201811
29.6712446778864
25.8504664509173
19.0591242232453
10.3643920308771
9.36248759618393
15.2830003953184
14.3718162565273
6.55826777397487
3.69936397807397
6.04289950176371
2.87226748371436
-9.78193082668439
-21.3722073038749
-18.4022790023722
-5.19050344842578
1.04671123959119
-0.267713436090174
3.41575366358908
10.6603699211325
15.1601876781776
18.889571736925
20.3457055941208
19.8073594487958
22.0793342025201
21.7794327256702
16.6514985538178
18.9193313994228
29.9383854154958
34.7691643645877
31.0315087490131
33.2493522501295
47.3573923976316
63.5817738031329
73.4403906067876
79.7954013003745
87.0232364074818
88.7082643179803
78.5194280599105
63.6767924738937
49.3935355528803
31.7367510477749
12.2308013099481
-6.4154177179717
-22.1135126864408
-26.1626272429049
-22.0259831905433
-25.4492826938932
-33.0105879099617
-29.4365703041342
-18.5753920102137
-16.7687806523971
-27.9447313349221
-40.2286577640557
-42.9575628827427
-41.7232619798085
-47.4474737989689
-55.112172489374
-55.7302352061323
-55.6365410535118
-59.4450220471791
-62.3966594869082
-66.1757305444865
-71.8147445018577
-75.8403813615395
-82.4240686777334
-90.6388536112851
-87.9576768929359
-75.8802284951239
-71.4338618471046
-76.8761459844032
-75.4527158227774
-58.0808145682819
-36.469037127824
-25.6491070166597
-22.9215404692434
-17.0990955011483
-11.3137489087154
-14.0241168592893
-19.4615337431571
-19.8985986730085
-14.7735046564765
-2.42368291492836
11.676498246912
19.5581161623107
28.4678682172823
42.2486199113982
49.8891114651796
51.600093445749
60.2073794536256
74.1052261900708
78.442769839607
71.6480243711914
72.5740325574879
96.971159865675
133.661634546575
157.876946269288
163.943909225219
160.460898297915
148.607915913468
131.485002785736
117.224453634596
104.992683236198
93.2043179058137
82.3053100996305
64.6368854901841
40.9310652545024
26.3732058631626
22.0636413527536
12.8782656363039
-4.00393832083618
-17.9464000031209
-27.0889056818319
-41.7030346552024
-67.1906054036486
-92.9187952226625
-104.335374599951
-100.653843896913
-87.9679560685244
-69.0031529308821
-50.6369163212388
-37.5080474790153
-23.2252304457536
-8.1340486410375
0.263120695732122
2.44434879032802
-4.89046524666838
-27.2882053537013
-51.1496622562789
-59.0111841277089
-54.8183994430143
-50.6230119289021
-47.6572041960797
-41.6783609771682
-33.4875330009935
-30.9099635741109
-38.5256457870826
-46.8553727448896
-46.9305358590589
-44.3136522485368
-43.0898561707069
-40.209885220864
-36.18146010315
-30.7802201842117
-25.1490591030523
-24.7195473822669
-23.6490043340105
-13.2417878769195
-3.96030758652225
-8.16089936379882
-17.1532145893542
-16.4236569626123
-7.27402637552901
-1.73417239626392
-5.38431364438237
-10.9713017797112
-10.0737712744643
-7.64301562771482
-10.9373749207173
-13.197295220526
-6.98016162454327
6.06882563813347
22.6421423785992
35.6772188654274
43.3667410840939
57.913686747838
80.0661179972407
93.1179315533151
94.3554697230021
94.7297662966887
92.5339776614162
78.8826129442342
56.5739044244347
36.8530699545377
26.8000399802388
22.3695378941421
15.9010281380911
9.93421294858776
9.2156324094067
10.3894025862025
12.3142426418679
14.390168540438
10.7181571512824
3.47621575689673
-2.48873751290361
-12.9919388658498
-26.8665185435999
-32.8268584688015
-34.2833065321216
-44.1869991344933
-59.5915860772505
-66.176593494164
-59.8822711011888
-51.6105989593133
-53.4218181254384
-62.7331328585591
-68.9250993323204
-73.1075403296331
-80.3554045771234
-85.6039243105486
-87.283780341138
-89.6087284203802
-91.6153123732837
-95.3010167462751
-101.185153225871
-100.503382162495
-95.2270536026893
-94.8770410827351
-89.9301074087151
-63.9286765025723
-22.2701346453365
14.2429426147595
34.4648026095608
46.6644331869673
66.2538354223347
93.4461101314591
115.107311560669
128.210008667855
136.469957801667
138.717943557159
140.059561344736
145.33398124106
148.068001322469
147.940927720579
148.36373590749
143.286278021299
135.412405281291
136.823495961368
142.554861641418
137.841028955331
125.84381925564
121.210715018394
126.509905406737
131.834348733722
128.283962775095
116.133475723557
100.26899699589
79.9559230419431
53.4800321095459
21.6329322764506
-20.602890139701
-74.3989949054646
-129.008591136554
-175.841413942578
-206.319685993233
-209.978473121959
-195.572733643228
-183.157243015435
-175.376135915467
-165.514081176296
-157.339468462348
-156.099393342302
-156.158316526001
-148.985966495071
-134.421603180135
-121.458492593569
-114.599327506633
-103.723973037194
-84.4841682367427
-67.3232915487251
-53.6104187955324
-37.4590168229198
-19.5684784338525
1.74062776556259
23.8007776498333
34.0154414778224
33.7493080260619
37.1080075791919
43.4644689063554
44.0977067367624
44.7212548572761
55.1743577910832
71.1844901548455
81.8486989623159
83.6825471450146
83.3320866834265
87.3992428080574
91.8032601285007
92.1474440847691
91.1963240027806
88.4346772131752
83.2031584594334
78.1847338016895
71.1718730718607
63.4463666355089
60.1856682689386
53.9696683650506
38.149411393489
25.2512651979199
25.793504075679
29.7154144395661
25.294302957835
15.493387993317
7.21064166010392
0.115177142039103
-12.9754269482043
-36.1116669491674
-61.2592606849812
-80.7408627927934
-94.5477492374201
-99.0008989182837
-92.9654859806932
-83.5593907122839
-73.8276981984298
-65.8484981047882
-61.2282789425303
-50.8144895964449
-30.1013017859298
-11.2847505335481
-2.91278913833439
3.34017044554851
18.2408517641621
39.8478801367372
57.6361215298299
65.7159684920806
69.2157057973042
73.7455048772665
73.1138485146275
62.7821687776006
48.8051524218117
32.4477240236297
12.7391700051318
-6.36079318363556
-25.905595340866
-43.8111607856494
-51.3070981955751
-52.2861327690406
-55.026646103599
-53.5924279172286
-43.6300332434785
-35.4453389367298
-37.4112758101302
-44.1042086199795
-45.6872147379405
-40.5108772052795
-37.6543691198962
-41.8757310633809
-43.4659710837724
-38.403335360958
-33.8013996707939
-28.1613940914718
-18.1036503702115
-6.72713798685225
6.79686546357118
18.9660370518854
20.8477799458297
17.7925962928935
20.1648776876055
22.3592609243067
16.2890372394585
9.44877990494304
12.1205876403721
21.4886242470599
29.4432303475655
34.5964826372903
41.2841999321796
49.0293648991536
49.8385218260715
44.6403481818187
43.0923342011006
43.4528256518717
40.5406867427544
36.0729136721028
28.1290709697247
19.0158535857196
16.0263635158028
12.6989054773919
3.20755759854567
-0.00390765614889099
10.4105199223895
21.73899537625
22.3042283776238
15.286322834615
7.7239857831215
0.700919467858866
-10.30401066371
-25.6147307493295
-35.2648112107005
-35.9153035227694
-34.8976803668433
-33.167384587965
-30.5890627409275
-29.8708468861322
-28.1283540785728
-26.5002530156977
-27.7993275789719
-24.0687531032292
-13.0671671251649
-6.96222406478577
-9.69352418252151
-9.7176312240339
-0.788934387104763
9.76356380046423
14.4163579181956
13.6160421718408
13.5475200808066
16.7285641330223
16.6511255740278
12.0424488140045
10.0556122560892
11.3724540903849
13.7583141827776
15.6061402598918
11.9323134380021
7.32413874291213
10.9814789600483
15.8032522585627
13.4132467154183
11.4381948212068
14.6944003963281
14.872180706941
7.40955671399859
-2.34781910806655
-9.4782616288514
-13.9056354965997
-19.9074522150171
-28.6846326506777
-32.8412590452971
-32.6677919841736
-37.2242172553188
-44.4954391364669
-49.0998214573783
-51.0143483022732
-48.4131277843855
-46.6551224187804
-53.1858504036581
-58.043163311605
-51.2908608998396
-43.106544987905
-42.9647666527672
-42.6404061517913
-34.1111728641798
-23.7937206388118
-19.9122720684433
-20.7904921114299
-19.0192763159324
-12.7036204285563
-7.87424332171653
-3.44531785980832
9.04874315311464
29.476975981316
54.1339689677916
79.5207116589898
97.2277475562829
107.17029414857
115.606834121457
117.354533624038
109.313354704836
102.683314087244
102.506859666951
99.6302454113174
88.7024654494543
74.7974987854299
63.4859495368758
54.9392224911314
44.9087115249002
33.6881445207313
28.2566185986901
26.3373953805797
21.5505297856841
19.4117953498963
20.882217315423
17.1928683323012
6.9894976854045
-7.49805567238748
-22.0595187604305
-27.1943073983918
-25.1555389276525
-30.7538053543569
-46.6775967149398
-60.5521801493058
-66.9771282001859
-74.405665728515
-90.4348244454269
-110.996322750926
-123.019906197193
-118.931833798978
-104.674691282644
-86.4585021932283
-66.6361216702959
-51.1877235146941
-41.7553309394058
-34.07068494042
-26.82674824855
-18.9766178547764
-11.5870075947231
-8.66963304534048
-4.850343984217
8.19033680749033
24.2157022950648
31.3109680345968
28.9928195365779
25.3769982516551
26.8031326415511
32.3852838264551
34.0067831335495
29.9230720089251
28.9891604634714
29.9121638206505
24.9818625945322
19.6368145607426
19.0793479179371
20.8218927712924
24.4463740235374
24.9169367881502
17.2495449566756
8.87475121698514
4.39355890380697
-2.89061011036747
-13.6030862558177
-17.7882803085542
-11.094015291543
-1.67290774395225
1.71064799594149
1.00943373619955
5.38994993497998
15.4265199115654
20.5490444248141
19.3759289769617
19.6042380288457
20.8419881414443
20.8653612608527
18.4778420825882
9.74556499563209
0.991006132730884
1.5072306990104
4.79749892239981
3.42390163489485
2.59392314343638
5.19475064707522
3.78203526407177
-7.26675241544405
-22.8289928491998
-34.0614027160814
-39.8596959130829
-45.4888050368329
-48.4640196872578
-40.5733725668788
-27.434650609888
-19.7576721568797
-15.5264561019984
-13.2644726350614
-14.8088838123387
-16.3364312744275
-18.8132970619682
-24.0946622757308
-24.5643823771197
-19.2709709506653
-18.5790740134255
-24.261310633613
-26.7799633978407
-22.9606568838537
-19.3328425166411
-19.0346273178221
-17.8325472646468
-10.516922448376
0.717372077570347
8.08553872650823
12.8184785083149
19.8671054569135
25.7254536561284
29.2582933706187
31.5524857376858
30.9924258552531
33.7604757797654
42.0315762861754
43.6211611344784
37.2478101407926
37.282134609071
46.385757442312
52.56379841816
49.8334218132075
44.2060083243519
43.1945571708672
45.0413000901177
40.4415673542545
29.8824553814206
24.1918340093271
23.0695166153053
20.6408233136607
19.5340193493661
18.1339351742856
13.2753845068541
9.88302919116048
5.91625556792224
-3.44342131819755
-10.3375978845738
-11.3939290440687
-16.3947315820619
-26.8036639699649
-31.8344094301178
-27.2443519116767
-19.9716631981524
-15.9466732665544
-13.1939656102477
-7.16477003983716
-0.881353521941248
-1.45199875838317
-6.1968857354255
-9.4509607852787
-11.6849307676827
-10.6968192233427
-6.94968059347569
-6.85169907261063
-8.02574329160926
-7.26153336232651
-10.9851508785947
-18.6242643294995
-21.2634030002217
-19.9434153363803
-22.252315701011
-26.4926743694044
-25.5415797391172
-19.440910307967
-14.7332857237674
-15.9491065744031
-19.0828626641161
-18.3309002434888
-17.8128674305792
-20.1941401708692
-19.9251830158289
-18.8698368437088
-21.4581108461552
-24.9959720008946
-28.5932834665362
-29.6804184639216
-23.1808975384124
-15.7117071885097
-18.1221440046241
-26.7987107885852
-29.2330038190531
-21.6674259718212
-11.8477789793943
-7.70624589383979
-8.00523629068559
-5.91247799775393
-2.72049985828188
-5.45915810463282
-9.97301114486872
-10.4650912742489
-11.5724967182205
-12.9934995233683
-11.2830177393461
-8.29363114465719
-0.713629396660987
11.3162953746227
17.9995482574279
20.6476260086346
29.1927361000618
40.6289902934991
44.9681656058747
41.5645512902846
36.5295066896113
34.1410837480359
33.6494980989334
31.4553532830767
28.7969577347707
27.6780473216504
22.2142186903203
12.8869877464417
10.7876343134182
17.9979883547764
29.6969521964995
42.097370183161
48.3685663514397
50.0542632215841
56.426392727909
62.0698053354322
53.9382539616534
36.7708536668345
26.5674822459362
27.4174231626426
31.2719011882496
31.5038384546711
27.4960820956187
21.3882177062026
12.0896731417821
-1.56012464650576
-12.0236539869164
-13.9346818223225
-11.7576746177805
-7.56467869725351
-3.30158814569436
-1.40743451797349
5.76412115611313
19.9678408298305
28.0172505923698
25.9411114513538
21.8348714379827
15.7036883784214
2.30314581226775
-14.7259020820374
-26.3640199487368
-29.5681790690625
-31.251039719631
-39.335313505615
-48.7961492482049
-50.979527610946
-50.3597088973081
-51.3978043094143
-51.838300710967
-55.4336695480662
-62.1445783195524
-65.4672805196445
-68.955831132264
-73.7589925292329
-69.3675786925964
-56.9474709079045
-49.9552543772144
-48.2271339630759
-39.5559558467922
-22.7526498579552
-8.23759760146732
-1.32939508525308
2.36073660409607
7.55796124777943
10.9725183524395
9.32539198491867
9.01211876678371
13.81153311165
19.3636431459847
24.1199975251274
26.3574861240007
25.822733121412
30.4501034978377
38.8865767206313
38.8726876506415
33.0585927461277
33.6737631190091
38.3311060091977
37.2708792366546
31.0406743750957
27.2527180808984
28.9438979659293
29.6575896532721
21.9456377655158
11.8163475573331
8.91598608629678
8.68540971987606
6.24830336489133
4.94747932495831
2.83305797064046
-2.69291258049278
-9.98512636983406
-19.2566855009697
-26.4958400034777
-26.4820249247505
-25.1545895560908
-29.3602110064023
-33.3327351460491
-29.8754222111093
-23.822386085548
-24.9147762315347
-34.0991605293754
-42.5169284816551
-43.6973147154448
-42.0650527098517
-41.8672218264292
-38.3923118640102
-32.223665400423
-30.2262780022907
-30.5963067518931
-30.4323116674242
-29.0991289482385
-20.8882061493304
-9.92446813356231
-8.99478823077993
-14.3018486328083
-13.4320857607668
-8.56981778666825
-8.91627123757252
-15.0722274878827
-20.7513716813928
-21.5319064067602
-21.0488841207766
-24.2506258922632
-24.1265105267415
-13.290404762122
0.97331463610243
14.4351513434694
31.8977138756192
50.9461089793094
69.6908375854004
89.5750516427537
102.555778305328
106.062166835738
110.845660768814
117.475811137134
116.416531564836
110.230720115792
109.35437277587
113.35982175287
111.943822102081
99.5293888451312
82.5864936026778
70.3046892171696
61.2336153456338
51.5930012838331
46.5777164551281
46.2326736085973
42.5760448644945
34.3956730671604
21.6945704081235
5.38695990104672
-5.38408794535425
-11.215017505598
-22.9501068026783
-37.1861004329393
-45.0097957742207
-52.140469189119
-66.1552099557707
-81.6014308775466
-87.2236096331643
-79.6656593165077
-71.3388152153735
-77.6968891809591
-95.6198760988521
-111.437183869052
-119.574521627485
-118.634381867264
-110.363606202219
-101.894470357096
-93.174384721037
-80.3669915474276
-67.643603771929
-55.0784093457513
-37.0260307921623
-19.7143712254929
-13.4189880310006
-12.7439936321574
-6.32558289213763
4.98410168461955
13.9034501382581
18.9396012907242
23.9301658795509
31.3802520220247
37.6759240915666
39.5476631082104
40.193146539566
40.5551760399861
39.6009252374429
39.5916348195667
38.6084342660682
37.5278779358909
44.3546698554107
54.7012295089598
57.9814619544921
59.1709784334296
64.4437198203293
63.9123734646507
48.226562143982
23.8510868047505
4.0735255554045
-3.08773742227059
-0.791772075563898
2.91547759511862
8.66447450184905
16.0219096998775
15.4648075561872
8.51436160664951
3.75369021305681
-2.4787896494729
-12.6020274464968
-21.8218621586439
-28.5398734290799
-29.1106396964255
-21.6531188650411
-16.3433370748052
-21.4943436947712
-29.0976750499407
-28.023979094232
-21.0379036406767
-17.4326060539361
-17.9480503428567
-15.0263477475422
-5.48558826141471
3.13864644960787
6.45915772523839
9.32002542429406
10.8569765875322
8.63535356994625
8.82278705756394
12.0504221877162
13.5380303833499
15.280916790557
16.7868251000549
14.1883775818382
12.581184809532
16.3469837500134
17.9817476972603
12.0657329249326
3.81109994885534
-1.9039819428936
-6.43319374129332
-14.4134552510315
-26.3582671552992
-34.5220489195566
-36.6644694260335
-39.5838124990018
-42.5036346866278
-43.1116058855639
-46.4578588908218
-50.4187352680445
-51.5179599060024
-54.7127878172657
-56.4777324786584
-49.9773140032228
-44.5489549535443
-49.1355362230047
-54.5116186964186
-51.1483983299438
-44.3080109923323
-42.9651279019254
-48.3388339080916
-53.7861358853751
-54.6782716109347
-57.0743786787762
-64.3765812848035
-70.7571307184012
-77.4544374533854
-87.075463945359
-91.7679999904351
-86.402692237344
-70.6358918612683
-47.316972877448
-30.6391043422895
-28.7408163166657
-28.6247548602215
-19.2194539129804
-6.60472779908811
3.64558821095164
18.0647461192455
44.7732012849366
83.1312407158516
123.774893501291
159.277440896997
191.285662711315
217.546591721648
229.437177234687
229.289939681465
226.743061033067
227.232199505087
234.183991080612
241.863431849553
237.665977667566
222.925286001338
207.452263624836
189.889267941151
166.541585374671
144.850913324226
130.718790218444
117.596058247681
97.5447925569787
70.7497230042345
44.2032773349915
23.2186720639628
3.75851808478861
-16.7049677087855
-34.0934774507243
-51.2544018950886
-71.7887882983684
-92.8285340685158
-117.55615327652
-146.24903422758
-169.155050927961
-186.075389188928
-200.556005640709
-202.534508179744
-186.477651253829
-166.523990594758
-155.88207343691
-151.160184856077
-144.645813398401
-135.944581681066
-129.339444298984
-123.250554014563
-109.111023918192
-88.4206786951099
-69.3565679254254
-48.7024300291789
-26.3760532829791
-12.0196500096149
-4.67318475035994
-0.29713412011451
-1.18065964357387
-1.74679441694143
3.22570459046429
5.24427173579601
-1.85707459211528
-10.0490000161615
-10.9342717331886
-7.57702153030239
-6.09396476025388
-6.2653961013562
-3.92471011170452
0.326874497839543
-1.56099313998259
-11.3359324429337
-22.565552354829
-35.6717813190484
-50.1006747566811
-58.0103373833294
-59.9382271301251
-58.7760543274762
-51.4293330458522
-42.9941067135159
-39.5632816528602
-33.5014397775482
-20.2950352963757
-10.5837091765333
-11.3035838967081
-12.1340095499488
0.530837396865205
26.2506479552624
51.7982959915686
68.6915031338884
81.1990899937576
89.7626864192397
90.5539196338849
91.8590190996264
99.0517719718191
104.239944449568
105.423435329083
103.701300791593
95.3232692767295
85.3823559352643
80.8904468065608
74.5276859654811
59.5950548450328
44.4221666303572
37.0587828947214
33.4038497337914
27.7869902719643
20.8526006269231
17.3519917045195
19.9161899598224
24.3373068708121
29.9094481801774
41.7927396131631
56.5108150633459
66.2439500669093
67.5027710912097
58.7525200937744
46.4334660954534
36.6052330016289
20.3131679756271
-7.70364579568529
-34.0609399308656
-45.9932849089345
-46.792972888249
-45.2278978045088
-41.3548172056523
-30.3053999591983
-14.8280481371656
-5.92519710242023
-6.10106050179427
-4.71742482758243
-0.654333639975775
-1.68417905108657
-3.60054735016653
-2.94368618804699
-5.2883244963143
-9.19685146440129
-12.2344587920307
-16.5797241788229
-19.8596286581616
-23.9371112529333
-38.157932519026
-61.2485829194255
-79.1177541085196
-86.2388477369633
-93.1339981519661
-105.607516022011
-113.64738448252
-107.240190888797
-91.7633330279446
-81.4197651241096
-78.3032934330751
-74.2640515870954
-69.8644478777336
-67.6729977181091
-64.8328589678549
-62.1211879484851
-57.9462765360676
-49.4095421723564
-44.3890222836022
-45.7481540443101
-40.8207477236053
-23.8390686134637
-6.49815001005556
0.331295782765905
-0.0510411803240139
0.681707971657698
2.81268783384478
-1.12148770220381
-12.705947472788
-24.0935175707686
-34.3563784797838
-44.639446171085
-45.464424645886
-35.5989475074458
-21.1058887962474
4.38824977096983
42.1079723919775
80.0833733172488
114.299022813357
144.348573252562
162.733216711044
167.742618009538
169.036292269927
173.147967847734
174.195899845665
165.188369547509
151.404412371732
145.622770566252
150.370099406364
153.720364080699
148.951793884994
139.112112206693
124.067097320705
107.687917382806
98.1055049484428
92.9525735212882
87.9079138622401
82.3490196907177
71.4951508677036
55.9970434354448
43.7233210539011
32.8331852601159
13.0785522269963
-15.7745248624603
-42.9063656781947
-65.6101022789841
-95.0263797989556
-138.404289809709
-182.714641862478
-205.98518413425
-206.413831980443
-198.059997799517
-186.484708504629
-174.54551519799
-165.155957286253
-151.795830696032
-132.250567787086
-113.049476462914
-95.6149524201011
-80.950096657021
-73.6402594896379
-69.4565373479517
-56.4793247000315
-33.4327736872725
-12.5456274621342
-1.12481942799242
6.19267037550622
16.680818257346
28.0018582694217
32.0598548603913
31.7260727845817
35.8735599747986
43.6207731724569
52.0086437699597
58.9954375403112
60.8604681043328
62.6012365451836
68.6293117551829
69.122430078913
58.3950998407892
45.9225254091742
38.2007010350524
29.1563822359628
13.7361596509566
-1.84606938990745
-9.81225616253989
-12.0938150213207
-15.2736789795152
-18.0105401605399
-15.0894454024647
-13.1568950714915
-20.5933272730298
-31.5115052000112
-39.4271750070009
-43.2893878410633
-41.670023875459
-40.484170207659
-43.5294226238542
-41.0664016995947
-32.4450039340042
-32.213377592927
-41.759793889369
-44.0232937148183
-28.9812596776542
-5.62410319586811
12.1418061779216
20.1598613129374
22.7762053845577
22.0476702182671
16.0503059814221
8.13035622474398
2.63317170593537
-1.93129090584583
-4.93638575068725
-5.7280557959554
-5.05962147246174
3.09042184922578
17.6373993123906
24.8729296852973
23.3537620675525
23.8935114657728
26.7850308450981
25.00126887267
19.7389036576734
18.8013893967342
25.8442233398202
34.583089656119
34.1170867059625
24.4782957014552
16.2798499815191
10.8999578141071
4.9718990266626
3.58865036286721
6.69622145381416
8.77519440573411
9.36196568263125
5.40873913361963
-2.30352119870769
-2.77443018034779
5.57153410770314
11.4058328149371
10.4301419746483
10.879035181388
18.8042181596586
27.9733800933528
29.5553623942586
25.5707810940522
25.4756784564478
30.4993978128345
32.4321673965581
28.3173472051027
19.0834821813315
4.96322221293484
-5.26804598908108
-3.94260876436567
3.31640929986274
10.4322381474461
14.1152322987876
10.0119138853717
2.99988193940534
4.45504277632354
15.8766138195229
28.1558665311236
33.9408203397807
34.4787989129035
35.8484696793073
39.9158618921643
42.8307219655151
47.0679914435616
58.0024749749421
64.8124581303648
54.8144896817709
32.6990428770545
4.07945534224803
-27.974356706892
-55.9366392664468
-79.4527805608365
-99.2927465554376
-106.269028119635
-97.3186953543861
-82.6527886243581
-71.0495070387607
-63.3103324014157
-58.1898446591836
-56.7584058854684
-60.845219366616
-67.990117671174
-71.488902348232
-71.0445783583676
-71.2280027972356
-66.1240615427037
-49.6877482440228
-30.6673427425297
-17.8820917266943
-12.3715251901445
-10.4430444843187
-3.97989485662116
5.00923729018688
6.10747819861894
3.95660600052989
9.50366698315401
17.8633529052824
18.8912186130946
13.7354654375558
11.0424903796187
16.1254713649002
24.8977052918091
31.3429151881257
39.9056675956389
54.7877703821565
66.6382108773394
70.2928486809198
71.0415878038342
67.9688673963531
62.0740943931167
59.7011953670079
55.0646677648832
42.533115415654
30.5394541120067
21.1373001325729
4.13577018665153
-21.5621551340582
-44.2528870025206
-58.0287461704491
-68.5730517281649
-79.1456090041334
-81.6062777372505
-68.190590533216
-49.070181370061
-40.0759923468486
-37.6694919116816
-30.8746376221813
-18.0984354226971
0.966779853876235
22.190785287822
37.1518145171196
47.8658455026727
58.3406041553106
65.3000948193801
68.9339506342663
71.3975365839033
69.3113746775664
60.4862753149895
49.8393835802021
44.4084036732663
45.7603267257403
47.9542916008506
45.1986882495331
40.3080916850127
35.8630797958197
26.582574580815
14.0814000500668
5.52604420590728
-3.61684953670478
-18.4706945475914
-37.1139899720557
-62.8539832669265
-96.615847801506
-129.925793073024
-157.345769938836
-176.049376915461
-176.017837676403
-147.918935517802
-98.9776602749393
-50.5809809300398
-21.1031906528565
-14.2555269618206
-19.8958457272387
-26.3688724893955
-27.3150295140401
-17.1779823672886
3.99331892970296
30.6172655653642
61.3137610486699
92.0631251465154
116.665692496646
136.152945555447
147.302356948588
143.051246867099
129.532512079333
118.646786153981
111.898974384766
104.406974812602
94.455006499388
82.7468964813079
69.0913167537392
50.9069343622785
26.323076991792
4.19835780666672
-3.40881037350232
1.89901236622134
15.5067796440027
35.8518927203606
53.6988714712764
63.0646654473275
63.3152876578255
46.3609276548777
14.2461064293565
-13.1294467452864
-26.3368700348545
-32.3269432223798
-34.9028642076232
-33.9032874237574
-34.8927035579936
-44.2169213890662
-59.4462148576489
-69.9992782782251
-67.3323199649372
-55.0462145684207
-40.9627246459082
-25.9861300579406
-13.7231307175655
-11.6524996820779
-20.8259286776276
-40.2205257987954
-64.1478030914204
-80.5795518359608
-89.377885922009
-98.7269994238994
-104.10805677456
-97.0413007654167
-83.8255234603471
-78.6082672424966
-85.598957529803
-95.0196125939885
-94.8371841530529
-84.4590370990337
-70.4185153527059
-51.7896349745584
-28.490355494496
-11.9590845164689
-6.70962089302068
-6.26210592223435
-9.11415298601105
-12.4745992010151
-12.2544212784462
-14.5824914701911
-21.8496562266909
-26.9027268800656
-29.7963215133778
-34.4685086378
-35.563155364383
-27.534825888786
-17.3302973854473
-15.0914425281183
-20.1248116651888
-23.2964464446437
-17.5585203936925
-4.34451006823738
13.1187889550899
35.7235096559298
58.1211076866263
72.3613063524228
79.5934286143462
80.6402003121216
78.5088435267493
84.5049658157329
98.0108230979606
107.272311145885
112.304109595694
118.531648542783
121.581261279897
116.013758370554
106.510537316303
101.85963034622
103.220029055761
102.072352627439
92.6093760339184
81.9565428312306
74.4173158029112
59.6889725799487
33.4278877055211
2.96763957428954
-26.5546587685152
-48.8833205234191
-62.6873492933014
-76.1675115285721
-84.8550205970345
-77.3737992322559
-61.4199663587813
-50.5916800666899
-42.5594523215527
-28.1875552175808
-6.9893625272835
13.7596393494716
29.0431581725754
41.8817452036168
54.3196548479872
56.7524211757919
42.7674175127671
22.5600419123826
4.92485216666205
-10.1752731604979
-21.6660095969106
-29.7586475309992
-30.1465375418182
-14.9499756971316
5.27875696203718
12.2764340474183
8.54566132767758
7.64941122554866
10.7542535328521
8.45411195461066
-1.95972297108671
-12.3060118998656
-18.8722437839453
-32.8921205658835
-63.0266845593482
-95.3221139492181
-111.583927404438
-111.135736022451
-97.9005199224917
-76.2391784080395
-57.9483878000995
-48.8059430361978
-48.0310711253876
-55.712876528381
-61.1061067249705
-51.7106717777996
-34.4633762609545
-21.7052214431762
-11.76895876264
0.31822963546562
10.4541782593621
14.0925133216558
13.8211700360708
14.0480635683251
14.4396284029052
10.3601200266155
4.39494035409424
7.65976984564176
22.0693054960084
39.9377521863656
55.048983804265
61.2241983293785
59.4881635008419
59.2395864231225
60.822023584294
61.1314864529754
66.2242900389558
75.7029404950927
76.5877845599925
61.9282813399299
38.2495637180902
17.1539147146906
5.92476342462486
-0.150062902359589
-8.82403012579018
-14.1765005160063
-8.55248080747331
3.32855278096222
16.7218708751087
28.5105072980966
35.3407698784534
43.7590458325724
56.2996403307889
63.2606161551195
65.6795310584828
71.2098182154479
72.6471597595224
61.0671843141162
43.3201468900595
28.9326080826141
14.7897222811047
-5.12664828076712
-26.3735502905709
-39.6468231746192
-45.2629103738389
-55.9456769160647
-78.480200367279
-103.66862307977
-122.126722465515
-130.596081528183
-130.44287384587
-131.522867055422
-136.446162782306
-135.185144716068
-127.680281040544
-120.052985991934
-106.638182953778
-82.9521215393687
-59.545494348202
-46.9974513934362
-39.2874702713625
-22.3734199014578
6.30719459036276
34.6504185038802
54.2560730902278
70.5221398740443
84.5381137265995
88.7656933076726
85.7866731306344
81.908436778851
77.0550174745946
75.562741789806
79.4819975538597
82.3808624998039
84.7513340387963
89.1943584420291
86.5908866735486
70.4479005029671
51.0307268314332
39.684124322426
32.2081469950601
19.4875128469739
2.902213266909
-7.10446326066442
-5.88219789596169
-4.24545260554466
-11.6491301229431
-23.7342733362477
-37.0882986678106
-52.0644183478409
-66.4097692278067
-79.6526051880355
-87.7635208985987
-85.4193669250309
-80.2072573818118
-79.7799843752967
-77.1832936730552
-67.114924114283
-57.2728225851956
-54.8826064794845
-56.5882694780229
-55.605467864384
-50.8678998764939
-47.7177754174853
-47.3002034063093
-42.0835832377551
-32.4258303008336
-25.2875634517563
-15.9062953341878
-0.101580356158344
16.2251638182973
31.472724180945
42.8160950697054
44.1841099574158
44.622586032303
56.215925432919
70.9428311916863
76.5429700491036
77.4984987032864
82.7610385243262
89.3043831269882
90.7294946115856
90.126830204909
95.1528477343647
103.964674854417
105.585424642559
99.3470892376983
94.7893016118489
92.2249081489683
87.9247650156611
81.6666007976009
71.1107381477413
60.1206752376554
54.6272513790396
47.9555025937319
35.2580987880237
23.345539385171
14.631116862872
3.60150473860495
-10.7084197706304
-22.3414857575741
-27.1520746474951
-29.49193055371
-40.1443296591868
-61.1900725621012
-79.8163369658705
-90.5955419952242
-100.616987178062
-108.792182139825
-109.967188886017
-104.028695495921
-91.1356837546112
-78.725218138782
-74.5595099434899
-69.3775506675056
-54.9984950578498
-41.7289352478599
-38.409247714386
-37.582936340957
-30.0275686225986
-19.3183795582377
-14.4863042045826
-15.6231954293193
-13.988661209387
-7.05305454685391
-2.40624975161059
-0.524330806233957
4.25465079108815
8.10499095398263
7.33451015962968
5.07295040256542
2.64602703264843
3.6217612466391
9.17457155486997
9.82572978133956
3.547635644352
1.56966296743148
7.28151666121032
12.2671297946049
11.338428336798
8.2736758927821
9.38653694775524
15.3320085736692
19.4323894218169
19.1494485012908
21.1529605121345
24.5412016798147
21.8494185661614
17.0215387518051
14.8962943644197
12.5494974679134
10.6143109562981
7.95199504010233
1.22053629993475
-2.24447196686002
2.26347328800008
4.07333065537717
-2.69594348539813
-7.47019701934239
-2.44659201492856
5.07651596460259
6.00602512435128
1.91803967089419
0.887708991032696
4.19401622937552
4.37595827012608
1.42780914940684
1.58343512324669
2.63502821569731
1.94849938245069
-0.207135432141974
-6.02656304360058
-8.80793484612993
-2.1104743901802
2.48992847576946
-2.22213395489702
-4.60536858006539
1.65669732804828
6.98392751378774
4.61995478332599
1.04759313779132
3.71110246420417
9.16376477298828
9.00466407072639
4.91562601723043
5.52990816823368
7.84764825462711
5.58405538894485
3.68864297676742
2.98892115865406
0.37756509278274
0.317223826877594
-0.0650928745374462
-5.85643695567265
-6.17419411011346
3.64788207168742
8.93083173117654
3.44438184618822
0.065158799530164
7.50552135167726
17.0858673568396
18.0787892439351
12.2432321924487
7.90602191062279
7.50391088178924
7.34223448201576
7.90398899713136
10.2598638204594
8.97241996814399
2.85668098823162
-4.5424124250072
-11.6467110500763
-12.2867433144881
-5.28278539664444
-3.69466586282204
-11.0272126280128
-14.022929607151
-8.72827126588013
-6.13242399417783
-11.6413424434499
-17.1177869615348
-13.8038539327152
-4.78087476526419
-1.41743638849928
-5.97367235989317
-8.87925946335201
-8.43068259288609
-9.46199590040841
-9.45464648758259
-8.3548534794769
-7.84629190851808
-2.87708745820006
2.794801932142
1.33692150536375
0.26623129639434
4.91568839810502
5.88573711373114
0.308355599436554
-1.86257997836413
4.43973883448581
12.9563159679736
15.8076330132915
12.5146746840035
10.1880171778372
11.1669210362449
8.87173364804612
4.405027971341
4.40478708373417
5.70517346962624
4.92585218323839
3.02136532599352
-0.907341055022805
-2.45289470795462
0.871451206804687
-0.182667806276232
-7.94035400155034
-11.5546270547532
-7.75487541803767
-5.85069621726054
-10.2167135191198
-13.1378477851256
-8.70364241020611
-3.18831463638627
-5.50588850184291
-11.0847691904562
-9.01058190123625
-3.50138414119063
-2.95251457172731
-3.23328791728556
-2.1920439526026
-1.07305053538247
2.9913733147232
5.64367645625093
3.12543890741509
4.78019425341653
12.5652997505229
13.2973447524586
3.23469144489239
-4.51885452813318
-1.65053499004964
4.17451386175935
3.80868136065972
-0.293382261713605
-0.0924648736253695
3.72524288538961
3.84541342775944
2.32564062082267
3.60496575960667
2.87562423927706
-0.0895542283711974
-1.56336727761292
-3.87775463830658
-4.68126776664235
-1.66906077714756
-2.40715087431841
-6.82494396608759
-4.78172339327259
2.66148008485469
3.88812375133905
-3.77394327714702
-11.0655562510286
-10.4301885681699
-4.63777543064417
-2.14525412697258
-2.94090075562438
-0.504580291039543
1.0872941372715
-2.24790212023796
-3.10007435538764
-0.730310781682575
0.512537884264806
2.70857490247323
3.29025307086116
0.153178067224473
1.5873931358855
8.48145077201472
10.3889852437847
5.61869428088184
3.58500527324451
8.96226178668448
15.8272351163729
16.9044814652628
13.0558048823279
11.3175915667124
12.6962139896458
11.0850416139518
7.62834458659055
6.9878263523832
6.27783546765463
3.85551746313147
-0.0953880803804829
-5.61827283833276
-5.31511196238538
0.95989640340356
0.267728570459936
-6.90992846465161
-6.85918993797171
0.700246865333714
3.03147091440266
-3.61864494836978
-9.0819255237087
-6.2812273082042
-1.19254881347463
-1.39700287855785
-1.73349920077966
4.36439798133005
6.50529793445235
-1.95134590178519
-8.46612970154505
-7.6085991459402
-5.0823165649223
-3.33144801789286
-5.27103071658967
-8.36360005666465
-4.91458751019891
0.597176485193605
-1.53524802693199
-8.09996322830838
-8.78032581154354
-2.83703293716629
0.391462240074297
-4.25059241757215
-10.9890720954897
-11.2623826475551
-7.11538160833742
-7.58317601278975
-10.7959507944626
-10.7799753130719
-10.5151237301851
-11.5406923990074
-13.4592825744453
-17.2174920507163
-17.1856600602744
-12.4634531097038
-12.9404563898288
-18.7036384877935
-19.9517325519206
-16.4933835327855
-16.4754051532851
-22.870337039599
-29.3951155167
-28.3658137790251
-22.6161140770962
-21.2116588019151
-21.9352594570461
-16.2680297476464
-5.58226955614827
8.45223540585885
27.6625020145953
44.7391880162565
53.9206116634779
57.2474507130828
52.9885652802137
44.9436957044055
43.8982533794196
46.0519300739283
39.0037498478698
25.6868946719568
18.8497718181506
19.786151094786
18.8617707873692
11.4993836828889
3.65751194646437
3.2673640869821
7.70276564344702
8.12051108791159
4.36906239562256
-1.2886794091558
-6.29461120536967
-0.101705742835825
16.2535157350478
27.4580483391044
30.027946980736
26.3648653584369
14.5303378775773
1.89931817959888
-1.04429817142808
1.91450189517098
-0.430060278453505
-9.64559086220348
-16.2597946293054
-15.0813309999098
-13.8621262266999
-19.2184455193522
-21.6431344558393
-11.4826106184983
0.696595610535869
3.33929188292437
-0.075482335537115
-6.48912665338469
-13.5298045699642
-16.5012819755483
-19.5879196068415
-25.2585889258123
-25.1264104550231
-19.3208391037424
-18.9647354806996
-23.669660899864
-21.7463095487368
-12.9753267211592
-10.4858983578225
-20.6053397586853
-34.9270480147097
-43.0192645977273
-46.3591099839058
-49.6894115590982
-46.5138897362844
-33.634045771092
-20.8726345452509
-15.1066328689313
-17.1567717553158
-22.0179762418646
-18.3952785526677
-7.23812678510308
0.333849512596562
5.24024625938481
14.1679490218786
24.8448821431328
32.6178009744502
39.4322594111605
50.5598035627367
66.4780142664983
79.2647935239433
81.1664907329783
76.7329418677518
72.764737403179
65.4869450605791
54.9486325991717
47.6576690057537
42.1874878662157
36.6022392764428
31.1997797673263
22.6386229474286
15.9870015862149
19.6973523956263
26.2186135286003
23.0807851849699
13.5797506372409
11.2097391783792
18.1425544747295
20.7157719386351
10.2120757752157
-4.42528028785577
-11.1143467092946
-12.2737356466302
-16.6509485690724
-22.6759734766325
-26.802419280775
-31.0084979273306
-35.2966119927616
-41.6560242922251
-50.9146482089356
-55.3949054443177
-54.9675419391407
-58.0435520567389
-61.8348920384171
-58.9949533016131
-53.0690933427641
-50.0771460082376
-47.8989823527492
-40.4703413458685
-26.6108613413958
-14.4356169194141
-11.889706244509
-12.2484276179027
-6.1020772157973
0.427220493945046
1.11672144856988
-0.00858878735614929
-1.42813603769092
-3.20443369433969
-6.68028163957202
-15.7120002570147
-22.7200932925136
-16.6622406430683
-5.00352026333779
-2.39737467872182
-8.51256615064979
-12.4031991757146
-9.64285825070717
-7.11331604905069
-12.5275557697226
-22.8752725803861
-29.4325062872734
-32.7467639748929
-37.7855206749978
-40.7380997762421
-37.6799577439082
-30.253970855246
-20.4697798534175
-14.3587593036276
-13.1669479977774
-7.09750485082844
3.90871103129391
9.98395923437731
13.106059354825
21.1359763655861
31.1493723449997
35.7642840098221
35.3256984712117
36.9459003128085
45.9186182106116
57.3446275518682
62.7361252339254
66.5182923418077
76.7003715747861
88.1896823061197
95.5308134467452
98.3736910699006
92.8699655141636
81.7323254344876
71.7925770074965
60.3377258886799
48.9889241442078
47.7800815721494
53.550259582202
52.1880714903383
41.7099947988252
32.1620899909914
26.8215310102691
19.6231530058408
8.31749659177729
0.487722261014882
3.34185629761294
9.65068191710125
8.02114169933419
0.555689584724938
-7.080022958168
-12.7869927386089
-13.8210802676455
-14.5832199676044
-19.5324028024922
-24.1740303716246
-31.7699665783132
-50.0667576941523
-71.005485132799
-81.5181119061788
-82.6658105009352
-83.7959318679914
-86.9595574522164
-84.269929005461
-71.4924306373298
-58.588355017957
-55.0685746554072
-53.8720010358945
-48.4075032735167
-44.8164160214705
-43.6910028449592
-38.9684678032263
-30.3040855613162
-17.5715374119974
-4.09359103014833
1.23716094940985
2.72877639667245
11.9515644038237
23.2063625792141
24.0372060636937
18.6464778282393
19.2263837431936
25.1464063998126
25.6619653912017
17.022136759756
8.28876288458969
7.48304870281378
8.56894643631054
5.07567071864917
1.75418167041012
1.37763218247534
2.38465172209098
4.38919106004985
3.87745724936557
2.13767413672196
4.6244357361118
5.00511511850027
-1.97465094990991
-5.1035174070326
3.20181304329592
12.7224342041662
12.359005656507
4.54895474971347
-1.85593489953406
-4.34438454459183
-10.0836304035792
-22.518724813746
-31.4506657396259
-32.7501269448096
-35.9720409676654
-40.6110384808983
-40.4850824220259
-41.4340328880206
-47.2472699015073
-54.4913244137852
-61.1635488698312
-62.6711885707097
-57.6754173041954
-54.4641076185636
-55.8792489960374
-52.4709212646035
-38.9697576302652
-23.2480845553259
-12.2517150952135
0.271452227114513
25.4467745769521
60.3291306963666
86.2627606124329
94.7292065422843
95.6355962366676
95.1355155170334
94.1259884414873
95.6595883516669
96.5228342172488
96.1297340456624
101.15183638272
107.175869922159
105.666435923959
102.082100801914
103.259868739333
103.102132377654
93.6259417465246
78.9353181741777
70.4025835471932
70.6805759702619
68.4637519029817
56.3460077417091
43.6241617495566
36.2316724347801
26.6247356144625
12.9248597200103
-1.10928343419168
-15.5274283457462
-28.5892181621005
-43.7119569486025
-70.005047113697
-102.355231881702
-127.473397856081
-145.028394877222
-159.065046582677
-161.003608111008
-141.967867036408
-112.375297140297
-90.7412244798175
-81.1737202116498
-73.2997029148276
-60.4118790114937
-48.3269832685697
-40.4903102914522
-31.7189544306353
-22.1638968265156
-15.4704282189263
-11.7756851668203
-10.9050813968548
-6.8395733627936
5.08824133083777
13.7865934569784
11.9541648510398
11.6775752581226
21.1142214617722
30.8050287717655
33.2811408442001
35.1396042849814
44.1808047842657
57.5124577288473
64.2354213449531
60.0472763669689
53.3712770516866
46.9610916872712
34.8956986290783
21.4887124079821
14.0670313143913
12.1379814389856
16.2547903379153
22.4126069036677
21.7567621443839
18.844732056706
21.9006959203287
22.9404602840623
13.1638866674856
0.622224951194497
-4.37726490419273
-5.80360314866235
-12.440270746478
-23.3525216101115
-30.0676080112469
-29.5702255731383
-28.4884082687801
-28.3524629345371
-23.5312294681834
-18.0002288178817
-19.1933469487985
-26.0887127878716
-33.9044059107906
-32.5239452017836
-16.9324200808697
-3.30533177151949
-6.49102875224819
-17.4424768416153
-22.805700991752
-24.0476779336501
-27.1461006301087
-29.87534514101
-26.0653650564246
-16.6158873836141
-11.3271029175529
-14.3281561462204
-16.3742574379612
-13.5982291969961
-12.4622102728396
-12.0942263686751
-9.39909460329949
-6.77971480605454
-2.11151916444626
3.92294545448534
4.84535145114635
5.78326940866942
14.4345844121361
23.1091173618651
23.3045389448123
21.2879590549695
25.2649224804035
29.8759914844881
27.134408712788
23.2575543567547
29.5045971092993
41.5848904651809
45.2996278383227
41.0959532995149
38.8101619797757
37.1764361454443
32.6208800544362
27.1707428508878
21.7455603466215
20.2453814929418
23.3463379686304
20.5413066230926
10.384354245896
5.81935270864429
10.1287886488144
12.5366088067169
7.03288495898231
-0.0386324642898191
-1.59807933383504
-0.887121557734945
-5.35087568436569
-11.0089683006521
-7.62927662842052
-0.259530299635254
0.3564122493982
-2.28089215416243
-5.36357528920469
-13.8668883113111
-26.326598240567
-38.8986024015434
-46.4049807449182
-39.033521893937
-20.9197004977679
-10.1761944773794
-11.2768218943783
-11.0410214120746
-2.05848449494802
7.24485921143348
8.46868801033408
4.91193676618126
3.3069489140629
2.54547990192573
-2.32225741719718
-7.32716893842203
-6.618146217261
-4.85356632630489
-5.72025060405389
-7.7217135445876
-11.5119258013154
-12.2948058681965
-6.9747631728725
-6.909190156642
-16.1286739438489
-20.6688738782956
-14.1764769500292
-7.77183407883048
-10.7270531049112
-17.6365765379726
-19.315145839054
-17.9274451483505
-21.3710978397702
-26.7653498518112
-25.8130118526135
-22.5194677136097
-23.0639882325778
-22.6725834620755
-20.0107814998431
-16.8725643955826
-8.87398303430197
-0.89473186805221
-3.12118675836105
-9.67823999135727
-12.5312896439625
-17.3638056019549
-27.3249115568011
-33.3882646187657
-29.5875499135475
-22.2993604222277
-17.2059486847869
-9.61105664095875
4.94153506679987
20.165161124288
29.9595757435601
42.0771427152465
61.7153444890612
78.7132146832928
87.7779596825235
91.3099949222621
87.5885163537624
80.5984623947195
75.3138405465033
65.3814609565909
50.5276052282092
42.088990308625
41.527344152372
37.7985863264478
26.239138044715
15.4419323711029
13.2047592988455
13.6146854261471
6.96701305725823
-2.43049338051219
-5.55597884413688
-7.59358388537316
-13.5036805324821
-15.1482810571424
-11.3057503280248
-8.88250534154367
-7.15277070918634
-7.08369479409038
-12.5713480841569
-18.3146528965483
-21.9403859171655
-31.6233836586352
-47.8109359145381
-57.4114876011871
-52.6098185630495
-41.9811664454466
-36.1647722224459
-32.6858762923729
-25.1039415581817
-17.758273039292
-15.7083897251689
-11.1717684910337
0.187736223191121
9.09741475845656
11.0807254458245
8.29290920976052
2.01879805800729
0.656549113212666
8.22135745908819
12.8098021265196
10.2510951504675
10.9746204380829
15.989133965925
13.7045351596998
-0.932677864919412
-18.7100571108777
-28.7355008121907
-33.3856554305239
-40.9448531277726
-45.5480936056322
-36.0451670335885
-19.9542400903456
-9.81473152655781
-4.7364716116718
-4.51747595320327
-9.39452659143302
-10.4939154389539
-3.77444229514472
8.21174718463319
24.5031368525999
38.0645798177681
40.3643849024595
36.8907469959326
40.8031982950797
53.0621419386172
59.9179216492292
53.1408819328979
41.461395809517
34.4803835192404
27.287515079934
12.0172942382658
-7.23801342289684
-25.0998348224875
-41.7152887585329
-51.9168765915797
-53.1419416988998
-51.1810119669753
-44.2886014697117
-30.7517015719861
-20.8066112958264
-17.7490403763271
-13.4044207409563
-6.84585026435347
-5.42839615843962
-10.3155297091653
-12.4338124947324
-6.42880655535082
-1.94997631293101
-8.11979651984114
-16.0403088754273
-16.4595480518347
-17.2783422518168
-22.5541108695182
-23.409511618605
-18.4479641100506
-10.0083318497263
3.24659917821616
12.8887022865507
13.8345317507191
18.5071707343451
30.6792897900276
36.5624233958141
32.2459623231691
30.9496926620329
38.9786347158694
44.8478160431116
39.8744051222598
32.0207678475845
29.2856582008814
25.3383207025715
14.054610637395
2.9535595619104
-2.35283707349384
-5.64885888412519
-7.41565504695848
-8.85135179988955
-12.8307010553149
-13.093858927427
-8.84271217574394
-10.4764231688579
-14.779496950326
-8.0769207078754
7.06558035178256
15.522921621163
13.4374534067929
12.8739621940488
22.3700517775763
32.4726063451724
31.1293615875669
23.7314898368375
17.7020393834032
6.19871596365469
-9.90573188912765
-18.1570336301324
-19.9638847584526
-22.0969221115489
-23.1536095527647
-26.659514047447
-33.2063037634347
-30.4129275955554
-15.946935453635
-4.4701386895559
-2.15109433172529
0.968794854889753
8.79991667758885
10.182969830764
0.376238958977738
-8.18205891577479
-6.78767265803392
-4.43456063817447
-10.4317934410242
-18.7202834183114
-22.2910639593157
-23.1373014862318
-22.3794593629884
-23.5465624009794
-29.8853941904524
-31.3903309285087
-23.5148996533772
-18.2769021108634
-18.4197428399178
-14.5533192595066
-7.61322052643487
-6.98688055595828
-13.1797437726964
-16.7907520351041
-12.5691432774213
-7.48968838152399
-9.15239751145123
-11.6836137822923
-7.79852204427754
-2.90570952291083
1.00319293325777
10.1122640061329
21.6025676277832
30.9322973155426
38.259514251145
37.0267010819359
27.3614245608699
24.3296907963178
30.8234758743223
32.5411207609121
25.6647407224268
21.4868739521005
23.8849551273269
23.8732957569636
18.3209062231609
16.1100192372079
20.355182083724
19.9364612644613
8.45790013601628
-5.1760075363479
-14.3860053238816
-18.3921624037103
-12.4755009992902
-0.166980179702182
9.18361110515722
18.9892548386845
29.8045335151841
30.4318922606134
23.0976870587828
21.0286731345103
22.961632314861
17.7589535144448
4.24230523218905
-7.01470081159695
-8.16373755835919
-5.30549173524792
-6.94937150548538
-7.59426693159295
-0.510138807154719
7.80040303561698
12.1898615343043
13.0957797498447
7.09957631475452
-2.17272211538026
-5.85031999910964
-7.14317007842504
-9.53826764724386
-7.29505636784016
-2.43004047606912
-4.42140349493184
-11.0096161160351
-10.3874437864425
-3.032415083259
-3.81405605576104
-17.8056311432823
-31.7196633028574
-35.4821538709118
-34.0547977234942
-31.9140400859481
-26.4562758556253
-20.2966137599893
-16.4409302285564
-10.5293191533645
-5.93602079380299
-8.75615567527364
-10.6215695805769
-7.07629339394611
-6.80049068508933
-8.91918907342073
-3.86863998338069
5.58917271327604
8.01040536439598
2.55445860090882
0.381094943722186
6.48771507850193
10.5948433828491
5.40186461052108
0.990269099036532
3.45974541101641
3.28082264092818
-0.0155588331536801
0.698575476586087
0.875767089772393
0.814326266543105
5.65481768135987
4.91463361972735
-5.37812379479741
-10.6062266240003
-8.24389356414632
-9.89254997175701
-15.7737584382448
-16.489087781235
-11.0952733124715
-7.76197675764217
-9.81523394947075
-10.4534966907548
-6.12386492966699
-4.25554847926714
-6.77419141314234
-4.81483097519627
2.15646506860721
8.73122411577716
16.5145210119966
23.2751031655778
24.9788424844485
26.1312188104295
24.8237742924402
15.4424718289002
8.488213981603
13.5945479895659
19.3624267319493
13.1616721752745
0.596830846529651
-5.38156742472489
-2.00975463488228
1.79178389742008
0.652095287518107
1.31272913431028
6.54110725234896
8.13055826432081
5.76931111751515
6.58840338474407
9.40349939803983
11.928111142917
14.0524346972275
12.8431502160479
12.5787565052253
18.6113998841186
21.6100959542887
12.531432783473
0.456248059521169
-0.344220792043525
8.64204153265979
13.7829966703906
11.2818931463342
10.9837584302402
15.7014237064844
15.1861276236622
7.00055872113325
2.08344653927583
3.8547876349516
6.91909336724946
10.7893379051656
12.2199819726748
7.65829172809362
5.16627025743407
6.09509945590316
0.168338893243747
-9.69940959510836
-11.2887809508193
-6.11603288672212
-4.76445411379488
-8.82917625415455
-11.924796876938
-14.5104896562505
-24.8364986330531
-40.7390262765467
-47.4824677624597
-42.8378875378275
-39.2131961328504
-38.2467121764296
-33.9476410544517
-27.2739528786559
-17.2780675366709
-5.1036007187637
-0.474939862431762
-1.73395499939587
2.11415023366856
7.03069824834352
2.75526409939591
-4.94283658492316
-3.25718803567345
5.49234945648532
7.40779614625938
-0.112340670484164
-6.04531876365337
-7.41428580050376
-12.8261318415621
-22.4914749067523
-29.1170930321887
-34.6371434128594
-42.1367547735518
-47.4395260514159
-50.7114870873053
-51.6335853675378
-44.8688002610367
-37.3259786147936
-39.3057908070055
-42.5898113542008
-36.660931928843
-27.6708800405491
-25.3839738841129
-28.6130497696162
-29.3496841380814
-26.0711753076237
-27.5110283009061
-35.0938085268888
-36.9308692637835
-32.4436009802884
-32.801071916858
-33.6338570131348
-24.0104753099118
-5.8190914997127
17.5177047101104
41.4395844392194
56.9527949609488
66.9707207155802
79.5445790556594
88.9677856316978
87.9766537186412
82.9660809461826
83.0167583742225
87.2180056387758
91.1307583575418
96.3053158995938
107.447554093517
122.761496080627
133.512114099938
137.973446697515
140.871073770545
138.27827866455
127.061948736474
113.47564525615
97.5050067535257
79.841129257152
71.6290629450573
69.598616355177
57.1089446815906
36.3259873408605
21.5716987948182
12.0797452457066
-1.36041999820318
-16.3391081933863
-22.6669052265
-21.2532674345361
-27.0706073514288
-46.1946360047338
-64.7723702977288
-73.5411762299011
-78.1700321911127
-80.4996651366179
-80.2981181913981
-83.6722165240083
-89.4137644080384
-93.0443247111364
-100.249348599576
-110.388724836854
-112.9555670398
-110.16530129297
-111.066342564952
-110.075994588908
-97.3929466929996
-79.4965938925804
-69.6296470726967
-66.6749050498666
-59.7047937268194
-48.1835691696853
-41.06509322171
-37.7456718095531
-31.0344051384104
-23.6598854809889
-19.0301163134632
-13.9768902719217
-10.6985167105329
-9.18884151719126
-2.73626955610129
3.44275891975621
0.373955096431852
-2.96376590924766
4.24448492318049
13.3285133088725
12.3615904932692
5.64851637235732
4.53630215907134
12.0055663686381
20.9905979819234
27.2255379166151
34.9152211256119
40.9024343956948
37.3430482148371
30.6351785955996
27.3431849698368
22.199296487586
15.7526196976162
11.1768254813163
5.04685281242375
2.31813663570082
10.5112366512992
19.9540318682416
18.3432622865756
11.749593473009
11.9063025586826
16.9981131169787
18.1892512838733
15.4138976611859
16.4573391150438
20.9902003733451
19.4417085428452
12.3273804674025
8.63436379156395
8.2821603998322
8.40107405589185
8.88548916185151
5.19973408724292
-0.426219283524329
0.739633832537332
2.99280096211697
-1.89850295767283
-5.41813621876059
0.15127689618525
8.77620763903695
15.030498355436
21.6471550492686
31.6161707122858
42.0887748417917
46.4404793674595
46.3248505868026
51.6210355313869
58.7470448908189
55.6586144096191
45.6426789507186
35.2310727880468
23.2102106428688
14.6756216320771
12.5925373155133
10.1983079342389
9.22022208482467
15.2676915026443
20.319593634995
15.254426246359
6.93691311715922
6.86285571019793
12.1953219271135
11.0426344297512
1.84053168359167
-4.90534583576002
-5.14825158216763
-6.2149212138839
-10.3963411627333
-15.1044825116175
-23.3889564812494
-34.3998022227061
-43.435618634495
-53.3724251178341
-61.2185160615209
-57.1563967569056
-48.0788489497268
-46.949784298957
-47.7050480011666
-39.3706931781604
-28.2702946759434
-26.0458876077738
-30.095550686487
-30.4262388485955
-26.67762080479
-26.5790454612657
-28.3399907625817
-22.0804628195731
-11.0255123309474
-4.11190210679159
1.72049063562742
6.68852994873284
6.06206463338258
5.58778920834055
5.37832646695604
-2.95786930514455
-10.7363851948316
-6.23383180796981
0.0184664249752411
-3.84418956556544
-9.62120217813357
-6.59802632154608
0.245810916911813
1.70753198175032
0.750247385528187
5.27634065543773
10.6985614597144
7.38062859098127
0.854584335262662
0.137818331354424
0.522120715875329
-1.61241338601658
-3.74471549008696
-6.47233664829436
-4.90804103652418
5.0233924163578
11.5007484967146
7.22106346375607
3.3325412240724
6.73999661411928
10.084918612815
8.69238426885836
8.38639136235129
14.4647526977712
21.7669932743747
20.8837446903738
13.8712494592169
11.0052897576798
11.5801626446179
9.84279149331246
8.45555767049041
6.01117531257719
-1.79278266761714
-8.94355928289684
-14.8802507710977
-26.3823552718065
-35.6153508380367
-33.3572629746987
-28.3123184632649
-27.4795247330854
-22.896261102948
-9.83852817393087
2.09857558055808
3.4573773108149
-0.24075054980168
2.57839095470026
10.0057735516088
12.6385536867284
13.4602457294263
17.7073920717505
20.0651648391798
19.2692299533281
17.7288682599347
13.8479093367261
14.4003553647078
24.4412661970216
31.0324758348542
27.2091638150951
25.6492477425137
33.7008510118151
40.7051261648897
36.2980327942138
26.6458398780989
24.6741157972626
30.9593160194562
35.0489072536286
33.9949722337743
33.087930391799
29.694253304409
22.1100613820805
20.5220089495671
27.1684677253253
34.9231135263533
42.069104584605
42.655499337368
31.8124122815401
21.4157017534256
18.5702288800574
11.2844441561579
-7.69181618873823
-27.9631803189638
-39.1858583221397
-46.1968034727463
-57.7078268585886
-69.0112571458749
-69.8460638688532
-63.2066233554084
-58.7409356887655
-55.3949568051181
-51.0866634033678
-51.2683628195915
-53.5077708926511
-51.6956404898363
-47.9917832300546
-41.0019363759673
-30.9459378748255
-29.9178476440727
-39.3603305324582
-43.2286850023098
-34.8947281865439
-25.4095748812418
-21.7070203871237
-15.7839023154883
-2.16813782036004
9.95061918413392
11.7517045239404
10.0662992788675
14.726671206714
21.3956803141128
25.2501242118959
31.3858338034944
38.0966642084074
40.4730750149642
42.698452264642
43.4904405917046
38.9152465995078
38.2627623867303
45.332069902965
46.4080909546436
35.7003623362528
26.7444328573747
28.7341912767367
31.3727901023086
23.5607112123511
12.0318717862052
7.7306199146868
6.00208368631461
-1.2768090265626
-7.39680718381512
-6.21242635900074
-3.48915010097584
-1.93158986305208
-2.42766630261456
-7.96864352686164
-12.8791268885538
-13.8824347944182
-18.8199445713052
-25.6537433578429
-21.7498251706293
-9.4119957427291
-5.33565792160182
-14.6182525648026
-23.878003945406
-22.9655756306624
-19.6195422672623
-23.0752546213802
-25.7234188229213
-19.0160880190098
-11.8118491404585
-10.9942410971794
-9.94934004188062
-8.82386903104461
-11.2253837685127
-10.7871637414748
-7.31730326408339
-6.2873328332756
-2.27943518972696
6.36473991802579
7.83334650455304
-0.593899362671763
-4.27055878839432
4.5491559860761
12.9764989517725
9.29391759789015
1.62412412547918
0.969082109194859
2.47148280112044
-0.453615460935135
-2.31515649453366
-0.894334660333552
-1.75629674411214
-3.93197091066768
-6.59198533851507
-13.0111868487091
-16.77858859953
-12.8733979456691
-9.50052539674367
-8.29410732566976
-0.330965207135595
12.5024929642683
16.8364983047261
8.20006300834903
-2.42350443983242
-4.50722969628591
-1.89094702396264
-2.45806455029345
-1.97474524174688
4.72655161302248
9.45246210699381
8.54055614485341
9.69290882910434
11.3254074917937
8.90580551206924
7.39011455542609
5.75565817530947
0.64571077050103
0.627381973954078
8.79358247530514
13.4856370951711
11.0647670659012
13.9254509515449
27.002989191324
36.8585806871869
34.8488159712159
31.4541244675692
35.3989306871949
37.9381930663706
31.0789910276983
22.1149816782406
17.0154471853836
13.7926075757678
15.1907413651107
19.522332855206
17.2116548023076
11.5962537500136
9.98702037467467
5.84315511158661
-2.29976990463469
-2.99868665288601
4.71139686745104
6.93241840544673
-2.05838578426251
-11.2801607993399
-12.0674172382058
-10.6349695748258
-14.0288229039457
-16.7273853121029
-13.7030909098082
-11.5512138506559
-12.4467340478954
-11.2817405109939
-11.2081958483227
-13.484975125791
-11.8683306753585
-10.3256054343374
-13.3910990553505
-12.5710369197133
-7.29196630260114
-10.9055481750267
-25.392380631575
-34.9279301537414
-30.441591704624
-23.0356954093444
-24.1939474480705
-27.9844294511741
-25.3639581632612
-21.7797366633888
-23.9434095409092
-24.9216514342373
-20.5183770163549
-16.1096646149322
-11.8714682860554
-9.48511230111718
-12.6341010987719
-11.7103160196183
-2.36534888084532
2.58032355676951
1.06118530401948
5.02077827006342
13.5546970840665
14.2120858822124
6.39469979961221
3.096236262557
10.1983406688468
15.9779632952949
10.1849798954438
3.083543164912
5.91723952349293
10.8950363337714
11.978703946389
13.9301229583853
14.7812044242609
13.9617262697572
17.4824998971364
19.5090935663489
13.9447829169419
10.8473702920948
14.3583889654664
14.0944821512947
7.56275517926766
4.0351561654327
7.15322344356212
9.57811481114118
5.28866289757797
-0.795042830855316
-2.14209514743666
-2.6590567237886
-6.52435873352817
-7.65619824854923
-4.4329572563417
-3.03133533085749
-2.21812126880591
-1.44636538442478
-4.37247760365568
-4.58251957789186
0.55168396010807
0.756229668798245
-3.54882819232667
-1.20459393311992
5.59918382798024
4.0017163268868
-6.63915204805159
-11.6763378964938
-4.01389332284676
3.46689295238059
0.101521609822474
-4.17052683523095
-0.493299889006809
3.545828493613
4.68440116307157
6.74838966825903
6.41724545793298
5.22200194880333
9.48772368429239
11.7522141157187
6.43368877131787
4.81773926744605
10.7541651780164
12.0851178753209
5.88125680775194
3.94726123665684
9.45451803246082
10.7859148159857
2.4303675427567
-6.41397192874937
-9.10283348953118
-11.4148579381742
-16.4921628551974
-17.6084800222134
-14.5373359312564
-13.4719969722112
-12.7160552713142
-11.7116080868517
-12.9306732328591
-10.4556674631674
-4.45157434502632
-6.01914675365968
-13.3585794696304
-13.6566716455984
-7.21305206807212
-5.22217562495084
-10.3460218382981
-13.5509630519545
-8.34716735927609
-1.65175179504006
-1.53650587215923
-2.02055105589068
2.34043327859555
4.53795680849237
3.83431324953517
6.89156241598626
9.25134542834896
6.83962366804234
4.36556327977857
0.0700570476681368
-6.35190060813719
-6.09680863597892
-1.52171042713761
-4.79787996795636
-12.9115612880463
-11.4964883367255
0.0587691433282267
8.34310601834976
8.38855093822787
9.54006938609743
16.0607345869591
19.5914558878488
18.085505747723
19.3739801385436
21.2408389163208
16.9269484942162
11.5035988488201
8.29356581508342
5.44498191882995
7.23823666736986
11.0432700649112
7.38369948476527
1.9948558301129
5.51505216441914
11.2364685343443
8.74101177251405
3.02011160471455
4.45906212138561
12.0458459977312
14.8885041492253
9.82278461395356
7.04454259604509
8.73503976079416
4.36954323310428
-5.05008641849519
-10.3965321815857
-13.7684434083275
-17.9542905475697
-21.831602476363
-28.3221928428019
-33.2175419348125
-27.6748675191994
-17.1766274342229
-12.8746921244241
-12.1702345232998
-5.49366778374329
5.14590110232679
8.48474958446091
3.406796828964
1.4990437897499
6.50987626099733
8.57321989919381
4.99479969896807
4.0926348941892
6.12699627174513
6.96164850336376
9.85719891565834
13.728271842753
15.2835898226885
19.31089652107
22.0167766789979
12.1761082792669
-3.56459024674306
-9.45849334867977
-7.03320717060363
-8.49750318647886
-15.0930212472066
-17.8714580160808
-14.0453772372618
-12.1750258784319
-16.5851820901505
-18.1393653115063
-12.7167186079534
-8.02645833292393
-4.54466052664145
0.721018680972175
2.19693171040868
2.00681593849518
7.00017819964345
9.26804337328787
4.74450650277928
4.08335900047848
6.59435530944215
1.63999765453603
-5.08253773104773
-0.850155002471598
8.79660201380423
9.00838211548665
-0.0309494270991411
-5.13416575257637
-2.94147358557357
-3.63015140818439
-9.21106591126684
-11.220729605406
-10.1258793613568
-10.0899523180335
-8.35973501362577
-7.43250034018699
-9.11481996479482
-4.87153367803335
2.54134642251159
1.43750024980036
-1.63274205821136
4.5083674064884
11.3026048188926
7.2354444695114
-0.950638451243438
-0.600616858933036
6.63965569138664
8.70167606567037
3.66493800587332
2.46657851723072
5.95396175194036
4.09585444268281
0.35853268184679
2.85734882336642
6.52767173730363
9.12588737614194
12.7816395580821
11.6053119232618
7.13610140052496
9.40835043675793
13.1498123408347
6.23849602043314
-4.77485090342906
-4.67506668533808
4.39006773309074
7.61086053180426
2.17218008141976
-0.64075722938099
3.05290075835718
4.7528123918605
3.39050833220252
5.60661194577304
7.02885496564715
2.5951388818744
-1.88102452690955
-6.35543813802832
-11.4756711740439
-8.62029617509592
-1.45377970494351
-2.87518912548604
-8.04064251262904
-5.11813074544051
0.396068109409794
-2.34168482305994
-9.05897814239338
-9.26935585436496
-3.59257774377731
-1.68413692603114
-5.16201736959276
-4.89791551157317
-0.703530018813823
-0.412593813545508
-0.888966388546178
1.70082846846601
1.87064437425285
1.12859786804854
3.5132670250927
3.16405030881502
0.846141017909952
5.36781996856478
11.2979327559546
6.50664688380139
-3.59396886132
-5.30415280004892
-0.0192324399739281
0.930158636514539
-3.81915307354777
-4.83171770602523
-0.502454811009456
-0.797490935787198
-6.53973192473997
-9.37517966273832
-11.1872152764392
-16.0311565036429
-19.9112530811414
-22.1767553569703
-21.2868191097914
-12.7857650244641
-5.9958271189486
-10.098874387428
-12.6877551018892
-3.47462093977051
5.23814882741499
1.85539810509601
-6.22662121447536
-7.85804329450127
-4.64375054776677
-6.4277697278108
-13.7153441164813
-16.4404917864859
-15.5131499599919
-20.0532963486675
-24.8763498364019
-21.9205433925696
-15.7943852018428
-10.9879854207874
-9.59196300940501
-13.1297172467075
-13.699939690308
-6.48055693808447
-1.80135387277684
-5.372381295726
-6.58804488093282
1.96761003229225
12.3323414270127
17.0421536335887
21.8243534611133
33.8925306768216
46.6130112796469
48.6419787390335
44.7730094680494
45.6737108257659
46.9714902817133
44.5254068828638
44.2900941985757
45.0276265926725
44.4274623793387
47.1556015318173
47.1318678305681
34.4221430684992
17.793658590912
10.4776668556383
8.17477296990047
1.45846535884271
-6.97908451303069
-10.2973609435082
-9.88354074371866
-12.306517648879
-17.194989004183
-17.3310359504819
-14.4366846144445
-15.3132349716851
-15.4366786514864
-11.6044164070584
-9.67645178416138
-8.6322862076861
-8.54817043128346
-15.9890029910267
-22.1289134433619
-13.8425430970226
-1.40127006326668
-0.246867228969213
-5.27237232679034
-4.84107045805657
-0.194512433039462
2.15470929915689
4.44379326047139
12.9824766020642
22.9217000781305
23.6236526977379
19.2104281738979
19.0800573874471
18.1207175477692
11.6397837198985
4.81221751031853
-0.69729838822149
-3.06944157876877
-0.220146181596804
-1.04957718986171
-10.239461616899
-16.0547399489962
-11.876236195614
-8.23911773225638
-13.5391071751819
-20.2772117828356
-17.9486592084428
-9.82481725762176
-8.05384094722832
-12.7286535298407
-12.926310494779
-11.0271080842183
-16.4942267994613
-23.9433651710239
-27.456207080407
-29.9551509753411
-28.5937355582658
-23.8872572277009
-24.499977287398
-26.2895323575603
-20.1653931881928
-13.1306381852063
-13.6033481138101
-14.0583441638792
-6.14688838194648
2.5749856978801
1.63231461500087
-4.09738501489153
-2.80907358902947
4.01911234086131
5.77471262308421
3.63545868259575
4.64746595254048
5.50290336047529
4.18616153167304
3.79515781749318
0.948176299345024
-2.67357238627464
0.893472325524223
5.32088627766161
1.42513156073358
-2.90967630050111
0.980181490198384
6.82546987866362
6.46563830870989
2.90562050179658
3.01926196977126
5.50175714253962
4.16376932915665
1.79059221753309
5.51873414476392
9.47411313432511
7.20741137047911
6.28660326634552
8.12532444785607
6.92162305377238
7.4033859592433
9.46452720619029
4.89157825785628
0.130260646157917
3.93633759911248
7.08855504188695
1.4298624459684
-3.28877886195964
2.13996554291978
9.79910235382165
8.76531189687863
2.33329742569229
0.802886318738383
3.61040534008426
2.27436546218557
-1.65768501691681
-1.41863570755297
1.78112801374664
6.80568225435982
12.2804063315756
10.8637614238755
6.21303135031087
9.63259173666081
15.6351226287443
14.6457015818257
13.405125392373
18.4027001754744
21.5654009897041
16.1934531368796
8.63832618352503
5.63359592754273
3.15146527575103
-5.48500460609208
-15.9629507523161
-18.9656614509342
-17.4345176040719
-17.1245212138186
-13.407091751901
-6.74068682237671
-2.96535858588765
0.779138570238746
3.74397892263744
-0.367996334392483
-5.32919427124104
-3.20576418086618
-2.16269971429883
-9.63421037179751
-15.6102305456219
-9.72873898580852
1.19528426214964
4.97667340523854
1.54473949331112
-0.796098891042319
-1.08412334904584
-4.01740806374336
-5.79565864986412
-2.67598212885533
-0.215847321385939
1.38662591979254
3.93336214062508
2.31496137451013
1.134609298467
7.33200594026644
10.1050366496136
2.60173751090603
-2.49500843652829
1.44671462730583
3.30083045769834
-4.01602478118896
-11.2645609591935
-8.24015430315849
-0.352453903655464
0.613993638428278
-2.36800443622646
0.0533768408284041
2.5327278509309
-0.294748635838633
-0.66788756256685
2.17485582895701
2.11502899910421
0.813123232803886
-1.6520382600013
-5.69849476101596
-3.4745027573129
4.66800600209671
5.28707891137143
-4.45892285843151
-10.221030143346
-3.95559966887349
3.59326962953749
1.89345914115819
-3.4042238585886
-3.5249629391449
-2.41321554626769
-5.75090966046014
-7.27290355070867
-4.00931579984174
-3.39052933513684
-4.43545212104536
-2.84006043001688
-3.6338669157999
-5.18022811576671
-1.06854808795644
1.94386288735413
-1.15156079761653
-0.375040892971583
8.41668143620028
13.1940578829018
7.27273256059815
1.45377730428229
4.95010860085096
10.0122531225385
7.02567032298454
2.45996285902187
4.99062951912177
6.97860229305235
2.29310091506957
-0.677853704142992
0.118047851585623
0.563049848609618
3.28498030270332
4.10054022223159
-2.8043052268511
-7.46541565750618
-4.36148349513111
-5.11511498374615
-13.2560283709491
-15.6876468181011
-7.57892977875641
-1.77363596070947
-6.37349379502282
-11.6382679879061
-8.03176811862444
-2.47554974912583
-3.35962559151429
-4.89405489857518
-2.48419729548178
-0.252558978297325
3.77718631621058
10.175880908855
11.3666379525144
11.1657834033104
16.5986489128455
19.0811501702362
15.4477197193191
17.4526314339966
26.4785449327865
29.5411779241408
21.6381952854662
12.0613210809482
7.78176749190085
2.19176527635506
-11.4853820721146
-23.6868714768346
-23.7567842504997
-19.3909792790326
-17.5510456292163
-12.6754802648636
-7.25670600349703
-6.42805179175024
-3.67398059514558
0.535278823995069
0.0297427696478143
2.53191945519582
12.3449299570279
16.6087268199681
9.57454347702532
3.1165512358699
4.54588235852817
5.8172740257802
0.537543748910296
-4.97285532747733
-4.91233095792221
-5.34687722027434
-10.628842593615
-12.8633831874234
-10.0804324390304
-10.2769718331022
-11.7213835831979
-10.7810239635555
-11.7047816483078
-10.907385234122
-4.8999468972335
-2.88208353870239
-5.90633357790198
-2.94183957277357
5.61090298436969
8.22443981156675
3.03324408051449
0.773325663358291
7.4254843171108
14.3537169999054
12.8439668714101
9.4364643179692
11.0248978877864
10.0086808093501
4.4494064801075
3.69996660806738
5.58220537582536
3.99343454311692
1.73362461965543
-2.21131222413843
-7.05394222744241
-4.52758154916343
2.342188280628
1.20344558649666
-7.33321213610034
-10.2856656550381
-3.23678472653308
3.20678138750784
0.905185726756519
-3.61283991374229
-3.39501063893875
-4.57633504255558
-11.2214760696842
-14.420153805272
-10.4845275416542
-5.59276703496958
-1.019370043795
1.40447996000534
-2.05593398622443
-3.69516745137602
0.661155029024676
0.394777610239346
-4.88967259022857
-2.55717657156485
6.31774330577592
8.22498299182078
0.990540392495751
-3.44612063612529
1.85873200813121
8.38213265067492
7.29558299636123
5.1849665194001
8.7440849536744
10.496896308279
7.29562868618736
6.05713926424359
6.89877008701798
7.95817195895539
9.30420592294148
3.06414067310653
-10.2569842382449
-14.0102132379263
-6.44413651270621
-4.40566775023587
-10.7974580437884
-11.5401720156949
-1.42956413401298
8.27302527793662
8.70207577876205
6.25469933970236
7.37785386102471
5.61976058072881
-2.13960399387119
-7.14974482309631
-7.86361516347557
-10.7049876629228
-13.1215128386662
-13.1141017162423
-14.3657644822364
-12.1394327725458
-5.73101129364427
-6.88135817776273
-14.1212063982328
-12.1128012210014
-1.22445697538036
3.1600150922463
-2.63931871054585
-6.69050407994303
-2.90901992485588
-0.383832167048546
-4.61958644460755
-4.75942705733509
5.00239946945965
12.452063837392
12.7968696142435
14.2593941383049
15.8026130429817
15.3646063663573
18.0957797364692
19.567794070202
15.0594520288527
13.5030582582193
17.5982954021888
17.1174752707582
10.7397036677789
8.32545299493553
11.1285399835136
9.57106541536217
0.573651034816314
-6.48036678393444
-5.95609638654297
-5.26454789792542
-8.01553722785431
-7.5074289619809
-4.46417227673377
-4.46592801914051
-3.84570578871208
-2.15679106512495
-3.4765679968087
-1.09815333148159
6.47568103798843
6.66576745793758
-0.473245882878046
-1.66294699234259
2.34736707957949
-0.707367308297651
-11.1122466030787
-16.1426075529462
-9.92162917437706
-2.40350938536263
-2.66254621133932
-4.25703827081928
-1.31060760129465
-0.0717086756909919
-0.756183903677137
2.53154873532465
5.70958083362264
7.25463386273336
11.3195221021762
10.4767388181485
2.19065519014017
0.888907380705458
7.26837416824698
4.94797415612056
-5.47670289219972
-8.42205469968865
-3.31576505355192
-2.83455723106285
-9.15487867795458
-12.0937720583781
-9.22648471785968
-10.1143887060457
-14.8471826994739
-12.4595167267144
-5.21492583999596
-3.01609578528821
-3.17238275105079
-2.6951347585569
-2.8639750578257
1.61112773370628
7.53127500090829
3.00031245558497
-5.63593217886233
-2.92272274621466
6.65268082022302
7.53738329153567
-0.50696421050786
-3.60982152244692
3.01442319647092
6.57506092082114
-0.862376590301517
-7.06113102734067
-4.54064463335145
-4.10199764215333
-7.50124960387345
-5.71317882619919
-1.73029131720807
0.679584879037498
4.21519360883286
3.39256881989085
-3.32387768273608
-4.88826797571603
-0.814074480407049
-2.43608496867662
-8.80109941154535
-8.23114560335575
-0.0888787855389271
4.02748270708916
-0.188411620376539
-2.81675282274696
2.60365412629349
7.91429889668238
7.24031995068577
6.53042269468515
7.22360522901074
6.03778063604044
6.1038063649047
5.819834073632
1.46646345040574
0.540604988343148
4.13549113003791
2.69908877441294
-0.392208788804547
4.5386262432545
11.3394793403138
9.35627393978298
2.83787835227213
2.74713737824634
9.67452185925067
13.6230965090751
10.6470735531021
9.46904872013109
12.3563641565251
10.55088948076
5.49837418691127
4.18057939312856
2.58445069740263
-0.514489213340555
-0.481615924101465
-1.27664153048199
-4.1335741804534
-2.06590046918054
1.48793061559723
-2.79348153205274
-10.1475376105128
-9.42039912127032
-2.27550858397709
-0.113422002101834
-6.35912821426506
-10.8801387568855
-7.22971816454172
-4.13639573019795
-6.41115726404005
-6.44929241769611
-4.30426509950357
-5.2301885989746
-5.82972832473568
-6.04637072507625
-7.73484647051376
-4.8455885941904
-0.131103678117368
-3.01629810628391
-7.74332406868832
-5.52958737817404
-3.16792288599294
-8.38411726575891
-14.9933561291641
-13.2443592385399
-4.55275992678119
-0.534573001889659
-4.89414638787985
-6.79840256872795
-2.65529555433382
-0.871938346847791
-0.95117591403492
1.42135866525521
1.82224454177622
0.969086280858096
2.6276500331781
0.847574685254345
-2.969441935254
2.04988513124855
10.2010304847051
6.8206700371468
-2.80523684323696
-2.21186777762398
7.70602003299879
11.4645210294528
4.98670145938767
0.99605739976145
5.86748245262157
9.59130344973386
7.59814196297092
7.4584214781506
9.45618063248884
9.8350779070986
11.191216826211
11.1709426399258
7.87935377773765
8.79754198923543
12.2072663968735
9.06916131995713
5.32837966199733
10.5006292978145
16.8912356961189
12.6521971482346
0.487866573880037
-8.48634348829589
-11.1056656473957
-15.4710737425044
-23.0777377187215
-21.819506108496
-10.9325445049116
-4.27438744187328
-3.1982520594827
-1.51295639272416
-1.7870455463239
-2.48418064591985
-0.382871347668107
-2.54231382670814
-8.02108299587433
-6.53925760333175
-2.88665296423967
-7.83531373268749
-14.2191470198454
-9.16948253363552
2.55648591884089
6.12035617927642
-0.266155669138118
-4.02823840010272
-0.437092420104189
1.56247488170866
0.130677688889223
1.8203776572873
5.01227180819943
6.95017511920327
9.82445330302801
10.3995905176031
8.17867529574542
9.10273989796035
8.63753950008674
1.15605246102789
-3.2998878157992
1.70877492701759
5.36975140452566
-0.240922415932957
-7.7982167162358
-7.33198995029278
0.0194574883899412
2.85456363507005
-3.03579439712616
-7.88242527871578
-8.4138200843648
-10.3241031175733
-10.15887404347
-5.26966037879939
-2.31689856222429
-1.11610209041998
0.455203182056052
-1.49715327215123
-2.41814272513138
4.09482842755256
9.11563219784927
3.66809959783769
-2.82315073045895
1.50308119766685
9.89905904189124
9.25198835643429
2.84391291389456
4.05639293290285
11.9223201373824
13.1993279036438
7.83607644076716
4.57096836147945
1.21060308103422
-3.39107359791004
-4.35291806341937
-6.37344695462962
-10.9624511936118
-8.42820757703963
-2.35045918548745
-4.78190511127027
-9.85364133349772
-6.26653567654659
0.552756536898004
1.05703884771491
-2.36796991637537
-2.31388300413021
1.60752586936193
2.31245805242058
-1.06340483290434
-0.524582641354363
2.84980941147279
2.01468779637225
1.07844864957262
3.31873803533661
3.5024714198263
3.25496485718377
4.27766670793525
0.134149925634242
-5.20505289875847
-1.85409914602007
3.05751357859456
-0.90577373255718
-5.60713683884029
-0.338442520417189
8.20749219293243
7.65953433325455
0.0974664940996148
-1.65464024619846
3.18057196077401
3.01482864769605
-0.92871973647565
0.511716565802975
2.68970910382818
1.04620390200733
-0.218010972124065
-3.04094522115342
-5.77306866487837
-0.6495930749162
4.38742247818455
-0.8978331827558
-6.29691770515922
-1.57021687672393
4.39940042802119
1.89304893045374
-3.13959674024124
-1.09699050477612
5.59208904439755
6.51629643791865
1.5555043286943
1.32335092701807
5.00871110525843
4.4181706937983
3.63045066001192
5.40817149072971
4.55405770463895
4.3701854652578
5.63523154725101
-0.00620087029552852
-7.066662844286
-4.5525179886355
-1.06828104428498
-6.78866576889294
-11.8899716080024
-6.29905231988741
2.30356787545364
2.58667779422478
-3.32194925535189
-4.56830602964361
-0.709405408991755
-1.23151467794887
-4.52063355459075
-3.27800872089222
-1.89455814312846
-3.65196079955288
-4.75288325898889
-6.83234504606536
-8.32754667058556
-3.55868686892688
-0.113008027692453
-5.2379577962112
-8.87716794192907
-3.98772434783378
-0.133902521885786
-4.5346853926054
-9.72363543550932
-7.23778208368161
-0.788818186244104
-0.0166321651516163
-4.17097402243409
-3.6934292289506
0.327403250197233
1.55241894293547
3.86377726588876
7.53681316887954
6.65720836308808
5.38442655928709
6.96145673459869
5.70804794122096
4.62847655516936
10.7445514417193
16.6585585534753
13.0169192160328
6.51400826076213
6.87605328056331
9.67381973718555
6.12446938738353
-0.594186324149698
-1.290421367366
1.44474506152067
-1.67212097458416
-7.15678432280243
-8.64485720664397
-10.7468507543898
-13.6091069003426
-13.1672550634556
-13.0066237205624
-10.45623149609
-0.0517416143215818
7.20331998005935
3.36600432405857
1.3228575497756
9.57846935151006
16.6861840668787
12.0500635925231
1.62945973948564
-2.71955269578536
0.354609367856966
2.34646079061201
2.0162635804316
6.20414473913674
11.2099937292129
10.0851983651754
8.18259042200148
7.35783008603541
3.37969124989619
1.62325201213746
4.09100377622691
3.5288956089435
2.09752161670184
4.41621775460569
2.83892726551778
-6.74921323518154
-13.3308112942971
-9.22741927872639
-3.33650339471984
-5.26668545852
-9.12826133510316
-4.5742984913684
3.23289948324549
1.83178038405077
-5.19724127276582
-8.00968770068497
-9.04481490475601
-9.69758457702622
-7.79914890730521
-8.21888695655138
-8.98299537895226
-3.27754059357743
1.58509386465027
-1.16264047906639
-2.79188707944204
2.1644016472598
4.51596668833753
-1.84550646007776
-7.82330091400096
-4.68509131541572
1.02914590260681
-0.108078336132309
-2.8473353988295
1.02004374454117
4.64772163242502
2.69129762522451
3.09467272535217
5.55886273991518
3.98231055329322
4.02271343924117
6.490017284268
4.17457850016866
3.39402199405455
10.8744841653174
15.022009428949
8.55261089799697
4.13084306144735
10.602328481208
17.7470700813152
15.6350293975108
10.9387356289311
13.2408852238502
17.0348211855018
13.2367677510221
7.51497119622075
6.25846347828849
4.2231970398588
0.336952077163778
-3.15384295366573
-9.46025175690877
-14.2035092954465
-11.9505283909751
-11.8435287184317
-18.1212565434001
-19.5893227488556
-12.5842364484862
-7.78075961556645
-10.76331250143
-13.5656497446493
-8.96214396135319
-2.79893567435213
-3.19223077026134
-4.82019866584025
-0.465035952294351
1.85506896718525
-3.09809957134772
-4.74975741147346
-0.342601345886066
2.040619246004
0.901564828245119
-4.06870341090267
-11.860195699801
-13.3908292020916
-7.54417134534922
-6.58809556352956
-14.2587865901389
-18.1614994701825
-10.3666265848144
-0.934407240570075
-1.00303334854794
-4.50777133665575
-2.00392481934797
1.44232746172328
-0.0129124642377784
-0.290043849255683
2.03336663034027
0.57443609874356
-1.49281228442392
-0.833271708487746
-2.40953658530197
-2.35250230885598
3.13684661607653
3.60218528621548
-3.11137896736675
-3.61361602400233
5.39077338500636
11.0268835519124
5.81125585369078
-1.2306581834771
0.29057271308878
5.10269696092278
3.09219813930415
-0.51109757956692
2.61443402958448
4.95351396495628
1.40573125867794
0.584549375894675
3.76881344721384
6.93402038705526
12.1552127248494
13.7507598118422
6.74472965577622
3.33098274305854
8.72552517738483
9.33547476834322
0.771219421822495
-3.52469305294944
3.05444022570859
10.3780870541721
9.96361922441645
7.07673699671274
9.35455143992078
13.2408836912858
12.0905951221927
9.80355478305181
10.5780855029943
11.0083358773906
11.1592010809061
10.1806450285206
3.71546150803899
-1.81538870402424
-0.554928508511273
-1.45019416523977
-7.8828950956344
-9.26770181822303
-3.02708282168168
-0.316912631667376
-6.68995627358252
-12.9676827268514
-10.2866152650785
-5.08158459431823
-7.1017287255588
-10.7119121053653
-8.13013143063483
-6.49488996997727
-9.29672652441209
-9.04524378425053
-8.03123623380131
-9.93438906868029
-8.47876324900422
-6.31316855785054
-8.49670540150606
-6.78983891878914
-0.375724572526277
-1.74907677402911
-10.5808756979245
-11.9342467633877
-2.27532820181165
4.68417418197271
1.18886617736871
-2.29515813711835
2.49015210453637
5.78624838915401
1.02868266620648
-0.579387371562258
5.06517998971887
7.59931188416761
6.48379111073444
5.99479934843152
3.34555987452776
2.62210235328252
6.56535104104308
5.10207151942178
-2.29349812061411
-3.40871258580512
1.9402896315157
2.62976063836823
-3.70135754698392
-7.85745098063566
-3.19767995024957
3.02519749037708
0.699748036046643
-4.06765766807505
-2.05417207928352
0.0523049045069594
-1.90929584764829
-1.48874860014143
-0.646750442753385
-1.58147283731198
1.20886051974827
3.54347941052727
0.454417814473254
0.244157461521838
5.11600877903452
5.28420407227138
0.0483681257548901
0.107564182872176
8.26243121383011
13.6516399224278
8.48524459033596
0.723447455136756
-0.28962306337676
-0.0108552182399021
-3.95307110017896
-5.30679339814701
-2.59394209193578
-2.798535879457
-4.76310778901561
-5.50762341236579
-5.23923301859871
0.398525434297657
7.31463010689585
3.96230111034162
-3.21894732432935
0.0679508533473
8.62456774597697
7.88186497627643
-2.61033403227831
-9.78829192873008
-5.86177380838514
-0.0633394317743452
-2.84007734413111
-7.4012877769697
-6.30354524990889
-6.19672628430157
-7.6130488467136
-3.74339171117867
-0.891599432627863
-3.91260904911545
-5.10188721437761
-4.89857251160528
-7.24679656542627
-5.27623341186505
1.02888900518757
0.0961961700228922
-7.56149158796763
-8.86422310104881
-1.50583021039897
3.48940289651271
0.958633055122352
-1.08736751134142
2.87031590156685
5.53015070005285
2.47836103418242
0.871610079832131
2.36344525601974
2.5108515022243
4.12110117458505
6.25746986752049
3.90818491556906
4.02936627403516
9.54048878006562
9.48866700813212
4.2385133619647
5.99404302979025
13.8305240886496
16.2709726078372
11.1155028970169
7.66018005071441
11.8840384942485
15.1691937600873
8.84629720526331
2.66605203231497
5.73205186330641
8.92894232453932
7.46356438731532
7.34647655102308
6.45874508880889
1.84426634784821
-3.01367424205155
-8.4726709094825
-11.8275429185534
-6.02778312838369
2.86759385188413
2.2384786696902
-4.69727048215772
-5.22650973187697
0.226364624381299
-0.270349240146444
-9.11280465249128
-14.7832997888934
-12.1007368412426
-10.5787664302543
-13.8729318900164
-13.0355748156783
-7.07767658665754
-3.0421788472463
-0.865413084459311
-1.15812315531468
-4.83913126790517
-2.79133854390742
5.20260914444587
5.65151479694441
-0.447198253688728
-0.282989141600574
4.63878417670487
3.98095442353386
-2.08522720604376
-4.70293615943474
-0.171260978219258
3.41964776535958
-0.564415079527962
-4.18161226625696
-2.12803282383483
-2.06870019907506
-4.32999353533315
-2.88669465347725
-0.96359253192983
0.471899638024015
3.11827696420995
0.0212272267437006
-6.5822224354037
-3.79093270422241
4.04501518911417
2.185145910262
-6.00278220179853
-5.44093940808878
4.85940452061334
10.519269808512
5.21674835159928
0.608067799070821
3.77885048828002
5.14912287200398
1.61403001961025
1.86232758057624
4.16303313259085
1.82730121857017
-1.97064035019859
-5.61310209272685
-7.81534988519483
-2.04288511094487
4.95786572107143
0.838732518039042
-6.26801289889048
-3.64718119977487
2.5889496503426
1.35590950712659
-5.10258288811595
-6.49513268794598
-0.748503074975672
1.79763654426128
-2.83603790093302
-3.31804151148241
2.95291083990476
4.01620898460459
0.497341676805236
1.86221475662337
4.42495401741583
3.69620210695723
2.14750065423831
-0.0238369458330428
1.53744416349676
10.4153012157323
16.1880465972881
10.2327205631357
1.52801599965508
1.59097720485154
7.64444464889254
10.1917405084884
8.00732168329337
7.63399956945745
9.99270993432267
8.09345472103759
2.49131806876723
0.910472887971668
0.668882758381674
-3.88052322238645
-8.15137135953153
-10.9188473385719
-13.8314419580365
-10.711055304669
-4.48549635079101
-6.30635519305238
-10.5851299850201
-6.34434155382703
-0.489574678979643
-4.289487531453
-13.4483291106592
-14.9281333553791
-6.69289209297886
-1.23217391017132
-3.53545258027076
-2.85903172160072
2.57040045193712
2.59931226371162
-0.490209724636317
0.531005294060013
2.35189703908302
5.53833772760273
11.2425596322298
9.70333536493978
1.6797038312469
0.280168937276396
3.36860856522033
-0.571185282234645
-6.99559957594076
-3.07456114361184
7.82490530730399
9.94307549230378
0.509581503319976
-6.33029482973852
-3.94380437615289
-1.88528391558227
-4.16867040286039
-4.27599806149425
-2.92973910117237
-2.7745673369094
-0.577828970698993
-0.295903619662979
-3.48224358877646
-0.76380688811787
4.4239293291369
0.409868338005444
-6.17464865881531
-3.57984106387116
2.01979488423903
-0.578327130386055
-7.6921426693712
-7.54918542627776
0.349696835557953
3.48289254657856
-1.71644118857831
-3.35971296068179
0.967680988410716
1.88332290922484
1.29734363670146
4.87324225391518
8.93991545979311
13.5092798285768
17.7341163465547
12.6288149761098
2.52046182835236
1.4479829113026
5.22563060448896
1.5102755439049
-4.42144629663692
-0.978690503619563
7.36470210036108
8.4193382958065
2.59886863306691
1.18996323247369
6.12048388532329
7.08895622846411
1.93288143669037
-2.35322551982437
-5.0515556211678
-6.55910936197944
-4.60606223419769
-3.72500004607028
-5.66153117220188
-4.3685551850081
-3.51888544389812
-9.87341597850479
-14.414759827812
-7.62699563909033
1.21659371755785
-0.483062928572861
-7.67216870649384
-7.48348537659435
-1.3897000340576
-1.74469240017586
-7.66415142125038
-6.02921715524082
1.71630961566106
3.82415015606603
2.47457986938386
2.74218696371562
0.79713220108958
-0.193366250141738
3.16311305845391
2.0369052555081
-2.54426863822975
1.85557614513381
10.2267880950848
7.42855981017637
-2.96990593084488
-6.15623305650788
-0.741272256821012
2.54212909904596
0.169435264055491
0.0569472415463529
3.95854574895547
3.53256826096831
-0.218590294748667
0.74439054856165
2.84642989858036
1.32836438878539
0.451025075705148
0.210773728573835
-0.0342904149534226
3.40647980332146
4.34637130004839
-3.72711109835261
-9.66348425610849
-3.4235927722507
4.82711421789719
2.80580123176827
-4.25579713845349
-3.99411115228167
2.86455158221694
3.79468009387257
-2.44820527654817
-3.79960278374777
-0.860432074961728
-3.14617793640035
-6.06783396819416
-3.90769182691737
-1.03848674164442
2.9355486794698
6.41166955028759
1.64801669981948
-4.15289767593708
0.171905029664727
5.23068134811759
0.191952315807025
-5.46687601388574
-1.13047578644921
6.00255545069434
5.17084639173084
-0.632744095355004
-0.932769608132725
4.23785137377664
5.6779792833605
4.02292157864709
4.65264423053871
3.09383155634224
-1.22029234365996
-2.28830312501579
-3.44597994435483
-5.07116629618762
-0.239083882931425
4.23891589048762
0.299657892541513
-1.81196277619254
4.86306179646031
8.78371677597112
1.34661547978108
-7.88205315151855
-6.88713139873059
-0.0179868091655301
-0.530625035102658
-7.56723062699979
-8.45580083181409
-3.86291714267132
-3.09504325428489
-3.87497073834213
-3.77733284548218
-5.01330474412522
-1.7909130283605
4.66372052336008
2.97936011177423
-2.38688466537394
-0.427857125970476
2.08374804551458
-4.12800070673464
-10.8497535060243
-6.91542369509855
2.55481440246216
5.66153718174005
2.8046229448847
3.23638339827617
6.49854255032894
5.04569106972025
2.23306080555188
3.62426182899185
4.65693854658858
5.1099242006122
7.24802774903304
4.78055835870157
0.66717362506439
4.75745099853309
9.53858949949792
5.77585702062192
2.60916442625049
7.18185922852808
10.1749071804722
4.65709340611457
-0.629600803733156
3.724541128667
11.3082880833161
9.43081734445447
1.40918436789051
0.346189583805296
3.29629003159145
0.853657716799287
-1.78829938964443
-1.0588024979472
-2.10068484678259
-2.72390494432167
-3.20117864256587
-10.4004746900731
-16.8532991757707
-11.9099895935138
-4.98149491812103
-7.35647357266434
-11.4660995397078
-7.5579190357866
-2.19078554023303
-4.99150972854854
-10.2311136315855
-7.82560989583973
-3.17464465785126
-5.85358683996064
-9.10700252604021
-4.82000604331834
-0.494859915073412
-1.26361519630963
-2.94229291861899
-4.75920031718261
-3.14152714292715
5.58752716909754
10.546520161884
4.97074806876252
1.88767785600839
8.94561540254898
14.4117888727825
9.93284631578553
4.37970871372776
6.8959910219476
11.2784334244291
7.32179485559516
0.130734918267307
1.00970191561406
4.47903755834064
0.76830520315386
-3.48847565017823
-3.4029326708136
-5.04355448932662
-7.44167323740696
-7.86257121338575
-9.02332591156402
-5.89997551567504
4.64899848396496
8.94658802036576
-1.05073371017135
-9.95695453837541
-4.29918581674305
5.07368265389618
3.52277662656462
-3.15700362757224
-2.78216807664929
1.0799272155476
-0.41338330594879
-3.09826533523799
-1.03122419132204
1.21564289331378
2.01457902462413
3.56188680184518
1.60225882088242
-1.6674695710924
0.59136934943574
1.05561029006547
-5.84611465633183
-8.49972108948469
-0.815674655218821
5.37831353094488
1.1681937927994
-5.30277322826989
-3.54506700595496
1.55023125385104
-0.752853259196594
-5.77399085519001
-3.00193686384503
1.51716042180033
0.285917911625446
0.153911210857967
2.20334720846138
1.19140566865449
1.96553803636176
4.70986037390613
1.6233796092352
-2.58161126921419
-0.204083169309625
1.81717536848671
-3.13344755140798
-6.78376998366703
-1.63004338466791
3.79460175794261
0.170231508629597
-4.91702341568484
-0.997299019759589
5.45597560853245
4.47695841347946
1.77300768090002
3.18539628838745
2.97272912126415
1.08272292779104
1.44762159868577
0.861779377618052
1.51940135860988
6.4119257744602
5.91669843159272
-2.17751720642828
-4.65724430306868
1.60893132349848
4.43685092869363
-1.68938217201912
-7.86996504638601
-5.90437849786694
-0.910236905747055
-1.70940801510936
-4.24731845329519
-1.1984219009216
1.6941772189222
0.876537675486504
3.35209197788409
6.56200781054254
4.46115910482363
3.31206162814298
4.27189560399705
1.76664002398211
1.14255263123338
6.25670171257044
7.505957862778
0.259490548279588
-4.75532764689968
0.225451778352474
6.29274199882715
3.28118820416326
-2.96137551143486
-1.79618679690135
3.11364025850194
2.98926039797892
1.44330375599953
2.84317175138979
2.71250980023649
1.39020957250942
0.738939716329583
-2.51540597441077
-3.97526419710598
0.0953252031963281
0.578912963516001
-4.4560751949596
-4.57791439297806
0.251207880028793
-0.61095709743499
-8.24519393632269
-12.0520317859782
-6.04000708156199
1.62944923186255
0.918885552885425
-3.13751513640331
-1.50344280790656
0.428056186798628
-1.78338942927921
-0.134748046486925
5.07331040613284
5.6695154736044
2.41924001520313
-2.72555491395443
-7.59963317803409
-4.51595828621761
4.13495568222651
5.02038988204371
-3.22513189980502
-6.75958397786111
0.467662620434804
6.74489404734782
3.21715974707235
-1.51447480725122
1.59341718692734
6.19146548822573
4.78928418245453
2.68879637910036
3.17061263771105
1.20657135148085
-1.16148500080844
-1.09199157170239
-2.38165401923921
-1.6542494738827
3.20239626166852
3.4374203321644
-0.644168437781613
1.17015968443749
6.88209982786142
5.30681304273828
-2.90214694952304
-5.73572698643683
0.0774491517376472
3.2490053914408
-2.61485408207375
-6.92994083561908
-2.32240072915445
1.3423730182942
-0.972241362800129
-1.18524981454286
1.10592192794382
1.72190011314483
2.37451525058326
-0.21574151086627
-6.76788431661151
-5.83569378399628
3.48206336287984
5.64750798090449
-3.7207954925242
-9.80240726003516
-3.56765224024343
3.84796712111349
1.65799205908684
-2.55268320826998
0.283390513896882
3.63337198566968
0.944799180179111
-1.06472177630707
0.497298271723024
0.0801069140179897
0.201622760974546
2.22178231327748
0.367208347519245
-0.183291235932091
5.06168422496934
5.01406022390996
-3.24467314642781
-6.49507852795504
-0.14750092395131
5.4153059556265
3.17943438806356
-1.60048675416483
-1.7660209004608
-0.815651156785692
-5.48147500559129
-9.52841768749799
-5.85401043042285
-2.87332518682829
-5.21941080421959
-5.21487240431782
-3.28023951909779
-2.41567016407974
0.933977179711444
1.15470470347512
-5.75184545022264
-7.43910212836507
-1.50859212456249
-2.15735499936184
-9.83739906319835
-10.1485535935949
-1.2409189289844
3.54396293681106
-0.950440349933435
-3.76199208393288
1.42372681889637
5.16225099203703
2.54388423964696
1.94556544561011
4.35302516126284
2.90732400622344
0.0830864633054347
-1.49556833246947
-3.39899229229804
0.216406978257176
8.61958829815669
9.95011727348238
6.4721107019193
9.96722964487729
17.0427808969744
16.7309789606082
9.82159327650733
6.48045312454832
10.6435952131135
13.8763787883604
10.4984595728924
8.70194387439027
11.8836214652877
9.47677776363596
0.955844572626564
-3.87162200360253
-7.48004112124184
-12.5832430236413
-12.860713345061
-11.3732070222223
-12.3209875243272
-8.80422102413349
-2.38700350472471
-4.30612701670487
-12.0490552785892
-12.3312751316419
-4.26186784414072
-0.0485546254139058
-3.9502372275102
-5.93462001128136
-0.56029239967505
3.55466936694997
1.58870573226793
0.0648178584459707
-0.364480300911715
-3.4047052483461
-4.14788383920802
-2.9688928265783
-6.00400623636879
-6.62971461048392
-1.15028539136115
-0.299437407498094
-4.84119692007986
-3.53725738326355
3.32590184052155
4.86664670276394
-1.29545625282176
-5.88543119381217
-3.01408714891993
0.318148350149805
-2.85352649607438
-6.59582746836145
-4.98796601282132
-2.55269403111358
-0.658393789995105
3.81201704179179
6.70751361817644
7.21996177402207
10.1746203824218
10.1200223756474
4.27187655161638
3.37757409274217
8.11114214910464
7.03248369909733
1.8946592909861
4.78597360891931
15.0803994009974
20.0527319161372
14.9824101566222
8.58526016499298
5.75482151987042
-0.0185811189247634
-8.97041605123034
-11.8294553825542
-9.22817182488128
-7.15585003307399
-3.38497533895259
0.444682894173384
0.306489939026615
2.32239834447101
6.44043940215196
3.87794498366079
0.123419238465786
5.8238698834387
14.0885468917169
12.3852750168208
2.68181581308366
-3.46132543253686
-2.05502838426355
-1.62558953912304
-7.21726052289938
-9.86842368518684
-5.84408088287412
-5.02382503544606
-7.85878439981851
-6.75091263088689
-5.41129760301307
-5.89655936856295
-3.46968256497914
-2.9746717493153
-6.55578179645328
-4.51129704510661
1.99567473125853
0.566857322434776
-7.23807298630276
-7.55490401332068
0.860636594392639
4.3912823747842
-1.29906003579627
-4.15653038458001
1.04157683037243
3.6627599923686
0.26111647892267
0.315674288368156
3.49529312388312
2.55073879077822
0.278187379038713
-2.09377125427616
-5.5528328592389
-2.27147785486824
5.14427592258759
2.45418736266769
-6.39914432427727
-5.81120306021152
1.89210377389401
2.22478056709762
-6.09773530920476
-10.3338601397013
-4.87526539516012
0.376380409837282
-1.29972319156056
-2.65007172479618
-1.1259476510311
-3.07798005753614
-4.68607386911855
-0.730294722977168
0.876152672470525
-1.73732849391567
-2.91591316454992
-6.29839682871397
-10.9294235837755
-7.88004495657297
-2.03832684731366
-4.87961718366953
-11.8481563169239
-10.0144078608505
-0.8560088626867
2.42953272888473
-1.60148803182509
-1.10507095770799
5.3234324059452
6.66217569444884
3.01221370216145
3.22518783289112
4.11867704439815
1.13786224302321
0.635932373435214
2.4841807362937
2.23598171149112
4.9029836796894
8.90569434133408
5.2879396037528
0.0505088531852094
4.40640323125704
12.3604168347685
11.8254886443178
5.18427164333352
3.52930498077606
8.09548036974609
9.05482527671184
4.7500298777455
6.14880933984641
13.1725797756808
14.1861293244134
12.4569193847582
16.6419489465171
20.506595232688
20.1138745976064
18.9630123822849
14.7259737140042
8.30095195842715
5.62944677764643
3.66103197808142
-2.96543364300494
-7.90628579056806
-2.94138453712828
5.65139808355219
4.79194099119887
-4.59918904953817
-8.61591423931741
-4.90528850235584
-6.3627113813113
-14.6709956982511
-18.1183142983568
-15.5253704329949
-12.9436413950115
-10.738324871099
-11.7137428821473
-15.6131057099358
-13.3089185153791
-7.95581406198688
-10.7898332845579
-15.3423602151203
-10.2512810564076
-2.43018235368791
-3.62883763029229
-10.1556454966933
-10.3181475291647
-3.41136391015789
-0.566349094073348
-5.15061381570764
-6.95500553334789
-3.22769281435949
-1.60877321053222
-1.12828677056432
1.17028270318649
0.678753368899458
-0.276275819298585
1.78898221705563
0.540247993171374
-1.65665260406193
3.54006001690628
8.22172735646727
2.95107900267396
-2.80268972241914
2.26577226317909
11.5499099895499
11.8751613934641
4.89271671317632
3.74780921593949
9.4967286090927
10.2596744163321
6.01921127276465
6.84485680187931
10.1880881038403
9.3084073088447
7.1957209983924
4.94275744495416
2.81152294626144
5.33621916400355
7.75655356169912
3.04025433328181
-1.03031390043985
3.32368202334878
7.65417320347917
2.50144691152052
-6.1447666436941
-7.37124607595642
-3.20786103633901
-4.52855386551324
-10.4862737863032
-10.0077469038984
-5.37744446602533
-6.44445748302524
-8.61118776742382
-6.36677736228634
-4.73608524801682
-2.10890623571392
3.1824872117077
1.78951325984735
-4.26189576112393
-2.4494612863816
2.96879471777724
0.128068023888183
-5.39617604995535
-0.624091238291395
10.618807536447
13.3865056711073
6.48125520539029
2.9164777777674
6.21983440703129
6.98594639451323
3.95746064070619
3.5709896457099
3.59062085170057
1.97624776701466
2.44296451173374
0.86789953873544
-4.26709126152697
-3.98795178469605
-0.450420885819211
-3.0824114440888
-6.27597948382753
-1.20278119460468
5.19456461694205
2.71753862874115
-4.65020587069101
-5.79498851905115
-0.344228871730763
0.200435654639688
-6.18078557709895
-7.50783281079942
-3.57439606344692
-4.70460844443509
-7.65524849721716
-6.47154901371573
-4.75075417041124
-1.65715476766325
1.62779596317315
-2.95541698378287
-8.6203385975977
-3.43965216110641
3.22638294273503
-1.3276333211668
-8.25194416988341
-4.67216760873058
3.09359328506989
2.48546906311294
-2.834285855885
-0.800546537459337
5.89819453534007
4.98093414841947
-1.42951306464966
-3.72479079628687
-3.96988492141103
-3.70468270582754
0.555266582203169
2.8030658033202
1.25702590897902
4.35269379244466
7.56520210157057
2.43008779473125
-1.72153452802946
3.94785573692515
9.71787921257918
5.5259328591546
-1.63154102628695
-0.352272608056177
5.87508219000219
4.28470592749507
-3.96047955860396
-5.81506534381327
-1.98923010698658
-0.83598413733911
1.75317508839929
7.17493565597309
7.80897620507188
5.96253281943075
5.80629107185515
3.24358985949836
1.79398423337254
7.27179665348044
10.3232389097641
2.26986319060245
-6.6495557634203
-4.29245465488819
2.79369372722015
1.51735226106363
-5.57090391206321
-6.7547593143881
-3.05177341311827
-3.7667791431187
-6.50372736244496
-4.93669811413813
-3.22649824224237
-3.35847617330802
-2.53720011686257
-4.51408536588849
-6.96195681224447
-1.55570702022945
3.5683257087662
-1.79175255992372
-6.56631929421795
-0.271145173523356
6.03041477789755
1.22822231952125
-5.71306565852708
-2.74240999740306
3.85095562571229
1.21523689350056
-5.82210618018549
-4.64112075664926
0.40800223319608
0.689396010953459
0.499673800587111
0.914422937149704
-1.16285420230709
0.380681211534272
4.61944941395923
1.22498711916434
-4.71983560928401
-2.23836051073585
1.69378627166032
-2.44279344246828
-6.55757278225223
-1.46173627418537
5.02568812289737
3.38406229481818
-0.763851374823394
1.31373480934513
5.6957129232023
5.16727621048896
3.83617838190932
5.84364532281923
5.49529107993329
2.67363656572305
1.51277749458352
-1.97224113863711
-5.17119120166515
-0.104609861703145
4.95339276207886
1.03636333240538
-2.09324561094589
3.06094010870345
6.54794018224781
-0.16296510109362
-8.43668745981429
-6.71702998414925
-0.350195703478006
-1.92495265862871
-8.24432537947505
-8.00031323775276
-3.97611327337622
-2.72891763315269
-0.600504438544121
1.69889937978213
0.562702321286783
1.74248916346448
3.99416329582775
-0.733552815243519
-5.241440302296
-0.933665911962388
2.36982942336556
-4.05461603973461
-9.67503595723382
-3.1994401990503
6.91501820806584
7.27376859014459
2.26063328354793
3.82468346782629
9.08735542760885
8.32329501082646
4.94087900508451
5.08060077949374
5.39794119325069
6.85776306708805
10.927110917678
9.30860984541414
4.36344660595392
6.39162892388472
8.59606979528963
3.24016026403768
-0.105366709542236
3.67790986686276
3.51203453699722
-6.0678916853296
-13.8019134340742
-10.7419855748068
-4.45188321521808
-5.20816543286224
-8.20652112278983
-4.8475832548088
-1.19146915242572
-2.97719529137139
-3.22881135130099
-1.41570184642461
-2.68195625009168
-2.71996698706565
-1.60184431556504
-5.17962595523318
-6.70554640020772
-0.562044347988391
2.0763625510813
-4.88437983842086
-9.33610850682132
-3.24645073250073
3.5144139882406
1.36943966495334
-3.35039918917729
-1.47228158265859
2.50597304407339
1.05533958535176
-1.06366869878324
0.408959699928289
0.149686482940658
-0.987215518480018
0.624447864342301
-0.272619588357871
-2.57561044061005
-0.0819323946063629
1.29478276449548
-2.37954681774908
-1.75000880902229
5.87901279607445
8.93737819459604
2.23371236839634
-3.13827752200907
1.62053868594044
8.77841831685985
8.73865139495881
6.73498395840836
9.7996148825768
10.9850126378867
5.93496631155778
2.57164966785222
1.83153206764158
0.365940097588612
3.16548509644221
7.80280661393527
6.21605218623939
4.56227949365572
8.706955567245
8.70901209421319
-1.10863839450751
-9.50162484065153
-8.33069649341374
-6.56771912128386
-11.8039646211272
-14.9748198328542
-8.76256428496908
-3.42958077514127
-6.75889296200892
-9.23278373246939
-6.04173332716705
-4.51667135137097
-3.38161639882208
-0.212321767660815
-2.88751096404291
-7.57660945846451
-3.3574241406204
1.64692171485635
-1.55021625333652
-3.21715348929748
1.79462400033214
3.05330120260178
-3.12773163904755
-6.39973089781459
-0.912170698047152
5.17383456895825
3.61120402899012
0.0864717032278894
2.29411831154109
5.03466003891697
4.11039210781401
4.15742797483416
4.09129149707624
2.10242280608671
2.655194638372
3.21175371078112
1.1680987826666
3.70947187877478
9.9609795622244
8.6747298606496
-0.451890339424197
-4.57699755765381
1.8397303255593
8.09138594393062
5.32633002466807
0.727267497865652
1.68343344490984
1.43419975345359
-4.62254975775968
-7.40849277452007
-3.86701633894428
-2.35202497268094
-3.54090574916471
-4.89009155363744
-7.85245150766385
-6.52845377818645
1.42807519377567
4.14576727273852
-1.90839796974088
-4.55226826982903
0.482096296458921
2.6837437712165
-2.78185523201871
-5.72417072950472
0.238257609185773
4.4063882021854
-1.79437436001118
-7.31925796152757
-2.74387583496737
0.981867106772084
-3.08192483273619
-5.29073771036386
-2.04252773119993
2.40259241305147
5.53005304590508
2.51929932345913
-4.4060645362777
-3.90847970847937
2.75530353170995
2.6899954661259
-4.29089867775678
-5.20663313228526
2.98373188799199
8.37165727073244
4.29188240693412
-0.699467227566423
1.81672366724648
6.21392503858648
4.62091265979531
1.13956549713256
0.361995121954323
0.0524079500493989
0.832695953939987
0.898955113109845
-3.28349388546887
-2.81369254869678
5.57604064104942
6.6048369634356
-2.16594149417882
-3.44914265045617
5.8527913363154
9.81974025935994
2.1891421677409
-4.82891050609981
-1.89119788717293
2.5962123315005
-1.18962324714926
-6.05470522795004
-3.3346595851942
0.462192442384745
0.858625234505265
2.63677286750128
3.2044549814138
0.235968467589548
-0.0325453165657522
-0.424479676652947
-6.05337309256276
-7.8388546961586
-1.21112344106409
2.8889278944008
-0.5615291259928
-1.81068558188371
4.01051488442392
6.57435624605339
-0.177996030080669
-4.87147314845982
0.551309779777132
5.63252259802579
2.57560784417256
-0.53225992678071
0.0291135194565307
-0.968847817057538
-1.76085232697328
-1.25899063418006
-3.01625385614905
-1.60168944706739
4.22407858688684
3.29966808719534
-2.93610774090417
-1.54527498690084
5.33955093390102
4.81057692830799
-3.51806112344124
-6.56977385708634
0.865023409987033
6.05779512358492
0.0217928257272188
-5.56475125474523
-1.63854547270359
1.20335135946761
-1.97158714588182
-2.23613509116598
-0.260745129975459
-0.258895086354132
1.47502615029905
1.78201172769419
-2.18991440014405
-1.54299569693204
3.98603714738303
2.91659358055195
-4.71589762675364
-6.493725320641
1.08267489394379
6.43408009817722
2.46088052188932
-1.23277853629674
2.91799944733096
5.91443541864923
1.58388403983152
-0.962935550991072
1.46782454465158
1.77385632851322
0.913198273251931
0.141832726650745
-3.70859438786613
-3.93808221138139
1.9937175376771
2.1680946554854
-4.17508377794291
-3.74172672717582
3.8253960061687
5.44825605989065
-1.96724376476564
-7.1843397687427
-3.65854288331837
0.17817452563959
-2.88891828442415
-5.25485361984017
-1.37356207163817
0.783178778351437
-0.714677752658083
0.850660835773219
2.77350489897454
1.96158464850564
2.66197106362324
2.24682574260655
-1.68437900423739
-1.39118992527787
3.51656784773284
2.53199108243438
-4.76222495038066
-6.3020577073886
1.11515614113598
5.65464718143655
1.35220006251472
-2.01018942594258
1.21090016002451
2.56738793216332
-1.20199595646812
-2.01024373449306
0.440448069841728
-0.101078454714374
-2.05749420246377
-4.80153388762907
-8.10856653197319
-3.79905943619536
4.7337262717461
3.36338482851024
-2.96573786741568
0.162670629987944
7.1986780577972
4.38398236793811
-4.70563813567859
-6.85209299048048
-1.04275322576137
1.84585098050409
-1.76648745569321
-2.96444679489149
0.549515415980226
0.285121218149289
-2.3301198970949
-0.0483344022322862
2.44688923753222
2.61183152763911
5.03910465375519
5.04576263195609
0.612097724670393
1.30434937500504
5.59449228937236
1.51079149211623
-7.55043692448687
-7.49500115879712
0.914229691388875
4.13769315787717
-1.19515553874869
-4.7193924733369
-1.17864075713123
1.7420479555831
0.0941399740165345
0.334176342885474
2.16515565529394
0.395760364331269
-0.976975491489227
-0.822340695325086
-2.21902958767525
0.244059350764832
4.94366879783094
0.76356753068532
-7.4497293560555
-5.79073072587568
2.60622240111102
4.50787893107171
-1.25203237698621
-4.02205920291782
0.366157651639476
2.24760993355097
-3.50024344139018
-5.63954384693772
0.316811646296478
2.32294818456532
-1.31489130900207
-1.6258452374611
0.154984418956739
2.65040747549894
6.98279565732255
4.68624425862964
-4.65147650100128
-6.58090410693137
0.0777387097554496
1.15821932775861
-4.24783091557768
-3.35795321674624
4.7654345319467
7.58284459986824
1.73813410481669
-1.29289624058963
3.64847833278275
6.63367613831582
3.32079054926945
1.29712199109874
1.29996284239182
-0.654751904155085
-1.68847155129979
-2.67685901961866
-5.62578674228986
-3.39732556117967
2.59242514590307
0.672250933480873
-5.91783232485494
-4.68078482284629
1.90283437848309
3.20956991340233
-0.273001156676803
-0.381028654642238
3.4446893436552
2.68125360457412
-3.71242766476016
-5.12320955965438
-0.843610419458523
-1.39500688317691
-4.50659437664206
-1.91296696049989
1.90810852240347
3.67720685391196
5.35782580001719
2.1148071592074
-3.99719913481621
-1.81910263552701
4.43656237520184
1.34199315000222
-6.45885870929762
-4.57716510891639
4.14543064098779
5.68936538197747
-0.140564730919001
-1.38256851013849
3.62409493781712
4.19256387075117
-0.810575264607087
-1.31536561285116
2.37323492142302
3.71552805943357
4.15432593730382
2.91729330240042
-0.254167095516404
2.49268519481667
7.80515767357431
3.9793927149268
-3.12917999093685
-1.03613234009886
4.55743315473302
1.71908373379733
-5.75645647939979
-6.22663507722039
-0.213169982170681
1.11726000660753
-3.41229635614907
-3.02437697353808
1.67069677943555
0.394698307643818
-2.98271858764056
-1.10394324101608
0.47588842036328
0.942510814876063
4.40325275208393
4.68000011506104
0.752205704676946
1.15697156956267
3.02933387760617
-2.11109121241724
-8.4712918210407
-5.40985595694793
3.02937693402127
4.89845618663557
0.421108454907659
-0.33188461236362
1.94881683206321
-1.53789061946631
-5.81976966829075
-1.57686759071599
3.60230604056574
2.08943757544211
-0.225510992915103
-0.957939609079869
-0.438700979542889
4.08155871880479
5.27579048060856
-3.4936440130748
-9.66220759668719
-2.25392654946495
7.32846176673007
4.6717240651506
-5.02894393151692
-7.51121182149854
-1.94310639059251
0.108317716628741
-3.85267158563804
-4.466396051705
-1.82978668317299
-3.03372508668027
-3.08073564894815
2.09652557451814
4.85640034622065
3.65004080129024
1.24997361384038
-3.95310448903483
-6.52962534687663
-0.859154657476708
3.76750860558924
-0.886872888274296
-5.10563495260974
1.43651872054845
10.1559427596312
8.48221089930733
1.30858982824477
1.17589316913947
6.62061551224759
7.47485979410337
4.69187758495827
4.24692232313789
2.64587351969891
-0.885276740422366
-1.10776104947571
-2.43766462650738
-6.06966943321315
-2.27177174196422
4.21682645428638
1.47762115429796
-2.83036663890342
1.75326469488671
7.04116766899961
3.06480074258738
-4.33192919828402
-4.85807211167727
0.0412410595297314
1.43262803703418
-1.10608871786101
0.0559765097808566
3.59094576938457
3.06123806384837
1.99407517578082
2.24144090367791
-0.632584086200934
-1.86588048922787
1.41303505872974
0.540068819761834
-3.2423620470908
-0.6648161927661
3.51579508860712
0.301925903098146
-5.22955718468484
-3.97339093701974
1.09292342010421
0.536633556870194
-4.73060940404329
-4.36136575770586
1.13817130713399
0.0952660080234583
-6.25459102802131
-7.17930675958809
-3.92775960476643
-1.46315425482825
-0.0229499421818854
-2.41376574455521
-4.93436393816126
-0.0763799021894152
4.46271099683036
0.283394021963943
-3.71528108274451
0.256314611661137
4.57102614066153
1.16425158619992
-4.80080354756613
-4.41619312593713
-0.187126528373258
-1.61032897114277
-6.37830052593721
-3.85312651434758
1.63199271029622
0.294763743870163
-0.979996528370274
3.03489043824945
4.47727494682099
2.79026951074289
1.26600225088062
-3.34378434660407
-6.52489910549136
-0.624458096361427
5.87318068540614
1.62109135685271
-5.6542994783683
-3.01991350554788
4.19315595286374
3.55531244426975
-1.80374396037205
-0.9988590077779
3.69118862659449
3.33668807995454
1.40224970385909
3.0361073003964
2.25536715306039
-0.661807558360645
-0.00192496942940378
-1.32429950884508
-4.99639404010831
-1.29663340236132
5.06873764280075
3.19487371174952
-0.745093952777461
2.61402912090385
6.59038464934979
2.56535740162795
-3.67762443175282
-2.93117207851858
2.5707397811087
3.50457551017911
-0.569209680039203
-1.40329886182998
-0.231452637490492
-2.48703981027905
-2.12934857373598
2.5795349748213
4.09029705209409
4.55163491801743
5.90083975066102
1.03911799793759
-5.65897730878634
-3.29431223417187
2.15285118248823
-0.767352784977342
-6.43528309331767
-3.45410129908293
3.965242434025
4.62315066637366
0.448436969689888
0.611722802244061
2.14184779626694
-2.67574845113081
-7.46733253158856
-5.95166815954217
-5.66426119382998
-8.2157204437645
-7.47662764597339
-5.3797033319341
-2.49712762603103
2.98836547163052
3.01772181467038
-5.04723508661918
-8.53650643154928
-2.44801659377393
1.80980362058883
-2.48137225718721
-7.88366621333584
-6.67232584600739
-2.35047189361748
-3.2984896471153
-6.30235501396302
-1.90407149641984
3.8698089357706
2.28162604849002
1.0694910557173
4.0276865478173
4.82016601008525
4.90991312763406
5.08174816820665
1.05462940381528
-0.965952933712881
5.3533898956213
9.93411420545909
3.69112898667277
-3.65443683384347
-0.109639144670932
8.41359518904045
9.75677264495706
5.53800248890771
4.95939300501653
7.07290982409299
4.69064142255086
1.07007785289071
2.36966219065664
4.2550155375562
4.8006466705962
5.86475181032508
2.65485863908916
-1.73769698609504
1.3758549249643
4.54564799906225
-0.125071190416084
-2.65331762938285
3.41104874848183
6.93425518851257
-0.0940188413966196
-7.99595168880707
-5.69152317874315
1.45050450982043
1.56444498204634
-2.47883153087007
-0.329234498382479
4.22529509306814
4.261917765769
3.94251598989587
3.27343361237903
-0.77316528409148
-2.18723940608368
-0.910884733435906
-2.99068231941702
-2.53497345014282
4.77897881310926
7.54465057055162
-0.315413851596242
-6.11289511915327
-0.0854687101988859
7.08109104472316
2.81288220107272
-5.30872430671876
-3.82382594302095
1.92866546223
0.242183101461732
-3.88385000153315
-3.99468806124649
-5.73495315809234
-8.35263242468009
-6.53276860598721
-4.69885003550335
-3.81235703703474
-0.69544794492534
-1.52542915848534
-7.90930047741678
-9.02264934358015
-1.56757705725377
4.06381971927793
0.845659440147003
-4.97450528150456
-4.26263159965205
0.758771392627275
1.06385165744236
-2.05894226099014
-1.2028813998041
0.101950986270071
-1.49953957553666
0.85256620394886
5.7772595885897
6.95835427671811
8.18091778759726
8.39278631153293
2.21121740561155
-2.02700185275172
2.34924567595864
5.25631746238907
-0.453011572411032
-5.59975998505773
-2.10464306607702
2.44496580099501
-0.175010922387328
-3.62633275443224
-0.523719636286649
2.87585217237285
-0.0612794773072329
-2.62326811717032
0.158128163784164
2.20664668079343
2.08653377435928
2.30276722720937
0.628218804353127
-0.135346743367182
2.33267539005867
0.366521529491436
-5.95616503077266
-4.97669464594838
3.63303804911956
6.15011527543434
-2.11490354400234
-9.77562760466861
-8.54850407751447
-4.74378666825008
-5.9676695130042
-6.85317048578738
-1.36013916062791
2.14072716077773
-0.840592693371569
-0.908314046550242
2.70793378397599
3.78174756542777
3.93737664228105
1.46654954467407
-5.16132224287228
-5.44902733069211
3.13148904474905
6.86022153379097
0.573905561348316
-4.34643014124012
-0.62973096028753
4.17744803373416
3.01505690179481
1.26845932237527
4.53393924275908
7.12536849562574
3.98612554343116
0.948659417940191
1.26405912543732
1.18177200561178
2.23012360692234
4.02814486808906
1.59311453222861
0.739587840448085
5.20777717156451
4.44397312516028
-2.31552045007473
-2.43897901241123
3.72510860625378
2.8983663777838
-6.51805320986987
-11.3602015340189
-5.58394211101364
0.466057539215826
-2.34408958603216
-6.5042915608689
-2.68141005547677
2.230087788736
1.64511366249609
1.23278484427712
1.89114479294491
1.95319103077766
4.57135272323758
4.26821277409903
-2.70824632045998
-5.17140763337088
-0.306025685127022
-0.404400583024744
-7.90234972186552
-10.8991469267357
-4.30915763977938
1.96705907699558
0.204975003468339
-3.0538760597822
-0.837439645512527
0.353747530032072
-5.55076560874251
-10.0364974177107
-7.96414635417658
-6.50382808587526
-6.66159035064984
-5.99628998856381
-6.68909411989389
-4.55609911153759
1.75631245942259
1.65143380226132
-5.26871477291696
-5.72450155190369
1.70598163506472
4.47014288140324
-1.24914182071573
-4.90874240812128
-0.387233789025292
3.43157728394056
-0.82210405909285
-4.89315658743604
-2.00808881311114
-0.379264575476671
-3.34381896074098
-3.56074599796664
-2.21789210059646
-3.12396247398292
-3.96520496496144
-6.764501940618
-10.1458568107276
-5.93386922968112
1.64229882316305
0.650733096932973
-6.11962480675293
-5.38422182154506
4.05549652716737
9.46179577191591
5.48269352355043
1.15009749057342
2.97763505657711
5.12283152521527
2.06394946317808
-0.932410082621539
-0.218158662199554
0.954386524295188
3.51120508811685
5.38203527756874
0.614758799513012
-2.85582417294245
1.45966780985663
2.29071462603947
-3.10687939682544
-1.90256328896965
6.67831549037766
9.28214235484048
3.03169843167749
0.427263550372929
7.47875661456566
13.1264756302636
8.72610218272336
3.04222387710534
4.4679394349929
5.74063324213496
2.28976098023627
0.0820156996003599
-0.726337020611354
-0.740929175303381
2.81896728024459
3.00483926966364
-2.53901919562885
-0.517417364712888
10.6320888352711
14.8614417592078
8.80569365302744
7.3740551294894
16.7031394279688
23.8795361689517
19.5727093888386
13.439705375734
14.868157380445
16.2776636223491
12.1604756955214
11.3249429123679
14.7533257401191
13.2279580693157
8.35953089249953
4.22250537942769
-0.326702895207574
0.12663916756916
5.37886665231542
3.73242718905364
-3.58932501077984
-3.67385229767063
3.13307119826395
5.1484444028641
-0.142725539110985
-3.47138149177879
-0.565063727139942
0.388764673878834
-4.99479995222767
-6.76696991002847
-0.799973147635539
1.09235388434998
-3.65478814250772
-5.45226236321898
-5.79093446432366
-7.89796641674406
-6.86479281893754
-6.58581582787114
-11.396985171753
-11.8928194470412
-6.02222594448803
-6.3364912835527
-14.8679411665151
-18.9460699794152
-15.0248044501882
-13.4910832836105
-17.8461307888553
-19.3512242936978
-14.5152794531696
-10.4832905953635
-10.4418792985053
-9.77557654570968
-9.08309034872799
-10.9552519277782
-10.3494131260144
-7.79543596068422
-8.2620352666404
-5.95363923979423
-0.150195652785538
-1.25141157444764
-6.2144091352829
-2.46932055869501
6.6791342795409
8.01311264911149
1.30420369260217
-1.35609156434241
4.39496960288894
7.56092141822954
1.46992038164503
-2.33865616178557
3.5587241353667
8.67356199564901
7.95013459886918
6.84409414765941
4.24893762052412
1.32381841524791
3.55402991261265
4.72457292356918
1.66407368588702
3.83080824144014
9.38828034312124
6.57113455136924
-1.29489742622971
-0.665984808245441
8.49529445551885
12.622134450575
6.80116471080614
1.74392251112235
3.37569616837749
3.46929702928765
-0.681780974521974
-0.854327743755668
2.38459577307758
2.6305631853558
1.97616958714727
0.0703040609583547
-4.91882098542895
-4.84284825453468
0.19512167964988
-1.29806268999808
-5.88981869312865
-1.96857970533519
4.71577911187058
1.7961347603929
-7.60078361448657
-11.0702191959932
-5.5675184456116
-1.00661321930473
-3.66205234710414
-5.65761318329676
-2.6227172815746
-2.00078420130612
-3.78649293185222
-2.30614748112437
-0.50885392449003
1.17899511339331
4.23338318325955
2.1639525434847
-2.33112262891635
1.5538610870808
8.27962962715443
5.29323073563946
-3.20402668913777
-3.98145924164008
2.91004732080365
5.78960439219389
2.48182258006652
2.64279340250028
8.09875145836516
9.38315753554598
5.12020047308741
3.31074123966437
2.8563103308673
-0.641282090587406
-3.03959349557107
-3.96223960317496
-4.83227880727127
-0.436241859942535
5.23260864193642
2.69830977141194
-1.45866304664738
2.85679305229425
9.15839097103628
7.44799572324348
1.70405121717999
1.75659664181838
6.54079181630586
5.57641793811273
-2.00105629413427
-3.87423655191031
2.10926524520987
4.39515148544671
1.8127062763055
-0.250107353889455
-4.68405985608862
-8.49602653643521
-6.11703490903919
-5.59696866836596
-8.74181580122971
-5.13392220759119
1.31265449768932
-1.91138252131704
-10.0873946002164
-9.48880158157348
-1.46955867176661
0.559044537300694
-5.17673179076434
-6.43100384722069
-0.678438833471682
0.930428255804163
-3.10818009673421
-3.21663257089861
0.199724976485041
1.34453620878464
1.48350624642229
-1.21251628248176
-6.55107412234109
-4.09887253855237
4.09652760835167
3.91104585052016
-1.68767279389781
0.422154710995833
7.27860399946106
7.06089096376176
0.872497879629197
-0.452206969036442
4.79918276284685
7.03777713919175
3.26873699963204
1.53205814951077
2.40379179433467
-0.207404876508981
-1.40421018821714
2.55960408427039
4.02847694229254
3.79017731745602
5.89257117801587
3.46685994284442
-0.915771097948983
3.67652411369018
9.7481250050781
3.93180318079167
-6.26145769129379
-5.57268682371873
3.55660760030888
7.02930293157327
2.65806643267074
0.973476828193451
3.48081671731598
0.862798748373856
-5.29193051306067
-5.17368102143054
-1.90914958376143
-2.67862100834828
-4.91023549942223
-7.26917511509076
-8.35010873926581
-3.38227366365467
0.386092680166446
-5.74973970039351
-10.7601440763259
-3.78609883381751
