-2.05574893035606
3.43861291836257
4.64186083653646
2.19126952873388
-0.358119981557609
-0.551207384125723
1.26875166894199
3.09737842893784
3.5810314592047
2.99869886101126
2.4137123827507
2.40880007152567
2.7110284192264
2.78292828145268
2.47991083619886
2.04995238763924
1.74328387424953
1.64326740199159
1.73297534194176
1.87415260185503
1.66946641595593
0.484163292537918
-2.08128214902185
-5.48761063765921
-8.3095006149191
-9.48119008177972
-9.29072536437496
-8.64914276431445
-7.81177062841147
-6.62130437447079
-5.57909213698802
-5.55698265563087
-6.43955423435629
-6.8427003086703
-5.34667913930292
-1.8285929641625
2.23461704724583
4.84360558398362
5.34480479413598
5.0968152497588
5.66712316477115
6.69340112864306
6.5068479534093
4.68160902958553
2.75903020268607
2.27285346239306
3.09390464948592
4.04347544590776
4.33857500724651
4.07129690080785
3.76707495695775
3.7820672771
3.97749760761369
3.88965058019375
3.21480280745562
2.07507716685348
0.868774006689659
-0.0444970912656137
-0.586285323568614
-0.991248998456651
-1.62282185761377
-2.78884555347418
-4.60437470596084
-6.73248574497328
-8.33718499452522
-8.7439780199284
-8.14340753579359
-7.2407175125092
-6.40141936506377
-5.66025224826527
-5.24008052794144
-5.33593894831522
-5.57287672117334
-5.25593882956771
-3.99841424414621
-1.85907649655787
0.713326267163736
2.90632515714103
4.09835208451556
4.55404085656854
5.00786558185455
5.54288800738121
5.5763718351284
4.96677237792996
4.33709377666062
4.17187692670323
4.30227728985202
4.41397678981417
4.45463978006326
4.43351546378552
4.2910624798584
4.03593010594207
3.71753200245916
3.27607313048965
2.60194304657888
1.72030928747563
0.833490092848136
0.160201220089948
-0.288164994378024
-0.726186571667116
-1.34709013751091
-2.17010889705123
-3.14823584358132
-4.18304169559959
-5.00787867520491
-5.37851629666044
-5.38478738182872
-5.24979545635004
-4.96842022387207
-4.53997682149264
-4.25286302914526
-4.22425866329426
-3.99934509976816
-3.1024139904997
-1.61508309025571
0.132960920867544
1.92614162381212
3.44057033997254
4.27518675088433
4.4807324762074
4.50374704349847
4.45322992196074
4.00546661361843
3.12587227063986
2.27173083855364
1.78123128098495
1.59451432141483
1.59020297567134
1.70841259335471
1.79115871721795
1.70998801814925
1.56540136860196
1.50055713900572
1.47619454223484
1.38091542182433
1.17946674435415
0.876444116218673
0.485924440621008
0.0629259650908234
-0.315996361396627
-0.618212799727087
-0.933089996726718
-1.45795700847765
-2.23181900304884
-2.91294752136833
-3.11299942064442
-2.9072284950166
-2.66271278181433
-2.49750783799213
-2.33283830719864
-2.23887357106801
-2.23047816367263
-2.0031463959643
-1.3371957960643
-0.437913950921067
0.456374934542785
1.34843388262307
2.10386250339434
2.34509098433468
1.99377868965482
1.43919956542238
0.988016524982148
0.598671386317429
0.245393422058541
0.0666397663714657
0.0825149099841193
0.184451614580954
0.396727859214798
0.77808033695588
1.1543602814669
1.26488474194643
1.05020509417023
0.611440779378288
0.0824739687450546
-0.355191540340187
-0.540009749087387
-0.472402779558545
-0.29063915459501
-0.165845559885682
-0.244795419643094
-0.546470549442549
-0.921435537354401
-1.2305195991969
-1.45275406382834
-1.550699363221
-1.47226232591748
-1.32099648714537
-1.2156240470478
-1.04329946595415
-0.710127543528657
-0.430502112222187
-0.358627880214984
-0.263262788931571
0.0210972447842482
0.268885837336801
0.369661621667685
0.610604848664797
1.0790539159418
1.33377909716378
1.0133254968323
0.298837247350066
-0.450968522093803
-1.07496909424072
-1.4967009648109
-1.68726326780772
-1.81073685925775
-2.01324890436294
-2.10761881392862
-1.83093719208559
-1.27949428975956
-0.758966249600263
-0.3822760745062
-0.057517024762634
0.330785006064911
0.871102446985374
1.54965621014147
2.15173797339651
2.37540595998471
2.06169653002984
1.3123569654629
0.470511401519286
-0.0884587263654356
-0.279313059486782
-0.30146419140187
-0.265105942840215
-0.103708777411922
0.124532281972902
0.26284443255533
0.391559841926218
0.690787419088007
1.04653242281056
1.25313850843029
1.41774076736949
1.71395107006156
2.02536014807623
2.24453667154398
2.55932367544129
3.07707757209156
3.53979308563995
3.69598471374317
3.60452905916035
3.40440153544976
3.14567051008524
2.93241612818067
2.86937282637967
2.85680041381109
2.77508614101127
2.75654380649449
2.91433126782012
2.99637144768167
2.67249775608743
1.96515684927765
1.1157505102212
0.231756633208957
-0.7341799062809
-1.79703723382913
-2.81658090977543
-3.53879832302207
-3.86133562402441
-4.04382729698635
-4.45801226266169
-5.18309738980646
-6.04385470134436
-6.87763452204133
-7.54482809120012
-7.91820126218827
-8.06042160225247
-8.15248477889708
-8.17171063295079
-7.93842904298259
-7.39636703836501
-6.51028988699007
-5.14349312335504
-3.4283254011194
-1.90286040921886
-0.888245719943181
-0.115342941189568
0.729955499819126
1.5341511449665
2.08131127022632
2.4116256768471
2.63919676303307
2.77943714223518
2.87559419213987
2.9621606026694
2.88907713629508
2.51952670076833
2.05185431093747
1.85988814316422
2.14650891029104
2.93218345118341
4.09461610382651
5.25453949688459
5.94720443329038
6.03092675159027
5.68864209726734
5.08174866817736
4.26106626131029
3.31016725176929
2.3644429039206
1.57366218341157
1.07684477684404
0.861858743929703
0.728083965989607
0.552684904209878
0.421934758434182
0.376088393546146
0.303305964913689
0.17676094250152
0.0865964444607241
0.0442625995267902
0.0601144167602114
0.2506540557128
0.557713438619587
0.659293800693942
0.455154928716719
0.254693953892919
0.236864172747004
0.175026722226357
-0.0890266147546403
-0.357986977167391
-0.446641976743321
-0.414797453495328
-0.31350491602783
-0.0946297193874376
0.161813070954161
0.274083350264097
0.17940138294286
-0.152696216506144
-0.831939110231449
-1.77467587972792
-2.57841953918875
-2.93437013322061
-2.92490293856729
-2.78686749802763
-2.65236043283865
-2.56654005970396
-2.51462824703616
-2.42415877370613
-2.25991475390274
-2.04054242384493
-1.75411168097819
-1.40120063298762
-1.05708491725768
-0.756094786190771
-0.455415730815929
-0.178317813329584
0.0442821447278429
0.339593014845482
0.761520669169614
1.0267119350888
0.881436396005691
0.50069777295216
0.128283274528018
-0.309543921977827
-0.827123841723652
-1.08004431186019
-0.871842541427549
-0.534332765272802
-0.437652283024496
-0.486040840942295
-0.356980713221226
0.0802822800409361
0.723819195504812
1.31287363699484
1.51814060210466
1.25735847218594
0.84881134204708
0.597051463154943
0.438330589110154
0.221394714291673
-0.000536879303562905
-0.182054637866096
-0.424493553475178
-0.722898321291102
-0.882092350931266
-0.766667181911048
-0.41379444932515
0.0626926717988204
0.524781239894442
0.866183459315815
1.08114528508688
1.18068794500441
1.13110429767039
1.00189112287322
0.968169400648073
1.0335297250272
1.02009085131702
0.905822368365682
0.848689520436868
0.891429214422656
0.983173907785169
1.1625902230267
1.38333482949026
1.39650144147854
1.11526251543236
0.802524424852569
0.670338285193744
0.622054242018204
0.520511696585234
0.360554903407791
0.124329702253747
-0.184504291380867
-0.382045368608706
-0.323813366374667
-0.195856776458287
-0.253765907410504
-0.434904926416373
-0.548457788673324
-0.61322916609097
-0.712661298644691
-0.783330141609458
-0.767326964970309
-0.714938112546256
-0.649100388712156
-0.575549822814456
-0.584190466917375
-0.719052829316166
-0.873894846374897
-0.955776518557759
-0.956019041244059
-0.825872395119575
-0.54355512693387
-0.265829073953223
-0.151125463946028
-0.142611692135053
-0.130658195077995
-0.132467895734654
-0.180645843803926
-0.27958588984609
-0.470318937323822
-0.65844969634024
-0.5508633303934
-0.0956251070729876
0.30384302771608
0.343771342062569
0.226975268140235
0.235713471519581
0.31222355851975
0.309173840452096
0.262444302078336
0.228067615486746
0.190037520028989
0.210814841070933
0.340670981622127
0.402392769973206
0.227533776000846
0.00458955716043719
0.0105094720644844
0.148358360557801
0.112894855097239
-0.15551423883789
-0.452102419688219
-0.554407654657764
-0.344163285135202
0.11242674169622
0.548413506459212
0.701836894249286
0.500827380303864
0.0280992015087599
-0.50036450855979
-0.748428919159843
-0.534255608130581
-0.064878583507638
0.307784627547727
0.417578988168819
0.238270747797703
-0.177346562324195
-0.567443479231539
-0.619514680917052
-0.343794480168987
0.00918243972303139
0.291528798503662
0.401056719462838
0.167716193168343
-0.323126846989685
-0.611783987517572
-0.405719813709707
0.075149785159515
0.511108029177708
0.867286684414529
1.19320970707459
1.41945272179827
1.50818239839762
1.49176110569219
1.32061018499363
0.983254383613822
0.700039727543061
0.656484520952341
0.691790549855144
0.570375428264236
0.35067461828286
0.216976043852597
0.181015262330237
0.134834741022578
-0.00438469537855038
-0.259547652870419
-0.547064224700532
-0.732963330683275
-0.830621168408654
-0.977062287076277
-1.18580894815911
-1.34620650989387
-1.43206808566267
-1.49604234169052
-1.56802232334329
-1.7020809576195
-1.90101267630739
-1.94149021955071
-1.6228237777073
-1.17287700164963
-0.988061108084916
-1.06435635551848
-1.11181961025687
-1.03516774768291
-0.883934863604837
-0.598475154760181
-0.196090839492382
0.074670960977088
0.0877251789951098
0.0844374861393067
0.342755806749014
0.851291594413698
1.4376801959527
1.95832387305634
2.29187152924664
2.38875528195922
2.34313776663248
2.26095000092016
2.17440347996255
2.16469454218912
2.29289499220361
2.36243537385083
2.10666306299745
1.61355641895205
1.20615953576464
0.980965826972089
0.796598370077057
0.576578177172713
0.345511593789011
0.119596342697328
-0.0823426744271559
-0.278261595040257
-0.5727425019212
-0.982745106655077
-1.33493885470776
-1.51640271004073
-1.6218346800883
-1.7336452825538
-1.83478569636644
-1.96258213140177
-2.11987741222068
-2.12068229773856
-1.8664051358243
-1.58213672495005
-1.46394781336108
-1.37206754932073
-1.1392792056601
-0.856116915893907
-0.640665038381929
-0.447388231751201
-0.240564068661864
-0.0626167090334206
0.112785337257687
0.307366486585559
0.372069196409019
0.208647140317412
0.0384136773392465
0.129905645552768
0.426855658027551
0.721346845864929
0.968144295918018
1.21234176983126
1.44774896506888
1.66159202467896
1.80825316089876
1.7729484244412
1.55194414879289
1.3227167126276
1.19668012019739
1.11816667609837
1.04873523347144
0.971388510821318
0.758273488585913
0.330547158828374
-0.179021854394249
-0.67032719887467
-1.23461171641085
-1.85993515624902
-2.29980540693719
-2.39389365116062
-2.21889894957292
-1.90983667196155
-1.61619107510352
-1.48663843128527
-1.42836061448545
-1.13966445345089
-0.588869131298024
-0.10799842974937
0.141349086655953
0.377567034751376
0.746166852609619
1.08498393448293
1.25470179746476
1.31029550823851
1.28549528137189
1.17475534764484
1.11014544057727
1.20787775447812
1.33227054113474
1.30592648486781
1.17901722960121
1.06772763605953
0.95716778512812
0.806793382426004
0.626278940724403
0.414050749549575
0.201250572319719
0.0748757575172796
0.0416386828321392
0.038526765828324
0.0999302681282844
0.267861391674075
0.394759264441395
0.312104925468371
0.0691963957360222
-0.231428628172023
-0.613053739944756
-1.05534039296769
-1.43451319958884
-1.72845898046464
-1.97380581819669
-2.08116937644304
-2.04083987552724
-2.10651838705462
-2.38336697272778
-2.50271944633319
-2.08883004556311
-1.28649847975201
-0.530392202051377
-0.0493711598447929
0.207080358274576
0.416911466348317
0.777938262752042
1.3045600600646
1.71701833867437
1.7686964176197
1.57139407269288
1.35602128970156
1.15280590487349
0.959849979279293
0.8982917181884
0.96341738780582
0.965040845969921
0.855409254704592
0.774099173400124
0.746393134345802
0.667681953495581
0.525236475256466
0.371140689926383
0.203491782362488
0.0376980043681859
-0.0806264813515865
-0.183914839057304
-0.313491766938855
-0.415831012671061
-0.48203315863472
-0.599240826374838
-0.736973347919051
-0.771818322037883
-0.768157434649757
-0.874077734656579
-0.99505634188603
-0.958423759727782
-0.846032988082754
-0.800071494439584
-0.734766130173778
-0.537677346877306
-0.270413949960814
0.0329510652193518
0.444306991263167
0.898067245686241
1.20245136867092
1.34026517809012
1.4251904392718
1.39930908842537
1.1419497734465
0.784823552221434
0.5419508814239
0.36441917678822
0.0975759604750007
-0.213896548061777
-0.441464113286938
-0.566299864222811
-0.59980770957755
-0.539707097063311
-0.445723844337316
-0.36951816983858
-0.291392297100583
-0.244456816047962
-0.291097553220895
-0.317453501666559
-0.14869985215997
0.122757057878773
0.238237244555249
0.138879239732534
-0.0462266248976567
-0.217231889943962
-0.287940281641608
-0.198966609782395
-0.0856148120800729
-0.139468609546973
-0.289882476867899
-0.348511990879054
-0.352085407274551
-0.421064085790269
-0.484818041478518
-0.45713223408376
-0.427364062959474
-0.4367114469147
-0.357327870688353
-0.164200009486929
-0.0125277028557802
0.0664846340606122
0.221113983727641
0.474154832569347
0.679639756284469
0.76802287349414
0.745552161732241
0.568609636912327
0.282501367320958
0.0874669761548497
0.0647006186138401
0.0803172534548773
0.0526219054768372
0.0326362916493042
0.0284425282835319
0.0262443803817709
0.0955366142365254
0.256202929628317
0.398560637233725
0.451903279135558
0.418003417818939
0.242104287812888
-0.078807248085861
-0.356082447152225
-0.451204743840963
-0.478271117301761
-0.547314113364326
-0.579595756995992
-0.530127836317677
-0.466941084589286
-0.37520773873807
-0.218936282769125
-0.123751042272731
-0.173409228705039
-0.212947122939909
-0.144754244428317
-0.142501368681416
-0.309356453842773
-0.435408998907058
-0.322649091293157
-0.0533707379894323
0.229057017158415
0.514570218184332
0.797516902280761
1.02641927141641
1.20846500044341
1.33295268226924
1.28960761324961
1.07271012245378
0.866742453046836
0.766169516472881
0.671074691995277
0.530257052118255
0.382110111145787
0.177425842876721
-0.131041327034674
-0.419706095866396
-0.559520323788493
-0.581676546557678
-0.534315404474927
-0.412715359767681
-0.285962604108426
-0.23759701744649
-0.233002734176914
-0.263610562276247
-0.414254042747757
-0.591506368748498
-0.52521852631719
-0.2159830629017
0.0103073937466398
-0.0105547416025773
-0.142080901918366
-0.273750838924485
-0.385755618703173
-0.392581037333455
-0.278602315823041
-0.233950660318715
-0.38314923031611
-0.579951097279092
-0.664604248021109
-0.682313269334687
-0.704454509936317
-0.69470059647693
-0.649822683533447
-0.619052363191509
-0.558983850688734
-0.404753160121464
-0.218352018221981
-0.0755645280912517
0.0255155659005838
0.0283972969909029
-0.13524766079301
-0.316615113298404
-0.288789048322095
-0.087929009328175
0.0815279242090729
0.157017758739012
0.183216296515434
0.170318838983219
0.167392749480755
0.247222765168052
0.360110640224326
0.449213561049222
0.623315538808019
0.944969458814342
1.24693185989581
1.41375126439116
1.56287911977157
1.75450290223323
1.86006196577033
1.81120114989349
1.62218485417384
1.20550784888212
0.538072998773458
-0.119673460326693
-0.510566265568151
-0.701565905628202
-0.861410842867218
-0.969188832285331
-0.954019946086312
-0.856539361150673
-0.699228002274003
-0.46696566535454
-0.282289429274116
-0.291567416379799
-0.374727962174419
-0.293357652839532
-0.0704133275536823
0.0729253445518034
0.0334539368356274
-0.146653533766467
-0.381169941915341
-0.533654844473652
-0.518104948704949
-0.426001673379675
-0.366323957240538
-0.297261691349685
-0.18042749723723
-0.077653900341613
0.0291873037912783
0.232950171202943
0.463565415754091
0.557473208587352
0.530485921929952
0.499533671339361
0.463661718019626
0.392143341935394
0.307829772578172
0.147741446894587
-0.142592610686634
-0.345994421851759
-0.201413276081368
0.147049803882327
0.330778121000006
0.274101936735005
0.168112882619156
0.0994058654275323
0.0261650155342886
-0.0497516345784379
-0.12479016090944
-0.239231913312424
-0.35981920238423
-0.418966438211495
-0.485545131865125
-0.639206390617279
-0.753092881673103
-0.709181636235049
-0.669380691328572
-0.805733800858929
-0.985435451946246
-1.01986525261153
-0.963137190708838
-0.944160499845011
-0.967975480097977
-0.991363370060876
-0.966607760453306
-0.837758012182442
-0.666555425550749
-0.602506891516092
-0.610702139593202
-0.479087272094648
-0.146029861869883
0.267093410787716
0.699731907005109
1.11696839982583
1.36596411884393
1.36971365486419
1.28917068996829
1.29165268190466
1.39225057586355
1.59087806655972
1.85810276581286
2.01255625575914
1.92566167116301
1.73444103547903
1.58947749318965
1.4018949349892
1.06659483483814
0.679577424001023
0.343685777292183
0.0203003452870739
-0.289237009642049
-0.479866043359545
-0.546211037272172
-0.601591199066503
-0.688681039916176
-0.790751031574474
-0.917698599667338
-0.983941062221838
-0.828557064201648
-0.517781504771282
-0.32700158638468
-0.337686718257989
-0.388658485390264
-0.407075623358782
-0.434327075195693
-0.421545871406686
-0.316449092634198
-0.205550009362145
-0.156921079485254
-0.128219157807015
-0.122283058939121
-0.167125096245634
-0.148804191887859
0.0458669858389274
0.306266574316903
0.466935366830213
0.523982578711882
0.505808126992587
0.387881331158531
0.239533672744193
0.167136339638008
0.10799394190965
-0.0452674938260221
-0.228135755235696
-0.360327023555004
-0.517118881867777
-0.730042452157949
-0.864125925781133
-0.868567970449408
-0.882221492445016
-0.958707624545156
-0.971454855353432
-0.881027320603054
-0.794522059830701
-0.712995437744764
-0.523051896896095
-0.240110416298289
-0.00611145366037925
0.0873270826718395
0.0135132460369877
-0.194233026933362
-0.392827020274559
-0.469560087691887
-0.482698933801894
-0.472099529652197
-0.329867311538211
-0.0652392991816784
0.0940458787104916
0.0625547271848254
0.0509735556750969
0.237559081601194
0.587796889929784
1.01448440576601
1.4297569177884
1.72020311082804
1.8924618856787
2.05388184535633
2.12936097378566
1.92262404574142
1.51395485564213
1.19990857650843
1.0378281569645
0.841157305545324
0.560939838728275
0.320728555834707
0.167611600459639
0.0463026177483357
-0.0959205029197128
-0.318350113279113
-0.63696335711984
-0.911428927887685
-0.992924743234701
-0.974982149281956
-1.04550937264863
-1.16396815465566
-1.17570286347549
-1.11760852216257
-1.11649016384883
-1.15092351100392
-1.13758269322788
-1.03979350810493
-0.788132903422341
-0.371171269585741
-0.00196756352828991
0.106474078654859
0.0458101365415648
0.0434904654823668
0.173685992744104
0.413839722058329
0.721844109856579
0.950662897004763
0.982655071662138
0.952066431246907
1.03404890481544
1.12891973076545
1.05592473551536
0.862770448869914
0.687541112191653
0.555043039910899
0.459434498291908
0.37581673825248
0.16933760781131
-0.2236578512895
-0.623896331869589
-0.882227208596177
-1.12253869591524
-1.47048610288126
-1.79103048798841
-1.9038739301863
-1.80618521402566
-1.54690144614424
-1.15898729869507
-0.790357004974816
-0.605533232852014
-0.54907713738328
-0.484806600098868
-0.447682662571543
-0.462444438534575
-0.341942128933452
0.0243753168030684
0.433131019388838
0.64846287516564
0.666241132195806
0.598044915838948
0.551658620755993
0.621135305847569
0.779280849277263
0.876289518091528
0.868028113850509
0.848742649789612
0.824003469842879
0.725175147297974
0.610297661756555
0.557364085570886
0.477651340155896
0.306949781572612
0.186152348279581
0.236985167289482
0.405850663660634
0.637052252853837
0.900696529717238
1.04457078732939
0.941994784200145
0.722667997967283
0.578506813530758
0.479964376531578
0.313244328646617
0.107901355995887
-0.0651523390152038
-0.225308272689252
-0.369718030991971
-0.425765053793926
-0.397540190826807
-0.363000159733806
-0.328976836486869
-0.295098067811072
-0.353477419253893
-0.504641241805532
-0.566494722144685
-0.454955854454947
-0.294121550644487
-0.143646716694679
0.0455130256978806
0.16860963041228
0.0227020275282998
-0.384571949247726
-0.858027365256484
-1.22825397216443
-1.3530058687412
-1.14321369539673
-0.739117265932199
-0.414277497902071
-0.26733568325908
-0.246012102672371
-0.343635479925001
-0.48595901522343
-0.442501247414107
-0.1323563139322
0.221182685422365
0.413429570723296
0.455903993676652
0.398421001621715
0.260546116048847
0.119014400649832
0.0138361342220038
-0.119407356611794
-0.252514352169002
-0.217449749450227
0.00127918726796115
0.186287038214965
0.215257947204249
0.203131332783975
0.244928922972772
0.290347863877322
0.302185566773305
0.287382416786407
0.220443065413085
0.146274061595262
0.203503275508369
0.380261033361993
0.480435207759891
0.422061703154253
0.299445958168882
0.176553799831237
0.106115570692617
0.211331732969631
0.468757184878303
0.629855987228278
0.573991497776026
0.454698049745356
0.375542192664098
0.26734845518446
0.129803566739297
0.0399209213772223
-0.0413149267653518
-0.163896932872282
-0.233280549983417
-0.200203543056639
-0.179415841249723
-0.230082474699589
-0.293037347969627
-0.379456273116397
-0.520612055254225
-0.59622421492689
-0.501501224652192
-0.350269213400554
-0.274625169072312
-0.210222842825937
-0.0688900224975862
0.0872699638451695
0.185974405056622
0.244016471710739
0.249734602572259
0.178179298983501
0.13472249813231
0.235127039363915
0.390760755476779
0.435415158143677
0.339392626304308
0.139042026235696
-0.127719477302524
-0.324669024249217
-0.325904589860127
-0.227858259107676
-0.191364994129044
-0.187040470281541
-0.14181155763077
-0.117710368153825
-0.130248404945554
-0.0671696049570921
0.064575942960928
0.109703440109577
0.0293429268340678
-0.0950342486643271
-0.246033064915435
-0.392601133994813
-0.420788472737984
-0.36268515531833
-0.416975579176361
-0.606190967934271
-0.752348433558028
-0.823631065261747
-0.923865504790267
-0.982356281383149
-0.826433427362142
-0.479498938231649
-0.0955773769250002
0.266449503331254
0.59447626243855
0.836952562030272
1.01228052369596
1.19130201274962
1.3040254688646
1.22344034256403
1.03885093238568
0.947472977338884
0.936365724586296
0.859574477616914
0.691624295656628
0.463525607455726
0.162768053857426
-0.130089818070835
-0.257229394282103
-0.211217463087078
-0.104754022996605
0.0327210808408745
0.200384332042432
0.319672892614358
0.362635777460668
0.379540066153576
0.325590103105118
0.130898807028217
-0.086403805123427
-0.179425449653161
-0.217636709642167
-0.294335729269025
-0.338653342442905
-0.366471077063453
-0.570632164882226
-0.950629595231079
-1.22300329994823
-1.22638864271283
-1.07414117121179
-0.901024127478573
-0.76492997359843
-0.710396307077283
-0.682663782120981
-0.530612866573656
-0.262704730476482
-0.0862389824045805
-0.080246785345459
-0.0906947630782951
-0.0226102874668192
0.0576478839207194
0.138854127057435
0.274194922510022
0.400275092338532
0.429876170985317
0.422386810167935
0.443600217632334
0.452959072988591
0.471710871188502
0.594966608324953
0.772834690259978
0.858403097308987
0.84159279740115
0.79214561422228
0.709357484066773
0.621589007465462
0.613973236666208
0.633059257318427
0.531408622967921
0.338471251492726
0.199171366609815
0.106526224815719
-0.0332467979112038
-0.224302378360453
-0.479003001939528
-0.844092758049366
-1.19691012673004
-1.316042093042
-1.19332661735313
-0.984050643938627
-0.750160813486723
-0.546861215315765
-0.551496028061888
-0.799105076109506
-1.01572301792708
-0.963004937732421
-0.714037825190505
-0.426611652576347
-0.131129916489939
0.12815468571204
0.248820775038587
0.266930052490195
0.3297028552515
0.463958414328868
0.597319691885255
0.705537489117276
0.76837233374811
0.780822636627815
0.886915277269301
1.21058003803038
1.56413579097747
1.66074760916328
1.52037550149201
1.33948993152085
1.14653901020472
0.88738061511743
0.616115805722868
0.369253307894609
0.0980369947631418
-0.170743299592455
-0.374849862798934
-0.584534186974826
-0.845897240759896
-0.998442549906021
-0.917492731129788
-0.730102937527448
-0.602768207301273
-0.578376489672053
-0.69585098936708
-0.952558051197494
-1.15196875122416
-1.09787570731763
-0.874442959075951
-0.687586773272857
-0.570767744120951
-0.453433592534919
-0.339804542348688
-0.251485377378244
-0.174716568725727
-0.1524289008074
-0.223725190049582
-0.283517299354618
-0.248165385594978
-0.242936287005452
-0.341321297156038
-0.333370898893066
-0.0555933803567403
0.310984582925925
0.521410560758331
0.563325362429646
0.533824471412152
0.510216085064139
0.570571187404132
0.690371028918286
0.715087655814645
0.623663657828998
0.59471508111661
0.678298026388316
0.713546233421542
0.64774605548808
0.59922394120368
0.608951701490009
0.644366007222258
0.735647270612355
0.83731896099252
0.763935815683558
0.462836739053554
0.0857458554733924
-0.291047851301122
-0.699467697851496
-1.0488843470375
-1.19297366129389
-1.1613439195445
-1.06322887313817
-0.901588110889666
-0.691470220928331
-0.569134790923594
-0.605826490295789
-0.707727703551057
-0.801537792719687
-0.896954189216507
-0.939912594163514
-0.852834330267624
-0.676708973736399
-0.454173773962223
-0.133816618280527
0.22487182143831
0.422153279993001
0.431734630157667
0.429663359718658
0.478593535538151
0.524344341892106
0.627871052867643
0.858398255359012
1.10731334556204
1.28093961799775
1.44929563310695
1.62402440265399
1.68512794471545
1.61857921651566
1.50727740349362
1.30008674107024
0.904178549134988
0.400129981629588
-0.0894148538653881
-0.537054526399547
-0.844240234302325
-0.834667548910981
-0.528516783990905
-0.141405969992016
0.184110931656033
0.391803190318576
0.391977280920054
0.185843850760355
-0.0615393990388946
-0.264770857640025
-0.51758183413609
-0.826515234449797
-1.03462967881371
-1.11244809985457
-1.19570269001214
-1.2592440284394
-1.10571571870709
-0.726100330502722
-0.356001428346493
-0.186748929620052
-0.243944925355286
-0.427907999233244
-0.53009444681439
-0.406679912287041
-0.179173332720518
-0.0380198094817714
0.0591260729191733
0.233695409501083
0.414480407778918
0.473769804538153
0.423282617493562
0.315497127214558
0.203217585246761
0.230129180212414
0.450339334494942
0.622578716379497
0.50685702012868
0.212512399530132
-0.0264836576510646
-0.171491521791264
-0.264304613042039
-0.314071124647237
-0.427315209768888
-0.712906353701332
-1.03568902371107
-1.19448671770131
-1.26976890542288
-1.48034558072198
-1.8192320093444
-2.10186488520087
-2.22584282747149
-2.17567393925147
-1.9487598079206
-1.62444078089546
-1.314614840728
-0.999626818366148
-0.643512301493617
-0.398967781953216
-0.400637868790081
-0.492402496397676
-0.452996076781343
-0.300017008416317
-0.143310503364493
0.0164029123096159
0.197362848306246
0.396936964701982
0.669625264814433
1.01785184353118
1.31018984260041
1.50758728753452
1.76265376682783
2.14417227855309
2.54130558973979
2.91980557371927
3.35386344673676
3.79918036612459
4.14636296321169
4.42566426575744
4.7085622666427
4.96912244668881
5.20010839983305
5.42061555921078
5.5081700260999
5.31795999888741
4.94767866562411
4.59914753872089
4.27090469335044
3.81749835510399
3.14149861882691
2.1520328189567
0.784894447041799
-0.765261628921699
-2.09644382041643
-3.01877921007554
-3.67551319203104
-4.22441984777179
-4.70518987659786
-5.17231432998532
-5.62592103952906
-5.91373046706145
-5.97194350764105
-5.9608749571422
-5.97434531931895
-5.91674587349331
-5.78154815363902
-5.70247720576125
-5.68327705707984
-5.59095052067581
-5.36309498222883
-4.98089129553142
-4.41077590962429
-3.75507725624593
-3.21295378504167
-2.78934104630093
-2.31982679096016
-1.7737104016036
-1.23702286915614
-0.702516054736957
-0.144424356954558
0.382802234555617
0.894970030393528
1.45628663574229
1.93634227837811
2.12041427204666
2.04762982991707
1.91127535363818
1.74218986560966
1.53017182456804
1.4959583622598
1.90761377032015
2.75539257203698
3.8276946539145
4.91403627316395
5.76445005032877
6.10573554512596
5.87417988101661
5.25148141400427
4.45973973410056
3.71239974230095
3.20651612583493
2.90694681274234
2.54567787656898
2.02154081974852
1.52545000384847
1.18714614141463
0.938169659270271
0.731170208264816
0.563713836246483
0.362352004238902
0.111433763184093
-0.0718664445228179
-0.167660500373897
-0.303816993776111
-0.497217307544504
-0.650363970924385
-0.776459121974502
-0.908876042700635
-0.938229218011632
-0.848252338308966
-0.860255977663808
-1.08020539157766
-1.31975257636672
-1.44724337650448
-1.57158016231332
-1.78723977890792
-2.05195255743239
-2.31339802109811
-2.5082462567029
-2.53573796499022
-2.42258910605388
-2.34636422730621
-2.36387082292215
-2.34145505124555
-2.22797890283399
-2.10490028622824
-1.93651336599208
-1.61800461918279
-1.26170383403514
-1.07642311453928
-1.02276538287188
-0.89636604705043
-0.6122625009902
-0.184103267875773
0.349719293359935
0.841844688548698
1.14251127823983
1.3167316749611
1.50267941607067
1.66887804928677
1.75758671334435
1.85017435045989
1.97543212210803
2.0255133930464
1.99420874877572
1.99704922297992
2.03646898284352
2.0566147881709
2.12157542735596
2.24006917324277
2.23328085646121
2.03490510909059
1.83477769191831
1.75743725751781
1.72758477113732
1.71183163943341
1.73737070989665
1.68104658425267
1.3668630265759
0.821893840660648
0.197307430410773
-0.436977163865068
-1.03435634620735
-1.49580721320469
-1.80583856023839
-2.05153362476803
-2.25276467203713
-2.41100081930407
-2.66493628704967
-3.08572348668936
-3.44593326302976
-3.51583366378125
-3.41330817539484
-3.3988326906076
-3.54591768849189
-3.76849549655027
-3.91136302891742
-3.76646118213898
-3.26228344553702
-2.58397904584405
-1.90847477616772
-1.21113610091996
-0.477466773471977
0.197292156852396
0.816179568294247
1.44105066359496
1.93794141431651
2.12874878096497
2.12088376275537
2.15256480116131
2.26379160648548
2.35626978083968
2.33374792645876
2.05859146712396
1.49002693227775
0.90434067664814
0.654562248409866
0.758414610598764
0.995672787182949
1.25123382860997
1.4917262870219
1.60630188772873
1.53106349543577
1.3504533708194
1.11061766546119
0.766105041624285
0.417378493785869
0.314027344328229
0.535954825310604
0.909876782728162
1.21753805866931
1.29451622780283
1.08584240421322
0.777721639097012
0.649815624999796
0.708188126994381
0.729591366934718
0.63791404726866
0.527208345987217
0.423381464959454
0.320821138360654
0.285090693924196
0.294550169094773
0.210114769858091
0.0258294212388337
-0.127129688822931
-0.23187794316997
-0.342083038688236
-0.406541732932395
-0.435031108023906
-0.613133782569458
-0.987169105326302
-1.32331115802636
-1.46219611230331
-1.49528667071072
-1.51671065241128
-1.52716437622236
-1.56606295228332
-1.64218735620481
-1.62553738186579
-1.45344061038323
-1.28406857021339
-1.2408070866259
-1.2153043111889
-1.09399565510423
-0.9326033529237
-0.78090192523202
-0.602458614085734
-0.425156655730456
-0.30808484994713
-0.197063550512975
-0.0388466804967292
0.112411049179807
0.268629310713404
0.535456699175463
0.871143644172038
1.11955646704979
1.2842782818103
1.45802154466805
1.58159159464591
1.56793409389369
1.48420757063287
1.3770129332736
1.16472254585231
0.850957204195814
0.557135257560662
0.305038674160375
0.0660125866732687
-0.0675780367075139
-0.0587451784868752
-0.0700944837514355
-0.175889172643923
-0.220429501264023
-0.1463423830413
-0.121091999663822
-0.233951453262471
-0.402349357637606
-0.58217396500522
-0.764765125937473
-0.848058183214589
-0.781054445535378
-0.703282562839309
-0.732949949901353
-0.8056103351309
-0.870397256808241
-0.991835439223828
-1.14905237427371
-1.20984071644566
-1.12969467270074
-0.903823833889961
-0.436039363949396
0.241831061730666
0.819709135496649
1.0553548501222
1.03409302290073
0.924474537171836
0.777171735906953
0.630411046541024
0.504038600898685
0.321950032741283
0.0973481327125798
0.029695173910874
0.205710337641584
0.461028417288212
0.673464904753832
0.866768309225997
0.980619776909789
0.909890789107279
0.740512675705685
0.60343668500123
0.422164052341869
0.0852502812719032
-0.333858790288597
-0.704430321687151
-0.936019638331536
-0.915956960938524
-0.648297939461432
-0.389886246220057
-0.351674686421115
-0.407156234189879
-0.358504854499781
-0.26752312066822
-0.262049172953795
-0.26449684839643
-0.15469805677003
0.0395586120069939
0.275605060339688
0.550601505609503
0.747429517207985
0.715519134313206
0.507746652496708
0.292001719535187
0.139907927237824
0.0934741928797681
0.222497238155558
0.475556905622
0.720769657916986
0.963319742148323
1.26311068604466
1.52494519386868
1.62469197577485
1.57638629003258
1.39403473349351
1.05300817095348
0.691558288140139
0.504271336173538
0.394856832793738
0.101074345356862
-0.371604740711986
-0.777126050440379
-0.968107244972824
-0.950222537276937
-0.810779489432142
-0.763310462773298
-0.988756627375261
-1.3488783696518
-1.54284313477724
-1.53274947974468
-1.52611929219168
-1.61900274552895
-1.73640036557936
-1.82292898860017
-1.85534407351537
-1.78922386743096
-1.66711308690505
-1.61577586928067
-1.62967468632865
-1.5657906799569
-1.37889146492196
-1.11912549175913
-0.764862129593691
-0.31783435649071
0.0761642618874744
0.324000609789921
0.517380031143338
0.754957938632108
1.06611061219777
1.4975516330354
1.99694064859056
2.32138979017665
2.33863237102063
2.23198322113599
2.18071822230071
2.09705428656202
1.84587316032785
1.44228444773806
0.967141072256264
0.558289834166034
0.400740402837113
0.456470130920903
0.414638907214241
0.143797374979602
-0.117120826330605
-0.188378568209535
-0.192874303269255
-0.262106126261269
-0.374898343055722
-0.529476394636054
-0.747221666953135
-0.931601419552689
-0.98133324126851
-0.949174478649877
-0.902415137406352
-0.803325634197886
-0.672594495168661
-0.619635500697907
-0.592845288779636
-0.39791005280073
-0.0383659241975374
0.271942401944878
0.434922517630152
0.520954011736916
0.593809828162155
0.716999014697443
0.95043065864888
1.18920696018808
1.25406437970781
1.19149255735191
1.19642100796548
1.27993811740927
1.29132707903777
1.14066838828429
0.785954707521609
0.233807283314002
-0.295643400048912
-0.512275187092778
-0.447483862063486
-0.390821639944823
-0.47763327022944
-0.649305136679514
-0.8616479638674
-1.04037446586577
-1.05549206274694
-0.948039759836744
-0.920406846255393
-1.02347055267143
-1.14428282123116
-1.26050950392094
-1.39889327089144
-1.46148501026546
-1.38645815643965
-1.31773104868721
-1.36826413031237
-1.4217305418707
-1.36064815577427
-1.23944412766288
-1.10709585588163
-0.954039456242012
-0.866570796741384
-0.890102083716771
-0.798736510872492
-0.362460721129788
0.287960683822333
0.867892226173705
1.28980923854447
1.58115192354211
1.74128384550275
1.83914200384489
1.98159581093242
2.14553296315196
2.26620734720702
2.37986566619242
2.47962682620156
2.4439113107444
2.25437294316538
2.02278965629121
1.77042403233426
1.48858605229636
1.31778508287274
1.31397552663629
1.22418715973046
0.829962451368471
0.27072161503253
-0.219009995494789
-0.592498058063249
-0.868331584777612
-1.0563670220182
-1.26412111635473
-1.57569916077755
-1.86535974053218
-1.99918980882797
-2.08875348452978
-2.28441682661086
-2.50108990069175
-2.58860750809541
-2.5519939182778
-2.40563500716988
-2.07304697476395
-1.58273983871777
-1.10490826802939
-0.738879034132517
-0.484213210993518
-0.323438966491258
-0.128373270790348
0.298835164852522
0.916326634390313
1.43488626773974
1.69631708910316
1.77886089713404
1.77975505684623
1.79685864530324
1.9760826458072
2.2877961009454
2.46318319280769
2.36148620264693
2.13706383488646
1.93776184696902
1.743027116092
1.50725086176072
1.17575220695789
0.671977448352142
0.101517157054824
-0.27158661403168
-0.424211901758198
-0.625315398127644
-0.987574933049602
-1.3322926694976
-1.54465330472781
-1.71225683801525
-1.9070069869967
-2.11799733115282
-2.35241720364364
-2.5828942182098
-2.70449552056724
-2.70190105923881
-2.67750060271736
-2.6125682196916
-2.36067143665989
-1.939889645032
-1.54131225776978
-1.24360462212123
-0.977778357744513
-0.680142200140345
-0.281401702810066
0.257529450925171
0.776849179965569
1.05844535464999
1.16453788754737
1.3264460174584
1.56810228595006
1.76281469139758
1.91396958163126
2.08104197176878
2.22014013196148
2.30706892207427
2.37431883088866
2.32928892045772
2.03795424149716
1.60282625510865
1.25788470849329
1.06047776383763
0.931355987230902
0.825508759900629
0.679808085183815
0.421023303481777
0.119621878846131
-0.110514534385721
-0.346111173274001
-0.727119293660851
-1.19229830028224
-1.59223991771625
-1.91445319465191
-2.16800859705304
-2.24072811887459
-2.08054938410425
-1.80609827667237
-1.49592552141908
-1.12370476563746
-0.752599715220991
-0.473380105312434
-0.170559099056282
0.317215669427474
0.911503026582409
1.46727930823738
2.02689356256768
2.64693402832445
3.22426766271352
3.67045117703228
4.00831968793095
4.23909987650952
4.34960667542471
4.39206393746804
4.36030773286651
4.14402845351621
3.73435640612756
3.23638484547022
2.63188359702277
1.82522477651853
0.898283117531901
0.030527553039398
-0.726912165173802
-1.3772043603917
-1.88988509172042
-2.33458744435339
-2.83506530150254
-3.3440678317234
-3.75137949469638
-4.14485080029002
-4.65699956511337
-5.18683231950524
-5.55728898347228
-5.77260408285355
-5.88753740841534
-5.85084515287387
-5.67587424211915
-5.49693726846823
-5.30253648556186
-4.91740376557585
-4.34031482834438
-3.76734848723299
-3.26404493843747
-2.74326338663697
-2.19901727510137
-1.67438783342083
-1.13951285627821
-0.593213057313327
-0.0705033397396026
0.520884817991889
1.28427876694935
2.07756207041506
2.67213467521548
3.05675207309461
3.32142984893945
3.44659232364519
3.43157522116264
3.38519220622655
3.35176851845612
3.3014488799982
3.28984052630259
3.35336649334405
3.36012470729999
3.20617698102731
2.94688615976791
2.57171778391441
1.96635580499025
1.20776684195204
0.551767332999437
0.0842114045811027
-0.29638874170673
-0.595909828931599
-0.733445842017529
-0.74320065989104
-0.696351796919966
-0.541396118561425
-0.228354102777354
0.184940887508866
0.69132213151292
1.35991819752222
2.14183129823388
2.93509079232792
3.79254362116986
4.73574633699071
5.5072653413003
5.83805887453974
5.76207704095251
5.4312550035535
4.9041343141818
4.27430451692241
3.70061846538188
3.24225789491981
2.9037732692337
2.7301061872238
2.61988270791484
2.26259103319613
1.4631447516912
0.289063383973157
-1.1423396646019
-2.67909945458384
-4.01392033542205
-4.97508378233633
-5.82958109478296
-6.92450910081923
-8.20264400424204
-9.33816771116896
-10.0843382157301
-10.3075017968171
-9.98960673734111
-9.32043481909083
-8.53776816318741
-7.6743247370459
-6.6541975311054
-5.48402058144887
-4.11782066959182
-2.34950679608994
-0.108076929510274
2.32744064459047
4.59456483687511
6.51338893110902
8.00925045540554
9.05665362596779
9.7150142210491
9.94952900791754
9.53289892628395
8.40584607621886
6.94643677318839
5.63983683748094
4.6763874548616
3.96139247128426
3.24081340033806
2.20882270184518
0.781299914288201
-0.780523952014818
-2.19282324816878
-3.38922351758699
-4.33008633529973
-4.94824647280235
-5.43041286386501
-6.17093540635945
-7.32919098820267
-8.71085060761892
-10.0160788932553
-10.9340165691233
-11.2060630862367
-10.8957791305681
-10.3901936030319
-9.94006422369181
-9.40744062281427
-8.52491754356503
-7.16784181831256
-5.3918926534616
-3.42902112070831
-1.58521508779137
0.0155628053250442
1.44961855511073
2.66786968487228
3.42003395464728
3.63283435933248
3.59493254791168
3.68756634743853
4.17909568522566
5.21946788938138
6.73768013719307
8.45839391511263
10.2175382938807
11.9989386115851
13.5590723780128
14.4744546259594
14.6922373633227
14.5660436065793
14.2689658285537
13.6065154624976
12.4134403442198
10.7693972231862
8.89046046338886
7.05242186912875
5.45157910563729
3.99817761846573
2.47190189385948
0.894606444454708
-0.515237381869534
-1.64886843902208
-2.4846238372529
-2.93430162736224
-2.94982835850193
-2.60144631788085
-1.96672572418833
-1.18813805711609
-0.60620119651787
-0.518740531374483
-0.847392361673018
-1.29014364549549
-1.68757947987208
-2.03475737256342
-2.34461236860645
-2.73818617669027
-3.45100397894575
-4.52760844108952
-5.70233369881061
-6.69334300535804
-7.3971166370427
-7.81674007942955
-8.0818915583999
-8.45840827792615
-9.09192684180667
-9.88300449514716
-10.7211654820684
-11.5509241324981
-12.1710332686861
-12.35237324016
-12.1658454639284
-11.8536929708348
-11.4636653323142
-10.8899002709402
-10.0765658211257
-8.95519929265772
-7.44352429716744
-5.64744697237048
-3.78561145057832
-1.91189751001796
-0.00129192828723987
1.82881942511877
3.46159447958077
4.90156040995112
6.05333632688935
6.73682645573562
7.06678375059861
7.42083063678275
7.94242233496887
8.41554532621438
8.58683823732865
8.28946505344292
7.41797988059895
6.16527247445936
5.13003304268107
4.82822119708838
5.20181245799764
5.79912066984537
6.21281713334798
6.22647174653282
5.86875133389672
5.44109191437351
5.21671929569738
5.13661085644388
5.02700544351918
4.8986081882375
4.77436702064108
4.50565960444863
3.98868423270789
3.3095336463905
2.59824096234604
2.00812349801482
1.77841768367407
2.02955739949414
2.61817068775164
3.39195558148476
4.35895413591171
5.49485483606235
6.70522438884109
8.01940061597874
9.473026688934
10.8335379178795
11.7440795979877
12.006807141918
11.5141295499726
10.1545673001101
7.95831434436059
5.09750318815192
1.72806609747054
-1.89588646202337
-5.26565358073202
-7.92613957429679
-9.85606231286729
-11.3084076782638
-12.4866355457799
-13.5914145552772
-14.8372170730539
-16.1325936676452
-17.0869328399252
-17.5762985971182
-17.9547603493487
-18.5690760417962
-19.4305164544314
-20.3955379453593
-21.2955568539383
-21.8870782344335
-21.9265775344062
-21.2599125799404
-19.8202711544907
-17.7163275831302
-15.1774242114456
-12.1216061577612
-8.0568171838679
-2.80909696008868
2.95127012849242
8.29103652423287
12.8063827965928
16.5530855745054
19.5536009952305
21.6144048497397
22.3953653365256
21.6954802964614
19.9358405623222
18.1011759791567
16.8351395482601
15.8783497615037
14.7057953848461
13.356712496208
12.3215616942772
11.9141524914109
12.0045314342528
12.134458886473
11.7238047833903
10.3533288298226
8.01467924745169
5.09713667895006
2.18322674350709
-0.197950849125008
-1.89902385058622
-3.3088670050743
-4.92660649409946
-6.78310391326118
-8.52782938045507
-9.93525112836011
-11.0179944387576
-11.8443642273439
-12.5321439416203
-13.2135264421357
-13.8400063571587
-14.242029031556
-14.3595727912152
-14.1158498642924
-13.1997702409276
-11.3205693735338
-8.53078706119628
-5.08230120320139
-1.25302659385345
2.51864253078273
5.70309453318044
8.05200533700618
9.64816916070262
10.6166475302389
11.017022815151
10.8576579642583
10.0667567962924
8.71887185102159
7.27547388613633
6.12823615864485
4.93428390898739
2.97803452322011
0.239166411600404
-2.39073209711572
-3.9994958221093
-4.38871017918527
-3.95773983529219
-3.20746233772312
-2.33701473995973
-1.10244678822778
0.860198804793899
3.49271432180736
6.26896770080226
8.66607072906267
10.4366715300071
11.5396215509758
12.104654400653
12.3301758288158
12.2183565273843
11.6414517028406
10.7569324890142
9.98608792574188
9.46107016820441
8.78987718264935
7.42819386609937
5.15706389825285
2.34372068510403
-0.219795836522478
-2.05054265268768
-3.51814791967249
-5.23315894984936
-7.06685549669107
-8.36806948544079
-8.93325494810769
-9.09736259315998
-9.11361769239326
-9.15975410679191
-9.80444747966454
-11.8136221302309
-15.3900825445162
-19.8013586686818
-23.7278508238578
-26.0308846459681
-26.4641120104266
-25.7416463222453
-24.8348774822284
-24.2479300738781
-23.9324630974911
-23.5403647763075
-22.59725274577
-20.8115411913709
-18.4514044180593
-16.1175627147186
-14.0078972379134
-11.6762788462409
-8.51290117521811
-4.21922466860069
1.02403382413614
6.58290627217905
11.7271920120415
16.0945382731237
19.6318038092336
22.2507151470171
23.9700004926243
25.1956630326606
26.3139401959324
27.1151099558452
27.0490375648163
25.9503418145204
24.2754559061234
22.7818331673829
22.0039131347769
21.7638552749414
21.2334962669122
19.7136338722111
17.2094423606403
14.1776620057976
11.1652720230875
8.83126433768066
7.74879064529698
7.91293533490427
8.79611777271399
9.93379469291127
11.1042633470457
12.0806166094577
12.725291670903
13.2462196112993
13.8393326016244
14.1020324016986
13.2379129485222
10.8553079637694
7.32960938075361
3.480515585737
0.0031181059343944
-2.98910803266933
-5.92562303054499
-9.14486099179491
-12.408849898889
-15.1843336078668
-17.1678719882993
-18.3924726670042
-19.0932005933299
-19.6142898730252
-20.3051483310256
-21.5140736596407
-23.6449342626177
-26.8080755458416
-30.2857627748985
-32.8469985466027
-33.7903724653795
-33.2573558297866
-31.549380075673
-28.7480303120402
-25.0185674218094
-20.7224829661213
-16.187653669684
-11.6366536418166
-7.13546475260971
-2.47651020838108
2.44231715881362
6.94773976268152
9.77438809740026
10.1498186250018
8.46132839514944
5.89778296696448
3.74682229134312
2.88796422642925
3.48009942525773
5.00508236529872
6.7346017586555
8.13801653482596
8.96701982557531
9.30503221068296
9.49804373647262
9.65973363102226
9.3391660141059
8.05812864198787
6.04007571682557
4.09133281309412
2.9120572581202
2.64976932661413
2.84701053991088
2.77793403522961
2.15964101298801
1.52791774279622
1.67802720315582
2.89293913431752
4.87349227392051
7.0490499998186
8.739469234859
9.43394580980008
9.16973533161686
8.40470867649172
7.56091557086467
6.9967807284996
7.20446719295484
8.57994785572869
11.0742103551957
14.2819313998048
17.7071645981865
20.8746842648845
23.4284607714593
25.1812280213168
25.9885035222601
25.7859859186768
24.8769850872608
23.757082351294
22.3217166442147
19.6486768321506
14.9850203651611
8.65306284973107
1.69215981509335
-5.01063965436101
-10.9855085637985
-16.0300243830845
-20.1310808520477
-23.3718546157413
-25.8754393641308
-27.9254996438946
-29.8958191098585
-31.8746896650894
-33.5924660510928
-34.7743841853195
-35.2809400982274
-34.9934737087022
-33.9430834829671
-32.4330518772186
-30.6856368490414
-28.5252347555116
-25.6498060244726
-21.9869681038072
-17.6661494652441
-12.9524597796737
-8.26328418753082
-3.95666861743247
-0.105262028855938
3.38596280202429
6.62611533442585
9.75807836771086
12.8252052381838
15.6266292012184
18.0363794278931
20.3214516097715
22.6813114699122
24.5632516166449
24.9272064156109
23.3047269558792
20.4112354874257
17.7129653900661
16.3738460445111
16.3394849275756
16.3425293943589
15.0520021355643
12.2844675090273
8.98367616872934
6.26074886119782
4.64735817850526
3.81482033177629
2.64969858019829
0.071735119699554
-3.79851737469068
-7.58449198968202
-9.93472253511812
-10.533699592753
-9.90656404176864
-8.76526233504905
-7.61987636307085
-6.63982105115751
-5.77162878328103
-4.99444374623605
-4.24904440501093
-3.17091952783438
-1.29048672707472
1.50208882436253
4.98667088619987
8.89824946404575
12.7722997573352
15.6844035247648
16.57762066361
14.9624029598657
11.3494496545958
7.10287919951722
3.65473714214458
1.53162819595111
0.191090712801708
-1.10528378089236
-2.5645993569646
-4.13189686861191
-5.95664748086033
-8.15990892455087
-10.4431078790691
-12.2719428156229
-13.2701365495607
-13.3767711874403
-12.9177192675744
-12.4363041478324
-12.0560589128111
-11.1415251561823
-8.9675079761587
-5.57651551133337
-1.73325781131397
1.72809548849058
4.33486493013424
6.00030169915748
6.76727784384141
6.5449896960467
5.33570530676135
3.71213735688481
2.51730346487835
1.91777705930554
1.29584860970807
0.190982015519883
-1.22593976239206
-2.63308629568275
-3.90006167252978
-4.94456199122324
-5.73303485138725
-6.33744261172864
-6.64439209570248
-6.22898583033725
-4.85288711251329
-2.94165191633292
-1.39907468830006
-1.06671945421387
-2.30446187573973
-4.774909841551
-7.57565787862308
-9.81353640456813
-11.0887427750896
-11.3454123756591
-10.499620361778
-8.5033735442807
-5.62503429376235
-2.42563726320312
0.510710923412922
2.85604939434265
4.71326958478364
6.45598678212395
8.33722673981578
10.4351034824651
12.8553119778071
15.5089767351544
17.8035390522339
19.2038069296463
20.0718443372994
21.3101072870059
23.1703294995622
24.9364892533636
25.7095782922506
25.0700612114541
23.0947633259364
20.0880455172063
16.273168680472
11.6816032015192
6.42355839660207
0.899591591555099
-4.39730227023691
-8.97659038422852
-12.1335947254694
-13.1843309799729
-12.2514619254124
-10.4224546928947
-8.81218235031383
-7.68590104258488
-6.62555814893841
-5.30152369890958
-3.95984304565387
-3.28934422007591
-3.81618087334178
-5.38230245719293
-7.36777926974344
-9.37945952267864
-11.3516092690455
-13.0341266444797
-13.9466461080332
-13.8880783725699
-13.0324713405526
-11.6187322618208
-10.0213926096005
-8.9481884464997
-9.03860427477501
-10.26792723656
-11.9463411566805
-13.1977824394735
-13.4657065894507
-12.84790187597
-11.9489386005385
-11.2226585968954
-10.5797858570974
-9.71391787841624
-8.48172026047242
-6.86718482379138
-4.9780608758491
-3.18842607453867
-1.92786065534622
-1.25594683472575
-0.84207029709956
-0.258560029133997
0.838777160015722
2.5668639470293
4.69443554022001
6.88763600825196
9.13230763617187
11.6572212417303
14.4271483700358
17.0069575025877
18.9958502725442
20.3945334362642
21.5137242614229
22.638016820689
23.7229397454441
24.3648053426053
24.1997237474724
23.2976364871847
21.951355355263
20.2190470666254
17.9791078261986
15.259432466895
12.2168030810645
8.99838512891762
5.83940549231714
3.0529951390437
0.778838614662743
-1.10921035611896
-2.96527746265726
-5.40346964114658
-8.94174933143894
-13.2200728434222
-16.9787257686292
-19.2301639823008
-20.1276810925378
-20.4532881884462
-20.6935939173939
-20.8286741270056
-20.6199593673253
-19.894992972704
-18.7099306079341
-17.219874362889
-15.3711985034276
-12.9789629984155
-10.1333802251261
-7.18325722483037
-4.28117592725243
-1.29372500074486
1.78493162422367
4.59978741203479
6.64331662844955
7.58315234969801
7.56540180388434
7.34090753769082
7.75846259687606
8.85243740635782
9.69449120516934
9.34910389210432
7.73912853766608
5.5386525790418
3.54210097157966
2.16075376165969
1.29133162632409
0.673495872266239
0.341798559384077
0.439660254271131
0.682211936702364
0.515813516121576
-0.175083129411061
-0.971357162481603
-1.48122902231708
-1.60075690773458
-1.33534870877596
-0.720028370176981
0.168351394355323
1.25451759534549
2.35427128500174
3.10945124517952
3.36552212430723
3.46501381616633
3.81068457396081
4.32892858641239
4.61997177595854
4.31837698973739
3.09778348367506
0.758748280500695
-2.37510869951269
-5.42393314678715
-7.52140608075191
-8.29853225095917
-7.89179822032304
-6.75416583422371
-5.36711498293085
-3.84796822653261
-1.89667197970019
0.739858718320892
3.89991549877252
7.0579857789593
9.42979820349842
10.1899420923785
9.107938976659
6.95548415259378
4.94409214428811
3.82385107097452
3.55750970565209
3.39744544347536
2.13619226641876
-1.0968474696667
-5.88240511539412
-10.6190976436008
-13.7806713694975
-15.0194925983928
-15.2190861550103
-15.6651088733385
-16.9611010192789
-18.5407256066861
-19.2622860684163
-18.3480954941795
-15.6510758504811
-11.4581458761475
-6.43298637068516
-1.40326077267993
3.19703661871228
7.51517170635092
11.8491604383804
16.3110140967829
20.8142971767997
24.9898377464952
28.2731504948902
30.5625585692059
32.6162915637906
35.1931751908856
37.7904690549307
38.691229073657
36.351984720518
30.6599485640555
23.1214930950431
15.998407725055
10.8256333200492
7.32577250061883
3.74465776919524
-1.72069395145997
-9.68513148862228
-19.1982997744547
-28.2133327702202
-34.7502898735214
-38.0299353892255
-38.5775291153437
-37.4422183280756
-35.5842201018612
-33.7158349219486
-32.1865176136224
-30.9787185913243
-29.9494982323701
-28.9036919976979
-27.4791092242573
-25.3900017510955
-22.7735413191056
-19.8851902556839
-16.6026022105895
-12.7143810632647
-8.51659384559722
-4.60159708055282
-1.10594891270575
2.48761631060224
6.77268325439726
11.712034906965
16.4622063219584
19.9966583064571
21.9929433191907
22.8775570328572
22.9334893577369
21.9152341398836
19.8737067687465
17.7151379361298
16.3457576638384
15.7204005503758
15.2299212426956
14.5654943952302
13.7885396708653
13.0221173429276
12.4763227609635
12.4521340040142
13.0043589186993
13.7124347295899
13.928711801702
13.3294732766139
12.2904440114361
11.5836707657971
11.5425717909497
11.67667523277
11.179081706456
9.50688365313776
6.48800960833033
2.45741778026498
-1.57255436384287
-4.48228455538292
-6.00601651193054
-6.74186674219558
-7.23676670547144
-7.48919930750994
-7.26966759875188
-6.53575048908739
-5.5653141716125
-4.85679672874688
-4.78474004598498
-5.31729703232579
-6.20991811295037
-7.30441149026166
-8.33444251626873
-8.69846392381776
-7.99073117257049
-6.72806933325278
-6.05633630406893
-6.62880871326949
-8.00310056767803
-9.11630982717815
-9.21929529713942
-8.41819690188425
-7.33482369048296
-6.2701711146074
-5.01408952861015
-3.54804564284618
-2.36403651851923
-1.77746947533181
-1.43483576660068
-0.863614655357237
-0.19474500802697
-0.199164525438652
-1.86419880983385
-5.77045177565599
-11.3987630881271
-17.0774211246593
-20.9505077131785
-22.0422751340196
-20.4971920939438
-17.2360838543414
-13.4558093556073
-10.0455735910058
-7.33167102652919
-5.39810311446969
-4.28506610683598
-3.70884978191872
-3.12655731471538
-2.37525914561574
-1.77567502032059
-1.38658554595499
-0.682426288689663
0.723308679787483
2.41889317387984
3.612631340865
4.18103051391866
5.24539206090787
8.57478205883379
15.0156367278198
23.3677944893129
31.1639053074284
36.6423509717109
39.7022569806771
41.315530760962
42.7239634607872
44.8422555138045
47.4237676172035
48.7838294720179
47.0010440259428
41.4146592361335
32.7925400906502
22.5859764307069
12.4032411642352
3.61778260454258
-3.12819186566445
-7.97085784138013
-11.358204082726
-13.8281106572067
-16.1203129907697
-18.9277813274324
-22.2714309125282
-25.3481789005805
-27.3238998919865
-28.4139044093033
-29.9515137819281
-33.0206079679111
-37.1290213339271
-40.6579202392256
-42.481067305147
-42.6132197268971
-41.4375015980737
-39.0547944388227
-35.5444388223172
-31.288843370201
-26.7389336085946
-22.0908570777485
-17.3250125972484
-12.4411960422297
-7.60761287616047
-3.04910648763411
1.2636585485151
5.5696287246669
9.70046935996889
12.864296889951
14.4958049751126
15.005286500987
15.2755007670574
15.7918779873147
16.5863260168001
17.5112230451835
18.1658925102399
17.9688224852913
16.6602087352187
14.5921151115576
12.5326230097159
11.3141313231556
11.4102536969878
12.6819459066719
14.8361446702314
18.0267292959618
22.3009478180878
26.4925910170394
28.635316813864
27.8106437174707
24.9785669759025
21.7872493533018
19.0217334599949
16.2811756136432
12.7274466008706
7.96139967713539
2.35626133062405
-3.26747207363749
-8.18425492840688
-12.0512252952652
-14.9900709258357
-17.5903270171704
-20.5612669058112
-24.0953654072325
-27.7120536691661
-30.7378836552184
-32.5046315008316
-32.0819071000167
-28.607148337203
-22.3141245377828
-14.8201769579641
-8.07507528579331
-3.08920215628566
0.49910823229918
3.87766177201156
7.87731027302243
12.1155857675416
15.5205064239322
17.6712976520235
19.1907543438907
20.8800853176345
23.0155110483316
25.4310753692015
27.6141051364311
28.5139689238924
26.6832468605271
21.0103669974461
11.6108022009124
0.24556533092773
-10.3276509052506
-17.9716960443828
-22.4715518670288
-25.2674769223852
-27.8898436600738
-30.5164209976954
-31.8924192876109
-30.7632752240786
-27.4737158090842
-23.8621360705011
-21.4182675528333
-19.9887561363444
-18.5729106467344
-16.7603524787589
-14.7626814011412
-12.5438963538585
-9.77370197075602
-6.51192163894085
-3.3513541116934
-0.914364770787813
0.578544865065562
1.49759740901872
2.72733458127416
5.11437901278166
8.84798940088328
13.5163042230067
18.6974052132738
24.3163962887418
30.4374408406168
36.6699187994516
41.7262096006984
43.9328936931967
42.6296856389871
38.9553844703148
35.0063645905543
32.3699071060389
31.4551119968548
31.7247644803706
32.2793901387859
32.3361129578624
31.0951375390864
27.2255250574483
19.2395187077216
6.9664913769565
-7.67436956128338
-21.7555525688501
-33.0288246107324
-40.6943075809062
-45.3007259568062
-48.2559318539892
-50.921497640519
-53.7047314297869
-56.0345734307295
-57.1017562778889
-56.326227574769
-53.3513451517093
-48.2238472051078
-41.6902014717766
-34.9128996210547
-28.6952308793341
-23.0311079239591
-17.4516307450695
-11.8877519346577
-7.11440545865908
-3.97365343592136
-2.07528836594434
0.289582847676034
4.73149874260788
11.503962847282
19.6233761016251
27.8755852125819
35.6284425155468
42.7384475472313
48.6099520611991
51.6740880694841
50.4972326984656
45.451800191798
38.6859420802447
32.3750868275895
27.4033489410229
23.5301684666921
20.2779439038029
17.711313935156
16.553812430473
17.2253126648546
18.6541032846854
18.5867881375834
15.405739822546
9.41911454408114
2.39158705523088
-3.75889639926224
-7.82092978726274
-9.5071421592271
-9.28765833162317
-8.00627791946451
-6.57990101645373
-5.86239201223832
-6.30466916556757
-7.58405484964032
-9.01676156509904
-10.502597052101
-12.6018298687449
-15.5398625427624
-18.5992034714726
-20.687367100767
-21.2547392766655
-20.5918272824325
-19.3539743794507
-17.8204727361356
-15.7447926186189
-13.0651619195226
-10.4412588942631
-8.70403584280811
-8.00839680587701
-7.86277363433354
-7.73186422657133
-7.34749702129136
-6.69937198905211
-5.87614556305197
-4.70867276321852
-2.67374509580578
0.570534276330573
4.76457822177953
9.3196858157263
13.4965136850986
16.0840233926738
15.6786680508192
11.9237985808952
6.09082936340343
0.00125394237624074
-5.33707942967015
-9.88042808152746
-13.9080125372064
-17.5728123664148
-20.7090728355459
-22.8222323991004
-23.4722401158421
-22.698224000405
-20.9199954877326
-18.5975424935157
-16.1388790060962
-13.8474595201529
-11.7375143534594
-9.56329582821463
-7.10699503992744
-4.34063865396038
-1.35122194051551
1.85804505425318
5.57663670657509
10.2707505884399
16.0996781036376
22.8085587805617
30.2621177478421
38.5777774637158
47.3752163557234
55.3484926925727
60.9047657507169
62.9289685074003
61.0811914467385
56.1192529950747
49.9272041293824
44.3605554279887
39.7541359358578
34.918055555375
28.5995020328001
20.7318361490872
12.4669931670124
5.26578394399786
-0.126903195219134
-3.95093289712832
-6.84941599278557
-9.46028575339454
-12.7313070837593
-17.8758987958952
-25.2293753939871
-33.4791176051546
-40.7402866914332
-46.2565836844111
-50.6789144668612
-55.0951005664799
-60.2108624091211
-65.9779225239191
-71.3732287623721
-74.6058228587642
-73.9297111417167
-68.6072319626768
-59.487970069858
-48.7448458457683
-38.5769201728686
-29.8062071071077
-21.8447456281101
-13.961261525663
-6.18142510883243
1.03434384214425
7.50649871928184
13.5175008597542
19.4338662487992
25.2286386487666
30.4201398218556
34.5500810278727
37.595077574437
39.8340689525743
41.6196581279881
43.4242985199077
45.6785305372604
48.2690118938273
50.4709697013977
51.5210291270549
51.0043076428422
48.7469592005095
44.8513526560148
40.0152691251315
35.3990995484201
31.758444079021
28.5802075725676
24.1348546713556
16.7525236893611
6.57168277381
-3.98267742250654
-11.9187326151424
-15.9495131675256
-16.9432423101695
-16.6408071389031
-16.4611103127482
-17.0551978443601
-18.209042609365
-19.2010198850627
-19.5670977777427
-19.3941129770218
-18.9032402740831
-18.1902557987433
-17.4207902388252
-16.939080968224
-17.2172671242162
-18.7820073189997
-21.7340491510743
-25.1088036668954
-27.263769498182
-27.2279960317813
-25.3236757368066
-22.4615408215474
-19.3309348526875
-16.2453389245381
-13.263735416031
-10.3659588506084
-7.66436456443225
-5.33998155359598
-3.36869003227076
-1.55375451101881
0.219693803703285
1.9944020760012
3.79932160823246
5.41027104554505
6.43073888802182
7.09846468060137
8.62599695365289
12.0900639734135
17.1823572015737
22.5280722340654
26.9926692727631
30.3437803745627
32.8796261250361
34.5031231083993
33.8848865336282
28.857741408223
18.4135719530825
4.3345513522895
-9.69743443614006
-20.6637726908028
-27.7656733492709
-31.9280778164669
-34.343420666701
-35.4686932381166
-35.1214967105055
-33.2408758390709
-30.1783917143755
-26.1957589078353
-21.1500366096759
-14.917387910637
-7.83857443261498
-0.636922748517379
5.941040736813
11.5574878240101
16.5567161955115
21.5676697679252
26.7359651689714
31.7316606749125
36.5244404857954
41.5180397893169
46.6954582264805
51.1893100134676
54.0326461007347
55.0031465266719
54.5363251127743
53.0697934831677
50.4824818455357
45.8613321365805
37.9191238987474
26.0986733804974
11.4104143104239
-3.86608902596298
-17.2314445319515
-26.9145412305873
-32.3644860626613
-34.2275743378469
-33.9407100842913
-33.2279255455674
-33.4200314926793
-34.5949238837043
-35.5844120813881
-35.5499322875032
-35.4308433934137
-37.1372048538072
-41.4654780949077
-47.4570977522258
-53.5000166915848
-58.2747934753114
-60.8383968852384
-60.6103946032606
-57.4699523305324
-51.6677586034281
-43.7197114843403
-34.3677674876781
-24.3432614794589
-14.1524538916765
-4.31402489931254
4.37679967293585
11.2521550728844
16.4452026528578
20.8166859022498
25.0960028113338
29.2474503704025
32.6891440169949
34.9588550329337
36.1557716469198
36.940214165794
38.2083565862237
40.5399262800402
43.5689826935528
45.8770973866799
46.0700675563798
44.3330016505914
42.4973134409623
42.1790150149375
43.2187112606333
44.1306163307319
43.3580946112789
39.671074027258
32.1580272584516
20.8190591942332
7.24231563074636
-5.73567596239768
-15.4614978249918
-21.0043257673045
-23.4763798073358
-24.6868579242306
-25.6060242904012
-26.4488255544201
-27.7164154124912
-30.1167435869442
-33.4955887288897
-36.7263449989546
-38.7665381624576
-39.3292321748851
-38.70612213206
-37.4420126977868
-35.9524216030011
-33.9792297708785
-30.5703529528749
-24.916782252131
-17.0696280024489
-7.68904288098662
2.58148183367311
13.1591550267557
23.0756009880946
30.8057839657825
34.8499691341865
34.8820349707223
32.4497707325968
30.1010504034901
29.3918122684868
29.7563427384325
29.299862198345
26.5364258040122
21.5862919761526
16.0959581767505
11.9914578803526
10.1451072790599
10.2150274269986
11.416673237692
12.9271019499285
13.789667425224
13.2165310922054
11.1512374885399
8.17845385058967
4.90603485551601
1.61171835365208
-1.72852435970328
-5.21870180884856
-8.70050748078198
-11.8177274365355
-14.7402179342518
-18.3903137614741
-23.2678480618408
-28.2562615581318
-31.2630869007063
-31.1702803362418
-28.9901227530826
-27.1488274566084
-27.5318846872983
-29.8750374199713
-32.0697376315113
-32.3764918266566
-31.2469537808451
-30.5566639066861
-31.1869331501493
-31.9154367262503
-30.6683484127488
-26.4037207725788
-19.8312598093262
-12.7738357201295
-6.8854856048976
-2.5977840548668
1.01373052168864
5.41439673547222
11.4544253214239
18.6159854889154
25.2451449144731
29.6887090380223
31.2757701102968
30.2789888354715
27.4027961992471
23.6367146958772
20.1361673123011
17.6915326860257
16.4851177935203
16.5639658110659
18.06761446377
20.6479027492049
23.1302605148651
24.2437885550657
23.6108058900056
21.8300978551513
19.57089865606
16.6318057932446
12.1590018167391
6.10132842272321
0.134166221922106
-3.56841310146503
-4.5454766629841
-4.49050235590398
-5.3714148227461
-7.48824749047055
-9.33896656023849
-8.95182387661722
-5.45248708416934
0.128868904244435
5.54685631144218
9.15715299267585
11.0640896896421
12.4901247323809
14.3758634075063
16.6288642247398
18.2757782552231
18.2552413269293
16.4054156846016
13.6420790105484
10.9078247056257
8.17912837659809
4.86509062629355
0.983579510802793
-2.40595922431928
-3.89794899604125
-2.827260783017
0.112933825682473
3.23342828334834
4.87800187982068
4.09894432118039
0.657127241354307
-4.94401214135128
-11.3664688213595
-17.2001067098646
-22.2584266435606
-27.6344663980325
-34.0938665358149
-40.7518252664572
-45.7211513022366
-47.9647573264848
-48.2461120019952
-48.1734527315267
-48.3710609267748
-47.7650297399835
-44.8674355664952
-39.6458967318436
-33.7191377969149
-28.6305601236891
-24.2924236752022
-19.2783176433882
-12.4425765449328
-4.17102372625147
3.96763226733501
10.9412906630988
17.5057691494682
25.3184597601667
34.7291258490785
43.7531813182613
49.3271648560629
49.5936389333788
45.2746031131308
38.9906087027423
32.9900254620017
27.4622673467953
21.2402502051482
13.853725121687
6.34533416742697
0.25657390566933
-3.55814385636351
-5.14188132386257
-5.00512190013203
-3.67009261576419
-1.49956683759612
1.18497420747799
4.11845332170111
7.41170320609316
11.5167318396619
16.5240538777093
21.7527085909909
26.3819744594269
30.2571310702586
33.6962751503837
36.6223901949857
38.2231221535353
37.505033573491
34.076715608827
28.416280480065
21.3945435540871
13.5411976546982
4.92166861170522
-4.27239696758684
-13.323366981654
-21.2277899302675
-27.0966746690699
-30.5881232751521
-32.4925550262607
-34.5976851333284
-38.1967022004481
-42.7396529992747
-46.3706107651987
-47.5168777451264
-45.6287569661713
-41.0135900638583
-34.7313964199331
-28.4387740532062
-23.6495418336656
-20.8303610788339
-19.1322092502338
-17.029769513629
-13.5352807667654
-9.04770201236172
-4.93074084016422
-2.20461166528044
-0.663980071563847
1.01959954725167
4.50208370042031
10.5229145120564
17.881159512158
23.9287441364201
26.67054345481
26.4549542544627
25.4194408397126
25.3484559032255
26.1965306947698
26.5836726590376
25.5236556689204
23.4971062533717
21.6931650744054
20.3963417132561
18.698779154915
15.9271549464597
12.6803634909775
10.0603560842349
8.34737371105749
6.82125779150634
4.64197044683747
1.65830949231858
-1.62567714129944
-4.79573864388744
-7.90961101879607
-10.8107645149207
-12.5687704195571
-12.4592836828432
-11.2089852255806
-10.2088366510819
-9.54457504182992
-7.87198201359541
-4.43907832007282
-0.395573911995957
2.2056441622191
2.2249782034005
0.100467270973354
-2.9106724485965
-5.82935978806336
-8.25230060122915
-9.82398509053025
-9.95875601678871
-8.41625162744296
-5.98995874692738
-4.39633274599889
-5.32517523135394
-9.18627482666092
-14.4065215068745
-18.1944742597919
-18.5162547901485
-15.4605993139518
-10.720308815473
-6.12808759206654
-2.74072670046333
-0.57692468519231
1.27514498962765
3.82473665608562
7.01398004665224
9.63481844664866
10.4844390278638
9.3200558983319
6.95523360967865
4.98532186585945
5.05738241681706
7.51843786822239
10.7419480706678
12.4115573309345
11.65871225926
9.74616145689516
8.6601027215573
9.08483520568893
9.69077110787383
8.46278828678038
4.73970936192489
-0.2409019827815
-4.64044444483939
-7.32219827719644
-8.00482237563476
-6.99490793722237
-5.13064086402668
-3.55808736606184
-3.18472705190357
-4.17192689512868
-5.67680873710851
-6.13091148816345
-4.37969393854372
-0.928125333997178
2.25428261910087
3.45606524179915
2.53234274141923
0.429240614113677
-2.04357101618111
-4.52358537982487
-6.50059659408531
-7.03643101269098
-5.42283286235438
-2.14137058525842
1.10060643618953
2.6414228653344
2.20645376824685
0.940907173356934
0.44401425739145
1.93693773722926
5.78324702050395
11.1770218385128
16.3516638559769
19.4031584612303
19.1451580135518
15.669908091224
10.5196816092773
5.98130819473519
3.61889514127627
3.41968725415002
4.30006188013061
5.01175841359614
4.71202604471048
3.50556834280949
2.50948645344827
2.54393896546324
2.68083888000889
0.979431982935606
-3.12782232281503
-7.91655723032922
-11.0883544808438
-11.8709539166319
-11.1926390888054
-10.3077718368085
-9.82040535317929
-10.0102065277123
-11.4330197576254
-14.4029032811887
-17.7796424572147
-19.0716996287638
-16.4588644189922
-10.5486318582417
-3.85318108917959
1.09225160816864
2.96282472213765
1.87638347045352
-0.863226793436251
-3.61039783302732
-5.60205111045997
-7.43754760856967
-10.2441938511753
-14.3555659870691
-18.7325212901426
-21.6949528263036
-22.3649169962199
-21.2556732480796
-19.2491122910818
-16.4149449470378
-12.3112033921446
-6.89769645871669
-0.298218458590288
7.97993123378868
18.477835534169
30.1974021589898
40.3175876532338
46.1347049788803
47.3562097092886
46.2029818717
45.0415040829321
44.0758597619539
41.5816618812289
36.0969395477714
27.8996534555556
18.5478534447652
9.61821643708503
1.90051301414187
-4.78795828087688
-11.1909066215878
-17.6758268194659
-23.6780771474752
-28.3055825779836
-31.2145446141964
-32.4570444509918
-31.7299860806513
-28.3019620374548
-21.7635346276198
-12.8738133676779
-3.80372686882241
2.84233208244287
5.92077637232174
6.69628936059597
7.56583869562085
9.9761835338224
13.744452234357
17.8595970676682
21.3409338258122
23.4501145621315
23.4865194506307
20.5903773871641
14.0392825343366
4.0623772035466
-7.71055343086502
-18.8078964251481
-26.9267989078522
-30.7373446603824
-30.5131103589637
-28.2911510653555
-26.8272019048038
-27.7336847773045
-30.400753287764
-32.6589383810298
-32.5844098431176
-29.9950827511157
-26.3281108998749
-22.8568980730778
-19.0704336704933
-13.1846599998183
-4.25414516074538
6.60895284927026
17.0128790145641
24.766643388581
28.7310866056326
29.0182054396307
26.8230667146767
23.9104413792167
21.8611348264768
21.2674831853464
21.3076916709388
20.4010033618567
17.6983960621415
13.8087823461164
9.97896779637572
6.98123331827227
4.85802991410667
3.12570931046224
1.07774504469773
-1.48513586758178
-3.66439654780365
-4.14488145992387
-2.58788640898618
0.0192327851180821
2.33841817723535
3.69913003036958
4.31227738175232
4.78750641877088
5.49677860032532
6.51758246574691
8.15858967289031
10.8971205202249
14.3470858149874
16.919804036415
17.298727653168
15.9890873641775
14.7257294207031
14.4131399328996
14.1447801496987
12.2703277027919
8.08237657985074
2.34318624134381
-3.6660795467886
-9.32904292540297
-14.7529395351614
-19.9643257005115
-24.6635620089747
-28.7498793319918
-32.4070235686755
-35.5148637248976
-37.4786303597658
-37.7086572256511
-35.9419459024838
-32.3196227410552
-27.5980963011126
-23.0097522600414
-19.3285206887078
-16.0275093701221
-11.6263072904152
-5.03976891008185
3.22914974132899
11.2426457208
17.3442234627524
21.6794807582428
25.3160636650593
27.8945354900081
27.3583419934995
22.5492495462973
15.0963559578238
7.9879218110838
2.83183949171187
-0.861066670688601
-4.05934380754498
-6.61158088832455
-7.49344600196956
-6.32979630133508
-4.14909800492294
-2.39488537159026
-1.48458228536986
-0.641529744364784
1.12174561968249
4.1976506257889
8.21637862299018
12.2043729043501
15.1638920141115
16.8866368829756
17.9003488684723
18.3903101917601
17.7398050920483
15.5218697092795
12.4564315239142
9.93372956655352
8.71200573623626
8.18801554282749
6.99687616662212
4.66881619654761
2.68467464443017
3.12712861671077
5.90869847908886
8.03987101939692
6.23913730748748
-0.0497589017876702
-8.4673046740814
-16.0490296453125
-21.3623927051525
-24.7398423537693
-27.0690690782135
-28.7392130680831
-29.6085620358316
-29.420766097392
-28.0250051778596
-25.6241590886031
-22.9377375601439
-20.5087657372937
-17.6687028661828
-12.9689063860786
-6.08078981121149
1.34803976938631
7.22498247120424
10.9639359670994
13.5422781587093
16.1410328796856
19.282710090447
22.9423570821496
26.7280741084224
29.7073644613726
30.4552934518832
27.9069656040539
22.5328717342009
16.4291433474378
11.7793712343883
9.21672006601147
7.86146053580917
6.64399594408153
5.2183824351218
3.83331707101331
2.71346455547185
1.58053434458838
-0.180666453327746
-2.70684367181213
-5.24513890873032
-6.93665380989263
-7.77206524839089
-8.37898559501291
-9.13836333206667
-9.8881501710189
-10.2780984223563
-10.1918495719862
-9.98424469693054
-10.2377934689482
-10.9970684000339
-11.4398736310676
-10.7247835899109
-9.08002943287893
-7.76218845253212
-7.96318530936169
-9.78127492964546
-12.0561250014085
-13.2306236360905
-12.7186376130376
-11.4969243718653
-11.0556384429254
-11.7439565781942
-12.4294202092535
-11.6990391312954
-9.04165816218204
-4.97040522380476
-0.46072278672795
3.60032155607464
6.67681265475942
8.65633002697061
9.94968441908618
11.4172849558906
13.6795119669259
16.3249449863673
18.2050247124977
18.6069479075006
17.7363251876335
16.147280916166
14.3183357974663
12.7483107938969
11.7988634654778
11.3307583849508
10.8900589307575
10.2177166069875
9.36286298101858
8.53529298250952
8.00084118021632
7.80468666046714
7.54920160824495
6.81225379187738
5.74208701450169
4.85096830468919
4.30743840873002
3.80000317675666
3.00978409274485
1.88574864451029
0.473583220022479
-1.31989663209133
-3.75662815980269
-7.03144403876654
-10.9139107382709
-14.763970660053
-18.0739909967688
-20.7591122754699
-22.7410614492226
-23.6945955717174
-23.5293145955033
-22.686544244797
-21.6438406244685
-20.45761722787
-18.8372953913035
-16.1933966499549
-11.7245596608588
-5.2279782514225
1.98558105159552
7.58089421924009
10.0286301488958
9.90698265473456
9.25741709792563
9.57373592421967
10.4613012634948
10.419849206724
8.75006720426923
6.16398910804127
3.61465169294296
1.34371141722024
-0.720657371168019
-2.38982934581299
-3.40741285971324
-3.75516363746032
-3.51733559708024
-2.66222234855258
-1.00517603485926
1.68094421468406
5.34283651517333
9.37640967236443
12.9622647085845
15.7506135262261
17.9362171361806
19.6545887669834
20.6563141170558
20.5750925343328
19.1907474634061
16.5325440587976
13.0657670999041
9.5964166835706
6.64819664609944
4.07064092854781
1.3663169750552
-1.8876852665251
-5.89252288462525
-10.4009335039817
-14.6078201639702
-17.6698824972187
-19.3256089733713
-19.8211795952731
-19.5384835564422
-18.9662743652812
-18.6369014702389
-18.6512184004428
-18.3713813005022
-16.8167236253138
-13.4634076326907
-8.8082987173239
-4.13531943062343
-0.446297154660715
2.38176306808369
5.11829249467923
8.04121660613587
10.6640871881121
12.3803007343722
12.9379096616113
12.4270561914802
11.1418331803822
9.34900997408916
7.03860749381196
4.07769854428374
0.64828901730701
-2.71567705459487
-5.48135108342944
-7.2161078265624
-7.55181014252017
-6.57616350699558
-5.14030146872475
-4.24520195647448
-4.12064847396056
-4.11670447595038
-3.22190807279435
-0.575453016204544
3.91021065840048
9.01949942470694
12.7222388655158
13.6016863247714
11.8176665934779
8.78137801807678
6.04094941772226
4.27461888292108
3.15229666646314
2.20640652603361
1.60834299308861
1.72790213629021
2.25603630397263
2.42454932195438
1.97594517307358
1.34875982790652
0.978103860345981
0.872537857597169
0.892255576787686
1.17016072728398
2.08987686590973
3.68389112719096
5.05132018371577
4.75630575654502
2.08811193502941
-2.25168928063318
-6.81101957205998
-10.4457479694707
-12.6924253981342
-13.6154124451828
-13.6370453305172
-13.3030797677531
-12.9985021717034
-12.891394714938
-12.9186722926162
-12.5738371855832
-11.0421974481697
-7.99225330303302
-4.0877123329129
-0.458016048338097
2.21340007130998
4.04611524447752
5.61277336465538
7.17310082905877
8.17231451489364
7.82649965519262
6.31871989824946
4.91136207035845
4.65804460924807
5.46519040220364
6.55642555194836
7.35259410766355
7.73466732525435
7.84970085882671
7.84345236172542
7.69379822712613
7.36249844535868
7.01621178440992
6.76057845035614
6.2573202990537
5.07835063642202
3.40770998564132
1.97361782758177
1.29917605057619
1.29748417713255
1.51528309800995
1.54483230879981
1.26800891411126
0.829795106938212
0.337539041991423
-0.34645714398592
-1.35787525105137
-2.53443149380864
-3.6350164011441
-4.6839165238889
-5.83145565722034
-7.10522516054591
-8.52283881461069
-10.1272156693295
-11.7145450017721
-12.8803795715206
-13.478373888315
-13.7287129962521
-13.8301220245952
-13.6600371592204
-12.7319565824069
-10.3773745535477
-6.37663818637595
-1.56999968907575
2.6126638300776
5.39356820562173
7.03010132496321
8.00670968553366
8.44294918607197
8.39274922209355
8.18123910798712
8.15839723663447
8.27774842975879
8.06171161235742
7.05630867091296
5.36086130994399
3.59226136791807
2.27997447937169
1.49373652073587
1.07694125635674
0.902303560570662
0.785510961154535
0.480725516154334
-0.0526883768928035
-0.57849470697676
-0.857415352988218
-0.816299682554756
-0.48128862310026
0.038522526969166
0.584919414275308
1.13483491830471
1.75419696565185
2.28140832719441
2.42914007201374
2.28313114623077
2.25178478135502
2.46931724188089
2.68590979788774
2.70624800630587
2.5208075679754
2.12634195106245
1.58451369169269
1.11193156989775
0.886665128508942
0.947127953419253
1.29326756654254
1.76660104409771
1.91348591700549
1.36201446983648
0.250646668421592
-0.98381892602281
-2.02233922467025
-2.69363339208302
-2.96117744201617
-3.07116363539072
-3.37904918505257
-3.91297521447805
-4.36532563080201
-4.51003850258987
-4.40599892021831
-4.2337257310044
-4.05033811698656
-3.61115497501014
-2.48506877200475
-0.657390971252925
1.02288887615705
1.4734957894001
0.563125620929138
-0.712051810485729
-1.26639477582693
-0.803264081036024
0.264987336157597
1.41503528456564
2.50080537049996
3.6767202189616
4.73795281314142
4.87823001997115
3.63810497858304
1.8161728719385
0.724432118084429
0.619006358717217
0.424469411725726
-1.06345902721031
-4.07945846033273
-7.80409611338167
-11.011307917626
-12.8491539686045
-13.1507564297192
-12.1493686138822
-10.2739124756471
-8.28832690525683
-6.97461491915417
-6.25566400238769
-5.0825609147221
-2.56194307628396
1.07926453984283
4.7541659578345
7.41004368775668
8.65933968043866
8.88933129195119
8.84806912655329
8.97805825539149
9.13680230234579
8.93606767674056
8.20457645734137
7.18260222585033
6.46151531339837
6.55544189352196
7.23246294246667
7.51587514144079
6.71174666777793
5.15893693706018
3.6605202589745
2.59091574072173
1.89811547898855
1.53976842713013
1.53170831184317
1.7932012120393
2.09338997091161
2.04265543525213
1.32662950087721
0.166009840348731
-0.74417562419981
-0.986245999902737
-0.818190507365177
-0.706840237812167
-0.833373025002298
-1.12371883648663
-1.38296284718686
-1.34793648915527
-0.883005722817126
-0.140761655627354
0.499504966976918
0.469262936026981
-0.872252239733038
-3.68573494435091
-7.2172498915873
-10.3270795101471
-12.465588478909
-13.8544858791969
-14.8165742431105
-15.2474356734108
-14.737640063567
-13.0338921528926
-10.3847441583859
-7.46298202949141
-4.85739686605796
-2.66627250200396
-0.677069437319629
1.24113137021339
3.10651491053044
4.92666378482599
6.58585006656098
7.83459556189973
8.52467590536713
8.67009751682351
8.33893599493188
7.72518718360961
7.11837634973657
6.52802482826549
5.65790860007895
4.53841049666865
3.79671844899191
3.9958878549716
5.02142988150617
6.26996416145213
7.10577136962132
7.11805637789378
6.34169247465819
5.28154628140272
4.47498867038733
4.05918161823788
3.80850270811393
3.37254280164228
2.49524463851187
1.29819293892502
0.300609672944154
-0.0836617263678079
0.0503032914486303
0.325395148822528
0.445046583421575
0.220422648082258
-0.409171983284545
-1.24430346677924
-2.05057434246124
-3.00546080793827
-4.57289132559009
-6.88692858604837
-9.57945272484498
-12.1579562733301
-14.2521596673509
-15.6670874910321
-16.4713618967006
-16.7997741888023
-16.4552999909857
-15.1060164417505
-12.9034066319023
-10.3801806593155
-7.69594318999957
-4.47450249051221
-0.444856409636898
4.03526814880777
8.02116184715125
10.4749134791157
11.0370197062521
10.3893871281666
9.55542060113548
8.93244258061882
8.33223630655683
7.64474081085812
6.95301732224332
6.2679397854547
5.5978687470877
5.05892350437127
4.66858509606823
4.27795004056586
3.79558086099516
3.26069020838293
2.79707650767826
2.7107967486903
3.36908664743621
4.68295835274057
5.95665875134375
6.51810978445435
6.29162252566904
5.64247217607579
4.99265814485192
4.65092707884194
4.60361926013044
4.42362535309408
3.75892051656164
2.83912658801991
2.15319269807947
1.80098803079475
1.45864236212369
0.767788511704311
-0.422179950088548
-1.96719881270417
-3.52768516625247
-4.91959841112729
-6.2290699748697
-7.48072950012305
-8.56029378377633
-9.57854485097408
-10.8077357341406
-12.0994186829432
-12.8385529641126
-12.5796774281715
-11.3888906545738
-9.68295650039259
-8.05866957150244
-6.99205486287066
-6.36998137973574
-5.61088405985583
-4.41687567141906
-3.04682251350632
-1.83117991968142
-0.873083701205054
-0.228367737000886
0.0429069339562677
0.0221105349988768
-0.121634726492276
-0.228402677850401
-0.0250498429503396
0.85299867348505
2.50247480627775
4.6036584018259
6.71666626527467
8.5195719529867
9.84586834484807
10.7867712908542
11.5755767359672
12.0959016042799
11.8325694241601
10.5798038698042
8.81414470066554
7.16781380690808
5.90444571097188
4.95004332512273
4.03443789959804
2.84029277443108
1.36115270221718
0.0319670215787555
-0.680120086905105
-0.657525998070934
-0.133897486810756
0.369159296068349
0.23578653674247
-0.7091108895969
-1.9878423729943
-3.05538511848541
-3.80667083441215
-4.34667855403383
-4.7301669146742
-5.09406538220464
-5.60101986235258
-6.18310353222753
-6.68391953357575
-7.10766551933579
-7.39007697010212
-7.21655692867166
-6.4531374762778
-5.46518496576638
-4.66875148879677
-4.05906380612346
-3.43144692102603
-2.70877696564996
-1.82504846829481
-0.632789547120528
0.907481285791972
2.67525160861934
4.46069996227197
5.87138676541085
6.42114850230996
5.96411700850693
4.81488382745788
3.37693579541095
1.93772371464604
0.724701548429697
-0.183115575336604
-0.849716447589329
-1.19319211116844
-1.04693349279539
-0.629695378702609
-0.449574154533772
-0.620655014905468
-0.766965433585175
-0.605920445101101
-0.163875348569124
0.430731061047606
0.930089845684664
1.01658196923804
0.744467285054286
0.623655077611496
1.04926135870415
1.97139934838205
3.12089843607278
4.15369640366703
4.68273807575684
4.5966398782307
4.23917717721655
3.9753711017039
3.77566408683683
3.43512533638198
2.88672475027596
2.0891647466602
0.967489756642776
-0.335200381845218
-1.49221001841279
-2.39415733234263
-3.20349770899258
-4.02823907301748
-4.82128762056693
-5.47568086801048
-5.82541876004635
-5.76244781954037
-5.39781202926253
-4.82207486320927
-3.84575738146951
-2.3782587621315
-0.849171889172658
0.18134294640277
0.63493900636698
0.851371253930323
1.17072965870914
1.71359348530131
2.26988001645764
2.42623443260079
2.11277675790285
1.80486020738528
1.84804286827884
1.94019518809162
1.61194701599163
0.822029884089113
-0.146974930789674
-0.966727389032066
-1.34549722828933
-1.22937375628805
-0.901700195105583
-0.598927475703565
-0.243420948677874
0.183288713917124
0.375997710251461
0.152048889467591
-0.192297318797147
-0.272615211450329
-0.0242554072124895
0.473363703568486
1.18802838482355
2.00361116546901
2.72446771628348
3.21645550281496
3.32291495439909
2.88280958570382
2.06169013377836
1.30266413600813
0.748350492521785
0.0914600961701333
-0.901610559598593
-2.09026448017759
-3.19176766020365
-4.02856034994428
-4.639292068112
-5.2986923174334
-6.21111242578044
-7.14942977758513
-7.6935811742992
-7.73383864509241
-7.410117197668
-6.77240650539576
-5.80374438602562
-4.46478580842317
-2.55286875675991
0.0171703937634155
2.74414252991682
4.90808521517109
6.35400650582575
7.37273356516457
8.03309882180459
8.24245992288003
8.21485880079977
8.25593982254783
8.24438968397892
7.79697640300297
6.7917598280205
5.43351664842502
4.04244154339219
2.95661122914363
2.33331867145955
1.97781614717439
1.6807440795662
1.58921456927608
1.85385322528606
2.15207028306709
1.98757164410715
1.26164599426058
0.294750900920785
-0.495449567379326
-0.879600302638807
-1.0434285112454
-1.46233963329559
-2.35052857861832
-3.44503655142422
-4.43128426021635
-5.1997191518773
-5.64101762365398
-5.67223931857839
-5.47705572996049
-5.27941297712357
-5.00680453579521
-4.57155714382543
-4.20335442759373
-4.13674651544025
-4.30023891266011
-4.5440307910826
-4.77985806750828
-4.77580089978612
-4.21539131985758
-3.04171283359589
-1.52598495943762
-0.110662576385561
0.716068963302434
0.771351531209873
0.607429491536248
1.16010431229106
2.70276472757902
4.49367335540374
5.57259873122204
5.49757509689265
4.32985879145575
2.48309695511578
0.660609660671283
-0.510137456713135
-0.845905095394225
-0.498708349834816
0.250139425609658
0.995968725199885
1.39468614626503
1.43717820997669
1.29577076686272
1.03915611057735
0.747006473533432
0.622041532177901
0.743463650056288
1.01109673905261
1.4342659824192
2.09970863767955
2.85796798665747
3.4305041358344
3.72864993450142
3.7723204465704
3.56803316493312
3.29597362034728
3.21362356610271
3.21968712299008
2.96263010802862
2.40922103492143
1.83016766664314
1.30020831213651
0.688334738904947
0.0140783706088277
-0.617373221421631
-1.28038603314244
-2.08062194811221
-2.9286919262436
-3.70414550120284
-4.38088109485107
-4.83457291465343
-4.88203910675062
-4.61941443515749
-4.3529692352671
-4.16824219896018
-3.87520648980063
-3.28108327857247
-2.3148585350295
-1.13128686868962
-0.201861693201657
0.0450404040228188
-0.293474849350808
-0.792187510079097
-1.23208893158342
-1.60779138298314
-1.86756890081068
-1.96032207360873
-1.85604334943796
-1.37590648575307
-0.399312652252939
0.733549329707493
1.48544953317924
1.73457136093277
1.73455140405507
1.68702656009811
1.71599281819974
1.96608142829493
2.43610574402001
2.97349609851541
3.49566330711542
3.92637805538411
4.0411461040197
3.72664853906773
3.19848767987247
2.63777977160148
1.8760447441603
0.754165755115443
-0.493307882754419
-1.49576273451109
-2.11812468257758
-2.41518042372883
-2.53397194614577
-2.70896584438622
-3.01139184412448
-3.18669584304214
-3.06120981099886
-2.86537328088075
-2.85449269194605
-2.94671618009157
-2.95290897753317
-2.78604558727138
-2.35924402649455
-1.66745957557781
-0.931386886094094
-0.328033386882649
0.245589011537872
0.902411870105813
1.5774516762744
2.27068922934465
3.08981160569347
3.98810872286112
4.83391705668854
5.63044319666368
6.29806821630297
6.49990333833805
6.03383589838159
5.08809808963582
3.90604101809833
2.58190338961088
1.24426916185549
0.000646958658599588
-1.2712537395995
-2.66652174930835
-3.89165957381068
-4.50107254673293
-4.34020125921866
-3.54333861220239
-2.38872653778341
-1.33955082390501
-0.832580952984722
-0.819094114981269
-0.859977861266339
-0.728008432391113
-0.539592334560375
-0.388164832050588
-0.27049752730327
-0.22846853456974
-0.246189594583602
-0.244229531599316
-0.337652777668058
-0.749297348117447
-1.42117010032171
-2.09545716322446
-2.69476546927432
-3.23297482747419
-3.52703324032642
-3.34778654607777
-2.67030915355018
-1.60690481547101
-0.351280809705223
0.823608164502749
1.84099805048217
2.93953727721136
4.21095727082634
5.35381718163163
6.16587567727533
6.79147863979906
7.21493177561175
7.06053394246696
6.15846416082688
4.85650618158365
3.61089170882872
2.59424950541967
1.71477568233071
0.760957924485529
-0.405516895402921
-1.65728854179337
-2.78147993531603
-3.88141149794326
-5.22098960204251
-6.61473198188138
-7.45052692094334
-7.43231866845883
-6.91304271759097
-6.50352391197792
-6.66386365998403
-7.45031718023623
-8.30116048141685
-8.3492074685778
-7.26389942808616
-5.56357758788236
-4.00502617804577
-2.93965102785895
-2.18750584302244
-1.2016965805914
0.510881178897944
2.84545415112216
5.12565013851525
6.75802922157542
7.58274521041157
7.66555081714795
7.22045411236257
6.66971491128826
6.32359078394133
6.0767754953738
5.68912729188762
5.12406995359662
4.44540504724288
3.72502281481202
3.13310052355174
2.77383304036603
2.47544684188125
2.05653633893452
1.61718417375747
1.25761601094355
0.789737830615392
0.0630989409638691
-0.706425229919642
-1.22110048047354
-1.43205331392329
-1.42519576919364
-1.32910037432577
-1.3870678504161
-1.70796466165085
-1.98657869854487
-1.87184766475136
-1.46352578482826
-1.11483422676446
-1.00089796541477
-1.10712155535003
-1.30748076329736
-1.34045278180067
-1.05636880899139
-0.679392819514563
-0.534425391133252
-0.676635901312813
-0.998825921440762
-1.3791895773942
-1.56181213619318
-1.29762019007577
-0.704762515842466
-0.11730361906222
0.354922079206698
0.758515994476542
1.01707160906046
1.06676518328484
1.0066607847573
0.913387684783211
0.814643256082102
0.85406882235856
1.09301192119848
1.24839249486945
1.02779401338961
0.560571316256145
0.145031899733782
-0.19655194627712
-0.591270386776634
-1.02112948381633
-1.44005730024043
-1.89885229188394
-2.34920446643387
-2.63039981009639
-2.7460456981318
-2.83692928643703
-2.9208936183697
-2.95680345862433
-2.97108396105483
-2.86904236940186
-2.44974545089405
-1.79836086131847
-1.27319848601508
-1.01943323990892
-0.88698432789852
-0.75624666335409
-0.545841095003729
-0.0885843211608567
0.628105742653959
1.34550246102331
1.91078828036328
2.45431193519423
3.06527335895185
3.64568187859865
4.08638344922794
4.27026903655482
4.07238745920675
3.62855283813756
3.28745563194652
3.09383852052317
2.73027090751175
2.09001067806936
1.45458704201767
1.0447175561451
0.800341179782316
0.583606581905389
0.266228356186663
-0.274448686479471
-0.962609658073888
-1.4873378327685
-1.66171411370291
-1.60372275180927
-1.47907818458325
-1.39029905407703
-1.50794846384807
-1.88833834204082
-2.22266295626663
-2.17468981138055
-1.83198705273017
-1.52429402851422
-1.44641628461997
-1.62751577480413
-1.91750110956803
-1.95299384120601
-1.5159344824403
-0.84259153351357
-0.250433998824684
0.266414083767509
0.761493911514137
1.05825959098556
1.02147829051708
0.688166290207351
0.0202684908319694
-0.982181346519036
-1.93488125557796
-2.34445379602931
-2.14535040405995
-1.58627765403595
-0.832079523104093
0.0190921632356698
0.845319640411269
1.63690262235831
2.43142331731045
3.07809246335984
3.3523329408747
3.22247730819612
2.77853646436261
2.13040301108449
1.5956271216161
1.62944786766063
2.2819785556357
3.05937783402708
3.53016746241762
3.70533808334722
3.73393147281631
3.66266752843809
3.52857230464167
3.31244570610022
2.89856620051881
2.34343437474658
1.9039783411759
1.62195860063207
1.29016790057613
0.925772763373426
0.805694324345678
0.990966374892539
1.2084207789693
1.11094873316982
0.374080067022094
-1.1664420544624
-3.19308203348481
-5.06622198569307
-6.48628969705145
-7.65785629157051
-8.80306846592866
-9.9027274663521
-10.8180156932081
-11.3377209515545
-11.286357805202
-10.7681916420413
-10.0352006072241
-9.10997430323401
-7.90001439218379
-6.53102768441135
-5.08711436053006
-3.20242956711256
-0.457449034350525
2.87936606343345
5.90422563768384
7.81961137903347
8.43256596556634
8.16207447203036
7.77054480594267
7.82743376708444
8.2627984107935
8.59781041436552
8.49014818030077
7.81589868392573
6.55454054237385
4.97987412420368
3.65778166122139
2.96050476926365
2.84112888162268
3.08413067177902
3.35427524446138
3.12575056426188
2.09072734231154
0.53690927303185
-1.04371663627029
-2.46540356363655
-3.70263278908404
-4.62024864791871
-5.08531742268726
-5.0396154053279
-4.47152897928076
-3.64448570856527
-3.10234674980258
-3.02643067946383
-2.89094074359388
-2.10787100463485
-0.67397549883552
1.01162633248711
2.53045516914911
3.50562140645247
3.71949784915195
3.32403397541639
2.6873054972002
2.04530982156409
1.47877735976354
1.04835169330759
0.719870461871792
0.338415233706333
-0.166021234460255
-0.740688617123022
-1.35091526140284
-1.84596528024173
-1.83816350136652
-1.13821808322099
-0.141570086395671
0.569091148106549
0.770355483574204
0.55437285646292
0.121084689930211
-0.250391298763985
-0.403800712127827
-0.49736924987511
-0.684987902943198
-0.797756941677722
-0.665615972261346
-0.462546943086011
-0.442893176402374
-0.65132184398064
-1.05104760800767
-1.57726113026141
-2.01564858747846
-2.16061053486733
-2.02343697141329
-1.67798035322383
-1.17277018533748
-0.730095549295208
-0.62352144964568
-0.768835667806347
-0.847544940423313
-0.813487332389582
-0.877447758870138
-1.10102524157407
-1.37349439376474
-1.62520685383768
-1.75374638180893
-1.56628099481347
-1.07052844597797
-0.568756207541466
-0.26654093176461
-0.078234841558031
0.11023921487202
0.345904307844687
0.738440970122878
1.31773913471384
1.9152327554371
2.47513726323033
3.15414365041985
3.87729756529429
4.24180493068166
4.0468744654156
3.48297559738721
2.76458050329138
2.01777740726092
1.4429951590806
1.1737512750564
1.09364458911053
1.01761665178588
0.82126619536398
0.373913964614596
-0.252096424998635
-0.597198643146545
-0.322995922435824
0.248314020797866
0.52649801070626
0.332545492834117
-0.130704622143683
-0.621331560542817
-0.911089848930509
-0.838930287660183
-0.4627087042267
0.0719556391072512
0.715670812371192
1.30784329590713
1.44465941558958
0.915911111033849
0.0451066154785345
-0.683869427100096
-1.04561860753519
-0.964474298157319
-0.484940834069323
-0.061996320291833
-0.365275191893718
-1.57556272605176
-3.22225427967374
-4.69915358494125
-5.63999477218243
-6.00454826452189
-6.09987173510743
-6.26273970460503
-6.34845181174812
-5.82147456085488
-4.38213595350383
-2.24903657635954
0.0126262383936263
1.71507180367029
2.47349866820981
2.68833422389629
3.21138633707905
4.34838835009559
5.58574532855992
6.29009189524612
6.20556290805501
5.39366747270001
4.18632093538053
3.06062582642418
2.22091943295133
1.5109661734515
0.851927713855786
0.388125537226637
0.141557291072247
-0.0729521381351379
-0.348594466406285
-0.579067464102258
-0.559559223571026
-0.0191922787590265
1.15662288489486
2.51564707806383
3.2216712283167
2.88953928650926
1.89585352928045
0.794493593728075
-0.108005640238667
-0.638425400565207
-0.803042612601912
-0.928925947368533
-1.30825286384183
-1.82550132789169
-2.22430827838023
-2.46086523201511
-2.60338868035758
-2.72772858919081
-2.98343941504823
-3.41035626030644
-3.73255674163951
-3.62519736623359
-3.02466569694791
-2.01983716470392
-0.801653556892198
0.156804192173538
0.341435388822563
-0.230910365133133
-0.991262924261046
-1.30127460032001
-0.754425339182464
0.625103269511546
2.17125421440678
2.94955493119292
2.60467197877284
1.56512116205004
0.434229685156634
-0.428586863945392
-0.84851115314226
-0.862070527996309
-0.787638024759767
-0.909507084363758
-1.12368909488037
-1.09299594376637
-0.597293498041519
0.369373848936244
1.55416146010118
2.44685621324033
2.69874086689304
2.53808299505592
2.43159443609718
2.4946030873131
2.55878628583868
2.52383910442107
2.33824683659763
1.96588279038863
1.55190953111115
1.26965163385706
0.995024795496396
0.519322477455689
-0.0339179520855152
-0.382023551621673
-0.479839446951942
-0.462378881333692
-0.459026198526656
-0.612622425424445
-0.950320896680423
-1.22185037588634
-1.2120773122933
-1.07389736115227
-1.02435076931382
-0.990677387569533
-0.843253055047784
-0.626137330411382
-0.365615282850944
-0.0340124998829362
0.221568141610107
0.19946794211659
-0.0344377454046987
-0.292420615837878
-0.59503341839416
-1.01842205640008
-1.42749740635258
-1.70133450282741
-1.97995033680297
-2.39274897188515
-2.80737343537333
-3.03460404160514
-2.98299456700183
-2.56923981270989
-1.81675700222912
-0.977125848272657
-0.263655230711991
0.346405018192595
0.870649383372597
1.22634778367704
1.47216237598264
1.7412403188899
1.94074045167303
1.91196206028445
1.74749573716625
1.59269219139741
1.39693776767923
1.14839408737712
0.990399684622777
0.910304651689104
0.73091917431414
0.485040704217448
0.376700922889301
0.429090497330493
0.536357213914122
0.668818293535982
0.759346519676262
0.700313958906598
0.608100754383667
0.705041951811833
0.89737798925699
0.889657544176781
0.678205084975484
0.520887655836666
0.512743134704248
0.557574222618495
0.600992679555365
0.572294746449217
0.32382107847788
-0.108972302685426
-0.479652705410415
-0.724322719838969
-1.01240441496928
-1.35200378339406
-1.56374075741679
-1.60227898695729
-1.51465136751407
-1.23965727538963
-0.780269507187366
-0.350781501724796
-0.130832058048672
-0.100224401044745
-0.154856259060356
-0.15359529265911
0.00439321479386521
0.127024567385081
-0.143929544444738
-0.7652466676582
-1.25275301947208
-1.30318376339786
-0.987105306952189
-0.387449308387057
0.378166971061095
0.918131189256644
0.934855481006203
0.658693230534529
0.483507266955539
0.466164583628244
0.504017920377865
0.628693261414394
0.872735952604176
1.18429061675036
1.59682873321537
2.17759056893863
2.796315913258
3.21591012807585
3.32602892002936
3.06146608225356
2.30804644336761
1.14089277267482
-0.0919762109701084
-1.12134813019913
-1.96553238065733
-2.76739969282586
-3.67945368105547
-4.77348396186765
-5.81073800445605
-6.35584134823326
-6.29548121381066
-5.90111758359224
-5.35333188138285
-4.66695189708776
-3.99493715515837
-3.44918818166085
-2.74617851671309
-1.5611316445109
-0.080162002268027
1.20781704806214
2.07108351732425
2.68148304616708
3.49329846888985
4.96401587100689
6.95447777170962
8.51038057227373
8.70293791326183
7.53461943099391
5.71859787727188
3.93602878308563
2.58783929193984
1.80912378251683
1.39449394176355
0.997226532017482
0.535567928992609
0.178737980867959
0.00680177025287082
-0.0387355166523624
-0.0106951393840306
-0.0261451746520154
-0.280270204432039
-0.783257454093526
-1.33384222543447
-1.83706554395708
-2.30018278317099
-2.54317806562479
-2.34258421283989
-1.78582876889925
-1.13362664561587
-0.537395540210132
-0.136897603725953
-0.080241807424274
-0.252622554116293
-0.356154071466
-0.320241498016204
-0.2880515232747
-0.316404258406957
-0.428192196233066
-0.715283594488028
-1.10603179427836
-1.37273604557417
-1.54625187172831
-1.89677169123837
-2.43923335555277
-2.91778058530497
-3.22319196053198
-3.38617991778643
-3.33362324216684
-3.04356764441167
-2.72180032160411
-2.56102785078084
-2.53168473827434
-2.4368330031799
-1.91544086899188
-0.593610492947139
1.34362988230217
2.94558153284942
3.32318504223134
2.53432892370266
1.35625823966212
0.499622587494162
0.325571534136287
0.885584269345322
1.86312989002576
2.77041224657405
3.35887330269921
3.59838770660286
3.43165885246131
2.93781434243408
2.47622275568512
2.29148352682465
2.25398569325209
2.19197899258557
2.09863207091197
1.93206652818206
1.64523281271357
1.41071697804745
1.4338480527522
1.66038203948703
1.9504843525043
2.26765089062319
2.46901224425298
2.26918930986688
1.58784589922983
0.622427272986225
-0.416814319993879
-1.34622343352398
-1.95586790685898
-2.20657068160596
-2.25708948167055
-2.15447425184238
-1.84643841943884
-1.57092864121421
-1.81001495534156
-2.76192374532633
-4.16152977740912
-5.58328747460294
-6.63851566929443
-7.02210767787575
-6.69476758573653
-5.90529480751247
-4.84182165756391
-3.47785448006391
-1.84130033471596
-0.10262653522399
1.59592158919638
3.03410818454456
3.80586492652667
3.75742297817327
3.34026537955204
3.18311971672122
3.54568102198639
4.33494883661471
5.26671321363074
5.91706716598258
5.99378200321468
5.56710319685327
4.8094004246612
3.77340487989019
2.65793707096958
1.84392013328698
1.36602181319675
0.761790742573499
-0.345537784988665
-1.85082184795685
-3.35128142349223
-4.41359182720718
-4.83459592027309
-4.91426798464346
-5.19248170545446
-5.74760627774848
-6.14040271416438
-6.13632920784127
-6.01882323006228
-6.09234655080422
-6.2684092232833
-6.17938594663663
-5.3944109708764
-3.62399627748351
-1.06372129689661
1.55992895805936
3.55014711237803
4.70608565114153
5.16105294142595
5.15189553987366
5.06720960013584
5.28577443432769
5.80701562462218
6.27948238526277
6.34441933314485
5.81116355732182
4.74630274948484
3.51869211179976
2.4877914233275
1.66288227485852
0.938143712512391
0.4272006938871
0.204644285972336
0.0343276327279234
-0.296147739457284
-0.710677227740685
-1.10546796150671
-1.43975345248065
-1.52162440322551
-1.21923738145878
-0.825729247435305
-0.708345755454454
-0.762220556191859
-0.648092318092046
-0.315740646843249
0.0394875691304539
0.243812862870824
0.176241003904229
-0.151027776525702
-0.465405831337339
-0.474939754689733
-0.204174587345235
0.140485507862741
0.447284233799187
0.59583750767683
0.394048996582728
-0.0939893825897705
-0.50517902656281
-0.68918938050362
-0.878134722013618
-1.2415264053841
-1.69961305376312
-2.16296764796942
-2.54521043187185
-2.68043261250041
-2.58166896322773
-2.55039920944647
-2.79973393666878
-3.26054940858148
-3.80923768284247
-4.30446010675274
-4.46529077609398
-4.11911631968748
-3.44093092888888
-2.65705119712204
-1.78774441821919
-0.879092444402101
-0.0881647388732307
0.598661109292628
1.33431753844111
2.10690897518043
2.82005747422
3.48245572701839
4.00499201767427
4.1451481578178
3.91260166886816
3.64264906494165
3.51774160933784
3.42184247477175
3.29619641238852
3.21513875527183
3.14162258891272
2.98303438981745
2.78255386901211
2.54862219831811
2.11705785813552
1.46237740501955
0.848536142818362
0.451359732041541
0.17444911368304
-0.0614123884887603
-0.229435939585885
-0.368802024262184
-0.483167814058274
-0.432395372937232
-0.207238263993555
-0.00546545494751587
0.145624644886607
0.419776754557361
0.755064943773297
0.855230146404243
0.643319617207374
0.305438656053312
-0.0138494422116363
-0.235020712437118
-0.282716564326337
-0.236050137559317
-0.277209751739113
-0.426968561766119
-0.642517067289069
-1.06948802629739
-1.85359430796575
-2.91082615931308
-4.13259566351878
-5.46950297315896
-6.64933226667422
-7.24174430791758
-7.09120780581926
-6.30693237454593
-4.94986037780072
-3.2109615206141
-1.72916878078596
-1.17484136889201
-1.52508417655083
-2.05403295721733
-1.9263872784954
-0.698015360995713
1.39122837568636
3.475426089342
4.80937621054639
5.48315054119802
6.00408987791352
6.41650020634851
6.40387437645929
5.96245141743535
5.36155992411805
4.69203625596536
3.92706324826931
3.17894560737487
2.59114808796387
2.18549884807743
1.8912208302895
1.52686801732971
0.876588727116601
-0.0312808197716927
-0.965536062402293
-1.89109318587947
-2.93190080015571
-3.92124154591174
-4.45544093602023
-4.36601899638268
-3.76718341270968
-2.85213676368437
-1.97303441335164
-1.55644901241707
-1.61870116739515
-1.7236538087066
-1.59251209048901
-1.35916170976374
-1.16957046353703
-0.964641103890273
-0.667654483470021
-0.190942594658366
0.65332313832131
1.84098522080717
2.87674501522565
3.23768993862373
2.91541696937474
2.25680573381201
1.55620377898035
1.01972228240737
0.804713519180723
0.904509401036369
1.15627919102334
1.33408086425201
1.19114205736434
0.689762623557731
0.206141546081959
0.120039286439349
0.265364704952928
0.214412910932452
-0.0830364688911971
-0.400067023957681
-0.690553287980285
-1.01319310479434
-1.31166192130047
-1.57454272743906
-1.85153671865646
-1.99043437161424
-1.80006718812833
-1.4441638977862
-1.20778952109443
-1.03674405115212
-0.735775131539927
-0.349540413763769
0.00278528206888869
0.338598077518908
0.621285436744203
0.716226985389903
0.669312529322118
0.689582269532572
0.820839038594531
0.937646814888706
0.996292999215288
0.989297424710813
0.799521315018077
0.385254369454311
-0.0754401536819586
-0.408696572870403
-0.558005134726857
-0.433151448432187
0.00919467822473508
0.599092350691463
1.19657651668353
1.86696262852051
2.50168511303342
2.64075606838071
1.98553828062603
0.731318317173592
-0.751090698030924
-2.16923592171156
-3.26260524158483
-3.93643818824331
-4.36880005078903
-4.68714945638019
-4.77440158682661
-4.57956529709577
-4.22676947101304
-3.71926786973162
-3.01372750963411
-2.377749069804
-2.13921315087951
-2.10686233637213
-1.65629679711144
-0.333843620284333
1.77778897210158
4.05491052074866
5.65782528523904
6.18441425922192
5.99835798048749
5.69709079399722
5.46562960508977
5.19501209028545
4.87372867795338
4.4865236492507
3.85090569908814
2.93134026727339
2.03970463904955
1.46259348744841
1.1836105967202
1.07630199006198
1.00895579357787
0.779494973104291
0.330989034764759
-0.0849945711899203
-0.275570609653236
-0.410954525802432
-0.745625784783036
-1.33198761592455
-2.08906740247213
-2.807990790447
-3.14619151045491
-2.97975141346208
-2.60549472801934
-2.30839653153938
-2.03417005209243
-1.72340354769212
-1.56701813299435
-1.72739913487884
-2.1331834215836
-2.55397461501474
-2.61224598204642
-1.99667093631464
-0.991636568521067
-0.406566616704416
-0.658178041284828
-1.31174665735339
-1.72349306440836
-1.70139732141874
-1.40814645990034
-1.05116591859274
-0.793378297320065
-0.656429779529721
-0.483289340349595
-0.200862559170123
0.0274040970143024
0.104430978145011
0.172870749724286
0.281594125276356
0.225056982436321
-0.101095526749366
-0.50162140918297
-0.715788984942542
-0.617264595111053
-0.284079241906091
-0.0142782921612209
0.0167148738952023
0.177945544457811
1.03059770687712
2.54734736491634
4.1354483038743
5.30657682744638
5.85599170569429
5.65815839330303
4.82675193686199
3.84030068466017
3.11488434183044
2.68799060774344
2.43870938294311
2.21602579498692
1.75230920880422
0.910812718501973
-0.0412141848206996
-0.751400091980499
-1.17592283344868
-1.42811962333432
-1.56221147700963
-1.67378321663048
-1.86610339779056
-2.02445901829168
-1.94250724163031
-1.68355969687509
-1.53924660462519
-1.69598979458155
-2.16902228310678
-2.88650691156812
-3.60868878832441
-4.00898197910641
-4.03634004270394
-3.9355032162118
-3.84486688200204
-3.69649327488572
-3.43339192360544
-2.95237860216548
-2.02346310777552
-0.64015234558718
0.797066133128213
1.92343991992843
2.7286216369224
3.28015244953444
3.49673884949915
3.30250309259064
2.74360791478143
2.00146677327896
1.43147168867078
1.30680268917581
1.40515927608382
1.24844923050209
0.797751888062452
0.442676296525691
0.358069356470662
0.377737976659095
0.390299291755572
0.418526177252428
0.473725167286705
0.619289073633219
0.928980981611206
1.24730474437115
1.32351482737095
1.22383895552107
1.24754611419432
1.45644811438129
1.64445338474101
1.69647845244716
1.64400504988404
1.4992442228343
1.31121791448284
1.15343995720429
0.846848264533984
0.0603433124074527
-1.12492858076287
-2.14750423279127
-2.57634887477825
-2.44857667129358
-2.03458485211731
-1.56932334691494
-1.10636164404959
-0.489896036586267
0.323478111032082
0.972846277505084
1.08811008806041
0.828176338925761
0.610434290157411
0.531311810508168
0.436577380029996
0.250577615090215
-0.0769516651621701
-0.584761023075915
-1.08908849028031
-1.36363228372383
-1.51700262891506
-1.75037161947692
-1.92823879534611
-1.86626702203056
-1.77211998241143
-1.94412509721456
-2.2836958182606
-2.44032472001017
-2.24633917448513
-1.87016615632312
-1.72312990744358
-2.17371275378594
-3.11308024261694
-3.92031635395764
-4.11750639209527
-3.876687004872
-3.60697735948166
-3.27220747932324
-2.39606278991086
-0.583970426811952
2.00865343325211
4.47670315766974
5.59169796252237
4.86003263380848
3.04458399953918
1.35666130170728
0.400149348996267
0.0779603974200459
0.0500295145725662
0.00600100260932549
-0.160676038256452
-0.29092298743399
-0.247501220978432
-0.107428557843995
0.130282011677137
0.702175551639495
1.7390147285617
3.1162893335721
4.68812067811202
6.22599881777997
7.22127480129451
7.28482748856151
6.64203997830503
5.84248905863503
5.22058536717626
4.88609424910726
4.81006533926705
4.66860403692501
4.03106851611693
2.89501871173601
1.68967969837674
0.713507616807306
-0.073061599247604
-0.737626252806787
-1.23421970395077
-1.5408163823609
-1.68800466710918
-1.77626277738598
-2.07744559476053
-2.80164560693108
-3.66784480322883
-4.08652111336788
-3.81892840462279
-3.14475837352248
-2.50578096209341
-2.28133001615101
-2.67111410583355
-3.52827353206886
-4.51184547967292
-5.42266955607225
-6.09623681760385
-6.18798729686433
-5.56448047634857
-4.69644346749793
-4.19849735696103
-4.21655146542077
-4.58547294189261
-5.19947505983789
-5.90287954830272
-6.33382685181102
-6.07547816294338
-4.83623629526393
-2.67081082953831
-0.217072202633567
1.66947016161109
2.7659817704405
3.58059655819853
4.47635919551317
5.18173143777029
5.31127786620554
4.92687094597516
4.4311700502009
4.2035636827165
4.38050511495173
4.75814548926732
4.95810177796331
4.84567968154467
4.62114506867507
4.43531886599578
4.23428697353987
3.99638295588475
3.72481757990583
3.27500685189704
2.59845074743722
1.98214478985032
1.67951929777412
1.57345446218004
1.46280018039288
1.31048302898975
1.05182259227372
0.576894992409063
-0.0370036584305535
-0.644598628538199
-1.27848788009465
-1.9551049224259
-2.49534882180553
-2.81198236495481
-3.02699392323185
-3.13748403719155
-2.98965911733616
-2.65020261444316
-2.3791333484664
-2.28297165876747
-2.34233372721827
-2.58090596531345
-2.91393582521235
-3.1023735233048
-3.05292265375618
-2.86676812608702
-2.52734551365128
-1.89365211610069
-1.03069426012432
-0.219813781899441
0.347390767198225
0.647847164004312
0.749871781362733
0.87681412789719
1.27575415569514
1.80621363096105
1.99915190122467
1.68591930171341
1.20679504468211
0.964018697133042
1.14775956822413
1.79689964092303
2.72957836480658
3.54198828082728
3.93295394199697
3.85404631249192
3.32662907833895
2.46256543733985
1.59104165294773
0.971548238012714
0.525299546949988
0.136379750344986
-0.121493524252493
-0.303051455736686
-0.659330576779871
-1.1863711532532
-1.61326396339842
-1.90800289196226
-2.24712466026527
-2.50513079272507
-2.2998150991651
-1.5105817609161
-0.422502266019655
0.512134995092986
0.912522490978673
0.710417242072209
0.175714983573891
-0.553130510738386
-1.77542201911944
-3.63841032915376
-5.46536592512167
-6.24637466349317
-5.717486066347
-4.51351512569207
-3.41343727109641
-2.81025585249088
-2.67393183504983
-2.66257828286127
-2.41303530120997
-1.85757026580391
-1.1423883886773
-0.400562554180994
0.208765283469686
0.593596951418311
1.10136507500697
2.36248900437721
4.51334111497615
6.9414218381862
8.88639477784478
9.93254289584233
9.98688043633851
9.18196628287784
7.75092569888665
5.81655266403894
3.50465145196064
1.24500877076514
-0.471109837869819
-1.60009389599194
-2.40362280426107
-2.97951645720543
-3.33596620481448
-3.63235071119458
-3.95252972595299
-4.13648391842713
-4.09538748904171
-3.95241763668168
-3.70048913408593
-3.06505832042648
-1.84345882439375
-0.165542509388487
1.5240294369564
2.53338362222462
2.25685958430557
0.857670275618435
-0.575839408339132
-0.908855027945159
0.144825676873565
2.05845059635967
3.99192870653539
5.16141235800031
5.18511430654387
4.25702815045228
2.8441358876098
1.34246659920516
0.0781654460870247
-0.774242265636047
-1.43875937717746
-2.33311722803575
-3.55054931538966
-4.83508466344308
-5.92425068710244
-6.61367166529732
-6.77214701243949
-6.60142863685954
-6.56032034429697
-6.8258861677382
-7.13482734211413
-7.1386072852937
-6.56535888054421
-5.24405201598328
-3.36326619728273
-1.41625574297112
0.404395379254157
2.36375198685223
4.56890040775431
6.70983248862315
8.53480117401521
10.0167773591262
10.9381390788606
10.9050129815863
9.95756257745474
8.68706007489822
7.58636740724411
6.61160175770229
5.39745609105783
3.63605985959745
1.32947231855857
-1.14862328049628
-3.34742889222316
-5.04883162395501
-6.09576529729016
-6.22501890079959
-5.4897345766024
-4.54987395505632
-4.09511548011662
-4.15680109580909
-4.19376208246291
-3.62306207741467
-2.25348429190581
-0.50407126516753
0.872112278609632
1.50755010485213
1.6653937015239
1.70382088471524
1.75692763092667
1.98366429133641
2.50270551527399
3.00204736503845
3.01323849799379
2.59819152794404
2.26081031439811
2.24201316232099
2.29155813901565
2.02979341156355
1.318403352084
0.432170062392328
-0.0772727280341493
0.10660047773688
0.729076252586589
1.32299289852343
1.70916002934959
1.90535364920174
1.84694814897103
1.51940559012752
1.04275198021954
0.342940458912101
-0.85598188288912
-2.48633188009066
-4.0617616569919
-5.31692410150092
-6.43586308801404
-7.53958724169715
-8.36869503349211
-8.53909016544921
-7.91764109096959
-6.86189273869942
-6.1069214295644
-6.0855093559774
-6.37949565106309
-6.2096688159535
-5.34249872655745
-4.12657398484849
-2.83312199753507
-1.33287700443146
0.7317626197234
3.60137693578033
6.98763469045432
10.037130821713
11.9553424161457
12.4315274896661
11.2835849053219
8.35638463669572
4.26005806459236
0.578500720526763
-1.29901824395821
-1.28615422232218
-0.295929021426557
0.766910520828826
1.53306225965246
2.14230579276415
2.95104084058559
4.06637337187876
5.17172154201791
5.9685214505744
6.49452819310189
6.71151888583781
6.18635474047972
4.58793871823124
2.19132720353885
-0.385394544957083
-2.69121615857888
-4.62715665903178
-6.38166441858562
-8.12870070540719
-9.64691248034719
-10.4581623212377
-10.4037614469865
-9.77050287242142
-8.88458054158473
-7.90851810264089
-6.84796831183206
-5.41646855281047
-3.20844054736568
-0.324841318001447
2.56263065142693
4.96618703232287
6.88783814664463
8.26779791723676
8.75525443115903
8.20831426378145
6.98712033727963
5.66659641786048
4.63958182170315
3.83672371898266
2.74102218693925
0.972995271917992
-1.12023633363424
-2.81418361798099
-3.86484954669413
-4.56631614655092
-5.04460468000812
-5.02046597596888
-4.28838145712455
-3.02922795636085
-1.63400682546932
-0.399843293183375
0.74265347084602
2.21837388153282
4.2071222610967
6.14328196390221
7.23337840291551
7.30243597740711
6.72115195029003
5.79021549060205
4.59658427361513
3.15666710586371
1.41421150503601
-0.586042462834106
-2.45112195879444
-3.75459746624355
-4.5333532886
-5.09261077139309
-5.53321833129662
-5.83191743299381
-6.05871255565686
-6.16604482780353
-5.86348030688512
-4.89167357712732
-3.16608384317579
-0.735218367818389
2.05722965449281
4.56408874570718
6.34223091799028
7.47998602268721
8.24297247118324
8.69634596879135
8.76938859102641
8.32279328244906
7.08797119250387
4.90401513767374
2.04299612306175
-1.01188849715894
-4.05201645242998
-7.13488174722141
-10.2451181383758
-13.1883658289916
-15.6174486005326
-17.0971653004945
-17.4553167648779
-16.9868938873469
-15.9507492135989
-14.1648185003
-11.556802587938
-8.68799862267238
-6.20961626823903
-4.19545103005447
-2.38332346973121
-0.607769236468242
1.28772244659371
3.51000011011698
6.11380827857449
9.07827229579294
12.4835927290444
16.1850614884326
19.4372867516902
21.2034058143539
20.7983113063372
18.2680631018088
14.5006443930923
10.9219540906761
8.61604034360138
7.61929714599115
7.16565806720389
6.41907862005779
4.9182205184244
2.75224572560759
0.562089530841603
-0.89460343863731
-1.37677388169647
-1.29802621937626
-1.32857517687492
-1.97335703774343
-3.24490146218926
-4.47991717624895
-4.80659699432581
-4.11211450108651
-3.24326505648189
-3.05323748163166
-3.62903486938991
-4.52381641824721
-5.24387760573973
-5.43614344287778
-5.04776936324131
-4.35963637791551
-3.64443081213601
-2.94265559711387
-2.29865121575768
-1.92028517809527
-1.97782784060678
-2.4515079254187
-3.12835675333793
-3.59932079265688
-3.53578690148353
-3.16565633197494
-3.11463988918451
-3.60943913675452
-4.22904102548187
-4.50815644691914
-4.35980310411659
-3.9129548040484
-3.32444406054716
-2.68168012515453
-1.8410128408853
-0.570892535498914
0.970331938892478
2.18512605972495
2.60508012625949
2.28445442127377
1.64933670193138
1.22570090996961
1.39949358875301
2.08460019648517
2.68793567687078
2.65604549153606
1.91955522596271
0.696954204848618
-0.733814501321919
-1.88750954065049
-2.1901912172357
-1.53729510859539
-0.461491182477653
0.33376380200141
0.454735355400086
0.0437239187463099
-0.27074748130932
0.0778563856375833
0.99533104064523
1.99254321244873
2.93920098073465
4.05337041965916
5.27364746036779
6.19202476345612
6.53997375702147
6.38447415255291
6.0247969536133
5.88079240142712
6.13520023284846
6.37017549174109
5.95209118998917
4.81023048812359
3.49181349238166
2.54929120918094
2.1618861942054
2.1410696486482
2.04008048692071
1.46742892969432
0.452957757861422
-0.67311472260905
-1.73394346526258
-2.76682237285625
-3.72482501139248
-4.45996360359592
-4.93689601632103
-5.17629440180468
-5.09725906533776
-4.64125607952596
-3.90158906883674
-3.02017272002049
-2.15092786269755
-1.47389970225663
-0.989253111855707
-0.489255752749377
-0.018877442625645
-0.0538508598045211
-0.909209864778894
-2.26545446510124
-3.47600841570282
-4.06968356799206
-3.97869020331488
-3.64488508735064
-3.7742978067072
-4.60492343079613
-5.62867561397055
-6.33717178572802
-6.84658162733236
-7.43392145027364
-7.87452690880359
-7.61241159292037
-6.34897017085072
-4.3458937635
-2.37449031853568
-1.27932347823383
-1.28521529589339
-1.77874169130456
-1.89988142625301
-1.21880895711271
0.124605743752692
1.60806010020889
2.61588365529844
2.86716067909335
2.63430050715907
2.38671827589167
2.37077699814449
2.74702289040644
3.8044050641056
5.61659448748865
7.69778972938713
9.3453131012379
10.1823782858114
10.2486861996726
9.8094726073181
9.13810100407791
8.31313103579619
7.31706495663685
6.39294842673946
5.96567509645485
6.11297234728568
6.51230228420164
6.95190058518146
7.45461383997019
7.91726625777951
8.08057340731485
7.83686528899713
7.26308845477409
6.4796677309752
5.64939589157148
4.86757554220327
3.9774563734182
2.76974427965383
1.28940230610614
-0.337841373002873
-2.15938137697126
-4.19125408751936
-6.2528430655143
-8.23505435924816
-10.2207970704816
-12.1973253471643
-13.9541345345253
-15.3120757249007
-16.1570507564381
-16.2810159905537
-15.4967778375031
-13.8807139714715
-11.7212055944105
-9.37178536635605
-7.22473479427968
-5.51667289855169
-4.15277107503892
-3.1159839638228
-2.84980851727514
-3.59265414749798
-4.52220363896137
-4.29192286935201
-2.3642795155033
0.637742547628598
3.64675978096476
5.83865872084004
6.95239814131637
7.28912630277489
7.22933866296605
6.72346353256798
5.47295328350056
3.42265392308
0.809357749658322
-1.97383788627205
-4.34371372841785
-5.78907914741603
-6.38813343119589
-6.66585540565972
-6.82710033425429
-6.49217143623175
-5.19193535428184
-2.85462464373826
0.0507228493471379
2.62931826747366
4.06802509296199
4.30610315972222
4.10369243249811
4.36526992745
5.48273751289643
7.20320061609274
8.86308847713999
9.83927126218727
10.0315648226199
9.83335778127582
9.54752551929166
9.10916504929065
8.44633941651052
7.71613897258409
7.09129706008296
6.61217340904627
6.17942853297162
5.47951660832142
4.22613967478306
2.69313853937302
1.56195828781266
1.04099820105405
0.636244573993577
-0.0666697965111494
-0.907647005610612
-1.51373638251374
-1.68452208847919
-1.39289108923199
-0.760222161412081
-0.0153444121185237
0.662517550980118
1.125980730413
1.16872974163261
0.78506993266141
0.366225679527412
0.231521838368905
0.137264398948828
-0.402827229322539
-1.53230083603473
-3.02960778713605
-4.57437933453191
-5.84766446503821
-6.66735712544397
-7.1549970085298
-7.52154530448554
-7.71823642052652
-7.63410268027026
-7.54601026421956
-7.9297624877268
-8.82156291596246
-9.67916523469452
-9.83356430071284
-8.94537329092276
-7.23731825339315
-5.38642738869007
-3.97001933510517
-3.03559959169138
-2.37616999322311
-1.96234982187601
-1.84666620158511
-1.95469280917382
-2.19814021372205
-2.49297503388822
-2.58842444076595
-2.22475267604754
-1.43579351267317
-0.397711113593488
0.816261905951426
2.0532840811368
3.03454403227441
3.79221763496402
4.71880434274646
5.93467658053009
7.04970961280863
7.69691036139232
7.86823818373265
7.67068180580607
7.14981606219883
6.38263715082608
5.48195566117325
4.52921718962224
3.61033990199996
2.80965850411718
2.13843747901905
1.61647870932426
1.39550211795368
1.6421666488768
2.37047974631209
3.48167590592142
4.73951546706481
5.61478843892174
5.55987891899343
4.64179958538195
3.5513358866133
2.87581958590304
2.68215439427865
2.7336417314059
2.72398700218753
2.4358612253515
2.00887524763893
1.86429842593212
2.17366154536511
2.68793764046488
3.14253767677355
3.43875480813496
3.45694548528997
3.12476752027762
2.59517715512876
1.98942924550201
1.12598734695234
-0.205285440745342
-1.90679413314501
-3.66969094688071
-5.19302002705871
-6.35494329140575
-7.43008605850995
-8.93604653218077
-10.9656421400179
-12.9217598189544
-14.1313421307184
-14.4107290882506
-13.9264546351501
-12.9493016028641
-11.8947927882652
-11.1778623582938
-10.8416786314835
-10.5925969678914
-10.2040378622025
-9.60211779236311
-8.65107138248388
-7.17919758513153
-5.14805428750978
-2.62922936826228
0.21818168685619
3.10975766105356
5.83754353644385
8.453233189233
10.970051955874
13.0466013294591
14.2634720985719
14.5527491455221
14.1947031372981
13.5950035529666
13.0522624895374
12.4513419273059
11.2982048791048
9.36037379490481
7.05859325121633
4.97374275554544
3.3140993905495
2.07291095611399
1.23715855145823
0.62486901974877
-0.0292336550652994
-0.679019579294977
-1.02890227655687
-0.993720112899838
-0.778629313445935
-0.58810025885649
-0.493992629664086
-0.448450653227424
-0.274725330164521
0.182846180768585
0.818762648856781
1.33591506624842
1.53794091709829
1.38868022824043
0.912008392030818
0.244617993047865
-0.424396220461004
-1.20418483773734
-2.50477863653219
-4.45227928678552
-6.61516650048524
-8.45745427571561
-9.7028205741885
-10.2034314646648
-9.84531634012621
-8.63199992721117
-6.67283826658404
-4.25774463536549
-2.0237950700959
-0.635902247031793
-0.132589098415948
0.075174442997739
0.526718566519154
1.34141000049899
2.37085235385215
3.35914008365559
4.11176359731623
4.72136739575899
5.38059081277
5.93581338037186
6.01334784026441
5.53213872412736
4.68022765541439
3.57125378006915
2.36057455955249
1.44516387236851
1.09952347564451
1.08323932912587
0.882610345118442
0.173559215630728
-1.03475569835927
-2.43249388906648
-3.53124281985772
-4.04589176735391
-4.17145356541046
-4.24399785395425
-4.24736412101502
-3.92351288608265
-3.19823593932505
-2.26496230504566
-1.42296557349529
-0.907390438507564
-0.651633584174167
