-0.00744575385623914
1.42383880200625
2.08383597545763
2.67887156915064
3.87473366488696
5.10188790745847
5.52279778361218
5.01670025707326
4.01421325823301
2.96906083218983
2.26165396965262
2.18758785198299
2.66349864537588
3.03916760218481
2.4621992264005
0.657367418903569
-1.58305953068963
-2.93335579192106
-2.76649315899153
-1.62639835442091
-0.37830089427226
0.604708176070383
1.19237021614281
1.10667705493287
0.272073571133531
-0.801349718673419
-1.28876387595885
-0.614779689903084
1.02377465154146
2.48037078970428
2.58059639134406
1.63502412660608
1.23565410487058
1.90617856419652
1.90342674579977
-0.589060257122653
-4.76285210987962
-7.86490739331345
-8.22824507659742
-6.61028411919685
-4.76526966087553
-3.67765102596438
-3.24804919870627
-2.96291179468966
-2.50229382834025
-1.85749962980638
-1.09989182035024
-0.229487622331662
0.709338525636663
1.53802676670961
2.07355041048953
2.25395621817984
2.09216478057076
1.57596431542248
0.679416355491484
-0.429365385068223
-1.18111527159819
-0.893203220438693
0.511594652942766
2.3243840455514
3.77661631051299
4.59212285488851
4.68761432290576
3.93943750887463
2.59308717980434
1.40049354719307
1.02177240657213
1.54869606794539
2.55158080647891
3.24709472016663
2.93477000469436
1.75466273450155
0.612392235339856
-0.125944125122145
-1.25306470828368
-3.3798972716084
-5.63264426730623
-6.57359886142077
-5.98057513559073
-4.87156720202849
-4.0944295185057
-3.65267239928965
-3.20504280269266
-2.58796728842762
-1.87881040489047
-1.2772115234737
-0.91037627684344
-0.675797110606514
-0.354486772973241
0.135166933590029
0.675264509959377
1.0902755311552
1.29184202202896
1.30425209702888
1.18461309044473
1.01419051642197
1.02148621899502
1.503482386384
2.44152007846208
3.4242244057052
4.13736231083834
4.62536157864219
4.92789104751527
4.91363680635843
4.64108576551091
4.38594499632727
4.19071984510025
3.8714097319319
3.43948495634255
2.99057175910479
2.32019354195752
1.20284799226953
-0.165532122530197
-1.53714868304602
-3.10487384866868
-5.03290777085463
-6.8042953080219
-7.65381437841799
-7.43585289953494
-6.58477408874409
-5.49437263817612
-4.37373219044241
-3.43162308525913
-2.79620628369907
-2.40831904653673
-2.18793022600529
-2.14181706780555
-2.23514775567243
-2.31681754914961
-2.20942938530332
-1.80679700432648
-1.11889417639076
-0.267921684010074
0.558268083459015
1.14928839783457
1.38722876011896
1.45661867218079
1.77799722502039
2.52426064316667
3.41758610247937
4.19513899769782
4.89642342790255
5.46273213192379
5.58002392588291
5.22212664965192
4.81018267341381
4.57811104041136
4.31452532735642
3.86627607844471
3.33242188242787
2.6976878375454
1.80469149382272
0.684978273305165
-0.521861343772689
-1.84039071797284
-3.2184652384858
-4.23287691324366
-4.50078463268194
-4.19409091489536
-3.76062743246318
-3.3659535709568
-2.9204872462685
-2.37445053895055
-1.71603181253569
-0.929937511965738
-0.13195577819128
0.458856743366836
0.757895779753561
0.895321852920981
1.06915049458971
1.36404172422847
1.65010674644451
1.69473304744882
1.44800927958086
1.09907203403229
0.80241024747841
0.55168564660739
0.332228313054743
0.130384565154301
-0.175324521389199
-0.658976835616332
-1.18669851374393
-1.62710017590379
-1.99306033654995
-2.22844827868398
-2.22936595588978
-2.17247687308346
-2.34725738776842
-2.61828016625355
-2.56171214038855
-2.11089465725487
-1.57055589072313
-1.0988918552891
-0.664592668540083
-0.3573895856576
-0.262109935806585
-0.188920166047703
0.065127990521132
0.401269472553298
0.691999756962
1.05225994937802
1.53424414926928
1.91427029269693
2.05341979069627
2.1219065432953
2.27523022667878
2.4254799292072
2.44652876676252
2.34468083526397
2.16767560944319
1.92096636684913
1.60741146516908
1.28083718063153
1.02450001592625
0.82318853636582
0.503092306804064
-0.0487443029988371
-0.68850113464966
-1.25456710762297
-1.82336033223225
-2.43153305513925
-2.81520444171393
-2.79344565637793
-2.59925078988745
-2.4870734710453
-2.38305564784909
-2.18904713972111
-1.9845877106186
-1.73001926981331
-1.24252359963516
-0.58298523962911
-0.0131869372168865
0.447723762206828
0.98801717396913
1.58575957074138
2.03931785387132
2.30124198213071
2.41269754764991
2.30007608181381
1.99982136666754
1.84380451960946
2.07136983130735
2.4826901933578
2.72461985106457
2.68496946747053
2.46363372020628
2.19527211779639
1.98154974249446
1.83162203778176
1.66188739228239
1.41544429773361
1.10377563998139
0.74487914841452
0.368580882296675
-0.00632368852866807
-0.490960556592158
-1.24889075211057
-2.23358929104027
-3.20559001252174
-3.98563997285849
-4.46797725291318
-4.55163631478574
-4.34205112402178
-4.17174194843781
-4.15656330459669
-4.05360310377818
-3.72466109278821
-3.29594409114664
-2.76215619455162
-1.96977079392237
-1.06179496828273
-0.386287583929589
0.0831641405595202
0.7157650216258
1.59101792605624
2.36355593027049
2.75903609985878
2.8150800267245
2.68307796585484
2.51365339017261
2.43045635968002
2.3898848374859
2.24093460456248
2.02516490441058
1.94575289898576
2.01662415076803
2.05566624730157
1.99507495273267
1.90688292183708
1.78524264071399
1.52998279644767
1.09037994287532
0.525625433972836
-0.0223505248556038
-0.435803058880535
-0.737436156178653
-0.994539417791624
-1.14870567846994
-1.15292593290809
-1.17486221804013
-1.38933386145528
-1.72951470280502
-2.09381401379358
-2.51072043721616
-2.86814138601444
-2.89009778283757
-2.59349721152353
-2.29880496354043
-2.04885731309163
-1.53363980336383
-0.667605102934839
0.276487639153886
1.12189936936083
1.88342680424241
2.45491733064056
2.67002951359172
2.60744032129598
2.44614692583187
2.166415769131
1.73255206667125
1.32453799934701
1.06636984986713
0.814027299436701
0.471388442939985
0.197454477532513
0.110844414438573
0.0948752761311732
0.0190836405974292
-0.0841106667291873
-0.119212924863963
-0.066436632961246
-0.0172838405362651
-0.0864676757803621
-0.252914094761132
-0.383800249190396
-0.459461547259432
-0.588570940774659
-0.783996738055056
-0.971100346244935
-1.16885980659315
-1.37998616017579
-1.44574265451489
-1.29859956452015
-1.10829681791711
-0.930006784025697
-0.591451087674813
-0.133820046103296
0.127273755817113
0.150284209482069
0.253554567959363
0.544350250183938
0.768349408439207
0.7640093159562
0.605192671102754
0.342282229788485
0.0291425463407739
-0.12383208304322
-0.033582064490637
0.0147240434047946
-0.20879259921299
-0.479895816490787
-0.49807124346453
-0.351501996732746
-0.290897663060319
-0.344049452768531
-0.390808414517663
-0.3637811715999
-0.250330500611635
-0.0915178663499924
0.00256366683736301
-0.0383010058524191
-0.170791453034786
-0.300405534438779
-0.318087367177185
-0.143501521141921
0.148613028904887
0.385042514321936
0.554285201183314
0.787463940542541
1.06606747449709
1.24777439931517
1.34169242427383
1.44827746052983
1.55680240811781
1.67517211680264
1.90083311728022
2.12239653037167
2.00924604355685
1.49967671710495
0.913135009243291
0.46101224731706
0.0456623773074434
-0.415321745359354
-0.857143763276056
-1.24577926102309
-1.54673846588471
-1.61634628452123
-1.44286089411734
-1.3119310180044
-1.4132390991986
-1.52256382636697
-1.37263791012245
-1.06235036192082
-0.848737616396104
-0.81485196212645
-0.907277708498461
-1.04195185769338
-1.10219830348713
-1.02908798414604
-0.887117622510332
-0.739265683515173
-0.589790494780069
-0.476981377490892
-0.426481064498588
-0.3401139538024
-0.116695522464169
0.204195405989232
0.533291332884167
0.801660963056944
0.925660329828923
0.939888186688466
1.06398815870384
1.34904082744053
1.48352250117347
1.26426024589907
0.932251856689766
0.753677475132605
0.67428501487104
0.605576767615005
0.586081810694313
0.512616310770283
0.189606929993144
-0.277416214110985
-0.575173260711919
-0.650180246945515
-0.67250308527605
-0.640037998549461
-0.439061732111314
-0.164044688124616
0.00497957524312741
0.0768601492283199
0.110871189959285
0.0575814432189742
-0.0337021160642428
0.0475996942106866
0.355539408650093
0.681037359921724
0.833725581696176
0.812220416506947
0.730673540024028
0.730090279126315
0.857681080423251
0.975211386487913
0.931854875980683
0.77329502233913
0.605759635340755
0.396172614864745
0.0777616412044786
-0.335932767161833
-0.845102936235624
-1.44231556457366
-1.99030035590209
-2.36054523290147
-2.58400873011
-2.65685800320006
-2.46738929717293
-2.11707726476452
-1.92609116030468
-1.92496290927132
-1.76437339414553
-1.27005252122475
-0.654448214863477
-0.0979439542508076
0.454345859134946
1.03587173011341
1.57451000901266
2.05176516323151
2.4385132965758
2.59061320763296
2.48988417746849
2.37332976077441
2.36779355845159
2.29657373471312
2.06701739680405
1.89313381132217
1.94628412158336
2.10838664056441
2.17472713730452
2.04949144812276
1.74412197256508
1.36025622033559
1.00956940201143
0.689692317696861
0.343825478170357
-0.0373195328398568
-0.515195006125784
-1.21453387409636
-2.09316879623907
-2.95821223642553
-3.77220274044865
-4.59316579081673
-5.23871835984569
-5.44848677936576
-5.30934825765742
-5.1018821080343
-4.88390557305533
-4.57604387569804
-4.18550955876173
-3.65376942720443
-2.82048135224217
-1.74457379168192
-0.693640529807907
0.292006808850652
1.42603952102254
2.71483814060637
3.85746836002584
4.62280269317579
4.99771094521896
5.02968411409135
4.82819304409092
4.60230350263002
4.46472139183069
4.37219719390385
4.34795971493905
4.45925296920695
4.556041327977
4.39456040918247
3.99536924767774
3.56370457620041
3.16115747341762
2.70675641566823
2.14943627878364
1.49004150970894
0.790736039323816
0.149542634304044
-0.516998526570623
-1.50002073304996
-2.88734061607984
-4.35852739291386
-5.55736661283708
-6.37432263487678
-6.79721324944156
-6.86211676238856
-6.75961500966399
-6.63316483379823
-6.3676889115237
-5.85076401911314
-5.18412198963465
-4.40614994037929
-3.37474921270445
-2.12258745209286
-0.92346540473126
0.136103925767227
1.2389397156728
2.39881647746186
3.34169546265702
3.88511630617965
4.08294728907929
4.01464006591269
3.77777637097702
3.6034293114615
3.63879853780596
3.71487397967329
3.57366128375156
3.18588458234872
2.71732065685048
2.35443746936201
2.18031806597887
2.05974675568224
1.74113180267116
1.19990552883315
0.696876930639914
0.415790842927572
0.267803769424269
0.0663770157564658
-0.327124021878903
-0.957602985573206
-1.68226017889743
-2.26764116989068
-2.68495476107314
-3.06751777521588
-3.3627475913066
-3.36016497245272
-3.02345946223677
-2.47084089723889
-1.77706176006173
-1.08257820415429
-0.620541735756356
-0.36867795146517
-0.00617013942829627
0.595376167220943
1.21000457366104
1.68445219130019
2.11201373066061
2.51752060171544
2.77638582016713
2.87985357713336
2.9160697631539
2.82040900980675
2.48055352427503
1.99493332924468
1.54357300854897
1.16127942472883
0.828355571145769
0.539403436627345
0.17009315716234
-0.434720407836608
-1.20201597573092
-1.92019710565428
-2.52217878326609
-3.06201770868707
-3.55685328456474
-4.01884942044072
-4.47201052296148
-4.85550122243832
-5.07200370971442
-5.10729102104658
-4.97738162601912
-4.69787203617719
-4.37669764725457
-4.09125704367024
-3.67116362555244
-2.9265891618118
-2.01199783235787
-1.20352907886867
-0.489434773292505
0.262172111694092
0.98895740513069
1.60783078838708
2.19335606486424
2.73989777507445
3.07821680510276
3.18725105677508
3.26546463196766
3.43330643197707
3.68519983062682
4.10211022567155
4.76518617327347
5.53431376042323
6.23736021349176
6.93676708949852
7.71439140377619
8.41099222340451
8.84532735354536
9.04329850092062
9.06572484961254
8.87654792346993
8.46528074573883
7.8216421767512
6.77446085587319
5.10856767481424
2.85656646351336
0.382654551221152
-1.75716225860473
-3.09451782242186
-3.59192486154526
-3.6691966463732
-3.77158012473939
-4.06738415158585
-4.60304134653913
-5.40162996820683
-6.31950644850836
-7.16561995360769
-7.98802063766959
-8.91409441992899
-9.83278791629606
-10.576924971392
-11.1918294163135
-11.7000800440794
-11.8856194854737
-11.5779830979827
-10.852740213794
-9.78452779428357
-8.32179563090714
-6.50105950779684
-4.48359813586725
-2.38069720920264
-0.340713707443147
1.293369482683
2.24710229898775
2.61244497781534
2.63643144751479
2.44131888300725
2.13140035465319
1.84468851559714
1.5580016648524
1.17487375004575
0.844204439118674
0.8751523672407
1.38948009602274
2.28769813531174
3.37227510576673
4.33020668154867
4.87051687028154
5.03340459987438
5.1376206986034
5.41040576461584
5.88297447060912
6.51838601199055
7.18983739265249
7.6776375075661
7.86177017049635
7.78314072061339
7.52776124265494
7.24563071039816
7.11624241983561
7.04048230700336
6.61348631976608
5.63760255315948
4.36181096285665
3.05902299183429
1.7399642441126
0.396500280883356
-0.867403029199106
-2.02944761407837
-3.11746647390174
-3.9789967137744
-4.42656184526937
-4.55546427502037
-4.6007904147113
-4.62414899876765
-4.63324779562775
-4.75939570814442
-5.01015752013394
-5.11148630026389
-4.84502638737615
-4.31228802187274
-3.75449997512388
-3.33179101622444
-3.075187595007
-2.86455279508552
-2.51972955774199
-2.00471271733989
-1.41257202941409
-0.774916006929242
-0.0746306950043665
0.659969331185789
1.45082774087693
2.3605099735907
3.26221804518194
3.91336432445771
4.31026974597111
4.59994055477787
4.68540006603203
4.36240190515157
3.7488179544975
3.15206704851289
2.66714173413826
2.22953688720347
1.79962075373719
1.24554950273046
0.374294698743946
-0.741177319695764
-1.7923671978618
-2.64879110168616
-3.38405775314572
-3.93332652630541
-4.15088021229924
-4.15133788927774
-4.17225192325388
-4.18763832473724
-4.03614733758854
-3.78137442160568
-3.61935270434959
-3.6163278353712
-3.75820077087562
-4.02649408360605
-4.29672435901175
-4.3851525353268
-4.23083541355316
-3.88354865285802
-3.4150241580002
-2.94370189615051
-2.56287552955229
-2.20647696549232
-1.78990810125279
-1.39907534437432
-1.09718771324337
-0.724178381139373
-0.15756980355992
0.4328681844561
0.798874047100909
0.864134489189731
0.691434256486522
0.461700208621502
0.428826225633822
0.61507019801813
0.712639107605778
0.529831123890044
0.263904726480476
0.135701540304828
0.110301613069431
0.149990936825943
0.363796172585679
0.760427522494961
1.19860048350184
1.65871631956718
2.2356753629965
2.86463326916424
3.38519410096252
3.81399457653683
4.24754340036421
4.63292282550562
4.89811452498091
5.10839293090436
5.30369515991923
5.4297376203543
5.53642250226957
5.7838904889915
6.21992707703342
6.75422545573217
7.28152381926929
7.69426596559572
7.93682891501446
8.1297049165616
8.45693711947176
8.94530201136572
9.52789579602861
10.1823414449801
10.8322605061539
11.3417285294865
11.7248999547411
12.0421613085803
12.038274461636
11.2577676825863
9.50376869767881
6.85536550426598
3.43358239290092
-0.461602259682988
-4.24607872877172
-7.48010789248174
-10.1942686490807
-12.5715827974126
-14.6195547665207
-16.3408551078252
-17.8914005297523
-19.3880286766354
-20.8095714592411
-22.1432541772015
-23.3841933980186
-24.4258328742756
-25.1615901532074
-25.5567077724285
-25.4628289789358
-24.6070940199494
-22.8873606515407
-20.4253111058461
-17.341020516348
-13.7724154042051
-10.0129139814789
-6.33032783440206
-2.78027959392268
0.624171048215158
3.77352817614696
6.55999236404879
8.84247698954351
10.3615484282103
11.0065468997657
11.0522567043401
10.8538980814151
10.5186961208669
10.0928868756567
9.76265300436499
9.69667271048628
9.99978326436751
10.8554407563248
12.3570465857688
14.2195899813292
15.9426265298856
17.1564636899175
17.6663603002157
17.4498658475385
16.7829218182375
16.0591531460592
15.3331607850495
14.3014092459458
12.7740565024516
10.8808762194002
8.84712178420909
6.88314061565916
5.20990463594019
3.87384060178212
2.65199786936827
1.37921545788142
0.167203141110415
-0.867274922989434
-1.82620178154537
-2.87638935719632
-4.1045739693058
-5.49503930562185
-6.83721740208455
-7.79893866337447
-8.27852730337683
-8.50141425672222
-8.69459573577206
-8.91467992961717
-9.17748441173543
-9.46970672924192
-9.69682461097775
-9.82441173666922
-9.88891178651308
-9.75299589715582
-9.17363508947187
-8.19157299862721
-7.0981371353974
-6.0428029954331
-5.03502313965243
-4.17486090660814
-3.49636665423585
-2.79198461554326
-1.92707751788841
-1.10003785296359
-0.559102205360759
-0.314669514089627
-0.255775141879583
-0.248411202447863
-0.0504362727294705
0.5366357234463
1.37921447634345
2.15976681879223
2.7656769066599
3.26383866254013
3.64604326718173
3.8760378067376
3.99659245695309
3.98686422632632
3.73854219310294
3.27030392853599
2.72842669045703
2.18857544471181
1.6689247564354
1.21480239444924
0.798341289681707
0.321869089314596
-0.200477926840735
-0.702985159810382
-1.27745177306316
-2.04351523132206
-2.91605201182594
-3.73434778302592
-4.40655849169765
-4.76590157499193
-4.64018075811923
-4.20813089782366
-3.89972349919355
-3.86050616260893
-3.84308715801637
-3.5509141502936
-2.78008055749154
-1.42393549826393
0.366126999188108
2.25103050107085
4.1157939858878
6.11786449600853
8.22871023430768
10.0963129097411
11.4584531533193
12.3418650841643
12.8211780404211
12.9552352027861
12.9568618175662
13.0398790376791
13.086142059906
12.7368684476378
11.769129748296
10.2483033639859
8.45156462426986
6.68416132609803
4.99874438260375
3.1525392970655
0.986009568608995
-1.33924098564834
-3.59586009360943
-5.70952412839423
-7.64463814235966
-9.38233442409386
-11.0362612486481
-12.7082103298078
-14.2999817588987
-15.6825378787809
-16.8382864990234
-17.6733802382716
-18.0213105163323
-17.9412169428453
-17.6282502806914
-17.0285446853498
-15.9609042005132
-14.5040151708653
-12.8364760503542
-10.8940279362539
-8.5776076735664
-6.04486012519682
-3.46776997899941
-0.800539861154739
1.92712844981529
4.37157835190077
6.14946008613351
7.12179464727889
7.36161840747719
7.1574869968733
7.03083488441985
7.38251385263611
8.12829663606663
8.91790219273217
9.55249602289729
9.99789434880086
10.2541138909918
10.3803092372315
10.400559626447
10.1369026882609
9.37816270731146
8.17449784475772
6.79192434755737
5.51271519544127
4.56348678243577
4.00613813415225
3.6718541943625
3.44184399818894
3.50577912949478
4.08912483746229
5.0921246733271
6.22159533484521
7.2604594160058
8.06537247389342
8.54740706947227
8.68170015286479
8.30892954540302
7.11467089164707
5.11588568332017
2.88762866634898
0.958512745031204
-0.743902578774596
-2.57751934941715
-4.63336388742208
-6.72353767698396
-8.61050079993527
-10.0754854704312
-11.040862251596
-11.7257251816077
-12.4391444240128
-13.2369955539628
-13.9963711636754
-14.6444442895999
-15.0567665698646
-15.0019197592727
-14.4615667917635
-13.7374771770422
-13.0494497137047
-12.2758288209725
-11.1565197479498
-9.52483621488787
-7.3877810719509
-4.96099725202401
-2.50301331931433
-0.0349907489289697
2.57812832677229
5.29454334291967
7.88290394963777
10.102173292879
11.6432520734948
12.1502913484284
11.5851472477251
10.3336203480726
8.84012597763504
7.48203379507502
6.75622234607412
7.04121930690747
8.11371140715031
9.28825999941158
9.97929909003565
9.87502278485776
8.83695125525637
6.98295026947973
4.69665259142438
2.35825399649801
0.243454795085385
-1.31336004120721
-2.03235244248133
-2.04094532709776
-1.78809741539996
-1.59143005897346
-1.53523832677813
-1.66597045621673
-1.95645315024357
-2.24050566322849
-2.43351693626498
-2.61862687963383
-2.81321492768168
-2.93018554005878
-2.97793659148381
-3.01552507817558
-3.0009584759213
-2.92198464216525
-2.88850297685405
-2.91176698407866
-2.82857248741955
-2.53944052743819
-2.07473094527172
-1.45626225349078
-0.757621102004953
-0.172113779545518
0.221515518721695
0.561081823276065
0.915702196043294
1.18528897091609
1.34792675190624
1.45983962842308
1.41601833829871
1.05848797020855
0.464159668136356
-0.142718506143744
-0.627934112877799
-0.921810036124766
-0.989664033403989
-0.97326939227315
-1.10019191475379
-1.34050492740709
-1.417019817944
-1.21743755146761
-0.92571563507648
-0.72950663071799
-0.646571451275447
-0.592100339339686
-0.424289407954711
-0.0559490585381271
0.366410832949743
0.605198970825092
0.661845482801837
0.700376865263357
0.749459943527037
0.778323489045033
0.871870252045183
1.0404266191416
1.10148341751481
0.971489891330507
0.800814334100772
0.707858138790999
0.669430850208726
0.66588099051301
0.655135458858506
0.531746284087243
0.343849691780389
0.293738282563289
0.34721059617223
0.200587498212872
-0.24233665972417
-0.742592325164031
-1.10240091702831
-1.30620457642987
-1.35937545373773
-1.30531803599651
-1.25805149889699
-1.17708437170317
-0.825304656661906
-0.137154151890319
0.619525354981006
1.18319868519605
1.53583233436964
1.73419651016604
1.81679571061657
1.92065436826907
2.17422972618078
2.46460353709286
2.56842463154927
2.43595875770974
2.15533000574645
1.80888566281916
1.492783056972
1.25482704780535
0.963571140476844
0.466368297091116
-0.16281043787592
-0.72318504788383
-1.10879608878995
-1.31404110102903
-1.42511337471471
-1.64841206975574
-2.10249186865412
-2.62824547457258
-3.03547306037884
-3.34809657232634
-3.5697191303334
-3.52136463621115
-3.16944879961078
-2.77542152855393
-2.53231852507361
-2.3926588647747
-2.30731977127596
-2.25861131581969
-2.08777364270428
-1.65085560448574
-1.06607970138647
-0.523399277902222
0.00133900722933552
0.613447543055269
1.2724313886232
1.88294677903226
2.4185402234592
2.84713283264886
3.14201882128737
3.38428702635932
3.62878942825149
3.7505681283563
3.65708374750217
3.48144234122771
3.35295980370399
3.20798160725222
2.98052937628505
2.72123466195641
2.4613359307586
2.20222710888306
1.99547206123049
1.82821841300384
1.57148578286584
1.17202663441597
0.665674666431696
-0.0244744786502342
-0.971801815288268
-1.96374609645021
-2.695191699595
-3.1513227467851
-3.49223568640875
-3.75783978249168
-3.94562939497637
-4.1076495408063
-4.18730600961307
-4.05300546905528
-3.74572057919392
-3.38668454320654
-2.91352565683591
-2.21861184109034
-1.40273363661818
-0.620920208986211
0.130703851955584
0.862432317390078
1.45302735565111
1.82831483230107
2.04744941769444
2.12228019175158
2.00144089045736
1.74690211830755
1.46038163274137
1.10603761782883
0.667089390897658
0.316808156901235
0.200484372954693
0.269947819428882
0.482660565919913
0.874298470875147
1.35049569760311
1.69031685339515
1.7571142792202
1.50652383020595
0.943972612538407
0.25207610749113
-0.276442726999833
-0.561671561156405
-0.758115078060419
-0.970331904817006
-1.21966211589172
-1.56128412147836
-1.94315380448013
-2.14675204315923
-2.09842650954718
-1.98151656704861
-1.92276613280104
-1.88679355511007
-1.88012838132971
-1.90181067839364
-1.77436313359021
-1.35039136635589
-0.731746576963154
-0.0405071826255777
0.765124782733306
1.62909969997507
2.26696667373767
2.51377866675452
2.52088085733881
2.47621418421638
2.43103277879627
2.45150089560021
2.60099944673966
2.76594649900244
2.79251280546814
2.70755433953668
2.58387321526393
2.38978887847025
2.12863248387528
1.86744282193315
1.57265873959103
1.19848012123233
0.873721508307252
0.715528498617502
0.603740341103408
0.371260338618551
0.00303558766542748
-0.492061809873685
-1.11985840571231
-1.74845127909989
-2.21987294742069
-2.5916799355856
-3.00054111045626
-3.41494913149903
-3.73727655712792
-3.93318037234517
-3.93291556389454
-3.69801217241433
-3.42146789298762
-3.32537900029526
-3.29333062457797
-3.0206822134611
-2.43173360522806
-1.68146556265176
-0.896060137288148
-0.1300601472005
0.59138339573035
1.33321759238761
2.14807820031052
2.84806806992006
3.15408542233597
3.10037829554327
2.98369156794373
2.9374807555678
2.86889616455389
2.7253262517588
2.52980094884284
2.27833951731156
2.00342184287889
1.77493411681659
1.5632205493791
1.30094126491012
1.03496915440377
0.808482117240427
0.538748427310512
0.192091648946618
-0.142309128482622
-0.468339654876476
-0.89320454890092
-1.38328991522222
-1.80133662240203
-2.1267362277491
-2.3714758369809
-2.45909852264767
-2.42647811293077
-2.47699843105397
-2.65527479013786
-2.77348960504525
-2.71773862318422
-2.4956645191755
-2.04994165627359
-1.38098874777685
-0.716898288025676
-0.237890753988851
0.178843460163327
0.676362006298029
1.13191590489703
1.39481872457268
1.54364996490385
1.69947766644996
1.83810078557472
1.91670640239737
1.94013641898276
1.88633308821833
1.8034697460249
1.85806562380049
2.05049684619703
2.11047544603796
1.8821661623213
1.53077033553724
1.23731765374181
1.00165025789185
0.79728237140344
0.623011415481641
0.417706561758499
0.136517634768153
-0.189596430784744
-0.561695821712507
-0.970036578677346
-1.24831537336081
-1.25915611864167
-1.15550253604443
-1.17020686242894
-1.2979359601372
-1.42298360066072
-1.51313952645332
-1.50716691708422
-1.31288511303576
-1.01604494429312
-0.795562431167107
-0.655991942593271
-0.520226748718454
-0.443177971379879
-0.464721280481202
-0.450756666214097
-0.312226594028195
-0.157884186406246
-0.060692241765382
0.0675217898156266
0.252645929117068
0.403348529787413
0.541160815885975
0.768648213678972
1.00840030084804
1.08915532531396
1.02456416095654
0.939340366754296
0.866446028644517
0.81101948632885
0.803853320683636
0.786215694011122
0.667979641428536
0.487978878848419
0.305267447330778
0.0696206862373339
-0.20931565686432
-0.390380559666756
-0.444700969297508
-0.510842104474388
-0.652639641390037
-0.836395774410069
-1.08936728773366
-1.40228393785974
-1.62265990353108
-1.66839821525048
-1.60902672738515
-1.41390767453146
-0.967931287844323
-0.387973806466107
0.0616014294105445
0.339936243249314
0.56174912533975
0.705432398087425
0.735690582148497
0.809545233675941
1.03956201178136
1.27599138917168
1.3724247337489
1.40079378429593
1.41637110182862
1.32241786606036
1.09836375772441
0.834577746899476
0.510107388214667
0.082750074831911
-0.26955835822792
-0.345375442220694
-0.230863071996043
-0.144271989881462
-0.155305955331861
-0.225795313382503
-0.306376304707427
-0.322401603628187
-0.259826792348154
-0.215198479588991
-0.220554012448197
-0.19465972441342
-0.151686649871675
-0.193747974574877
-0.281449822242077
-0.313403990520097
-0.349344203231656
-0.449384445569916
-0.489516289731126
-0.420386714634227
-0.415883872609667
-0.539123708838447
-0.619925593051992
-0.597016033267739
-0.585073347821752
-0.566665449064336
-0.419097843927118
-0.207990292801118
-0.0948533177112825
-0.0582319941243551
-0.00374048821952892
0.0254858292163831
0.00721668434426222
0.0808475938365209
0.29878555129833
0.48860879251423
0.543127745344882
0.580894784325099
0.705919408454392
0.863703494927652
0.96302635941226
0.936692888158289
0.757136475539048
0.519947852244145
0.34668638090377
0.174506765350356
-0.119643952744121
-0.441271790844001
-0.592634462789356
-0.551242361787638
-0.41180485541103
-0.234666833881898
-0.109515366233732
-0.13545709849927
-0.255482971848109
-0.331472453324748
-0.31716192284404
-0.144289877158317
0.311409459549973
0.894761357938518
1.15166326067379
0.895598682406261
0.427316561067896
0.054461916083083
-0.19660332464821
-0.355648091747241
-0.424052116875118
-0.504225198859343
-0.669629510065943
-0.793095161702633
-0.749499749586493
-0.605514088843707
-0.425010061347474
-0.152521590879837
0.156730541025411
0.305775937185514
0.271139659148735
0.219477769144712
0.174304572543096
0.0206318086509868
-0.193609078723425
-0.305683883651399
-0.30349863001897
-0.280664536232803
-0.267901140860444
-0.264453708596106
-0.263202976720669
-0.210320203214768
-0.108750024845676
-0.0610376953114991
-0.0650559825635856
0.0106381460374403
0.146949516203378
0.188285963322949
0.182348610341397
0.326255804809846
0.579345393319007
0.710206519106587
0.664805234270358
0.579460387712326
0.582465448988306
0.777171531654574
1.15212902158631
1.41477634082525
1.26233465491612
0.819417663101079
0.441712509539258
0.194576237794833
-0.0868330672443164
-0.393183881681977
-0.597349733180265
-0.748915975649349
-0.963363866380802
-1.17486568295398
-1.2586579581274
-1.22295211631681
-1.1276917060828
-1.02861857376503
-1.03335253756241
-1.1493060468718
-1.15197316347841
-0.8853065434538
-0.530596250155378
-0.330126403576846
-0.274067254369152
-0.240629326528959
-0.182279084650171
-0.0748075456519805
0.077060462512423
0.191357763628929
0.250393059313756
0.366403826065067
0.586231777140698
0.841095436763971
1.1224919040484
1.43128380685589
1.61732479125472
1.58709475592449
1.51802553320889
1.56141888184027
1.57750015036246
1.42222984259883
1.17564940006759
0.908898419333421
0.595099612972639
0.330061770146232
0.248058736416024
0.220222074102631
0.00380691197539969
-0.388285387884299
-0.783414322829943
-1.14511966454013
-1.47692655026768
-1.65353362395428
-1.62649495911922
-1.55607739759641
-1.52106600466071
-1.37877609412918
-1.07388122601222
-0.792909486144626
-0.709089301755032
-0.81102619576192
-0.98386179693618
-1.08729218135823
-1.03862404042451
-0.902435878648429
-0.764657369244081
-0.567533093405189
-0.26105150143177
0.0322317878824997
0.216444511592857
0.378598212400758
0.588263246075386
0.812099238606454
1.09809758072232
1.51132534131801
1.89815819740235
2.06198298126008
2.06130359456102
2.02011983615924
1.88588113841714
1.65271203903574
1.4809821528479
1.3722368046395
1.1133667767664
0.678682700363859
0.287747423214966
0.0164002890993813
-0.266416403617792
-0.595048550028051
-0.883110681273531
-1.13289149614246
-1.38615869347022
-1.58400947394002
-1.6862119197094
-1.74440995724729
-1.7143811883071
-1.45740334605631
-1.02139753979099
-0.634754401221579
-0.403831054458029
-0.279852119437501
-0.231988593466698
-0.216241752070399
-0.140642777761737
-0.0345140522302273
-0.0509166947683785
-0.230712723999406
-0.471831398812657
-0.683960361043296
-0.775347533552621
-0.638273570080975
-0.320159000641446
-0.00529396333503095
0.253184855545808
0.528730990716746
0.795187403955149
1.01752394305237
1.31963100335795
1.7321432765638
2.00444851436838
1.95841037252933
1.73418129125277
1.49010759887652
1.22035407061989
0.973671193534678
0.858934332449666
0.790449859612237
0.575316994414116
0.213118008512727
-0.176642766644115
-0.583878037782439
-1.00010884803228
-1.28476038019506
-1.39042681269109
-1.49953265142872
-1.74102866463245
-2.01199180906081
-2.18472206319213
-2.22510664200312
-2.10050245260935
-1.83557424353427
-1.56921064097684
-1.33777257824625
-0.989646882521514
-0.468462615307273
0.0716154769547323
0.50886409265891
0.84721837807343
1.09032230688764
1.26972291688617
1.48595455996468
1.72991914377672
1.85113167322953
1.80398123700695
1.67578996684309
1.4880271664317
1.27416863757738
1.22107510067331
1.39590651886239
1.5479058585326
1.47866907642846
1.31185167838525
1.17789792280359
1.00332649817608
0.759531926340264
0.536534809670047
0.305594700407934
-0.042351036424096
-0.454374250031403
-0.819745223819554
-1.19301667633522
-1.62408864129577
-1.9425866553706
-1.9812688704648
-1.81816390159417
-1.59365762114167
-1.32912230055827
-1.06557516644046
-0.908417040526261
-0.852951149601403
-0.800346909412582
-0.722931969279257
-0.633551025472789
-0.517693953257267
-0.407864934871221
-0.338764095212258
-0.226630927932703
-0.0244916132120867
0.114917273953165
0.0885445963224524
0.0568983683436019
0.169159419391214
0.33681881447864
0.460547461051101
0.565171048275759
0.604883046905938
0.476933314136973
0.248730676765249
0.0600257129643568
-0.0966614958100913
-0.232165993684986
-0.223667529283176
-0.0467931177787123
0.123717493994906
0.165317182308467
0.0749414759294341
-0.183262408291788
-0.545358633706776
-0.657985088370107
-0.208738244982003
0.622427510879115
1.33960598413237
1.63745165937047
1.50933227507646
1.07645833012892
0.556420596558336
0.1956351702862
0.0559837233637265
0.0273580352625649
0.0385904991909264
0.0454855271834742
-0.0501700010492502
-0.230531513409575
-0.306627548410492
-0.210152641875071
-0.0952378247476215
-0.067073252706971
-0.0850987886677861
-0.123923951452129
-0.16310419660294
-0.117731336204639
0.00837791011909617
0.0942263955404655
0.15490594297514
0.326263507664154
0.532019052363422
0.526239614513738
0.286535581773668
0.0309720297950246
-0.0845655228514524
-0.0143892836584138
0.240022952370194
0.516359973022443
0.563154888379786
0.369081422210409
0.162483674386442
0.0596215154653198
-0.00430164577256396
-0.0531129874441151
-0.0728899994416212
-0.147307265955064
-0.329565112995883
-0.496233546783347
-0.530495079811925
-0.484769307447298
-0.421338461975987
-0.320467414874529
-0.231974303018035
-0.255341456703337
-0.356889658607993
-0.460733134757855
-0.630026288079758
-0.923748315806261
-1.23702372317009
-1.448886611161
-1.51899148335878
-1.38620192335363
-1.02541532662697
-0.567822733057626
-0.136735981963165
0.284935283047656
0.648900544213165
0.783972354026322
0.695885197619455
0.599566032044261
0.585478989931189
0.598561895722772
0.681644442529274
0.853954073326762
0.90896738237372
0.705430880082828
0.425095225475782
0.245910493307629
0.0757421495853796
-0.163263493547448
-0.335070256844322
-0.336131444952784
-0.231121053900985
-0.0808454285833939
0.0905744293197532
0.185186184451883
0.143627426485713
0.0840687900386927
0.114156544273385
0.154966281415061
0.125032501549406
0.0793490287614015
0.0371385536726281
-0.0626795851875351
-0.167807928596219
-0.143430022574116
0.0183117722921119
0.23693491769181
0.462309231625131
0.595273936123531
0.51370961164325
0.281800356085068
0.0831531303296065
-0.058767802029403
-0.236377634292009
-0.433460703078902
-0.586918078999916
-0.694742547615611
-0.683570426617644
-0.433510173390851
-0.0498857344322109
0.204626542253643
0.280213979925132
0.318920396583404
0.345503444387223
0.302939559186405
0.238288336127431
0.185543898719046
0.0754851596935365
-0.0726455945594704
-0.127521149098783
-0.0772312810320585
-0.0111195023258352
0.0988112297159986
0.317957287448258
0.541520934723943
0.635330306564367
0.652708440525355
0.678649942578129
0.651033097383256
0.547416856662044
0.508014629528295
0.591453946755222
0.659554085665976
0.613398819016426
0.5089065278131
0.433232777679788
0.461865337873131
0.634597565176073
0.838518535647255
0.901488450413986
0.848942370078596
0.824755049694462
0.814895761585178
0.732395329315744
0.635774973680986
0.58257321873139
0.465378177961217
0.217621862700601
-0.0645929858143683
-0.329465022199473
-0.605445349005288
-0.820008120554996
-0.898300555202633
-0.948244384170557
-1.06243765558703
-1.14431371493436
-1.16091007463273
-1.26667114399207
-1.50835627173195
-1.7430231219547
-1.93063221559928
-2.16477028019303
-2.40510679534818
-2.50985441371139
-2.50057001683147
-2.5108363075415
-2.55166998164796
-2.56612602845355
-2.58781558540143
-2.64714553998152
-2.67980123233676
-2.64799576330901
-2.5566504960798
-2.33594168036221
-1.94496657744202
-1.51429369566496
-1.15832218852009
-0.821485582903241
-0.492628957704091
-0.300375193238939
-0.25231253924628
-0.18060633492417
-0.019976188861203
0.140795784049109
0.259085184504804
0.359851917605792
0.484882342695615
0.767813173940714
1.3211690115585
1.98205315893117
2.48241262908446
2.83583649494709
3.19725653673726
3.48659763702035
3.53927258145664
3.42595726871892
3.29522630942629
3.15505972047428
3.03066231735254
3.03281690797477
3.14525223578935
3.25325566058491
3.40413366946167
3.73154910781785
4.1726461912102
4.55400902463821
4.85768048993698
5.13913852633869
5.34055970426737
5.43145363331002
5.55093291421804
5.8197798393707
6.1891527467234
6.52321334964367
6.60862237729343
6.16265001425656
5.11055004676097
3.74650668816823
2.42356422296502
1.25936698707792
0.22348251729903
-0.763352436706439
-1.83872568282087
-3.02401969086357
-4.10276470271514
-4.91367579383926
-5.59706275938673
-6.36167687402063
-7.26012588479609
-8.3020336290372
-9.46005484452534
-10.5344280869593
-11.355755086789
-12.0379439306215
-12.7064151033071
-13.194699487462
-13.3109674387958
-13.0867753948011
-12.5000518573346
-11.3245636390574
-9.4952492253896
-7.31254191102164
-5.14745290697447
-3.19761581350976
-1.54174178462067
-0.172845973619142
0.99932252910647
2.00197137932059
2.76287070098374
3.29041150284346
3.62839413935464
3.62089194248175
3.1440220898333
2.59109219270155
2.64064678774182
3.49431588385694
4.73289071166136
5.87154375719253
6.72606113770474
7.34953097442182
7.87576471927515
8.35531709400593
8.6859438614444
8.78903558575048
8.7041291527027
8.37098566508403
7.61006964601855
6.49532428878492
5.40411130810182
4.56463052204586
3.90832546564385
3.37587275505642
2.96176098336699
2.53142652736605
1.98470639619337
1.44663218349149
0.986194594855484
0.395622913365503
-0.51203567152387
-1.66383558976469
-2.90348738243933
-4.09973888873225
-5.05942322136605
-5.66166563681579
-6.05711802423429
-6.44731939459682
-6.7693891829074
-6.87565159009967
-6.84088580930417
-6.77570485492072
-6.51568591164861
-5.78715438318598
-4.55734498348935
-3.08081004626294
-1.72809377762693
-0.752267150017907
-0.0843888017327806
0.523304521666457
1.10163808241391
1.48947468091902
1.74242341403167
2.10343197929641
2.58133071872217
2.98635407384243
3.32542137657358
3.77132746257598
4.35972375694585
5.04016214644262
5.85395768074813
6.83322649655969
7.92715267126453
9.11708718736057
10.3614983349812
11.4638620242194
12.2524492598986
12.7603466722241
13.0095823764874
12.8222275062008
11.9976960619259
10.4494908053693
8.13843064074175
5.15694174977862
1.86013287684396
-1.35676968330421
-4.34359321453386
-7.0534604327786
-9.31859484100256
-11.0440182479951
-12.4244038576446
-13.696992213934
-14.8620632537366
-15.8203669464093
-16.5430501564183
-17.0024457532946
-17.1982387501031
-17.2631391604185
-17.3015666905447
-17.2261243893841
-16.9416851764277
-16.4656232955575
-15.7205416528925
-14.505666745433
-12.7729266472338
-10.643550504239
-8.15513041127472
-5.26968222122644
-2.05196494839936
1.37118826914515
4.85921369101356
8.13316216065055
10.8435745002864
12.8290471257465
14.0993162016508
14.6724602869899
14.6533053692472
14.2287395351331
13.3923657120645
12.0407846300447
10.4787718159428
9.33400533082606
8.79824815271372
8.39500967943256
7.59814652266994
6.28101116879502
4.5521843181843
2.5853805010158
0.662035615760603
-0.950818490735015
-2.19594338591274
-3.13624509205423
-3.81438049928196
-4.32255797156819
-4.74426827521989
-4.92369769802106
-4.59987739235207
-3.81332032905749
-2.88577089832569
-2.03869431938961
-1.27015443755169
-0.469115215052097
0.526976237162972
1.80140465272372
3.20867698490863
4.55253724018254
5.8413521580985
7.1441584852507
8.38313141589288
9.49761244263761
10.5507357327396
11.488604626484
12.1083635966353
12.3764057176349
12.4551101711348
12.4261145513823
12.3115660956489
12.2177743957466
12.0905174720836
11.4897856851733
9.91032752453115
7.21087017177028
3.64200557192138
-0.317025555529016
-4.10677155103995
-7.32051589201646
-9.84571827830558
-11.6877693183333
-12.8066188511839
-13.2787949774149
-13.4033954331607
-13.4637380153273
-13.5993783740778
-13.9890131605609
-14.8026607430985
-15.8883809183407
-16.8714361589677
-17.5625314374164
-17.9147802904409
-17.730946739682
-16.8393345625364
-15.4163036855748
-13.8069185242664
-12.1969111548094
-10.6339558209764
-9.10808485023257
-7.48557759030793
-5.57943221762914
-3.30487868304359
-0.664783969485827
2.21636947936502
4.93880628931446
7.03130925779582
8.42187090637592
9.39449821110098
10.0913703963066
10.4294751156037
10.4697037046665
10.5386614923662
10.9976707724864
11.9715061002378
13.1179244507373
13.6909537020254
13.1431724344988
11.6347749926439
9.69440284192992
7.57400388042454
5.28914615277426
3.05147057999829
1.18533669781617
-0.274796739075176
-1.54370894169465
-2.77451513378014
-4.03137747378245
-5.33764254470427
-6.53946047497552
-7.35643038460779
-7.6768446544197
-7.59634098220278
-7.22036699444078
-6.65022910400979
-6.0050877379434
-5.25239438204575
-4.21175049383407
-2.84278870742181
-1.31670515478756
0.184196659582266
1.50920410749274
2.52866327942197
3.33228078150574
4.21499353975295
5.24874702425133
6.15807484104008
6.78861102808575
7.39720852152222
8.3949479997912
10.0349639428909
12.2273856223211
14.4103036651622
15.8624163337057
16.4023472322031
16.5021729857109
16.5798951819216
16.5550057644322
16.1881774421441
15.4332129984851
14.3233250248727
12.8298285083247
10.9154281036008
8.53783768380725
5.68396512287658
2.56454715191722
-0.467623278796619
-3.39400652206119
-6.59872159862042
-10.2501999177725
-13.9513960674043
-17.1496117077774
-19.5640721330524
-21.1693823462702
-22.1027993339648
-22.6312380035047
-23.0187377260107
-23.4495059767782
-24.0533849233976
-24.7843198801461
-25.3442352169481
-25.5048558393738
-25.3893372954854
-25.1837901442264
-24.7362929060368
-23.6083469744137
-21.3264114877074
-17.6312347025131
-12.8718762581597
-8.05440034664594
-4.0218593483913
-0.675637594238209
2.6357810109466
6.22494417815581
9.90840065228835
13.3691283378342
16.3003098637112
18.4930077544061
20.0558630207825
21.3008151408814
22.3087051866455
22.9118751920114
23.1182971113165
23.1643644958066
23.1242870168079
22.847182716037
22.2931206896992
21.5980859379275
20.799614250042
19.7119218931375
18.0581516973853
15.7014564865887
12.8554516799415
9.98038509768338
7.32660483644038
4.73900882208824
2.00862968687092
-0.831345380283225
-3.60400490525575
-6.08706727317629
-8.04015521445212
-9.44329438542304
-10.617727961048
-11.8516085351276
-13.0924944945177
-14.1873994455358
-15.0950050869475
-15.6945015470268
-15.7687373122066
-15.3208918553792
-14.6016437023538
-13.833044094259
-13.1539947514292
-12.6290889970994
-12.0295913423311
-10.8769711687148
-8.95481459384943
-6.51668159094618
-3.86150090415243
-1.03258991885953
1.95350120477291
4.88633025918756
7.45623376766637
9.36134153420548
10.3856643534027
10.6187249788139
10.4848053579012
10.3289362749641
10.1304022136819
9.76096914798968
9.25551311850205
8.69399886066072
8.06967528559085
7.34437003339648
6.46488255704333
5.39806982297633
4.26907805458999
3.26998575668348
2.33085369956753
1.08995400016403
-0.789027135764908
-3.41916122835563
-6.60992760845351
-9.76006459511795
-12.118422698813
-13.3923064471454
-13.8282511940957
-13.6622988944931
-12.9587133163906
-11.9691481759618
-11.0620248526332
-10.2665190375481
-9.35094277183763
-8.26898545553709
-7.15359172716927
-6.04066099098196
-4.86501171451156
-3.49770603545337
-1.65154196998854
0.922309349714727
4.02685354399272
7.10402765129392
9.75009374996406
11.8540097477589
13.3248754703137
14.1062477130481
14.4567786988988
14.8820556612897
15.7453653853331
17.0128667895119
18.2244489106146
18.7365057524445
18.2817855566742
17.2566773374107
16.2035180141858
15.156040206907
13.7421473447983
11.7194771591116
9.17207825778187
6.339373254438
3.35967660144602
0.0880589101197375
-3.71209657574356
-7.87339260408687
-11.7910713737013
-15.0054395898472
-17.4514275534737
-19.1024278905167
-19.9084110448341
-20.1471508812745
-20.2890932173112
-20.4571822200909
-20.4112731581537
-19.9316062275272
-18.8721800262937
-17.1139220020787
-14.8289082034172
-12.5311585217598
-10.5844112710923
-8.88490777332648
-7.18051012416142
-5.44893874844145
-3.87405348048799
-2.69649780197486
-2.09747637761777
-1.97871779785634
-1.91584123381891
-1.56461483144048
-0.995379560585728
-0.457689681778325
-0.0186102806777326
0.444682126162941
1.11508692078235
2.14516904005225
3.52280546727606
5.07369914951687
6.63668321967111
8.02376585821081
8.91335310344624
9.25915639006822
9.72652099508629
11.113968509458
13.2988994630798
15.2448915670267
16.0682790378198
15.7753108307107
15.0607910775541
14.6276084393396
14.5791093033128
14.3970382239175
13.624169642234
12.3926238845956
11.1033182944879
9.95776186517327
9.09134783379815
8.7398018541264
8.89678271044421
9.07245734786287
8.61388443138282
7.09293642448703
4.4424995641157
1.08594324893979
-2.09916572377003
-4.37721556269033
-5.79383309775487
-6.97958403555287
-8.41905414047373
-10.1566698296962
-11.9799416733221
-13.5600263645102
-14.610349981999
-15.1629420087127
-15.5317090977621
-15.9030573020791
-16.1073928876942
-15.743189622396
-14.3907655772208
-11.8704829740827
-8.44560160702697
-4.66606281376724
-1.03595739479136
2.05896702736341
4.36020458485435
5.9226945347729
7.00399651673634
7.5836996802071
7.38134048388984
6.45840030565923
5.31034596550168
4.29780286683618
3.44932228155667
2.69570026184414
1.75776310095267
0.0310020076318699
-2.81438326310254
-6.26361928979632
-9.37871287029867
-11.5535917617219
-12.6307357977793
-12.7152626000507
-12.2177215031293
-11.7298413331989
-11.5084320515281
-11.2199169146426
-10.2941251765851
-8.39144112529071
-5.6209101462536
-2.53399812476086
0.215549078061
2.37704107262952
4.1241240869436
5.58981979660692
6.6858318854914
7.32506416214102
7.51441960637366
7.38030027634746
7.37063866478252
8.15491772057377
10.032900842247
12.6424614571868
15.3283893224807
17.549711181464
19.041689814472
19.9207622895835
20.4345237256571
20.3248749418316
18.8364985444938
15.7002716142277
11.6645821682316
7.73510099201958
4.31720727873569
1.30696188561208
-1.43938269048001
-3.93803520182678
-6.10376130784686
-7.89170075880247
-9.52778158009336
-11.4207218270578
-13.7176332069238
-16.1607684113546
-18.4303174346616
-20.3413835044655
-21.6891635390058
-22.2490441983396
-21.9899199986212
-21.0256357104318
-19.3774511315737
-16.9898786860993
-13.8614370456897
-10.0215134179556
-5.60353376700973
-1.02392194679535
3.18357267172021
6.71864575914702
9.47006441735279
11.304593031006
12.2101897990147
12.4576096143367
12.3760946920589
12.1666545471107
12.0263500092892
12.1629616068235
12.6312380366976
13.3837437143433
14.3642216652122
15.2699281788785
15.3971086796053
14.0229794674816
10.8909761266712
6.33587261354464
1.18021387854255
-3.59424884099025
-7.43481437525719
-10.4431894995667
-12.8727417509317
-14.6895865317947
-15.7780469994095
-16.1513536784207
-15.7531371157251
-14.4765425876814
-12.5909722177145
-10.7781774051069
-9.56477201409375
-8.9679571354191
-8.65856293081675
-8.09360750765739
-6.56520673434763
-3.59764361829492
0.615891709747399
5.36151431844714
9.89065071218053
13.7014532940847
16.6619476463141
19.0252362029232
21.1302556337425
23.0362103286068
24.516180995714
25.2256713065683
24.8051731133229
23.1476970954606
20.7092452406384
18.2844523250224
16.400748657455
15.0772066577861
13.9752475729826
12.5115520620854
10.0564848231267
6.31585629729633
1.42088499852186
-4.29402975108854
-10.2616494181122
-15.5977485874264
-19.5894276579529
-22.2537783882091
-24.0770223337627
-25.3708685761877
-26.1753990947964
-26.5296317514051
-26.5004173430119
-26.07576522454
-25.1945572749697
-23.7709562507596
-21.6945462761875
-18.9746021756441
-15.7990997615972
-12.3242991264988
-8.71942346301612
-5.6367524168484
-4.09495811040627
-4.37453135261445
-5.38467853316102
-5.58371080089415
-4.32344296146036
-2.14138881688661
-0.110455620536428
0.927341606893343
0.795182431199442
-0.109625640472599
-1.23388638483569
-2.04433975499055
-1.9807734799133
-0.752275344889835
1.25458028866416
3.2481913026338
4.73693627554496
5.73897009778812
6.50850055096317
7.35114862246814
8.47602754712361
9.78868955597653
11.0263742343427
12.1417864584078
13.2948607431023
14.5277134378017
15.6846153414328
16.5010622444124
16.6339683891421
15.9008506723564
14.6132799922299
13.3470757838736
12.3205594011127
11.3486599140701
10.3892449904188
9.66992660879623
9.20695577036301
8.62725716117103
7.6181611908165
6.33619870451113
5.33831016069817
5.16793479306075
5.85136660699549
6.7851384464463
7.32051499350466
7.3414355156262
7.06719717872458
6.65912829866577
6.36375957698734
6.56162507201283
7.20346758236046
7.5866877642902
7.05680477918994
5.57049426940299
3.36446550234321
0.511628434567654
-2.95776403257368
-6.74853233349554
-10.2072476235591
-12.5058773931819
-13.1764478915014
-12.591681955415
-11.6758456635765
-11.168347019495
-11.4400272475411
-12.7400068949594
-15.0562213572165
-17.8338761966809
-20.2631168059028
-21.7935122242431
-22.2044637945262
-21.4605515700669
-19.7682154291088
-17.5921848104355
-15.4249153801386
-13.6037909520893
-12.2747350479927
-11.3047748909412
-10.331572780164
-9.14988247333097
-7.92686806190937
-6.89345001303666
-6.08351663779588
-5.44029344556523
-4.76565948514168
-3.53936435493807
-1.34426461873596
1.39645413988245
3.56520619182807
4.39754838633269
4.17887187852104
3.92868702026665
4.5352160198042
6.07946533683944
7.88718631788965
9.26383369909426
10.0542185380642
10.414862805822
10.3890249466416
9.95688624068319
9.1970587425073
8.19546924759249
7.08290997574042
6.20727483251393
5.8917429308154
6.0164627945362
6.18753486376243
6.28673410671243
6.61715001329695
7.60733398268494
9.47131866353453
11.9465400540757
14.3375941435741
16.1008075517947
17.3576515919505
18.5131202213724
19.5049366085707
19.8714473115614
19.4017216572068
18.1914542374105
16.1807083099183
13.1468952441196
9.08995474713774
4.30560057791503
-0.763739218921326
-5.55951275682789
-9.54244440185576
-12.4868397634506
-14.5472093994596
-16.0837380342343
-17.5173003440341
-19.161559825638
-21.0471586056227
-23.013380654923
-24.9074283979576
-26.5254670712937
-27.5827686783498
-27.9896969876497
-27.8666916193774
-27.067367122787
-25.0678762894364
-21.5270563989775
-16.5946224456854
-10.6396774639326
-4.11165023256029
2.40191144165163
8.43583260665273
13.8448520771601
18.3801180173907
21.3434614697165
22.1380613351851
21.0966514928478
19.5334267099302
19.0281691739428
20.5828942773306
24.0839507192914
28.4143447791894
32.2858115821899
35.0325580373349
36.5635998279264
36.8407533960505
35.724383612184
33.1662888572754
29.2847082484062
24.2719826300044
18.2099592705996
10.9071077524425
2.20883229009001
-7.25992679644096
-15.9969099386388
-22.6810533207155
-27.225928436565
-30.6728016503227
-34.2656336764624
-38.5730388070404
-43.0733183047341
-46.5007918475579
-47.8645685218399
-47.1656963677828
-45.1144823313562
-42.4577582796601
-39.6491323772047
-36.7196920162388
-33.2495123321303
-28.7175514851971
-22.9709874235302
-16.3222931633063
-9.44915371427782
-3.25160941204729
1.6854857029358
5.67489661605694
9.53185133188324
13.5171172505981
17.1881243414638
20.3042224247349
23.1685402288005
25.8590939733544
27.7054957937372
27.8171412584391
25.8888380432964
22.5447737454424
19.1149517015805
16.7603406678889
15.4784046473538
14.2497695299419
12.3676626887231
10.2943330822115
9.09817484823308
9.32824274221744
10.4166934499772
10.9979278038416
10.0321000997932
7.82364510214533
5.73247817074617
4.84128078950764
5.16504326331882
6.03152060603895
6.81054628403539
7.33045372880899
7.8949112706162
8.81880354684725
9.84524915965065
10.2276915304475
9.37746365464486
7.23443205750008
4.29630688961548
1.6233115778358
0.312548795485327
0.350326579980916
0.318611536485028
-1.21469822058279
-4.27596240691608
-7.80395176636937
-10.9501161405025
-13.5842212934365
-15.8283663719321
-17.5879329742976
-18.4929815948315
-18.1383309307551
-16.4927830021754
-14.0572901892413
-11.440412361482
-8.85620091187445
-6.1603610352741
-3.19432715756798
-0.00269866476962506
3.1079607145712
5.78845514495998
8.15563446661652
10.8775469873182
14.3891821274913
18.125702619284
20.7766434689993
21.2684320992888
19.5534443071247
16.6192453216701
13.5660428382949
10.4865461118414
6.54920908649595
1.268752587794
-4.91629872662279
-11.4615999977669
-18.2382715730395
-24.8776648615793
-30.4173032466736
-34.1076996656553
-36.0856459547784
-36.9574287737714
-37.0901442390809
-36.4904396143951
-35.115688366955
-33.123777484985
-30.8025855815123
-28.2675097560671
-25.4097971455054
-22.2964114390951
-19.2952144954555
-16.3980258163625
-12.7404267963947
-7.41591543756667
-0.649740139729289
6.33115799574231
12.4583455185489
17.4919946901349
21.805865039056
25.9049760247498
29.99530609024
33.7332704608179
36.3723628508879
37.2035282321929
36.0442125388202
33.6429341553241
31.4907862021951
30.6579701399705
30.7264515047382
30.3105381639695
28.6108843655216
26.0618017238671
23.6304303053824
21.9669701250387
21.1448920340406
20.8699936894445
20.9148094759138
21.2785665309807
21.7178812951903
21.4251215987445
19.7170957712104
16.9322444346809
14.2124601179036
12.467297132233
11.7027435457189
10.9652968946438
8.64458766486082
3.33173602872277
-5.0086429763501
-14.8249554503346
-24.2683943583838
-32.550494281563
-39.8195621090835
-46.0115137787734
-50.2622965766237
-51.5571583623082
-49.9176929121094
-46.8466713241408
-44.349910486397
-43.3962490405023
-43.4104614767493
-43.1146123425139
-41.5651363762596
-38.500763216972
-34.1086745399608
-28.6605630688805
-22.4404192759133
-16.0226091652902
-10.2367322399864
-5.44844717370765
-1.16931430608234
3.15569628437689
7.33426640484426
10.9031401063186
13.921139994238
16.6279506274113
18.7651874495606
19.9654844649253
20.5438991327144
21.2780760906127
22.4653744077477
23.5497088543831
23.7144548019304
22.7813642830593
21.5330495064137
21.0635188904307
21.7573809165356
23.0280001898623
24.0556123647623
24.5510648120272
24.787310075596
25.2006019741646
26.0200649808854
26.956864462161
27.1710473079583
25.8453222228616
22.9555590761629
19.4422905264347
16.6335514689122
15.3606702015795
15.3649546308208
15.5855735650292
15.1289934801413
13.6929350586782
10.9894992802984
6.4298029982195
-0.182336737138724
-8.14737670924412
-16.4262101599982
-24.223417613989
-30.7969439360677
-35.3459165229663
-37.5795612899505
-38.15394766848
-38.2571234500891
-38.6846834680168
-39.179859477372
-38.7345184457392
-36.8088403642748
-34.0785546689798
-31.5680932780696
-29.3449535174708
-26.6707348961842
-23.190482387034
-19.3033032693435
-15.4743025696264
-11.7809825163928
-8.17060101886674
-4.76119487944485
-1.798569093889
0.510985142262456
2.08975606483628
2.96620861046612
3.28213773719141
3.57158199451188
4.97169600322244
8.56796273730704
14.2247398499075
20.4433923951698
25.5355772381088
28.5642615652854
29.2435014554906
27.6814041488364
24.5017473487885
20.7801735832277
17.5850061915599
15.5629278930861
14.728705457347
14.4765623519941
14.0221138529015
12.9988685309663
11.5632850277635
10.1230632248791
9.23128938825248
9.4363077465886
10.7882296979131
12.6453906660921
14.236861533265
15.2375010140766
15.6995158366018
15.7273803680767
15.3460648226921
14.5157349268211
13.2900144095606
12.065029093146
11.5014571037758
12.0106953693204
13.3838787149943
14.94674806032
15.9338125293691
15.77459686973
14.2560636697165
11.3698928552091
6.89190969634905
0.440434667687091
-7.75060220181948
-16.44942924147
-24.1412769427094
-29.9039116063849
-33.5573616933945
-35.4631696666651
-36.3471105438402
-36.9555130314441
-37.737526371832
-38.8713426501721
-40.2877094392745
-41.5316228148884
-42.0099979946268
-41.5509140616593
-40.3864268856621
-38.5921882670911
-35.9459518221525
-32.2620403140531
-27.4965702368565
-21.7024911954182
-15.2424337768325
-8.93138202719217
-3.87971200642787
-1.35348900591686
-2.37419276778166
-6.64348097590763
-11.9302270182685
-15.3084945109021
-15.2105537063705
-12.0322649190805
-7.06898142651696
-1.38882416923582
4.4973813031509
10.4368827114044
16.1701856435109
21.0225862814587
24.4246888468042
26.8314908407229
29.5690673286716
33.4828841306008
38.106179796388
42.3053405856006
45.3644505661764
47.2686490535625
48.1894303917619
47.98169897758
46.3766037182321
43.667152473534
40.8340728641742
38.6909409638991
37.1463064304374
35.5857881612714
33.7301220533261
31.8332231398321
30.2107742635279
28.8171964638427
27.3430223203112
25.7979528090733
24.8331195158782
24.9266012847451
25.1052395658328
23.1290549681402
17.3799635305381
8.30514903762187
-2.04522834778205
-11.5048567633252
-18.9579062664076
-24.7483809932071
-30.233494207418
-36.692666129606
-44.475874844039
-53.0134196822678
-61.2628972086016
-68.0554524091255
-72.4645872545002
-74.1910623718059
-73.4628391211822
-70.5266383204226
-65.52932509837
-58.8894304104959
-51.4093903437841
-43.9542998035093
-37.1604410764421
-31.1902473891169
-25.44091800056
-18.7246404541945
-10.1566877118973
-0.00559280866968463
10.2626723383337
18.8103574884899
24.6878504562703
28.5775511748536
32.141977941071
36.6162626807146
42.2186403218222
48.3785989975674
53.5197604612476
54.8322666716305
49.7349344050883
38.345245259154
24.041721680535
11.2226242905583
2.5893639201754
-1.7570003603668
-3.36569324798687
-3.93929540676898
-4.48245847949459
-5.38924138377991
-6.80078135514466
-8.63767916170537
-10.6330838427316
-12.7161244920512
-15.1344974861126
-17.8221533948743
-19.8921700654552
-20.2734972957945
-18.8529293220953
-16.679014142551
-14.9874441495807
-14.0537357142306
-12.8859703920209
-10.0648679773518
-5.01487227871941
1.56577091526252
8.38081390473713
14.2813034976071
18.5355144811103
21.1022190302981
22.8259954178908
24.8407417210375
27.5600629586976
30.4710537646304
32.806945367987
34.0737284998019
34.0181077951149
32.5055328217453
29.6754002339044
26.2336890259669
23.3501188945683
21.7738059116032
20.9125327812019
19.2494126032458
15.892763171464
11.3835362993979
6.9802771047088
3.58440939272057
1.20885438397806
-1.12800481501217
-4.89383086676475
-10.7255500901793
-17.4683912709813
-22.9640630765196
-25.9473395577859
-26.9765441495528
-27.5406063416502
-28.4744376467365
-29.2413337853508
-28.6674474101084
-26.3983413032758
-23.5253681763182
-21.5939220280198
-21.1386896955781
-21.3909095484301
-21.1750737248227
-19.8561258297174
-17.6929048132293
-15.528711025085
-13.9892943824257
-12.9521187283808
-11.9804635012118
-11.0893239879125
-10.7062422318829
-10.9813660811521
-11.4603547198383
-11.4072108780655
-10.3633018557443
-8.5465482123295
-6.69129039081323
-5.31113157698347
-4.24921673296336
-3.07362487509255
-1.48978529841048
0.921992417626436
4.83958896733688
10.5021148922995
17.0360039768651
22.8409980856303
26.7563866668494
28.9003135138863
30.3244072781307
31.6604992362745
32.2146247455616
30.7506236473406
27.0015640677275
21.8322620782164
16.0596042510817
9.9382801938297
3.86399122316652
-1.2774668706434
-4.71699043637975
-6.22623155137088
-6.0342052095515
-4.99092206235646
-4.62739277171408
-6.19069920709664
-9.4413868866853
-12.8031538303785
-14.705648959855
-14.5746711817004
-12.7149753111618
-9.65017245086067
-5.79213118953706
-1.65688288526915
2.01835811716556
4.76891016528375
6.84645087633634
8.77471955359154
10.5996713771605
11.9236657716097
12.5078475326211
12.6079250804742
12.9530721809209
14.3495109163662
16.6824418016157
18.2810571471971
17.11956385105
13.0324077406093
8.30676835447256
5.9135705901116
7.38431573477962
12.178669346172
18.4910570379588
24.5073585599461
29.2439611500775
32.5237705399745
34.3908690177516
34.7657741925618
33.5529682402818
30.6089477606776
25.3294916201559
16.4627273494576
2.77154634114981
-15.5538505097569
-35.7868043123276
-53.4156675266394
-64.898894727106
-69.9423158451572
-70.8607914834493
-70.0399222493984
-68.466022087006
-66.1535094949113
-62.9573609537295
-58.8127776953391
-53.7586470183587
-48.0691034585977
-42.3991736634818
-37.740311583389
-34.8682589348398
-33.4561234913109
-31.931180135528
-28.589853909305
-22.803944747955
-15.1330978333383
-6.66590472082242
1.69852064283627
9.83021582177013
18.3672443784416
27.7577686128685
37.2084102779979
44.7537682333264
48.3636661270592
47.2053951442939
42.4863608615727
37.2627448612908
34.6668206179976
35.5795805336633
38.083836165985
39.3944351004073
38.1833290110999
35.2128898069818
32.4230170615254
31.598108762447
33.19831248682
35.8546124928368
37.1238387116687
35.1860322975337
30.1268618327811
23.7012696891038
17.8587015193977
13.5027922440764
10.5595234423735
8.67041265000271
7.24030908023383
5.24133004354711
2.05375453234141
-1.34623316738961
-2.91886267478345
-1.65288134415905
1.34464103996427
3.94953108341175
4.75144366261419
3.68302418931644
1.47258114235703
-1.17103666365972
-3.84466810761307
-6.26494628534721
-8.43450407874264
-11.1814730295565
-15.729807777652
-21.9960478863001
-27.7258077132182
-30.0887568224439
-28.1519259049875
-23.567136648129
-19.1569742648338
-17.0913165334521
-17.8832053654671
-20.3844181946292
-22.670931751283
-23.3611283252277
-22.4733458068085
-21.246494756568
-21.0865402978194
-22.3726360613326
-24.1734369144031
-25.2254837895564
-24.9769805524427
-23.5378574954175
-21.2820325439271
-19.1041220611824
-18.3916602165055
-19.7764345297212
-22.1552534209611
-23.6276349018047
-23.2186744406939
-21.2734811149503
-18.4420120561565
-14.647628558076
-9.043907550797
-1.12474967636558
7.98909300240658
15.8601663393143
20.7957734195643
23.282334831977
25.1266372948169
27.6772761556764
31.1127436172621
34.8449747175566
38.160445889264
40.6792476641797
42.3496988717535
42.9089832341663
41.50941206546
37.1588662509165
29.564574674355
19.6140958138434
9.24959378781365
0.66420508089832
-4.97455791106851
-8.13920738583063
-10.0359929396097
-11.2900050684287
-11.8250576356993
-11.5594610853793
-10.5739161076192
-8.75700541811489
-5.74677736844565
-1.29685115729568
4.24768861107566
9.73924761930441
13.8340204954894
16.1643873706466
17.5681856037158
18.7980462713624
19.4704622047979
18.7841108877424
16.8476971244479
14.66728640597
12.9589946309724
11.4625078635962
9.51440125472368
7.03262721333894
4.64647796332645
2.8150151508489
1.19700817364251
-0.784798618349545
-3.10671608118043
-5.34679623611378
-7.43986067780256
-9.68376825569423
-12.0965948365925
-14.1300899958842
-14.9368487668304
-13.8107777723197
-10.7141812855656
-6.63172250621054
-3.20413574951272
-1.92268165710777
-3.74896604243793
-8.97374819240749
-16.667704226399
-24.5735556456689
-30.4917873506931
-33.8077297263033
-35.1802363115557
-35.2188102040522
-34.2782885444001
-33.1127890574309
-32.6541607415163
-33.0546942765164
-33.6037559379204
-33.7004335168915
-33.4046749667845
-32.7816386250782
-31.0769055820259
-27.1212613935378
-20.674510500229
-12.8869049332636
-5.11946735688702
2.28320300980582
9.75981372906109
17.6278899926146
25.7814549288999
33.6578666259526
40.0258001932007
43.3660869922856
43.0099878190209
39.7414667699725
35.2892133216308
31.6092383886922
30.3543489320268
32.0585548860975
35.5380415579527
38.736150584731
40.5564187494182
41.6193200119138
43.1590655000842
45.5096256000351
47.6890776412489
48.0941224639729
45.4817903013765
39.6010722057097
31.3247056112972
22.356579997543
14.3950803451687
7.88113182631993
1.49432188133077
-6.55877835631977
-16.5450518554427
-26.7157937734805
-34.7438869701037
-39.4675583882142
-41.524503983396
-42.6422662318587
-44.2126573715649
-46.4210108975704
-48.6861934467224
-50.4127133756743
-50.8988967578718
-49.2449325453101
-45.3111390427847
-40.4183231977665
-36.2572263485226
-33.2678862987639
-30.5389921006978
-26.8848664633547
-21.5665814072015
-14.364109224843
-5.49794622919862
4.40316830961741
14.2124825167895
22.2782979503629
27.0647486141516
28.278582489068
27.1023780686911
25.0427271633982
22.9023478542604
21.0407510925987
19.9652571954662
20.1235167499646
21.4018882843874
23.0528651240048
23.8136622652589
22.1468497725071
16.9988478466163
8.69668258732781
-0.955159593779694
-9.51006707549627
-15.0373976387006
-17.0210069145994
-16.4599134879392
-14.9904180248349
-13.7982954882763
-13.2574687197323
-13.2305379191131
-13.4410287970614
-13.6875055505527
-13.787408227776
-13.2526715947904
-11.3098370682924
-7.61959939177497
-2.76265109014373
2.31486253763146
7.04657284508388
11.1846221509421
14.4618110280234
16.7371107120375
18.2222706018702
19.2722604274123
20.0670178803443
20.5790761007287
20.7452220003584
20.7126458303672
21.0039136092899
22.2246272897618
24.365791431473
26.5379952989255
27.6143244115434
27.1031297878424
25.4773185297531
23.9026279605493
23.4066196948654
23.7522874173904
23.2088164505595
19.9595081538284
13.7228730884744
5.69758874646377
-2.80818567494588
-11.2233987006927
-19.3081636893674
-26.3539273165139
-31.1437945881896
-32.9594495463282
-32.533791942301
-31.5032879253892
-30.8105820793026
-30.2661764015804
-29.9210464501467
-31.0844830871762
-35.2630007173241
-42.2574442811544
-49.6770856154868
-54.3652618027659
-54.3893018458139
-49.9077732383635
-42.3362751765954
-32.9656907944373
-22.6090727728905
-12.21982857251
-3.10224976501074
3.78747032566044
8.52450866673922
12.0410903883995
15.2585089138508
18.2624216056055
20.2441886241961
20.384303041749
18.8277545229478
16.620902534755
14.7931635811895
13.8753060179943
14.2802795685138
16.6867810012657
21.7749478440986
29.4613006270616
38.1545632725193
44.9257447572206
47.1548478005942
44.4697983397143
38.9287432226045
33.2621355738008
29.0166722300305
25.9732622435732
22.7935038333749
18.3910111203064
13.1903252191646
9.05354482170629
7.70956805449228
9.24235587970767
12.0512407684424
13.9965253589706
13.5760409669811
10.3656681677651
4.66585981400339
-3.00775273536281
-11.9594968348819
-21.2566279272522
-30.1907666326298
-38.5858568117869
-46.0922245698876
-51.454694653623
-53.2830706086833
-51.6409396817201
-48.3765903353473
-45.7519831066929
-44.7961453245082
-44.608841373302
-42.9830025830798
-38.155277116
-30.4017555784261
-21.7483828283486
-14.013387603825
-7.39292368093095
-0.809988824850322
6.87440151172986
15.9843924838682
25.9401169827808
35.8925857127177
45.282384894649
53.4477861903422
58.9819170849633
60.3323148099213
57.2744567386446
51.3292746183614
44.542080719302
37.9760753697825
31.2521506600602
23.3791827586824
14.1230670382154
4.52419151281506
-4.0204067933079
-10.8200874074548
-15.7958279484915
-18.9351609155174
-20.4215823562445
-20.9113344384479
-21.1331541304657
-21.3466988204487
-21.3623333041928
-20.8553367415509
-19.6464160891078
-17.9742651408231
-16.413827137701
-15.1714928107965
-13.5977864217353
-10.8816594148149
-7.2658323089611
-4.21196870379544
-3.23081932659123
-4.65472809273783
-7.53495959777994
-10.563875941647
-12.8944687312382
-14.0522662002771
-13.5492183990012
-11.1775713836314
-7.48077960922602
-3.33518972651826
0.73708684746765
4.2969520207838
6.49676288847226
6.75274475096159
5.73158566603637
4.9459692442056
5.45322493526233
7.29993737084906
9.84756463457781
12.2712950699838
14.1929904296745
16.1342362902207
18.8787540609752
22.1905372078179
24.6740969010477
25.066834193158
23.232571658234
19.8757542228407
15.8774409665991
12.1103869267504
9.32902109195036
7.60218298430835
5.80442844221337
2.13885745508835
-4.36752113174033
-12.8182105412263
-21.0292878866082
-27.0479542698867
-29.9431440504511
-29.5989236551666
-26.6268900121795
-22.4898684749824
-18.74705889147
-15.7991372507633
-13.0064646207102
-10.2217607512974
-8.46726594340031
-8.72645615685258
-10.5149357256854
-11.9927906055598
-11.3677702627409
-8.03431491927341
-2.36343805667716
5.31368557727993
14.9219552183968
25.6023641514236
35.007513844785
40.3238473873388
40.1552226785205
35.4108592409416
28.5529732614604
21.9594351804729
16.7110402085873
12.810002412692
10.3350063228463
9.82076326696319
11.5006498197932
14.9557654620695
19.5332973196051
23.9707963078487
25.3935938666453
20.2981908317891
7.826984278223
-8.41514700601256
-22.6443082219174
-31.0282657070568
-33.7981629971675
-34.2517564647029
-36.0450713505343
-40.6095576383473
-46.3738143218722
-50.4118156153352
-50.9462508423751
-48.3649206763021
-44.2537410051358
-39.8684468459872
-35.4771214960411
-30.8297865318852
-25.8805407188487
-20.780229385127
-15.3747886096124
-9.28206119528923
-2.59315536483633
3.91556213150342
9.47978682527678
14.1530440684381
18.9383354405337
25.0777449950523
32.8839334227848
41.1755813938353
48.0877950453474
52.2884643174524
53.1110750020011
50.0857745730049
43.3283849335672
34.3190886531896
25.4344662505145
18.4328028541246
13.6459362710111
10.5429271153732
8.73974211546919
8.35177414722938
9.34106371468053
10.6326923424551
10.4292975248362
7.87833325563057
4.11213367163009
1.10546446635811
-0.284853696303469
-0.695387192729
-0.977859558787401
-1.13927647450747
-0.588209407576375
0.760541336783175
1.67589607719317
0.239998189658533
-4.26085224824039
-10.3149252001633
-15.6197413778486
-19.4443837608657
-23.1532975775304
-28.5043342837316
-35.750124927829
-43.305025687109
-48.9691078274026
-51.371451874368
-50.3617444501846
-46.4815155495932
-40.603315650224
-33.8820704730571
-27.1981582315738
-20.3739641579553
-12.4715000480521
-3.02249350761591
7.42580880651368
17.8453897882445
27.181204220009
34.290648151778
38.1094117951154
38.3171133947882
35.8657747215971
32.763512092533
31.056194843735
31.5378076139734
33.1595262196645
33.7730799428105
31.7051857446203
26.9208468791691
20.9744938179073
15.8825037956097
12.7022848996098
10.8921858716501
9.07020890592302
6.44747795270364
3.47124345617229
1.20061299247226
0.247281855215126
0.23069820650678
0.135890371545815
-0.713390743463344
-2.09224880875765
-3.45223585126402
-4.8061161705344
-6.68231278860592
-9.56238885076492
-13.9086542434575
-20.3291559968989
-28.8445205785306
-38.0013613627781
-45.3542737883503
-49.0398462642198
-48.8115200430473
-45.7568394061908
-41.2138758965285
-35.9000377286781
-30.0478465914253
-24.1788663179896
-19.1240712399806
-14.9905941251168
-10.6417374546109
-4.70565230773286
3.03189276721135
11.3576758111191
18.5160225837984
23.4315862741473
26.5428628093
29.533713695639
33.8040614411543
38.9814802403611
43.1061067948285
44.289426313235
42.1296203123516
37.8353796654071
33.3189407377104
29.9897173664074
28.0287852039385
26.5889382476674
24.5580513283376
21.2779707619785
17.0029561856384
12.8019291040415
9.62348515751365
7.30776660304374
4.76452893641752
1.0607191038989
-3.93655388578291
-9.74201862585452
-15.6237952468045
-20.9144663271512
-25.3122778409628
-28.9073385966435
-31.932840440647
-34.6316805066996
-37.1464181494539
-39.1979899735572
-40.0547994969608
-39.0730157098789
-36.0575218124771
-31.1522329702445
-24.9965116258378
-18.9806179511094
-14.4416250289648
-11.2792300958006
-8.02197322936201
-3.50733402309072
2.04067166117201
7.64168334967493
12.5791673920927
16.6503767951356
19.9674793493399
22.6881082596392
24.6784926072487
25.4904555964021
24.7665985385761
22.4154598364308
18.4696504736112
13.340497309123
8.24276697775046
4.73979671197888
3.58959073858959
4.21492312220234
5.30381591265402
5.86144403307557
5.85379422144879
5.9510202652313
6.66558049303559
7.94290559862175
9.58587395406899
11.500310478638
13.214000718692
13.757973308609
12.5789571764864
10.2537262738268
7.89119982061876
6.00549565329371
4.16949729847616
1.59978673123178
-2.05429382307435
-6.4504846780771
-10.9888943149696
-15.2825235138629
-19.0043639852856
-21.551141088335
-22.3478459451218
-21.4922519044402
-19.7592796881613
-17.9128406581058
-16.1582319553592
-14.1818521207231
-11.6170195658894
-8.61766266032892
-5.95294898211413
-4.23739182240043
-3.20265323638381
-2.22000838266511
-1.35131285011471
-1.2099781390113
-1.89474276292485
-2.75906433607184
-3.24929930471915
-3.43696382007789
-3.66783999787383
-4.0153656449645
-4.1320977656428
-3.47080681935151
-1.51305013969654
2.29143007615213
8.51772383192428
17.0554580069066
26.274381276463
33.5404411480213
36.959591016672
36.4159985002684
33.031804997995
28.1019048526261
22.34898680752
15.5667020859342
7.08705985538027
-2.89875815156819
-12.6536406532126
-19.9821523313318
-23.9459828456925
-25.3141486757392
-25.4851734876211
-25.1529867215106
-24.0517057736906
-22.0214840267245
-20.0359282728258
-19.4545376758799
-19.9759462569092
-19.0535827172503
-14.1226428462632
-5.36393507411103
4.07240121728342
10.6528933862921
13.416566035055
14.5869670569037
17.1319741648949
21.6182841128434
25.7560810162766
26.989243270261
24.9230563587194
21.176378381248
17.6813437048883
15.4414749094438
14.196203406536
12.625088569989
9.03603153077439
2.39191702274923
-6.80989772942351
-16.3437415640364
-23.2523693699761
-25.8238115029902
-24.8946847124253
-22.9406727803395
-21.8356710429057
-21.5934570178088
-20.9168299285167
-18.5772827179804
-14.5192470949477
-9.97291591784601
-6.36843895608768
-4.07654103257792
-2.45104736341811
-0.980773299321461
0.153940902649412
0.789971331979073
1.53957456367304
3.42452513547456
6.72108719721447
10.2415498171796
11.9698342188195
10.8149452602818
7.87912238552455
5.7213565094401
6.22706652089498
9.26150764418461
13.1713969812696
16.2512573125878
17.8330143290507
18.2929847206448
18.1729405069964
17.5199520707294
16.2598141748537
14.797728559091
13.6665022321965
12.7737411603868
11.5471483548167
9.68379562593779
7.27288475813369
4.31123235279192
0.576192667071092
-3.93803420265438
-8.6363680556854
-12.504401935828
-14.8599281927121
-16.0102541777665
-16.9587281677991
-18.3731359736326
-20.0275169579551
-21.1688913242477
-21.0833342599321
-19.4208599608245
-16.4622386641921
-13.1004784640735
-10.1760093458195
-7.83925979490193
-5.89421145538433
-4.58082949559525
-4.43166857428204
-5.32697410474545
-6.20952218882755
-5.89390589980173
-3.90112815334881
-0.52820139827002
3.5343659354374
7.47213709957973
10.4475965834569
11.889805439324
12.0382888501128
12.0353638475267
12.9854818530895
14.7925841109305
16.1734818682848
15.8380513338609
13.5080185491871
9.96954766112769
6.43826236305166
3.80108684798062
2.23779514618283
1.44732129716771
0.995254543268264
0.303860409036429
-1.1765814740113
-3.19111941629738
-4.39677406389306
-3.52471821460891
-0.762848844770164
2.33920235714445
4.08717683861428
3.52805357807949
0.594321255323568
-4.06053755336553
-9.35855524708367
-14.2199752745321
-17.9184494207724
-20.163432682243
-20.8601532269007
-19.8112296660818
-16.9695480484114
-13.243250177215
-10.4725940424845
-9.69938663243029
-9.68592913979653
-8.21171788877186
-4.84197860245462
-1.38845300458863
0.432464187329193
0.768695755943798
0.866497746426161
1.46220173493105
2.42165164348887
3.54133498235676
5.19314663803101
7.98376710334127
11.8078761975777
15.5079557986495
17.7302283529577
18.0672543135836
17.3402448811203
17.0290405839235
18.4059981761018
21.6636534734598
25.5358575237683
28.0060831188493
27.684296147331
24.6830195350388
20.4521920247105
16.8337879673958
14.8757262609681
14.2450160153261
13.7907326197391
12.5192042149913
9.85255641924937
5.41198371352538
-0.734540216022507
-7.67116682592183
-14.0936472405524
-19.3026233127253
-23.4545870714147
-26.9293752456447
-29.7984635438836
-31.8547437288835
-32.9010722166709
-32.9861442341271
-32.3484224780102
-31.0957084373096
-29.1973323441294
-26.8946862292199
-24.5620665575261
-21.808190740763
-17.3930048645593
-10.7774251832281
-3.46763317408481
1.86452400889811
3.76530028838565
3.4316491370342
3.78678538233837
6.94709542684915
12.3063799866994
17.0972094424752
18.8565310959899
17.2197918318845
13.5728306017932
9.61725120458522
6.39993774416521
4.11391876067796
2.33252180239618
0.444967043547583
-1.9153937275459
-4.58804516462742
-6.81523243988471
-7.57437397384929
-6.23317418535441
-2.89689908769332
1.83937619104732
7.11760415483479
11.7060985807686
14.3419394867652
14.8475370368862
14.6261149958882
15.392298030717
17.4011819402633
19.2385182058126
19.2405239610602
16.9443391369323
13.3733198532414
10.1098640261092
8.0304164907369
6.89349422065461
5.98387994125537
4.76498407811038
2.95235646448617
0.589487072469389
-1.69720440012864
-2.99209611584139
-2.94695762072131
-2.16083497526159
-1.6346792283237
-1.99058477855422
-3.20299186790818
-4.97826440098579
-7.28043880774733
-10.1800288316716
-13.0927753769997
-14.7774481553331
-14.6030938872027
-13.3672821216486
-12.3106363569032
-11.6937701494424
-10.841560193827
-9.2621302665224
-7.27110384049122
-5.72711574050652
-5.44199150358234
-6.61307510780961
-8.55606143121218
-10.110556379724
-10.466614858811
-9.62660556103312
-8.25003389188202
-7.21011233910542
-7.04349873035008
-7.53680908362151
-7.94348449298629
-7.6538073359273
-6.44478970985775
-4.19991271395558
-0.883413872947679
3.0821382071396
6.76586093775314
9.34246299070922
10.8433468157552
12.2344293081837
14.4498071267416
17.1754489382628
18.9090119974126
18.4477270349647
15.9753838391069
12.5834134442275
9.34349980987095
7.09072173173849
6.36564648831768
6.98955388180169
8.00658549007559
8.39647786540429
7.80763977641779
6.70084474866967
5.95309839063743
6.10589030496109
6.78442628975828
7.02713554523488
6.25366249216049
4.67467337620621
2.80390833902387
0.947723102552249
-0.817317143748804
-2.54523537345383
-4.3593684923576
-6.21412360755619
-7.7355291217876
-8.53611526170071
-8.63283413484206
-8.42087496947844
-8.3793743179234
-8.84545772907093
-9.84004335434199
-11.0741625981119
-12.2604245086808
-13.2841885419041
-13.9696736233309
-14.0093058230657
-13.3356766322723
-12.3036415193898
-11.3933213293323
-10.9179815888372
-10.8402480368641
-10.4786962008904
-8.61768835059666
-4.46174758476785
1.50606971231672
7.82881948591099
13.0490978937155
16.3453880288382
17.7487240310866
18.0302774577969
18.0130243224778
17.7777819851308
16.7689092714185
14.6867529947247
12.0133789263794
9.66854283564065
8.3072850916389
7.8445054641065
7.50072948662905
6.39856688132247
4.23055949889566
1.3450570889737
-1.69180290706743
-4.45174318422237
-6.75856386712738
-8.74936681464731
-10.7161944721908
-12.6959869561634
-14.3918431388433
-15.6007641313675
-16.4393718451029
-17.0264893199266
-17.1422775988318
-16.2563164084238
-13.9081342664381
-10.3182647680658
-6.60587170036202
-3.91313563531171
-2.21830872775344
-0.488235420536311
1.97489218363911
4.85186292757851
7.39785017245337
9.10753641624192
9.81216819288074
9.71354483457966
9.44099057520558
9.68818083705251
10.6097119023424
11.6269089322833
11.874849616082
10.9631890048962
9.36361886789717
7.89983732355171
6.85687058850807
5.85207255141568
4.54117058712051
3.05579309490138
1.69607941109252
0.565723006384634
-0.393318092607227
-1.28383835953844
-2.21497685036281
-3.15910543020854
-3.87691002679629
-4.15206651368954
-3.98011117248861
-3.42408492034447
-2.51595198829554
-1.36956717660116
-0.142520706622731
1.05148744293472
1.91145308599853
1.86594325594519
0.636777720588995
-1.31042214787543
-3.20683970481251
-4.61999849154706
-5.43193737194525
-5.56954881651022
-5.07247417736219
-4.20050421426294
-3.28953611120517
-2.59260733768448
-2.1834797881006
-1.87660015912045
-1.41994025381429
-0.888333642301026
-0.652738636012534
-0.890725425116842
-1.37693776143063
-1.76924710616957
-1.8968242512477
-1.84040388616783
-1.88744920803215
-2.28611256368086
-2.97005448465338
-3.68052464002102
-4.28391786556363
-4.65834285259208
-4.34626803290779
-2.75432939828667
0.21168476546299
3.94274664684992
7.51529046417767
10.146401743876
11.5116001304246
11.8395269821362
11.5166979360653
10.595931086347
9.01677125922959
7.17238167211949
5.73356499350597
4.95190794676468
4.54944089096781
4.1821336758585
3.69264173872579
3.09865072272078
2.56446809799617
2.16044667847862
1.55606843020266
0.239627307746387
-1.92398518370083
-4.58360255891434
-7.23820071264478
-9.48730271488094
-11.1815383983931
-12.5242314538553
-13.823748429897
-15.1209288025341
-16.2922677485325
-17.3310269625493
-18.1474879286174
-18.326113345195
-17.5448819563582
-16.0891055599816
-14.5345302448676
-12.9423568908956
-10.6168025920435
-6.72564274036025
-1.19712341738349
4.91126417044686
10.0462635586911
13.3434688812206
15.1115860124691
16.1372079687159
16.911665858177
17.683969822312
18.6642879952439
19.7193330123186
20.2376453000954
19.6496513134717
17.8701668668115
15.1866449779629
12.0639026943074
9.0666371886321
6.61893772905329
4.76493878290069
3.27227087795845
1.8957778867778
0.566063730548712
-0.476061003353488
-0.812283341684214
-0.34575135826676
0.478904954928754
1.1568870232597
1.60225424671412
1.99606377157736
2.43937047213184
2.86469637474956
3.04028343594015
2.66465024770059
1.65809818434057
0.229185660392533
-1.47510998258697
-3.48663113407373
-5.66049863825366
-7.60655711796866
-9.15317403917724
-10.5164103976662
-11.8899432320466
-13.2294483950765
-14.4945560205966
-15.721737424803
-16.8416839695848
-17.7575496381012
-18.5155800003973
-19.0884608659687
-19.1439601689112
-18.2685757146616
-16.2451978491441
-13.056735986107
-8.92801325663938
-4.37975727497791
0.0339488930714874
3.95096661687392
7.02213710205652
8.92013310880591
9.85857460009415
10.6952817370765
12.0874011608015
13.7134753304422
14.543901740848
13.7923562673234
11.6304703162259
9.0806151974127
7.09432516056896
5.74017787225862
4.52755727424448
3.34162867285312
2.56894642129743
2.42031295368442
2.64520607460505
2.87393637162983
2.90040576323565
2.7332421529061
2.57304612760421
2.58308593540389
2.63648826591117
2.54287530780115
2.45466610190308
2.65475840499296
3.00780350973588
3.06934463323711
2.68852480571167
2.09075249116499
1.46981981560444
0.885135643743863
0.423374644737794
0.142370293444902
-0.0121534616257445
-0.0849844793885008
-0.100083672459996
-0.185647167369002
-0.470639182121531
-0.907812337785801
-1.39277685270767
-1.92985076602885
-2.55940189563642
-3.29874142056993
-4.14750172032851
-4.89909661845609
-5.07492241733647
-4.40252848108267
-3.23169722847099
-2.16699389839493
-1.46413293423194
-1.00469428070145
-0.598594107466974
-0.132860585544756
0.332096815593722
0.544900995322613
0.333880875860825
-0.19190906468756
-0.859891597372084
-1.59401681936393
-2.17815340086698
-2.20808962549082
-1.55754944013433
-0.6546364174555
-0.0922736840139979
-0.128771653305843
-0.598762715979574
-1.06285705979597
-1.07192616004331
-0.57090510763521
0.000640944546248308
0.189454603781051
-0.0841995004413646
-0.744975548926916
-1.7963275468682
-3.11400378117505
-4.28500666549894
-4.80485953258518
-4.35920491101882
-3.11834213018257
-1.91882181813437
-1.74539860905773
-2.6815214833415
-3.63922651007159
-3.33192676339745
-1.30023326391124
1.93126948353781
5.25998663487738
7.60389647080466
8.54929281200021
8.51715124493293
8.22801390137992
8.15830072965626
8.43985077824891
8.87375525866702
9.01724703052711
8.59981470520374
7.82282397253648
7.02451186119948
6.23789641818245
5.30246215423677
4.17026294128234
2.87052438286427
1.3526212523414
-0.503796682497255
-2.866610386458
-5.88305416257692
-9.35960157247542
-12.5958628739656
-14.8563741330522
-15.9303951934744
-16.0312976553068
-15.4123587015717
-14.302461055434
-12.8796087095661
-11.1075033546341
-8.94007622763334
-6.76115463450622
-5.15780961032816
-4.07280798892965
-2.48294275029462
0.857126291761915
6.23444229773474
12.3325071794564
16.8221936639213
17.9903361338537
15.9619615372141
12.2818019367648
8.52390811573025
5.46720980624253
3.17689426725294
1.40888968688869
0.0471380713978527
-0.684520931534523
-0.583328785389892
0.0492356244044654
0.598053452666797
0.718368694456177
0.486588003367077
0.169041652782087
0.0590849004545227
0.296142840859986
0.681312149260351
0.930034164704323
1.14657576547217
1.69190917826855
2.59635415390445
3.53299917783313
4.31417964175568
4.93036959124336
5.19043704811016
4.8374062396738
3.96541998614137
2.93478664242301
1.95812583437312
0.97991540696367
-0.195334513736172
-1.71756931516356
-3.43204994737861
-4.88735272397835
-5.82584318678706
-6.48977796998517
-7.25253304730731
-8.20416780225184
-9.23372620232296
-10.2085092414453
-10.9669638757408
-11.3586500763693
-11.2502894758428
-10.3945419788528
-8.62903569297693
-6.3539309854361
-4.34169573333361
-2.91155483261284
-1.76135259609477
-0.624532159736566
0.492515272438251
1.71611328784674
3.32659701239472
5.26122105628026
6.97659983729609
7.86814616446776
7.68985056833167
6.71945625796444
5.65610949356154
5.14716361482258
5.26425495728259
5.56559338417004
5.63576372954849
5.38660706066142
4.9984143756306
4.8103972139793
5.06346589894002
5.58078301602486
5.98478823860836
6.25840782724104
6.65082749179782
7.04479918871786
6.94236450436884
6.09104608673756
4.69324677697213
3.0408630831274
1.27284164297471
-0.584084170883924
-2.51277837887327
-4.34917511784416
-5.78731105163788
-6.75171987373294
-7.56339317022086
-8.44796612453032
-9.16488413437791
-9.42569423444055
-9.35466598628771
-9.27213910555747
-9.30278387457996
-9.30643409777875
-8.95615515940564
-7.98424572075558
-6.59457707446106
-5.36420880684356
-4.46773225357977
-3.35932790421136
-1.53184759267476
0.749877492340196
2.74552419348887
3.96846995461476
4.45551084964166
4.64014335257647
5.06912163001559
5.94379033680796
6.90935231520247
7.49472253507414
7.59442129875875
7.34305282210739
6.84275739621541
6.21606238179049
5.59111602590445
4.90022842666448
3.98231679975492
2.87427138088653
1.73136949605224
0.569301279629961
-0.701369339748999
-2.13319773164776
-3.68446237597533
-5.06750493068918
-5.76671279283591
-5.55487046012686
-4.81152312770462
-4.00729715552185
-3.18871885368908
-2.265376770402
-1.35894355118564
-0.567341759317187
0.186845518791517
0.89122600052326
1.43134781639015
1.87145661693378
2.36631405696568
2.88194490635889
3.335858141558
3.83047687353281
4.44926292083752
5.03414105559288
5.38260997643315
5.40271160914961
4.93312780925212
3.76784625872385
2.02499894355004
0.18079818688092
-1.36113772013353
-2.51279009185459
-3.39833783416287
-4.25106863457649
-5.28026922173756
-6.45276556553023
-7.50046442320188
-8.1312758714074
-8.13567265614475
-7.53682715091329
-6.78485962091699
-6.35740182893496
-5.95195117589384
-4.6343865229116
-2.07090747657882
0.930308334248789
3.3362410401751
4.81611242609069
5.58210748991575
5.81873616869986
5.50066238826405
4.55573010460239
3.15874758557234
1.84864587794409
1.11164937646023
0.869059941999925
0.667958482052173
0.261721377765732
-0.286151648383943
-0.827173614871796
-1.15108372862267
-1.0850763755492
-0.831423892061873
-0.85060780993685
-1.17998549622362
-1.2515858250794
-0.579453059105775
0.735458840300546
2.25425455442231
3.54237207658751
4.29484818717451
4.58455911694202
4.9390409412685
5.78694978437704
6.92709725117235
7.77379033885558
7.89755677248071
7.17462133943796
5.7074913745893
3.7568601797065
1.58326087084162
-0.671237173874994
-2.90192478740566
-4.98616951928171
-6.79847383720544
-8.09114094490923
-8.53865434751813
-8.21234581976421
-7.74602936883043
-7.66374798050214
-7.85269669086764
-7.99489130184185
-8.06584043837345
-8.09689046002887
-7.8959022120514
-7.24082313258259
-5.99467330094633
-4.04218458047626
-1.54459792580987
0.841546333352795
2.44194586339657
3.178772242033
3.43876864864879
3.57999135909804
3.83595936378063
4.36429367177079
5.06318153338975
5.6152929851304
5.92345765018743
6.21567851669065
6.64286930674105
7.09142861785766
7.36592415369441
7.2648336151791
6.61567894119339
5.49489544754082
4.24984640466835
3.18051229998052
2.38281211973522
1.83966039789558
1.40284412333787
0.821671923307379
0.0185525533327443
-0.852930556167703
-1.70821844835732
-2.56678355873137
-3.28903952194063
-3.68206009454027
-3.81735124356693
-3.88364891871204
-3.88618158392494
-3.76518166383143
-3.5089309003469
-2.97241012769424
-2.00843509884052
-0.863996545835203
0.0290081318853756
0.63930535724303
1.25029820791192
1.9178371738838
2.43879009210519
2.65578267718412
2.43746662472633
1.63355895298489
0.35896188361518
-0.976667252950239
-2.13320638279411
-3.17802475282266
-4.05254042119947
-4.46497729482069
-4.34275242770169
-3.99290477131358
-3.74007739382008
-3.64759184032013
-3.51021665396408
-3.00690288249096
-2.08909920149648
-1.20116004920886
-0.760771635467456
-0.533569442929008
0.0390015555199348
1.01917992491226
1.86321380289107
1.97046617163188
1.09967847877195
-0.494180288433578
-2.14664607477972
-3.24157001931946
-3.62212280501131
-3.37818853595355
-2.4808487701191
-0.955063138575406
0.84135926633537
2.3875532676867
3.24652162236263
3.1679509426578
2.35584032226798
1.55353567138887
1.41609368914848
1.91699544379358
2.69419414743383
3.62405150688773
4.63793460331947
5.38924098645171
5.61817394949511
5.55055784959511
5.52464069219054
5.49290032077836
5.17745745159761
4.44939908169304
3.41905371792315
2.42323474206347
1.89456302456174
1.94859433512647
2.20125192373547
2.19660283573584
1.83106473280358
1.28938031574843
0.844217667309693
0.70614799391005
0.78777322698232
0.712346659198288
0.26547827076213
-0.373622654775846
-0.989330834362335
-1.62872634632175
-2.47751411282071
-3.7079425877359
-5.35010706261884
-7.04879248808412
-8.23525969628815
-8.82117922996997
-9.30541053464374
-9.95387981939817
-10.4142626277853
-10.3583883111252
-9.93047897666525
-9.37721715460664
-8.73466577739303
-7.95097199206352
-6.87198032103313
-5.12496065951886
-2.4497531296495
0.822090842501599
3.88030976084088
6.02950618778357
7.12991118866256
7.64604453952592
8.26089990172843
9.16020921854708
9.76491855644196
9.48648427549728
8.5508316170083
7.68755784113015
7.23316303691608
6.90143430387321
6.2137939356489
4.91837206691065
3.21386182859341
1.66021032322061
0.682297034788214
0.231914060581789
0.0494908767260663
-0.0453657104809561
-0.260713915750212
-0.808056505509136
-1.59922106526786
-2.31988405552983
-2.83196302567123
-3.17947060424717
-3.35426359399032
-3.3953882696878
-3.43944494201617
-3.35392154566693
-2.66597674143485
-1.12527841831754
0.946931129497641
2.93530595674095
4.26282584540154
4.56911772025447
3.94191126877895
2.88466187069151
1.8097775148841
0.739470389577005
-0.36877993598681
-1.37167336826957
-2.21500951066739
-3.07370512698864
-4.00439682259302
-4.78450556670827
-5.21350442020814
-5.30072408400246
-5.19471999793281
-5.15435828392998
-5.36042278775422
-5.52732585047921
-5.04116783117695
-3.69563908087754
-1.94970073607863
-0.35501608950596
0.918974755393635
1.97876560413177
2.95069859242509
3.81384389231745
4.33813304145282
4.33086154339393
3.94665378052176
3.47652976957518
2.92655152200782
2.16335798857196
1.31478556842383
0.66524230924829
0.348531804671343
0.3734802605108
0.646644357246531
0.853683865470364
0.717643008275092
0.417153202244392
0.358942338434646
0.607808832020567
0.908135079340984
1.09354576823281
1.12121464927019
0.930747789586352
0.598622645898913
0.392857163149172
0.429099475360122
0.546871420821028
0.641463681084169
0.727925896229313
0.627726267731709
0.0677272316905734
-0.857794741032855
-1.71565630850472
-2.18369848832598
-2.2038281002857
-1.87398808299286
-1.41237521151282
-1.03780490563883
-0.79369393654416
-0.645703233039371
-0.637962006726963
-0.759751297700371
-0.861664290367681
-0.836534257285073
-0.615629508831966
-0.00890404589576416
1.03894501796644
2.11786974892494
2.71936948107547
2.77998251363013
2.5129848745548
2.03674157363788
1.47885669794645
0.996330167692021
0.445237060890213
-0.480726861727315
-1.64568870092264
-2.48894122561254
-2.68177797409078
-2.36130080815975
-1.81536572754105
-1.30074480578471
-0.978839150361921
-0.711129321365332
-0.169700256802115
0.616830511510865
1.190109589094
1.33152865934171
1.37940711197424
1.72021421811696
2.36763362727216
3.07027736121226
3.43359242559359
3.03494920431187
1.81366239018682
0.232562174618193
-1.16534540435368
-2.15541657790519
-2.75718622367179
-3.11295887456695
-3.43067985678848
-3.72189700407079
-3.68950058057717
-3.1280207176428
-2.24711059033202
-1.42124665733084
-0.835302024179018
-0.402948493851087
0.209096103453928
1.32293148257316
2.72733307481748
3.67855404861589
3.68287824317228
2.95910625439011
2.00860842860537
1.15235735148877
0.511270729188203
-0.0150733318310461
-0.700667115033718
-1.55448631540033
-2.14142774829787
-2.1853428797656
-2.01989191506225
-2.07571278137539
-2.28628359628572
-2.36367159484096
-2.29493811865975
-2.21699719902143
-2.08577391178324
-1.69427566989012
-0.837540246626648
0.499560306271522
1.92289489368289
2.84036576965398
3.11095095770866
3.1492146433754
3.24019388758099
3.17567882896977
2.66608334370835
1.69259043988926
0.422601097261822
-0.884679507635313
-1.95924473265676
-2.73929618741929
-3.34677730379209
-3.7484480911738
-3.703732586847
-3.05307074101745
-1.79540694807126
-0.0342641716373046
1.88211975916998
3.44295519150748
4.4374122007441
5.01730965899562
5.22873770296519
4.93937386674013
4.24366467161432
3.45227734209517
2.69331087110372
1.90807777357504
1.11728062256787
0.371025930834587
-0.357488945052816
-0.962222488626423
-1.1658664555513
-0.924604055329375
-0.563911732986021
-0.35150794540527
-0.287660868103841
-0.374342948694572
-0.652397659131796
-0.951995604233423
-1.03422740675393
-0.957985751014261
-0.987015621202747
-1.24054768601419
-1.62455905994221
-1.9279255771369
-1.94027799449774
-1.70436588153068
-1.5719616803519
-1.78214012485455
-2.16950609633132
-2.44348542900477
-2.43985027321995
-2.02297323356341
-1.19021876062376
-0.334619338003846
0.0387410108531351
-0.149585304530719
-0.623548048174521
-1.13705897454957
-1.47631540664378
-1.40801680143188
-0.902330132070405
-0.11458011742373
0.896591360115549
2.04176951390171
2.89233498595438
2.9905495082457
2.39850576066596
1.56773748802937
0.838170439563136
0.379703123157936
0.337473503023776
0.674801566406194
1.11090914374738
1.43456559797401
1.59548042616636
1.44455468787679
0.830128210360558
-0.0283518730904801
-0.712620086694555
-1.13043414449465
-1.52854119666334
-2.09705054474344
-2.77498570370896
-3.26618720352873
-3.19353081263961
-2.48691203841416
-1.55768761916254
-0.85591054302646
-0.437574095886973
-0.124372215760407
0.253868268329164
0.890983276186215
1.83870028083235
2.73815978731264
3.145853133424
3.08569517770485
2.90497357755108
2.79657019375849
2.80716880296051
2.97658550912162
3.14770794164853
2.9872694154292
2.41314893501824
1.70040303442204
1.11521632609004
0.723447301224193
0.470870295081953
0.176751944263002
-0.391149568720518
-1.19083082467596
-1.8657649821299
-2.2130353349812
-2.39919153717232
-2.56775663307338
-2.60804393587141
-2.44976303335957
-2.22261974060766
-2.05535411678594
-1.98966841910026
-1.97808134874046
-1.75117173463915
-1.00221496967637
0.0607123651565073
0.715573875278132
0.475303233031415
-0.465395322852854
-1.52912499750594
-2.16557045521915
-2.0921069188411
-1.49899437591245
-0.912262848134287
-0.649280378334946
-0.589173649438729
-0.505408694243082
-0.305615528217924
0.0316717158108903
0.45472800157988
0.875361159646381
1.36826227481404
2.04865588502106
2.70074779398356
2.98008726838752
2.96729309615436
2.98729334351041
2.97334306550525
2.59214724042193
1.87858966146069
1.17706133435752
0.569304647363563
-0.14507471992998
-1.02437283500306
-1.92435326757578
-2.69240209634372
-3.17663245683509
-3.30743644291096
-3.29808417970634
-3.40354936415013
-3.45143661624725
-3.0245957777697
-2.0635423561467
-0.915075403541763
0.0829847848038861
0.779457804573878
1.19053783255445
1.51029473327005
1.93990562608048
2.45321203353203
2.90308072264304
3.24057303113363
3.46903215806921
3.60179943709518
3.74477750459814
3.91889600711957
3.85638286518324
3.37120808539014
2.76364092603062
2.41486388460212
2.24772501841038
2.00530321871149
1.68853924480387
1.3425652798357
0.82510355786515
0.0786998105056979
-0.742419481056882
-1.54050971810688
-2.31454221336256
-2.96483926735984
-3.41594637534884
-3.82267704820154
-4.32246890635287
-4.74092140883192
-4.81201767865484
-4.48139867507301
-3.82884979776464
-3.01325020806976
-2.39336821794138
-2.29753192158377
-2.60310491374282
-2.88401950212441
-2.88398466099269
-2.54807437399537
-1.86052324748695
-0.980407396106746
-0.258689391949979
0.11396894993927
0.251265373980887
0.359690343141107
0.642985688898831
1.24784804997307
2.00044582912443
2.42653251983123
2.2838286440916
1.82786558398869
1.4658477199295
1.46343740447137
1.91038191935205
2.5623828469989
2.8679648384648
2.54840180826019
1.96111494336945
1.63939747663251
1.76037258746983
2.16919668139585
2.53993931888974
2.49275017934267
1.94401979487092
1.27607910991972
0.839764364081064
0.513239290260964
0.0780764919298829
-0.318185033798288
-0.468562241609149
-0.51770047931149
-0.676842647008673
-0.851000224906603
-0.843328046119574
-0.633341001371
-0.319196818935902
-0.0797723101497661
-0.169088308897266
-0.661132944655883
-1.3145878072979
-1.86090981745706
-2.19943505546094
-2.28236473308478
-2.1696008510328
-2.15920376140714
-2.47560131678414
-2.9173860280495
-3.1028514707188
-2.84454253767484
-2.08414365969429
-0.825610886025419
0.674004530447109
1.98560984861526
2.84219177226665
3.1336064706644
2.78173858949167
1.95961854780741
1.12252135642297
0.513361305324182
0.00338288671822188
-0.398183420301617
-0.370323244553734
0.203470184776439
1.00018486728113
1.68210745349731
2.20787539626279
2.67995022677451
3.17865489031284
3.72532825223125
4.19241029113372
4.36316956074357
4.228010289323
4.00293668673927
3.75968679451585
3.32425087936276
2.57120822416246
1.52797286519429
0.261929258187386
-1.08147052287579
-2.30794635270335
-3.41209257944328
-4.51256369071399
-5.49401910143505
-6.07562866840314
-6.23011574835085
-6.20274735344902
-6.22875765441951
-6.47874535415589
-6.99728870170617
-7.46969967183579
-7.40743227318467
-6.70872248201662
-5.66834334074431
-4.47649269463702
-3.14705305719523
-1.77163079806215
-0.387973460733734
1.17326211685711
2.95645219807311
4.67513037511915
5.99823392907628
6.69078728203285
6.52314968105376
5.53995884612083
4.33929123262228
3.59725273518753
3.39561027856911
3.33948805344657
3.0893462203961
2.49752598578104
1.60613053734326
0.812517325511941
0.630524999376615
1.04998827252116
1.53092527256125
1.70866005877425
1.65267625148294
1.46363579167361
1.09878232182844
0.570511798930727
0.00257748108906961
-0.419949448016996
-0.471854429195191
-0.107424617287338
0.368347870957456
0.64264065385615
0.766362625401413
0.906541466828034
1.00273627795419
0.940077401624144
0.743994956088572
0.424807176614774
-0.0190985530001606
-0.398755208487517
-0.506913186428964
-0.413309091635213
-0.273556998980642
-0.0959377416439866
0.0259831387468539
-0.166689906164795
-0.680676466239993
-1.14981554182171
-1.30593075367772
-1.25108805193425
-1.23627837041579
-1.46730674932831
-2.03437764760204
-2.73702582455015
-3.1485083362995
-3.13448695172778
-3.07321280529352
-3.31366578784843
-3.71809428121163
-3.94082061071192
-3.80797154207739
-3.29749435224365
-2.5059825240638
-1.65648228664327
-0.8243324395255
0.215829689651148
1.58774441172783
2.97451102166678
3.89574694640888
4.10704580895227
3.68468161926697
2.98478582362867
2.44959246444181
2.19578935984433
1.94701889485903
1.52380978922866
1.08654695555768
0.779456171128205
0.52457064747945
0.246666738519829
-0.0445413896585799
-0.348636975982796
-0.574153915824075
-0.546986908667131
-0.315825518664807
-0.121504711780259
0.0249741562656831
0.299215774351559
0.608151737342251
0.683827822300535
0.574783709630079
0.538878924113217
0.55204289232392
0.415407686029759
0.216813108307485
0.224781461055464
0.470109862143908
0.801526309783797
1.14041219827716
1.39147557111055
1.37008189512726
1.02097095418453
0.476880332669667
-0.105198380368721
-0.542796583890721
-0.654879876095554
-0.521790442906362
-0.430281133989583
-0.403272111302536
-0.148911946878106
0.446205457627764
1.1396215594744
1.61638093636132
1.6428915820906
1.11672835316824
0.225384192664033
-0.691080571245729
-1.54669788202766
-2.43346109529965
-3.21119630122103
-3.66700552108239
-3.93743724678597
-4.26170030383713
-4.54598750207243
-4.62292550424058
-4.61487359260751
-4.64719761614117
-4.53379399076405
-4.00964127094323
-2.96962682144156
-1.41033824668862
0.488742865264158
2.22555329316089
3.30466248138636
3.69753795391083
3.7008921273332
3.50363735589026
3.17467998896409
2.81881850396093
2.46561799185541
2.06954345336263
1.75367544621737
1.71002662420614
1.83662662730836
1.83729899397869
1.60677613211005
1.22467524693206
0.772786452377147
0.380661017516236
0.177161589266195
0.0797402278494863
-0.0714999765369016
-0.17739550829793
0.0432553823349354
0.740852549938571
1.84629086657939
3.01849674725799
3.6404262810746
3.32782378254953
2.47479787638235
1.83919372606131
1.68032036170775
1.73336014487673
1.76318901148115
1.67668237105909
1.38572082574939
0.948474030946335
0.587435370522422
0.393856985016778
0.314057237739197
0.411401278655134
0.744842321266214
1.06875678648989
1.07544745967105
0.815962393566799
0.483884933241054
-0.0206730461163003
-0.901741327862778
-2.04990970231822
-3.15245153761306
-4.01078188976871
-4.56881434445011
-4.88899485086245
-5.15202656887119
-5.43148987775543
-5.57072514138799
-5.48725744407879
-5.35121735190371
-5.30616270897162
-5.33036360033932
-5.4241910602248
-5.56879730316051
-5.54526089544632
-5.14801685789446
-4.44254671013
-3.55159608770025
-2.46831136593621
-1.29133524305457
-0.279314753143618
0.492933120185903
1.21127780940779
2.05126048227164
3.0972888429409
4.32555065162467
5.40345729893612
5.84014720043978
5.57546331367071
5.06413393820411
4.6580945597954
4.30482090604769
3.89322428279663
3.48144153122422
3.15789532400883
3.00142611300988
3.11632117694844
3.44201939798343
3.68685805766941
3.67254318700379
3.50397947560101
3.25659449347273
2.85229181040999
2.3383865711657
1.88678473523156
1.49846340646674
1.08340692063943
0.726488743585835
0.539851083468857
0.450576369772338
0.375406139088356
0.334397682751065
0.270891854626475
0.081180886375817
-0.164032751176434
-0.342456937633154
-0.525410389372175
-0.829850564969959
-1.20624085799525
-1.5410606299049
-1.72664304124482
-1.63077652043106
-1.33464028108068
-1.26205521009687
-1.6900068172904
-2.36699617180287
-2.91697224705633
-3.2090429837288
-3.09023703864968
-2.35777660565318
-1.3137397730905
-0.772250204307739
-1.19220907996778
-2.21867256281701
-3.22409172912878
-3.87762538402739
-4.11944455523437
-4.01552363046845
-3.73438329114311
-3.41044712703318
-3.08124064782446
-2.86132525069058
-2.87305685593066
-2.89479999299285
-2.47575715286822
-1.49213043566685
-0.242301299339074
0.964354945114163
1.99866917470299
2.83874968174658
3.54963171189726
4.16857124133086
4.5559749533084
4.59593429295124
4.43157501947799
4.20827800223928
3.81322151461537
3.16427317203386
2.44658894373658
1.8265669798191
1.2935939408648
0.897070604372343
0.712714464788197
0.57237328074516
0.27153558034968
-0.0490854092302626
-0.12124771715566
0.0316599546923562
0.183857888134001
0.181285884918185
-0.0218044143439374
-0.320952625603507
-0.44167718673589
-0.269495492688607
-0.10524180123475
-0.266103516420503
-0.613347408222884
-0.812138441921503
-0.801520020503266
-0.668176874422062
-0.386412613269522
-0.0135444597042885
0.222854508797527
0.29003630395709
0.424421213047604
0.714396787189117
0.98861431351664
1.11411957847092
1.06046144056798
0.79208490559785
0.382798375848158
0.0533930357486521
-0.0733602716208679
-0.0546481976669656
0.0225407779403365
0.0317847937578617
-0.193555950704238
-0.592116604553754
-0.851480014034061
-0.85196984753554
-0.811238765204164
-0.894740273937459
-1.06976576823982
-1.32400349786498
-1.6231938437395
-1.78512039090455
-1.74885708103089
-1.72362323782363
-1.82704387420663
-1.93809497488348
-2.03523377943989
-2.20763994227635
-2.2585384752731
-1.80253774424853
-0.815890508555082
0.322020359744212
1.2688369676571
1.82353169947427
1.80070276421211
1.24040267483618
0.554763770813251
0.138160496572423
0.0565458007553482
0.248219581327588
0.641728778851854
1.01275605260427
1.13754222702442
1.07701123637855
1.00489880284803
0.940966937101534
0.898207380536608
1.00219961355111
1.28866764425077
1.66479916693582
2.07207142833447
2.39787050629873
2.40135314880757
2.0342131350041
1.56185598107592
1.14080582449035
0.67187602222356
0.201197044964768
-0.0508730794671039
-0.145125494965183
-0.399341288447833
-0.919406700940928
-1.57466783490775
-2.27304707606626
-2.89727045542812
-3.22347405000916
-3.19055236970218
-2.99088196799974
-2.76089187504632
-2.48681156684898
-2.24114424071003
-2.14694920807205
-2.09132746496985
-1.797073412772
-1.14714731083196
-0.201019455860064
0.943918604605926
2.08653354187884
2.95573979466068
3.46818024668059
3.71173809624279
3.70225978984759
3.46596056245878
3.19376051785872
2.97747847952859
2.64062812734259
2.08832871362348
1.48767533208738
0.945683005258669
0.408186238500367
-0.0638756366791366
-0.318261304957697
-0.369494129978016
-0.312125731166481
-0.1655577166051
-0.0494016321705176
-0.189936456805163
-0.565214221475787
-0.898936112471767
-1.05434019547141
-1.07087706287889
-0.941754412912815
-0.740767087548985
-0.724992541355386
-0.966263026354453
-1.19542220685471
-1.25975184411915
-1.35023565019195
-1.59520806626686
-1.83191889581692
-1.91302770172225
-1.87688814991993
-1.76848736515777
-1.6309398309749
-1.62893413264409
-1.85717644994726
-2.15016511910553
-2.33394609526174
-2.41164487258132
-2.3078744719055
-1.80423217574391
-0.901307377175663
0.101575438362868
0.936616699898457
1.49637024453524
1.76184420938604
1.85940381771009
1.98945513266708
2.1599830709698
2.24589064601795
2.27808912894045
2.32708270736148
2.23836002474064
1.85887232466543
1.33933807920826
0.927869845985598
0.726746937038926
0.781401274955366
1.01639463337478
1.06300410424614
0.617513961965943
-0.0830102960508207
-0.55754003599792
-0.668404964496332
-0.567404889118867
-0.362392053015894
-0.14360297898219
-0.0268309353617657
0.0365990782157437
0.206807129701554
0.457584059092261
0.633958523796644
0.742535594890865
0.852642005291948
0.863085080112929
0.71963775953618
0.634988990346569
0.74723378280102
0.841357577523618
0.690901170313819
0.362999836646545
0.0269793149624189
-0.204208005778531
-0.217907596955431
-0.0116227471741676
0.217096003946643
0.315943643059651
0.325536011305457
0.283364269758349
0.167997106203947
0.0265282007870398
-0.160688805841708
-0.592311727917821
-1.29515223579676
-1.92061332859678
-2.17967120737167
-2.15030287328374
-1.98502908320249
-1.73791256953926
-1.5429082041403
-1.50592112678717
-1.46521708824722
-1.25741257049543
-1.01957323500991
-0.886947366162875
-0.711657618399484
-0.366296773114438
0.02874037268779
0.366711228014516
0.672109963307168
0.870174013777049
0.831427232400519
0.67659634102429
0.648991361560164
0.707347231386661
0.616938709560655
0.36593280607816
0.161458194498599
0.127923076092768
0.215927383663687
0.230609012913394
-0.0970621228959818
-0.799841104625556
-1.48623217231467
-1.71336133320334
-1.39265243456871
-0.686424832622321
0.160037596049845
0.781588322711016
0.925203545703639
0.811045680150531
0.893882455851019
1.31276213147962
1.87892744193462
2.36038092298273
2.46995023353505
1.94130323787309
0.927389165994784
-0.0264304947045722
-0.560443237973597
-0.707966302617627
-0.603164832027873
-0.410601239974678
-0.380377399127275
-0.571179549713319
-0.720616123837262
-0.650356219918963
-0.507183709630834
-0.442946155941939
-0.408114582133188
-0.369745211358622
-0.386347686380029
-0.412380220263505
-0.331896356222814
-0.148798033844834
0.113827255158862
0.52714467321911
1.01686697879423
1.29282362536167
1.25112989070741
1.12901539477778
1.13251807202408
1.25152726677191
1.43191454052292
1.57854689278371
1.49869941995956
1.12656414124026
0.611011968553363
0.0434302114708744
-0.592646217341921
-1.17925261075232
-1.54638470580872
-1.73435111579494
-1.84188666149302
-1.81086279467883
-1.63686981323805
-1.4739607976548
-1.3445269434257
-1.15369236566608
-1.0284160969159
-1.12226394995424
-1.14657655805672
-0.659860109161223
0.279125039503304
1.20082567329473
1.75749123123989
1.83245985600038
1.4424456766805
0.826486984384668
0.331338649856715
0.0241674292411595
-0.306673584742776
-0.737756115868492
-1.13433447752097
-1.4414476374796
-1.67013622543814
-1.6601001945596
-1.20652903643873
-0.351115401174309
0.643539066891276
1.43664694903944
1.69684172805652
1.3549943710085
0.745535224344019
0.234901745882183
-0.114029569104403
-0.319012734928328
-0.306230116271416
-0.17589549195456
-0.207447733434227
-0.429856246349736
-0.575033334247434
-0.476749838945393
-0.151848861205788
0.372220639517043
0.956357986103605
1.30889996556545
1.31872632889447
1.15229963644407
0.928448383720458
0.665882731459496
0.494619683346133
0.493131179728723
0.465647679045039
0.260040988458305
0.059996033590069
0.0609829199814125
0.170700142405413
0.247897554031827
0.296492262695023
0.289984062820225
0.157368652319755
0.0138435062018722
0.0657531734021124
0.284878089319142
0.481951168945885
0.59940021926334
0.647726132434101
0.547757721777491
0.277212189441137
-0.0601203481631818
-0.419122900285541
-0.79396417713892
-1.07316099620517
-1.22041154492368
-1.40362258965362
-1.64563738040283
-1.63515838761887
-1.13453997686621
-0.279657703942484
0.616466777740281
1.23407644317654
1.30459732734491
0.873376329368987
0.339412456768731
-0.0626503218216771
-0.511687985788597
-1.11309187702492
-1.6129755871097
-1.80426275534975
-1.78993059261976
-1.75402055393532
-1.83109841881514
-2.10855404130407
-2.44393239272405
-2.50820831888375
-2.24490958693536
-1.95386756993246
-1.7708904852301
-1.48795593318261
-1.00888220075464
-0.52738128884216
-0.127194810948827
0.38525094761289
1.1495115275938
2.05396951979001
2.84173303067114
3.19042901141948
2.88863784591659
2.15020054019733
1.49056275874129
1.16993232430956
1.04948691869306
0.954480415536594
0.827726417155831
0.639617497264071
0.434739896573388
0.294002378422632
0.144237482084544
-0.0883937891905681
-0.175918504655025
0.144449108084437
0.726953897898863
1.25040177392299
1.6433357234553
1.91334727514403
1.94936145148422
1.82932538730436
1.86902810244863
2.13404875215992
2.37347737220498
2.48340537050183
2.52794601563146
2.41402959897954
2.07370837286477
1.7782042310195
1.80126819970068
1.99570936610384
2.0550057386362
1.93349177837066
1.76266303841992
1.63262796882785
1.60947870143942
1.68548026107044
1.66042359082302
1.35472585144463
0.876995183031869
0.414016256598829
-0.0563048443199896
-0.623658571961645
-1.33078076957932
-2.34316679044365
-3.81632042997083
-5.51168124885074
-6.96047304449187
-7.98458631787902
-8.70242755413931
-9.19844516512132
-9.51475251673994
-9.73781457176939
-9.86159126427943
-9.7886193238074
-9.5007619280769
-8.95867936617756
-7.945467558942
-6.2927140623682
-4.08098518584072
-1.48438393218025
1.22550278388819
3.49413173989957
4.82156638005992
5.32132218384814
5.51827350074187
5.7269172814744
5.99435222064628
6.34223751734743
6.68183480860301
6.79292395272353
6.63412641311011
6.36576001550323
5.9973772265688
5.40453818946123
4.68339320965413
4.05557279245398
3.48734410699527
2.8324872092793
2.19916245035572
1.74762224029099
1.36000006824464
0.917613789382284
0.634265081708073
0.787491269775953
1.35876122819991
2.07019464306371
2.54054173321576
2.47873406934211
1.98033994631786
1.46440128144755
1.16649152619233
0.982954327438795
0.839966674146639
0.791127087319168
0.760431642940443
0.595263895682665
0.271504335317323
-0.261484295481999
-1.15140728804734
-2.2912323866788
-3.29607732652033
-4.02148331389618
-4.65882665004017
-5.25824922366846
-5.63374198898945
-5.69526837786305
-5.45420086155725
-4.86004354062354
-3.96223096608172
-2.97824253260679
-1.97243620675351
-0.796916267285757
0.498141299185721
1.56447093094393
2.16115608812813
2.3075268209981
2.04446955304527
1.43705581283193
0.763506856656643
0.341074463881641
0.243658968242599
0.382448515440994
0.620731922823231
0.716889707423516
0.515277300729571
0.210231199390948
0.0627820173546249
-0.011107057633698
-0.217088648569473
-0.495894154689557
-0.675269985099784
-0.724308035794556
-0.675244713164979
-0.613835268539692
-0.759496067425359
-1.17687029753181
-1.52342340481239
-1.47384937513612
-1.18910310473861
-1.03194018204755
-1.09328296602407
-1.21149654095938
-1.12794367401113
-0.569727854499576
0.441175397543485
1.43236821773539
1.98655872969541
2.21104409893793
2.42395219087783
2.6857968639199
2.88936519530305
2.97195819757194
2.8456026130949
2.43668604443182
1.8914765595304
1.4353753515702
1.04693351531808
0.585562253072146
0.100325181998441
-0.32044165454947
-0.757867121807117
-1.20269948908121
-1.4218179814814
-1.35041309855573
-1.24270651735344
-1.26062222060077
-1.27452558871907
-1.12554025319429
-0.800372758052887
-0.432363051604574
-0.286609439912452
-0.484103967023738
-0.680304467718109
-0.40536080842969
0.279618580074848
0.864765468082331
1.00838722887398
0.70749039378647
0.122258253001904
-0.426018092958628
-0.621044861445742
-0.554028005534823
-0.584464896342442
-0.750547947002282
-0.773796997417153
-0.571981468981338
-0.295008439778015
-0.00486677023293346
0.278823620097857
0.43202874948677
0.424293145286441
0.418464534389231
0.511606872211432
0.660586699421818
0.892760506530669
1.22904880137284
1.44125696293569
1.28809954265746
0.892475495107444
0.514464685969698
0.171989466644958
-0.162918581043539
-0.311117155305472
-0.147538380109274
0.194655641709473
0.535064546603436
0.749899663518665
0.7046935640692
0.411782887657123
0.100735910847601
-0.115992417501366
-0.374562275064605
-0.72542709783768
-1.05436373948477
-1.37349829722469
-1.75540153767601
-2.03948451609615
-2.0266687845743
-1.80292211986137
-1.52134361338053
-1.13294673814686
-0.57344136372175
0.124133819355892
0.97621073379849
1.8921001307759
2.44131502064256
2.23494753741987
1.42038487633492
0.456093775908259
-0.364898690934275
-0.918406174984997
-1.13445775508956
-1.13271454179573
-1.15983541565407
-1.23816521862824
-1.17519012498147
-0.948544636218785
-0.731217070570969
-0.573423983969686
-0.412136724032951
-0.288376879635518
-0.254969106629662
-0.253854916294078
-0.273255757830578
-0.353128501511082
-0.377630074552108
-0.196679230656748
0.119030446469981
0.483081736843148
1.04513559065428
1.90894002482019
2.8591191659585
3.59579749544597
3.95326985792628
3.8377131781377
3.31644512582138
2.7201506226286
2.31408991474722
2.02363727456735
1.70391226939445
1.33057894034705
0.770311977991645
-0.157200077030542
-1.27570012456377
-2.16846989990284
-2.67982509556684
-2.92346172913642
-3.01081985375194
-3.12829282742658
-3.53900934310384
-4.15936369197696
-4.49720183834972
-4.29314403020282
-3.85139647718077
-3.51368420142915
-3.18160217285503
-2.55310466143949
-1.52896328172879
-0.299751642849131
0.745995564936257
1.29290687055629
1.46757585997631
1.714556336211
2.21368252942233
2.76924940716191
3.24197279056798
3.61193519481445
3.70463850497186
3.3519860929253
2.70726744956682
2.0290309606664
1.36945585122637
0.722298671219536
0.176396637101805
-0.220798121875041
-0.464999224666831
-0.507880727406557
-0.450120738832904
-0.576859579655418
-0.909458112383148
-1.09393914482831
-0.974583515983388
-0.814529056697861
-0.795639187154291
-0.803477818397831
-0.75737097198965
-0.678902699144372
-0.490639121501587
-0.136367697905965
0.252491344124549
0.579222436426784
0.919725476176803
1.26766280415235
1.4658157871258
1.50013320433398
1.50826807843521
1.45935962742611
1.20221717522925
0.791618965695815
0.394367101049068
0.0112203141432847
-0.363109053818613
-0.548545842410628
-0.453092110722935
-0.259369762394419
-0.163558271300712
-0.226161892514609
-0.483907158187034
-0.877165775730273
-1.17544523298104
-1.2612411860517
-1.27675450780099
-1.29875686757356
-1.18458111345892
-0.860934025511938
-0.435856833604694
-0.0206241291625458
0.271513528960917
0.317450009317656
0.227767414024309
0.289700192363689
0.496415909758963
0.564863510345996
0.482312520715005
0.495807377803878
0.578090303672184
0.474008843872075
0.203117432829577
0.00663917305563223
-0.076145675031201
-0.177893789574851
-0.336641844458763
-0.550087493580489
-0.870877676327748
-1.26883221015452
-1.65519373681067
-2.07792787583278
-2.5336461410211
-2.64355094875179
-1.99355193271527
-0.767454522431655
0.369230941174211
0.938996095851556
0.9393125071587
0.682096943716411
0.563632322665938
0.7711722937991
1.12268930583786
1.35266990516295
1.43476377215463
1.46983683111807
1.52063047096817
1.67892632101446
1.95960682387244
2.10200023881637
1.86310441557266
1.41850610189407
1.0663597881413
0.745016483837671
0.254489000208911
-0.323419879959857
-0.772972113335591
-1.01697088550415
-1.06294477698138
-0.996378100134598
-1.01230710194637
-1.11712669132357
-0.989476757324715
-0.478104021502912
0.0724916264901028
0.307296175739026
0.287382585145733
0.163198510737637
-0.134074066839579
-0.606195930310422
-1.01100944879869
-1.19200292425742
-1.23329787434506
-1.20904747088233
-1.11433319094776
-0.985145785497402
-0.795517886099918
-0.444387072481685
-0.0642108223566835
0.01498650428946
-0.217726971934745
-0.369550537412761
-0.156600422307354
0.343287966318256
0.867244871718064
1.09769444816269
0.833208598381741
0.270113838431757
-0.155533964068321
-0.298724434931348
-0.342891607623353
-0.372545209183582
-0.318630625933259
-0.192413602866878
-0.0160356484909016
0.247250144957619
0.468316428714169
0.435415003789331
0.279524907460603
0.352779585588446
0.667949049281856
0.925336878741678
0.998722893407238
0.969608239567027
0.856004322409178
0.654828155285506
0.460523059737719
0.340304411871711
0.312870756029456
0.486798397894809
0.906986225703935
1.31329864713607
1.42566323642192
1.34935864842995
1.29818290195695
1.13028210879804
0.593804898946259
-0.211158000915735
-0.990450927214099
-1.61237484472972
-2.07325400254297
-2.39345452944623
-2.61981223454139
-2.64731545587944
-2.14157200850227
-0.942157430151812
0.620414729563083
1.99977896751476
2.79135479926391
2.83108026958099
2.36327839541738
2.04897274975364
2.33848992528151
2.95035150000771
3.34620508665201
3.41325022560422
3.3013160082196
2.98393059263559
2.33419676955108
1.30728510615949
-0.0875492422370932
-1.6746602004414
-3.06122647764589
-4.04447717759079
-4.84319402624338
-5.6157109834747
-6.11751519780583
-6.16362155638727
-5.99906327799156
-5.85929527223753
-5.58421026180451
-5.00016684566205
-4.28895037016075
-3.6905611291171
-3.17085665663986
-2.56937250142462
-1.83723372450954
-1.08331203159941
-0.499755960974509
-0.116461710223801
0.368455988886989
1.2408878442778
2.33382258207965
3.24664347868206
3.81479176136148
4.08057201333606
4.10760750299742
4.07562467712179
4.19693792214391
4.37652509403731
4.31049406281379
3.91218676806629
3.29283777405713
2.53901915387971
1.87942939214994
1.69305254669158
1.96992791162013
2.18626639452422
1.9742693527252
1.45187274526504
0.818106303588718
0.180817765071867
-0.227351945644624
-0.216319908792235
0.0193112302476557
0.131137266448059
0.0439528234393217
-0.127067603383467
-0.316283485875516
-0.432411455730495
-0.358987657811924
-0.204499754552713
-0.24446013725954
-0.560942704789042
-1.03179593041396
-1.54159876555805
-1.87877759015522
-1.71811746232532
-1.06741260558316
-0.401941948085629
-0.0967866577915361
-0.0891921089653935
-0.200195880066496
-0.368386588819447
-0.550192255874457
-0.742460236677543
-1.00993671241319
-1.26910949192939
-1.28929812490594
-1.03146946200987
-0.655151409836986
-0.190405670969238
0.400598785407207
0.934596196311461
1.17868304442367
1.15087326148389
0.976689857525711
0.735282721637666
0.600025759138915
0.725870444234382
0.923801033141371
0.85703099626161
0.514021000729932
0.110842906168709
-0.314806394071128
-0.870074261958557
-1.56978504876892
-2.38309751311395
-3.27863051799088
-4.06691079284658
-4.47778719446292
-4.47539584099937
-4.19567749378264
-3.6087511923247
-2.628661899694
-1.48399015888543
-0.594165254949534
-0.168103192944561
-0.157159281939611
-0.358482238106669
-0.403429192186763
0.029923226022635
0.889665792375067
1.87763629554017
2.77123696654575
3.36161345847332
3.39586717958513
2.92165149621343
2.3864482382578
2.15591481209954
2.2205420772725
2.41660396707437
2.57618892688237
2.52590359115933
2.27171928034106
2.01029978626712
1.74926348592389
1.28012954624773
0.661112794869984
0.239844971025798
0.118722797635002
0.0808564392883701
0.0174715189191076
-0.00531761953834366
0.0236544447920772
0.111829321442559
0.338430612214279
0.636805214291526
0.774298360194217
0.705475632557261
0.623148330206565
0.582944319371941
0.453725969126699
0.247986707460757
0.091865685229028
-0.0660617616034833
-0.316998129503904
-0.523526984648756
-0.537236785997558
-0.450364977540859
-0.39864352609312
-0.417957391847006
-0.591131066916408
-0.984066077389053
-1.4471596377866
-1.79071133225663
-2.02181078339631
-2.18163792464794
-2.22235121668504
-2.21456019608951
-2.34384970099696
-2.62239817328455
-2.93455039246159
-3.29555050973473
-3.7169464035596
-3.9913783476189
-3.912938753247
-3.46090949671907
-2.59975950237602
-1.26971814873591
0.326759237632003
1.78406493352377
2.8010943171884
3.17264922450166
2.78347150001752
1.96696913460164
1.50569190753442
1.87186318664351
2.73094049420627
3.43935640865608
3.70450925927907
3.58220208751042
3.22670455758253
2.84040769819967
2.54849768268882
2.23084470321314
1.71187577827675
1.02181469918807
0.271045377734387
-0.493491618806927
-1.15244939291488
-1.54277211716031
-1.68146156715807
-1.6611708666428
-1.43448582372322
-1.00788736194434
-0.602818574024238
-0.344783585409602
-0.11858616117105
0.0971675893160204
0.179766635385124
0.229885886730486
0.511819360293735
1.00687602277613
1.44343561122338
1.67194932908341
1.68707653796967
1.50646410602338
1.23570914689578
0.933849848264792
0.374368076860458
-0.633784993443285
-1.75403922567164
-2.41449144390436
-2.48734254963294
-2.30214029489423
-2.16751264193936
-2.18463827740364
-2.29647124319443
-2.25987614873268
-1.80497752988883
-1.01003581892889
-0.301821932872488
-0.0342248959281303
-0.291361272098704
-0.95241240176408
-1.60874075346047
-1.66608963682341
-0.933373968340161
0.114567215771016
0.905425503701959
1.27970976289089
1.32734902193417
1.15098882993072
0.901241352153332
0.716019816832939
0.609819239747596
0.589424414496694
0.705210499329896
0.893356556685502
1.03214388431777
1.1462662426383
1.26271984848077
1.23563824146216
1.04227493689482
0.938482617168254
0.990860137278216
0.880572897059994
0.459155783924016
0.0113004102283364
-0.228299564821614
-0.316382962703989
-0.294177282128916
-0.129779320307771
0.0600773964029207
0.135558941834503
0.157834541065664
0.199151329051362
0.17105976536865
0.0590394661561682
