-1.17924892379959
-2.12158849922744
-2.01031026047509
-1.27338299465393
-0.770722074861683
-0.731359718738991
-0.950807360724988
-1.20426624623926
-1.41288265388377
-1.61244360140214
-1.85593482986961
-2.16769123126735
-2.56557054232528
-3.05368043319361
-3.58249771274933
-4.06084319178723
-4.37461399401452
-4.36964102323485
-3.93755636293547
-3.18789865706262
-2.3842178222103
-1.62234130938468
-0.761402698406026
0.204986257056306
0.949659547022242
1.22658964141978
1.33104068066872
1.86054737266216
3.02582665471165
4.37910529060698
5.25319132029272
5.38046001641542
5.06092199930616
4.79017253677642
4.80071800400835
4.95914422081701
4.98006493086305
4.65565262236718
3.980427252938
3.15735386473189
2.41087078220381
1.73688074226829
0.947056373272907
0.0119387873904187
-0.794941881010555
-1.2081240216598
-1.32524908735842
-1.53542424676576
-2.10225279725137
-2.84007351044092
-3.22118772893803
-2.88674177801524
-2.07287943024162
-1.42331995764311
-1.36548343084672
-1.78464528877669
-2.26618818417384
-2.47374999600529
-2.31406876809396
-1.93061263740857
-1.57073211001462
-1.3554533324793
-1.18611410806121
-0.919294384696458
-0.546568861762286
-0.144010087216545
0.250089215116721
0.64397299228287
1.06095625207954
1.51573615613711
1.95487183429646
2.27689774617359
2.4948731926144
2.77081128834868
3.17064244767009
3.4812049123386
3.39028299659883
2.81624541060924
2.02109390897753
1.41281805868024
1.19024391763108
1.13752833131244
0.839958194676784
0.15054398992848
-0.64696895854043
-1.17762962154066
-1.36172988413826
-1.41646031278517
-1.58769091174457
-1.93071270877817
-2.27815898991563
-2.40194740893468
-2.24223506185494
-1.95415154844299
-1.73427014746826
-1.67438649099393
-1.75775195173311
-1.88806109489287
-1.94105310924702
-1.87901034965926
-1.7820153657144
-1.71455838615486
-1.64384643422896
-1.53319108348861
-1.38395657858151
-1.11527099270585
-0.550802705358963
0.362016738965568
1.40614245349115
2.24018060568478
2.6475016958643
2.65389762178002
2.46788903259254
2.30280818295965
2.24720077401432
2.31977857098683
2.54717272771742
2.86746989158906
3.05512324757939
2.90021930564377
2.40709988145673
1.71894583285544
0.947564586379238
0.173328100920028
-0.498580166996888
-0.984077750501406
-1.26662018765085
-1.38986244769252
-1.48295481219716
-1.736064671448
-2.22162913150729
-2.78414201368113
-3.19448193404377
-3.33071664503139
-3.15717410179201
-2.67548867081366
-1.98367603674945
-1.26903681660364
-0.681261936098417
-0.288330664462531
-0.142338102454369
-0.262581027896555
-0.543166872019935
-0.789851642874067
-0.886058826460055
-0.865925308089763
-0.788468087213401
-0.543683565652892
0.160452451905127
1.48682615500764
3.1054158558059
4.30848515116342
4.61037432438899
4.140049687679
3.41250206697467
2.87304132311582
2.68280905484909
2.73565491253703
2.77734275439501
2.5988179615279
2.17012566763045
1.59185755229511
0.988404458080907
0.47176446549341
0.0938211571257087
-0.22102436160801
-0.602963223233959
-1.07800895084011
-1.57905305697849
-2.08989736121256
-2.6531328503619
-3.26136962633856
-3.84713515912613
-4.34495836324947
-4.70234685050296
-4.89784263385161
-4.98708984977234
-5.04933948961353
-5.04615883028728
-4.76173390858992
-3.89130209722826
-2.25527022112427
-0.0681807721176518
2.02400950603184
3.37577738080928
3.85991915066158
3.82555989907739
3.60167371524357
3.25862321752454
2.80262345824648
2.33789660214716
2.00759567930372
1.91866484335447
2.08592892641233
2.34522278886954
2.40155628260818
2.06808376047114
1.43110728735475
0.767412391354713
0.34007963603007
0.237471841527714
0.346709573545002
0.50248558761705
0.660481324301472
0.849962755278365
0.987058458954741
0.892593697235118
0.517740607016748
0.0116585909807794
-0.45445095579853
-0.812603340370289
-1.05992865126684
-1.21742490486465
-1.33174213299546
-1.44975429066811
-1.58730998832742
-1.71800082578282
-1.76381697154446
-1.64518998220053
-1.40067506859917
-1.19821340137433
-1.15674598453203
-1.2075568838077
-1.18144929702626
-0.971929555513759
-0.589554359636937
-0.147859765774369
0.180484240959378
0.287894222377285
0.227388703679502
0.125230830338267
0.0547136216420814
0.0747294482024011
0.299812485722925
0.81083892100714
1.52409798386323
2.19766201106317
2.55250344366247
2.42578070393633
1.88309194542861
1.17536126969692
0.548385185359603
0.105675501461616
-0.172441649222842
-0.373034509688671
-0.618790079799244
-0.978387902969947
-1.36780824132918
-1.60509170327724
-1.57319331467238
-1.30167117407437
-0.940649200795319
-0.682547561256136
-0.622556076581747
-0.661482700198749
-0.610866017508809
-0.376218339236378
0.018302678114489
0.48558318363183
0.850935032992837
0.896072152057767
0.583120526897479
0.166611682565351
-0.0302311493755399
0.102876384600611
0.444359905264683
0.785482303143858
0.936851149828235
0.807461669369013
0.459903520771835
0.0580334389801005
-0.248204539592307
-0.399592742129709
-0.467817381221514
-0.614350580040791
-0.902777632192347
-1.15335395155389
-1.07961690511425
-0.559813142172452
0.273812247327896
1.13926107133499
1.7390439628223
1.89588447133326
1.65505378973906
1.21601079278813
0.744370528834341
0.30920109254722
-0.0420320986279336
-0.287835771894213
-0.505099495058667
-0.815495444933647
-1.25078364455816
-1.70798411875213
-1.97780099341631
-1.82474108106059
-1.18952338338079
-0.346446680015016
0.277249618984119
0.4762234281234
0.377125659015428
0.20256940806457
0.0411639760332998
-0.14723344216314
-0.381850338397421
-0.553230911372941
-0.49531200537635
-0.203039061998014
0.0995480150282073
0.221394626670721
0.25189101375025
0.399999397892923
0.68285661297424
0.953541216640762
1.1612417098412
1.40457791311989
1.74995780590173
2.10489381978016
2.26820931455808
2.0874250996002
1.60187225437081
1.02010986115947
0.519273984181027
0.10355516280289
-0.299983200528012
-0.663440436090181
-0.843070942140602
-0.73493059694695
-0.426977950223441
-0.175852079379041
-0.167872777707337
-0.30326854760407
-0.33272277723448
-0.213157028643344
-0.163326540934183
-0.350686255322809
-0.720399877450124
-1.17064609966997
-1.69410303988106
-2.26403396774378
-2.71236232246949
-2.80790684335331
-2.44847852421893
-1.80829563529302
-1.29941014456459
-1.27327303988772
-1.68970912869356
-2.14304259273545
-2.224981271679
-1.78399666634457
-0.889039178452127
0.281437441197346
1.48904236670437
2.48811995491209
3.07208042348805
3.09629215827187
2.56470866220182
1.73367666449105
1.03773106350436
0.833110145897394
1.16823766107958
1.73981972178513
2.09017784896745
1.96905271831822
1.53406611611045
1.12287886721525
0.87684489299879
0.714581028137582
0.582586029538832
0.509138767920602
0.444339289167693
0.268718825069491
-0.0204823126444483
-0.276920073350833
-0.371788235121862
-0.32851373642227
-0.311101720722791
-0.483472234905185
-0.828403989368293
-1.13381792687769
-1.22557846393806
-1.16630519220309
-1.14714762407331
-1.23120776839561
-1.28195391288023
-1.12169203293085
-0.722739973207513
-0.264470362738495
0.00651399065255293
0.0110671774320858
-0.0993007350737521
-0.13506216794464
-0.0417812066484142
0.135051292413214
0.335717148728527
0.514628860195614
0.686277246991564
0.911311029356088
1.13339386047503
1.12776026883346
0.763134417321337
0.226341943893643
-0.164618791512176
-0.301568549788651
-0.32280433124606
-0.386616303773285
-0.51670415822397
-0.618880039116823
-0.581474141806835
-0.397779854709354
-0.204567590753253
-0.155988187601781
-0.274799512108136
-0.455782768149725
-0.573012719785058
-0.581690341634129
-0.572288975175121
-0.684781638597642
-0.88976219165919
-0.926620055385377
-0.571818094899007
0.0809428483813804
0.692646061296371
0.978043501484994
0.889258158403495
0.598387038464278
0.364197713569787
0.343438891338976
0.485071398891909
0.635543760996489
0.703801073100899
0.673410176913406
0.556250865019751
0.424420631654559
0.386687988144236
0.452533102738843
0.507008668852318
0.459553633819482
0.332358923933179
0.199023920873439
0.120866601661831
0.128826873056001
0.195760111641908
0.246173592604022
0.231273774950602
0.154220166352916
0.0132836552082697
-0.210632168669049
-0.513503520316129
-0.885513090794103
-1.32665467410941
-1.76508233362137
-2.04902324996837
-2.1351022575395
-2.18416811970902
-2.31451686395656
-2.30603141809996
-1.70774183765011
-0.322396261749879
1.42752858779023
2.70383039153504
2.93765552732319
2.32896059744877
1.59686774050841
1.26633167404464
1.31169658312115
1.43335768524132
1.44580273697343
1.33423519768669
1.12840442180927
0.852907186130817
0.541839086656465
0.247591090717315
0.0308580508259213
-0.100328548780616
-0.240302991512342
-0.493973502873119
-0.8338559756435
-1.12963827482801
-1.31586640389245
-1.463975688947
-1.67924889155964
-1.92437401090348
-1.93005326182025
-1.37723193536797
-0.305098133526085
0.732930825464463
1.11878551771611
0.777544600344662
0.197657347975836
-0.116983221359483
-0.0732241869899218
0.087012723645838
0.144414265007959
0.154526670515669
0.344498136319237
0.74968800451832
1.06522106146361
0.971084147100429
0.504444876466499
-0.0102856276270255
-0.298910494406147
-0.302639554822708
-0.131923570098871
0.0208817136638376
0.00169238004332096
-0.190464578888433
-0.448062994306831
-0.690323189244336
-0.863066806581414
-0.876124876550214
-0.690985272067646
-0.418841373554952
-0.195513578505908
-0.00371620630123527
0.281922377511902
0.708160742619924
1.14171678645916
1.32893690537371
1.10048411830844
0.583990286726382
0.147849331201653
0.0479686603746654
0.187255638805523
0.285532021859198
0.206460778949785
0.0505014517762135
-0.00457497346901659
0.104858793651178
0.270201889710193
0.342114572170765
0.31678200538992
0.310544216308394
0.340740989339652
0.26399419090096
-0.0252339014580078
-0.445110297281495
-0.801598463883504
-0.936993030794566
-0.831912521353153
-0.645720655735743
-0.614788151726047
-0.818816083204468
-1.05644205351176
-0.993149103128188
-0.436021163013803
0.486497666147479
1.34483223661191
1.66449310103698
1.2794579965549
0.431193318748743
-0.496542670441888
-1.24492917477242
-1.69349323234859
-1.82085310496063
-1.74451071368338
-1.64485404466802
-1.56041413742039
-1.34344266873437
-0.843541341440608
-0.0742038094365885
0.776179286232459
1.43712511047019
1.70619704539439
1.57802854155539
1.2215116782733
0.838783027928298
0.579840574536929
0.524018802994445
0.632766070932524
0.756179537711752
0.776660603861244
0.706774102941604
0.607522230391842
0.503700925734407
0.408973221792395
0.318817247697895
0.157989295244228
-0.142837098873583
-0.487182009865852
-0.617657862642087
-0.319844085558499
0.377724128243839
1.16729045907433
1.63982985521895
1.5981660628143
1.21143644163947
0.789729312174311
0.448145523949171
0.0977875029152454
-0.30916640414073
-0.685841388082725
-0.928662104323848
-1.01572957909538
-1.01647306386568
-1.0463171114248
-1.15273189208995
-1.24475038474437
-1.20320703986008
-1.02047985367784
-0.760120240973781
-0.457686389368583
-0.151536898981116
0.0668845140607046
0.12155356272342
0.0201252865466642
-0.174144465800484
-0.366710255917098
-0.440942758943617
-0.348964741197307
-0.183113272337069
-0.0771281755988219
-0.0749553165049099
-0.139146793269674
-0.199350641185172
-0.162122663409333
0.020168702049306
0.2703382214738
0.45413189112504
0.49968340959038
0.40106242052798
0.200697922483884
0.0273205590233379
0.014665768768394
0.103060398335397
0.0622332888332971
-0.201176567505882
-0.476108105809199
-0.453052859884509
-0.0192255980302038
0.647358126993967
1.19201273343792
1.33281254382211
1.08760439315281
0.729112378332812
0.498640379010749
0.424271312163089
0.388451379825692
0.271462811376101
0.056304099871817
-0.127651073178165
-0.121386886257431
0.0375900381725573
0.0953228057969256
-0.133569799902794
-0.543330421175314
-0.863649180115257
-0.931456496505986
-0.798849076598222
-0.64703238437726
-0.607558751154656
-0.613059353543299
-0.456896250776625
-0.049249493105122
0.449296574691797
0.786440963763967
0.836946262605022
0.654473326545177
0.397867192406206
0.219663421591571
0.155989904174873
0.111588006830026
-0.0231863637019337
-0.257121405703046
-0.497385911501261
-0.620453293351333
-0.559113417666865
-0.373063811905317
-0.199478310555965
-0.0847483066100421
0.0569599096707257
0.258894409763649
0.386569162271673
0.27818041464179
-0.0983101876518298
-0.640257751285001
-1.12157270103602
-1.22645173197161
-0.775879427754593
0.0219365609431412
0.677818402008166
0.8393252732231
0.572916896922219
0.260930000093812
0.258311536210147
0.598411092575357
0.989512361487484
1.12534504689841
0.985503981395073
0.784870348800778
0.69127391207651
0.689768307385445
0.676703065667127
0.591904770997786
0.468975582190531
0.380683009733071
0.318232526056322
0.16545204924558
-0.164786461726334
-0.634316592620286
-1.15060056781235
-1.62928691500334
-1.95892437893117
-2.04398983661402
-1.93084275974686
-1.76346528575779
-1.59160371478013
-1.35000683883001
-0.999392950900984
-0.524301620746594
0.147732445559756
1.00406004327885
1.74948153593834
1.97023237781648
1.54726399368455
0.806725945113518
0.229550095003238
0.0368935841862879
0.0672228656631176
0.0559754929924683
-0.0278311136279399
-0.0129176688038243
0.175848445049049
0.430056928280707
0.654480800146502
0.854716889946247
1.00692359755317
1.01854068274195
0.854641537392906
0.578223219558997
0.266816104193882
-0.0225457754922077
-0.248958608001968
-0.39879825820845
-0.430675408204529
-0.23661533956739
0.191141153684069
0.597106745578303
0.666386730100404
0.383675738869495
0.0266052197669742
-0.177140908579275
-0.25188130120252
-0.367973766965463
-0.64701559970013
-1.05183868234684
-1.41650907358969
-1.62493038662793
-1.7671761394465
-2.04743965134733
-2.52299261516602
-2.95192682778881
-2.86427929980259
-1.85309690814831
-0.00158759404667548
1.95778422462154
3.13735383155741
3.24455780031519
2.72523570604911
2.17631225946405
1.79974592646727
1.45022875424363
1.00717876219368
0.552216641740379
0.230742816973073
0.0562851194835398
-0.0763588539455375
-0.203099405973718
-0.225634857655549
-0.0905543206187373
0.0741979788817704
0.0910435252536926
-0.0880587884765276
-0.400119594387941
-0.763955023714603
-1.09359703873629
-1.30429024741494
-1.33660623341536
-1.13185761854524
-0.645769171533478
0.0252288469834984
0.610899363362756
0.878912158173232
0.835778518029551
0.646914323340859
0.437418852359589
0.246196839049228
0.0885497907769811
-0.0212359110108772
-0.068782259663156
-0.045917569564743
-0.0072412811756273
-0.081153344392292
-0.335717181623836
-0.643721924815608
-0.734263871822963
-0.399835907803436
0.302881800949645
1.03513288685861
1.43068957177348
1.40675527700387
1.15810662944485
0.859610918382863
0.507265477338324
0.0644955770001745
-0.378165994836284
-0.641789375610682
-0.594858828468525
-0.274251490863338
0.0732081341370435
0.156388866644681
-0.0755200698746836
-0.409522552383246
-0.666562972571902
-0.869662111861504
-1.07875048660981
-1.24362350259164
-1.28800374629209
-1.19825787562122
-0.990915628917373
-0.710725413257201
-0.466629060083961
-0.345585627162216
-0.273294225830809
-0.0620570022130548
0.371933040612313
0.896795063645547
1.29177017505431
1.45391622934918
1.44992727935353
1.3730400726764
1.22751461876772
1.0195037988283
0.861311806987657
0.836927092808745
0.832794920460218
0.6654298114371
0.326073508451399
-0.0431987696585238
-0.365433246355607
-0.706426759436497
-1.16656101025793
-1.72783757371919
-2.15817129350423
-2.12979420549023
-1.58281351491736
-0.914340222424419
-0.60992684830998
-0.714998286720304
-0.843818965931984
-0.654078885961575
-0.138021734639969
0.484797882535383
0.977144607147868
1.20389666113191
1.16421888864969
0.938523560085619
0.61568575806447
0.28510187027741
0.036505896386133
-0.083409297041352
-0.070636366891883
0.0790134002481104
0.327430954418051
0.53277875412373
0.566522854778692
0.486082224619807
0.452222552020274
0.496702039085417
0.525040605998556
0.513426681940487
0.535425414520301
0.61698411174812
0.699384038075274
0.725555710666936
0.692052804594539
0.652955004341171
0.678696402555155
0.740088015815719
0.665197469728862
0.32148788377418
-0.172809460032155
-0.517270378329384
-0.519121967111702
-0.274710083296719
-0.0805336408353105
-0.184220075795435
-0.590409813069852
-1.0882618627424
-1.45294135534025
-1.57900727380541
-1.46528110030916
-1.21601935213525
-1.04819475196973
-1.10817386432866
-1.24500976842662
-1.12406657169101
-0.59949041922311
0.127341344637769
0.698648925361279
0.867304481502996
0.639044878630536
0.244793044110894
-0.0659910721283144
-0.243823706082407
-0.401733414640792
-0.585284943729758
-0.698837546739173
-0.644397516585548
-0.399081829976892
0.0239838340050846
0.546983932010398
0.972528432193421
1.08961809746772
0.851954176323936
0.394074019479417
-0.110230342220668
-0.549929929567807
-0.826684680005542
-0.754497398766194
-0.141771535295919
0.918420150448895
1.93396303932304
2.37496424051578
2.14315441214731
1.56188800936926
0.972082181437944
0.502943051171597
0.159017022028297
-0.087253560274989
-0.286251231095547
-0.452955291112508
-0.53144283633263
-0.486238285450368
-0.375978411241849
-0.30396510136586
-0.354440983240653
-0.555696825976445
-0.824203173748119
-0.984323649264352
-0.921627092257659
-0.673892567806084
-0.330974808288439
0.0660283184396181
0.475502551730644
0.806739151116386
0.989900900843443
1.0327741895877
0.981560912109397
0.880070092692077
0.751605788246792
0.564951844978652
0.260898880536071
-0.146979010449792
-0.561182227804558
-0.902983070876766
-1.15508382594087
-1.32733436997967
-1.45025208027038
-1.52662846560216
-1.4100752309708
-0.863985197599054
0.108542631251351
1.08031078217646
1.50697897207108
1.21488120994024
0.517217267136081
-0.118383097601948
-0.467496944709446
-0.656382435742857
-0.933583930963919
-1.35936107229699
-1.72137722949205
-1.71144328512941
-1.16124064854572
-0.199408044533147
0.754978323676272
1.26812131193913
1.25956049236854
1.01988290128029
0.841437025100542
0.772601737207927
0.748577356881882
0.759025510986631
0.802353999013586
0.826985547688604
0.801591266033841
0.754082530826266
0.716783505501491
0.702026712844634
0.706428811815077
0.691281485400594
0.629839754615514
0.592470393107412
0.665265839826422
0.777407511569283
0.742486834272083
0.46487423605418
-0.00497526645188898
-0.57311081623268
-1.15340242099229
-1.67474366752035
-2.12498391173935
-2.53413975013926
-2.8627814038022
-2.96357141837657
-2.68308972025318
-1.98767463292636
-1.04732597423541
-0.211869754437372
0.249179940117003
0.45350901715343
0.778328670519799
1.34642885439189
1.82640051915257
1.823139672623
1.2957865258136
0.535556781412388
-0.11130256255078
-0.453313762756916
-0.514701979102256
-0.448042637499879
-0.36418546358126
-0.25952194709456
-0.0876831951978067
0.183410290109088
0.568820599030428
1.00877481448221
1.33654110417871
1.42445546420917
1.33031801095748
1.19889960830565
1.08497726880874
0.962915012157328
0.823427679297902
0.680678050736967
0.554831496968887
0.48664707300707
0.507494169700588
0.583573777463405
0.626610871466413
0.549286298643759
0.317740404367377
0.00618159138374227
-0.227268746920302
-0.319364626152059
-0.434353655182108
-0.792049348740314
-1.36120866335631
-1.83230336843814
-1.91144594528683
-1.60188772597227
-1.22591310577648
-1.1607451440038
-1.45875513896875
-1.74290207250742
-1.59008841565821
-0.992729574277657
-0.3400601942871
-0.00306419264341422
-0.0522202278822779
-0.320466964341818
-0.604255940242655
-0.78789582097369
-0.825762880437467
-0.641676645580253
-0.135025489872899
0.628591344442772
1.32490579945137
1.6274081146645
1.52477557691487
1.27201636426033
1.08593472000865
0.989080061250744
0.893299426132188
0.754414424741765
0.655693562332678
0.72188716103024
0.926306595758283
1.07226384976442
1.0237053035207
0.844831153035979
0.652535805106087
0.46452209918025
0.268771026902903
0.118602767545791
0.0740850389660061
0.115655095044745
0.138941100139053
-0.00349271413178639
-0.38892709774378
-0.881177929689281
-1.19270067444247
-1.17066703058597
-0.941231181090219
-0.732673316498242
-0.652043515978927
-0.653851413661197
-0.63253863557633
-0.523024690262349
-0.357072285632577
-0.217493143734733
-0.137373538659173
-0.0976586814774938
-0.114355287729344
-0.241500793664327
-0.477573057194337
-0.731893924601754
-0.880028647216171
-0.834807646822563
-0.626977080881864
-0.412320020661426
-0.276815167378516
-0.0566831085227633
0.468372627789429
1.2158774414523
1.82524866115222
2.03434327791714
1.8735054851988
1.52571876696932
1.15626816810312
0.859115848998324
0.64116300170764
0.443473917463532
0.209732746598588
-0.088327373152988
-0.460246114295399
-0.841623937213816
-1.06334703157397
-0.992276819150138
-0.691628896669667
-0.362980825704538
-0.156146028321209
-0.0736522364219678
-0.00910641962160899
0.133813775897812
0.315252306973111
0.390254102490958
0.314578041885666
0.234915717873278
0.303080309578976
0.486619575079584
0.630628440465557
0.626273843634222
0.467035371904472
0.213816406155202
-0.0613971718003451
-0.351243523411441
-0.717185099961039
-1.16261699352446
-1.56624486365044
-1.81978429846079
-1.96107854772752
-2.10288452456248
-2.28964301432385
-2.44303180759631
-2.38507885982132
-1.94960002606258
-1.16724929755109
-0.327670429193583
0.198306596921549
0.216958203728126
-0.119934580907664
-0.30756304996125
0.225842895664848
1.58836975906587
3.17499749106479
4.11321706902052
3.97828558356999
3.03071322446155
1.89396920013821
1.11544949793535
0.878755448684663
0.961264591923598
1.00879051748124
0.890331408124636
0.725563031755079
0.629734782701252
0.580184857306856
0.504640836088603
0.374704292231272
0.22496623155409
0.144846643068535
0.210546715950812
0.389250475767729
0.564352829960958
0.658274235506859
0.664195611711676
0.587706992219711
0.440377470738307
0.249946194680966
0.0172235012603735
-0.270289755072231
-0.562955159210826
-0.79713419839063
-1.02110814052067
-1.35977842530783
-1.87974628552881
-2.57118752133721
-3.35603214494681
-4.00709453748397
-4.21810964406167
-3.93588317369528
-3.5311263816205
-3.4769972045291
-3.86900113494408
-4.28089123700973
-4.00765033342797
-2.5054972698803
0.151513172101454
3.12801042780439
5.27561900305128
5.88808482680866
5.10865930851709
3.69623873471037
2.43324671968584
1.6711430365563
1.31967383660661
1.15757011449523
1.06306053374832
0.992136108986391
0.908551082784937
0.805138485136412
0.697814206028182
0.562168543993548
0.362278345026622
0.147458004451711
0.0236666071208182
0.0317422380122091
0.12646274230827
0.232293124991141
0.261640894065118
0.164688322942605
0.0155909323380455
-0.0478234917016166
0.00340493163390718
0.0736179637848665
0.0856419477095029
0.0417355450961046
-0.0219835191584217
-0.0582234907337322
-0.0329581981157062
0.0229520427398374
0.0515108945224351
0.06921437335792
0.133536009812067
0.2082799563013
0.171743506144582
-0.0503198091690505
-0.445242281337172
-0.939445017741829
-1.36333270318437
-1.4889123712156
-1.23247467961273
-0.768362811601744
-0.370128818351799
-0.180897585439053
-0.151126449615442
-0.141897051749158
-0.0788398633589986
-0.0191983332892582
-0.0434259410657288
-0.110631490009038
-0.110841918610287
-0.0390084048119748
0.000528657092569545
-0.0433150739589739
-0.107448152891854
-0.100013021721654
0.0286267160417896
0.241107420536538
0.386320231978222
0.322911233309756
0.108497407664205
-0.0589745522704989
-0.0939224250516341
-0.078996701729501
-0.0970784267796697
-0.158435312456996
-0.261254875882146
-0.384690846212998
-0.445810083171585
-0.368048117359465
-0.175065591873487
0.0391307612360918
0.202865979705524
0.307501298930618
0.396158402426078
0.510971305622891
0.624393556208335
0.665145197510354
0.626967511103463
0.567715129745036
0.49826488457886
0.384101199919647
0.245219375514915
0.137271005342773
0.0632850070422602
0.00266513793440846
-0.0348581393255481
-0.0718778711949977
-0.198155118229313
-0.463186500845772
-0.800662013952947
-1.08970882366555
-1.21523440025765
-1.0954940710074
-0.770481196983292
-0.422169841215579
-0.181632404698908
0.0140312055095731
0.251539444868552
0.439595102860939
0.422037065716085
0.207003485604144
-0.0328376855771271
-0.138340264356075
-0.0905682361645995
0.00300329738799227
0.0441240670394853
0.0744221342300116
0.215458862654714
0.474722021348074
0.71062432819392
0.811169988595032
0.805286678677676
0.777252365281915
0.762399297312599
0.734302199822652
0.63177618372488
0.433739155045331
0.251156799943521
0.256857816305902
0.473236531031248
0.728515963860158
0.858911525368389
0.855947114323375
0.805321662251854
0.781828749711815
0.80470850486767
0.807198278549462
0.650384247933704
0.235902545298493
-0.381747891026386
-1.0127130776461
-1.46230607905231
-1.67806219087414
-1.81041474326446
-2.08556941272026
-2.5498049013511
-2.95516348251825
-2.93281248031017
-2.28919575882293
-1.20817647775278
-0.219134579183355
0.171349171101663
-0.0329907083687973
-0.278173507353851
-0.0177272791146983
0.766220385695977
1.63618854977657
2.14015567334092
2.11413374293506
1.70204184361447
1.18688803574184
0.751158872877587
0.373197238861241
-0.0331100636599346
-0.468053957567119
-0.89745763832766
-1.32437809403061
-1.70304769685638
-1.88269231534185
-1.71680302689118
-1.15362774362308
-0.223905782779999
0.934113572338568
2.04213425038408
2.79419038080576
3.01643264063136
2.69844958014299
1.96977609369091
1.10317515056294
0.410697297188539
0.0282972110786636
-0.13968469557689
-0.235536410828062
-0.294871438142918
-0.281215862910377
-0.178918434215442
-0.0477643471667993
-0.0224844653108062
-0.201675301357738
-0.520016297565793
-0.819730448386124
-1.04239873009688
-1.24945447466148
-1.48822062786645
-1.74531148648181
-1.98912901431273
-2.16608084769742
-2.19463096620034
-2.01302652938602
-1.58310544993193
-0.857699350539427
0.132028751968019
1.14031684773771
1.79936218623213
1.91584838391389
1.61872856891606
1.21858554001422
0.981896382615986
0.99956405304956
1.18279096546474
1.37383738462894
1.47680634059693
1.48890376406227
1.45723831319125
1.43330392548229
1.40587168463534
1.25986854600467
0.889284478598935
0.365720792455147
-0.10304185908305
-0.384506120919203
-0.489610884887038
-0.461733058959317
-0.339932690594765
-0.215658811384577
-0.187700630089356
-0.263507330884924
-0.389260193985575
-0.535279921005154
-0.683777950554273
-0.780369346948269
-0.747578187633141
-0.540435387894603
-0.211118856584618
0.0846214140348962
0.220462979536336
0.236341763889674
0.253692393964708
0.288500990643388
0.268890020268796
0.18946545448168
0.101478637636775
-0.0048710148808829
-0.160853646985252
-0.314568532465378
-0.411280597079016
-0.532902054825938
-0.83946256104959
-1.39774667961943
-2.10504561212872
-2.73708801239019
-3.11729724060298
-3.33568943932371
-3.70459527657822
-4.32063163178763
-4.7076202643372
-4.06760201783861
-1.96537899490754
1.20556367925711
4.36923033704365
6.39894011249801
6.77400656018809
5.77652638924094
4.13280799481382
2.51456859886784
1.30360488117821
0.580172626655128
0.180550275066019
-0.131678457980422
-0.44579242243415
-0.688782223714491
-0.795132183000737
-0.781266072351098
-0.694045881524208
-0.600247529669679
-0.575586168113732
-0.606326799631523
-0.562763655658964
-0.34968343332154
-0.0260396907344935
0.273480971133748
0.478676235420979
0.619439032989955
0.758912588366474
0.883962827278652
0.867007778846061
0.622654879289536
0.294804671307112
0.14244831975934
0.231030704189473
0.392667045409495
0.487946289621582
0.544108112967557
0.637129557621163
0.778139932569004
0.914543239903906
0.947315264994589
0.765889163418423
0.336328079146155
-0.249277291753327
-0.816800985791404
-1.18270151931752
-1.2461198257101
-1.09898475764059
-0.991756384342651
-1.08918255224579
-1.3025006140299
-1.42537742569584
-1.35573351635739
-1.13125491715129
-0.84594962397678
-0.591853392820411
-0.418505785533484
-0.316320593722236
-0.254135144332775
-0.200462628746057
-0.101061329113267
0.0875725853365906
0.324088938469778
0.524648985476055
0.688236017806852
0.88516296080696
1.11184570488409
1.2469332844499
1.16128747376489
0.826274093282203
0.359409719085409
0.00257516174628181
-0.0297429850074462
0.261833115401403
0.668894553175279
0.964173432221231
1.04814247275228
0.97608028148553
0.889964947907955
0.849683589072113
0.724555439007535
0.364312606911689
-0.140677826030941
-0.522466256164696
-0.650693374929852
-0.636349644598134
-0.638620076218873
-0.714115519990098
-0.838734252012661
-0.955056722596152
-1.0156474522704
-1.03811080538788
-1.06106975150518
-1.05287482147021
-0.989501994785633
-0.988841664601059
-1.17951769297917
-1.4379068293185
-1.4416231556797
-1.03480638341404
-0.439295419163238
-0.068851222616003
-0.173275682433838
-0.667827468914806
-1.28690030678637
-1.85866870977013
-2.33469090467429
-2.53567705773272
-2.06007392219052
-0.642871312088025
1.43316079078955
3.41406607308884
4.575667841368
4.67276190007447
4.02088597685152
3.19253825419908
2.57493636367244
2.191985199124
1.90298852689884
1.62253155050887
1.30042549007831
0.861588409237556
0.296535485773543
-0.273256428341074
-0.708095813995478
-0.979683556134179
-1.15812519571957
-1.3180491259782
-1.46031290015629
-1.50603687623788
-1.40938984683185
-1.26623177077376
-1.21520452806257
-1.25149087993797
-1.25643623756609
-1.17432733206443
-1.04405477052575
-0.915708632977869
-0.834618080529685
-0.825408856769907
-0.813535908038809
-0.65790297117174
-0.317765884275669
0.104575540003427
0.501303842325103
0.831787588469263
1.07280561216513
1.22095245459016
1.32451532702624
1.40696445935411
1.40607644143681
1.27798046402155
1.09493282871372
0.977085984808014
0.997125784983214
1.16454775018099
1.41107685437941
1.59221123885085
1.58586899929135
1.39157824069123
1.10675947325052
0.839205113662963
0.635873033867072
0.433712466869108
0.106627601076209
-0.358704983679693
-0.781917385758274
-0.979472254382273
-0.974283287913913
-0.922112449450398
-0.916795382245922
-0.963024972889217
-1.04350605576104
-1.12223113399816
-1.15184470762933
-1.11788147756407
-1.03089344418242
-0.916947625805117
-0.878465441267129
-1.07546827894215
-1.54894357823688
-2.12902382672466
-2.5948065096845
-2.86949308707134
-3.00611909453939
-3.03318841158736
-2.86827821034975
-2.39023165925135
-1.59714501134632
-0.648659515298103
0.309673725169997
1.28184519228661
2.2470293325965
2.95210151121897
3.09401350809391
2.67741789863523
2.04421774214172
1.6071865386223
1.62002544348702
2.03067524843647
2.43951133687464
2.37912299226819
1.77495477643088
1.014471670728
0.507057417058532
0.321018280705444
0.272570584475731
0.186081106886301
0.0134481383573821
-0.173921593577857
-0.27751818378435
-0.306040715493238
-0.373249947959381
-0.535039597733005
-0.715285515358143
-0.814251984800698
-0.812580096623025
-0.771528504807857
-0.779813664246501
-0.857052756892208
-0.879903579362103
-0.679460268002663
-0.238008538705568
0.286145534651784
0.729314505698483
1.03357541370269
1.20877307046267
1.27991475268299
1.25998051848219
1.12615526936816
0.879913282574949
0.643336656002287
0.571022505225046
0.642354026122882
0.67280987752737
0.536910194972301
0.254476381662814
-0.116221336766572
-0.531183471942266
-0.915668569366371
-1.17219738063121
-1.2501240059314
-1.18726097883181
-1.10285195282807
-1.12077484016067
-1.22589304404601
-1.22251783518583
-0.927269078594086
-0.394607189993381
0.104995673281472
0.297384130141698
0.0759273695465321
-0.447039124088499
-1.00756369557348
-1.35925660130674
-1.39912848103869
-1.14362799748315
-0.673419415204906
-0.130329094180736
0.335131562570333
0.651278599922434
0.799668794196195
0.756414118948438
0.580306946962771
0.48354129516797
0.637253382953704
0.944877438527767
1.15974613932095
1.17050985597111
1.03504865013533
0.821193158890677
0.556500235701919
0.264890495368532
-0.0407368825592569
-0.336766019315815
-0.538805999672515
-0.56964947555803
-0.474468942597015
-0.377742551086296
-0.346283700662193
-0.355291152965346
-0.32798242498554
-0.147545724054633
0.285592679610288
0.914379428085176
1.47108365011616
1.61930132253115
1.18433445596777
0.31734050116003
-0.537796916788985
-0.953029899754787
-0.878942319359271
-0.641494182835341
-0.56779431504168
-0.711835380022121
-0.918857604626033
-1.01072383020417
-0.905799585362583
-0.66899212709838
-0.450468908097704
-0.331075265102369
-0.261378178709403
-0.160384385480144
-0.00354674588309038
0.188564716110752
0.372815573745159
0.498543653372416
0.552142847831361
0.55366615897333
0.488619935260065
0.335593579510024
0.185598674923948
0.210075733783486
0.4717905368076
0.859363078071496
1.20106659222002
1.36416675839281
1.29976448582127
1.07844804030751
0.826139990362431
0.578034000426758
0.274560454574566
-0.0834527317253209
-0.384862681734151
-0.534710635471584
-0.547581382720567
-0.526761273350381
-0.616342826400053
-0.913261035070679
-1.34618268599744
-1.69434082149162
-1.75852663428133
-1.45790498904139
-0.832434393971465
-0.100205200884146
0.374920432282773
0.376656434354614
0.0658772316254912
-0.20628526370131
-0.238701438549522
-0.0514851263287692
0.243261768894253
0.519581456839597
0.686850038793026
0.765607149990664
0.861713843046868
1.02687117117941
1.20260479888524
1.30489451433597
1.30021278304587
1.20019026719968
1.02157899800714
0.75982140833959
0.428318911264013
0.120298199662403
-0.0804674481060057
-0.287879962849507
-0.749159592865142
-1.5006140916922
-2.23214944168988
-2.5937039781247
-2.54173656466553
-2.34857144057766
-2.36081318156452
-2.69471976385453
-3.00135135210131
-2.60422582136787
-1.12753477511397
0.98486221119908
2.7525353586504
3.47162150918594
3.16512448771372
2.35201518838923
1.55909749475165
1.02537536281813
0.722358447140765
0.549389485639482
0.44842926981991
0.369750310611336
0.270738159102603
0.189891037193503
0.21032436852479
0.321803622389963
0.409496909430133
0.372246280181639
0.180437679194062
-0.114561680780796
-0.344141521069375
-0.314225130955908
-0.0514730337320757
0.160838926060724
0.105041856141405
-0.126600943856425
-0.290749594786921
-0.274622000886724
-0.14696305170358
-0.0267011536645087
0.0254463519500869
0.00788387165947312
-0.0980839529839437
-0.359404330947365
-0.787664624228448
-1.22981821686398
-1.4386416800214
-1.25420216007081
-0.705255886074175
-0.00851881003464821
0.5187634517109
0.694564445304141
0.674507537615289
0.764592761458384
1.0058484919272
1.13861603070325
0.988411134400575
0.662488500276764
0.350814851537872
0.146551955662914
0.0788950152597139
0.146010948487938
0.285164747773972
0.398907599440788
0.410595086146816
0.285472936423257
0.0704382255964008
-0.0866829130277781
-0.0634797434931745
0.0795680110314742
0.156618340260251
0.0653728731762347
-0.126989397908164
-0.271031790820297
-0.265907062902645
-0.162880675273899
-0.15243532509407
-0.375253314990717
-0.75912938890219
-1.10643308555208
-1.29166323165577
-1.32112634562181
-1.27720522825123
-1.23749635954415
-1.15781245852644
-0.847629395137825
-0.200242177101076
0.568272783308348
1.0666369392546
1.10238976505557
0.772083649379377
0.238178872029215
-0.408078379816898
-1.08353745332239
-1.64310871974364
-1.87887100979732
-1.59435498359053
-0.785140061991012
0.244644251622899
1.05485828671822
1.38106748232281
1.25404036585182
0.901444328525008
0.59927923948011
0.519213750433768
0.62322814644806
0.744760710217767
0.791325770961686
0.800239053996009
0.813197235593634
0.805894026672892
0.743121945626859
0.621724388984281
0.475953700391298
0.38450841723788
0.414269163278092
0.526933776927763
0.606973070429948
0.581526741153268
0.453713591594626
0.265919344279991
0.101880078479451
0.0591618064028298
0.143596394627398
0.241838075730852
0.238559086156866
0.105817960161628
-0.12583009862252
-0.407299269869506
-0.685716579583392
-0.939308032486278
-1.1636874817883
-1.29335676654769
-1.23844157834915
-1.04600272773559
-0.904821276004244
-0.941371001342939
-1.10173040368427
-1.22414761371164
-1.1361017016836
-0.744841994555622
-0.15161827243682
0.376691571792743
0.635566701633893
0.6305370220884
0.478537033853672
0.280075845974484
0.126857440271764
0.109591748707359
0.247932324919439
0.468029123730555
0.66486052817394
0.761328842955086
0.750808817575692
0.710977830838254
0.721309836943845
0.765860570431863
0.772970835615751
0.709779646171709
0.580488613386858
0.403499716576251
0.237259661427088
0.135313533436052
0.0476808775850665
-0.12265863314071
-0.354340298960229
-0.524773197694347
-0.601800411963922
-0.694640753150377
-0.901176332225948
-1.18999812402634
-1.40531420607453
-1.32641821284996
-0.819439451271164
-0.0292709294782152
0.663246584497165
0.954674550619953
0.837622189196731
0.520494430565326
0.239188428326593
0.133709599869077
0.188964645247181
0.268272542712843
0.24638917054499
0.107741730862498
-0.0775859852610887
-0.227417511275743
-0.30907430793062
-0.377505255254538
-0.522894187385357
-0.737465843147734
-0.893392248218703
-0.897872207002639
-0.798431218778761
-0.708367270005835
-0.707904511090117
-0.795611470682183
-0.813809414616804
-0.466978640708205
0.405129359754482
1.55237599737628
2.44213383148023
2.70761523845192
2.42965746455844
1.99029590672628
1.69863169573367
1.56128000029203
1.38624544548947
1.06448177435322
0.689171066303354
0.405775079192076
0.244436351158749
0.128887595152142
-0.0438689065556004
-0.34651811805269
-0.749205551590452
-1.12816994602011
-1.44149232741262
-1.82462133783152
-2.40301519414162
-3.0902356290857
-3.64825878246209
-3.84535253406612
-3.51600920188426
-2.61798593126635
-1.31603245461289
0.0662932769089827
1.20728445064666
1.88085491395243
1.99881070172219
1.6778650820694
1.18500704663711
0.71328582615507
0.290935927125415
-0.038475641535653
-0.0941963239712768
0.284087162819094
1.03181644914371
1.85186520475639
2.37755350660905
2.39510250590978
1.98248924458039
1.4162475824277
0.935176692220543
0.627085901502988
0.476689915189344
0.404201889433315
0.297390236513146
0.128344097170983
-0.000551016367065395
-0.0280859824897081
-0.0717436093507749
-0.276797317153965
-0.609577321860051
-0.903103309606562
-1.03269342788393
-0.988477811956807
-0.859273406745159
-0.776797442981599
-0.809377715138241
-0.907864238286628
-0.981986374956334
-0.981473947434157
-0.892958857505026
-0.743265281947916
-0.620774299090863
-0.606126875801439
-0.669719651157782
-0.705650888229426
-0.650405386762443
-0.505132535940958
-0.283382590931144
-0.00257338803554168
0.311951604245231
0.639307128871414
0.92211541057111
1.03629467891109
0.902058381155779
0.61170722987452
0.378422067507928
0.392098482688072
0.728338169552499
1.26964490301129
1.68586352686321
1.65570194943945
1.18932187228774
0.629737744648549
0.297649028835839
0.224571785868054
0.22611985645493
0.118521856237513
-0.145066507882038
-0.464772482284896
-0.705749271722558
-0.829187555055319
-0.881017536424405
-0.896649738377714
-0.898370398613381
-0.920607022358885
-0.940722366689657
-0.863727433125662
-0.666329088950999
-0.471395066607949
-0.404126358106354
-0.450238131422304
-0.500501521886279
-0.465320241849401
-0.336658047284668
-0.209230520692319
-0.219791220715707
-0.389151835721134
-0.563261682410705
-0.577094058552097
-0.422768703845143
-0.217351637854384
-0.0812845609310177
-0.0586214296553862
-0.0609481063258682
0.108648236209765
0.58930341631398
1.31909421435057
2.07326675651647
2.58481561370648
2.64746368606446
2.24501268184122
1.61963262673345
1.09744001206457
0.804812435654475
0.62154718338151
0.387438696961963
0.0618023178750833
-0.289918868078665
-0.57587964506314
-0.755082012622353
-0.863766369397772
-0.936006985183776
-0.934638518389532
-0.831621881394857
-0.696035279861068
-0.617906272058025
-0.60562107813275
-0.613090109814053
-0.593007402154224
-0.499037631442869
-0.325333841629127
-0.153059781307093
-0.0736830191903655
-0.0728826066912952
-0.0510323706551178
0.0801706067340971
0.354023846249721
0.703196452195866
0.920923484255169
0.80143182166417
0.36781864020188
-0.15344045929493
-0.583561476709216
-0.908537421725338
-1.21856977552911
-1.6606501160121
-2.31647630048364
-2.93103741361605
-2.88709950772811
-1.73097945881287
0.224876283115636
1.97116985121234
2.57466687011328
1.91906021311203
0.730283832236311
-0.0889614080880351
-0.149061923632025
0.331318203682919
0.932377248958508
1.35887536092573
1.46172632306299
1.22794695474263
0.821088049117322
0.460418800373144
0.20931348496554
-0.0224102188980724
-0.292625079246699
-0.547758541967997
-0.713017788846228
-0.79599335622092
-0.895726112391753
-1.08700217410266
-1.2571129151885
-1.12420436826818
-0.522418915274531
0.360820276885591
1.1176434440876
1.46568787595663
1.4280090234341
1.25041172024162
1.19155204159116
1.32426455641946
1.50577297058735
1.56495984121146
1.47690614472034
1.33001779681263
1.21289252612336
1.16028237286026
1.10661816519256
0.895640016469792
0.463977253291827
-0.0101892525876418
-0.29658916422947
-0.429285286065578
-0.68086597610992
-1.24242502924281
-2.05587965768163
-2.90891570470535
-3.56319272824089
-3.84270954057661
-3.72589600752783
-3.35459909108588
-2.90717864551253
-2.43926559696476
-1.81437677493944
-0.842213386873076
0.385916995534308
1.35651112356626
1.54975219741592
1.01129323458119
0.325814769386624
0.0215795627288758
0.160932944957441
0.472565209708755
0.682717839222836
0.706834902678382
0.662006714689148
0.718135845205
0.907736395050647
1.13805442971396
1.36355438451829
1.60116410167643
1.79849435970597
1.86329781421954
1.8164189044455
1.77160899202176
1.78162784343705
1.79670255792341
1.72861053290754
1.50556542536257
1.13542572704955
0.73895924000341
0.44810457021687
0.278572297534232
0.162133911847451
0.0451567003485157
-0.11007786541273
-0.326430279421767
-0.55171595117117
-0.713425992884661
-0.864347613966537
-1.12276199859057
-1.45984614008662
-1.72168818747735
-1.86419077122639
-1.99798843093846
-2.19541475447965
-2.37963701891854
-2.4103640084163
-2.21947373396754
-1.88163514438247
-1.56491726863716
-1.37567445330671
-1.27225325616113
-1.15801925692902
-0.971207940677083
-0.632017101601824
-0.043564407985253
0.746572616448418
1.50034038536194
1.99489305267318
2.18947486652026
2.1721754473478
2.05659612620812
1.93062277147555
1.80417897315748
1.61566556830422
1.33814124301095
1.02834535910232
0.752573916251549
0.546151304287891
0.446515160723638
0.463171580125553
0.515772581246776
0.496883999799987
0.379180006111105
0.185861739668241
-0.0842571219637749
-0.417287352323622
-0.73728448340683
-0.965785989897056
-1.07377346794841
-1.07492541885973
-1.05031006021634
-1.13955860590473
-1.39393082622286
-1.66264915691881
-1.70468358514191
-1.39356009174642
-0.80517661221799
-0.180997286152745
0.196387483226253
0.200439383606885
-0.029533467583194
-0.220089469420992
-0.18585192712663
0.100963462475745
0.561480065694572
1.0550294977815
1.45640994995954
1.74779838506065
1.97638194187336
2.13786724862104
2.1928733891758
2.15269991455154
2.04791611487704
1.86410911814433
1.58673946850972
1.25063781311127
0.899609311282757
0.560876218578777
0.269417688564156
0.0418627355696247
-0.166946619644603
-0.413497314981284
-0.70341770126331
-1.03202459583936
-1.41415641941232
-1.81641356366089
-2.14543174146249
-2.3510001593314
-2.47149972708103
-2.58066443220012
-2.74960007134661
-2.99466006602743
-3.19334095802331
-3.15089683937306
-2.81960323040243
-2.35363105622376
-1.91130183284557
-1.513713374626
-1.11055696697215
-0.664019406324481
-0.161451264268765
0.34605165676401
0.730971895383301
0.915377972627201
0.983966518536369
1.09623341345894
1.33349645800386
1.68359508616253
2.10618641259392
2.5603882013296
3.00334465286252
3.37513961580594
3.58718564010427
3.57359925986821
3.35391919494863
2.98849917586994
2.50677735732115
1.95937238565446
1.47788272356249
1.16507292533068
0.971020841042547
0.779524523812812
0.55580305861895
0.317628184233862
0.0412011035137758
-0.319190075767674
-0.786624844098203
-1.35748372189921
-1.94582191682474
-2.36297202402525
-2.48313016070116
-2.39281931014461
-2.27586299516564
-2.2206047993804
-2.20850599379086
-2.18019369371958
-2.04627812088046
-1.74562994546712
-1.34779038886491
-1.00626226601801
-0.784959390634304
-0.60277179479283
-0.339091531465275
0.0642263460958888
0.560847811360621
1.01071854518793
1.29189476982028
1.41991667247265
1.4920191402154
1.55112193126504
1.59137977714088
1.62255856143552
1.62885976480846
1.54775121446058
1.36839856012254
1.15929888881901
0.955172181287319
0.727890469550134
0.493901017333795
0.326317426480192
0.235412521504557
0.14233860671455
-0.0228573728004131
-0.280656596732712
-0.629109392278558
-1.03065151579028
-1.40777501536977
-1.70205246458432
-1.90330171084795
-2.02766051335259
-2.11587029837439
-2.2057974703865
-2.25940551869253
-2.19660299173996
-2.03668623195098
-1.9029686399842
-1.85807713278729
-1.82922769392673
-1.69215022429382
-1.33358641458038
-0.677877520839541
0.216503972096471
1.12013423402745
1.80642786463963
2.22586871195636
2.44540374630801
2.5154621641989
2.4705111333567
2.35369547882559
2.17195477030709
1.89983636335401
1.54616752027858
1.16332000993351
0.819446277227045
0.599832877469545
0.566088944432268
0.671028675337178
0.784788147372346
0.832821184034893
0.840703544323659
0.842402255849294
0.822833065709963
0.743130971857377
0.557929681019451
0.24246340750507
-0.142609844959236
-0.470984274813968
-0.677916775939728
-0.81148625666604
-0.956553061846803
-1.16952087594515
-1.45040728070627
-1.7144225097757
-1.84268647627751
-1.80092273129444
-1.64725724706436
-1.42701157596722
-1.14944200917586
-0.848397858539866
-0.563139676985246
-0.275004927651589
0.0563795949254011
0.423055925038337
0.782075352972102
1.07565068139072
1.21423675581239
1.14020476365891
0.930254943258115
0.73426828295533
0.608747941094836
0.487259292462052
0.280550507530505
-0.045025086644669
-0.412901254995493
-0.630374603824249
-0.542874749569054
-0.215973833574414
0.133127180247132
0.367116821133786
0.484831607262659
0.502803563032966
0.431464021578804
0.344598579066397
0.345755307814573
0.475882468278407
0.708756507232901
0.974528296736049
1.16191213428156
1.19624774279287
1.12842425336051
1.05537865712658
0.979299069051307
0.83134015292677
0.579248504163362
0.236474335139826
-0.17009402169394
-0.586829871996517
-0.950239814012649
-1.24798644065725
-1.52018224627882
-1.81298652627083
-2.17353678555012
-2.64674744187526
-3.2239209997044
-3.82066633520563
-4.30493311737054
-4.51936354426354
-4.37778430874527
-4.03606614814874
-3.80322164512862
-3.70018951725979
-3.26684619473638
-2.04472148871127
-0.169121138704017
1.69301636766217
2.92546077905248
3.37837525152245
3.32404247265654
3.15736277349741
3.12238298159409
3.24205426641293
3.45265553068634
3.72933487704006
4.05216498597138
4.35468761354603
4.58375660629119
4.73562292780286
4.79304986601452
4.71435892880017
4.49969747865166
4.18466512098741
3.78084159408854
3.28709359497988
2.71963175290683
2.09040859195874
1.41317049347663
0.745296008590361
0.161136731964966
-0.31177738145924
-0.699006482297493
-1.08757959134454
-1.6528569155185
-2.54067435484619
-3.65419177472136
-4.69495160757174
-5.47730634295564
-6.05476225451893
-6.4904957363513
-6.67770953135921
-6.47179759267525
-5.89821687854262
-5.17658282397948
-4.56714651543785
-4.16084042541639
-3.78938971574888
-3.19534435051702
-2.30971664924289
-1.31257555416314
-0.44311614655781
0.178257370953562
0.587528698168868
0.934980271011654
1.36401762300031
1.85462412525583
2.24529247052409
2.45234314711029
2.56839900509974
2.7182315418648
2.9360442329585
3.19077844993803
3.41198500298479
3.49686553243381
3.38111305024067
3.08277622489834
2.65189513681575
2.15249805865149
1.69633262849507
1.38265828063529
1.19594941235581
1.06111984383365
0.982610328026733
1.02572042318151
1.1842323525353
1.35812269441483
1.43130877312296
1.30658571317831
0.917869000513239
0.272746084672576
-0.535913776867227
-1.358531351187
-2.00877804344015
-2.32363339245776
-2.27326593967488
-1.98087495001701
-1.62361185059958
-1.36248157220762
-1.31586461095408
-1.47555126687838
-1.66774941732732
-1.71083465379301
-1.59179589841639
-1.407168059712
-1.19945734450736
-0.944160548245975
-0.616238862400532
-0.18614325353461
0.368963510744313
1.00288066533417
1.62423231852361
2.17023256611102
2.57890723472486
2.75592417900654
2.661170983391
2.35385026770201
1.89923363102667
1.33533699354634
0.752460755502556
0.263042741779482
-0.134517347286924
-0.528885689913132
-0.927542333869305
-1.25039237691065
-1.48342713005014
-1.70524276489561
-1.9636467936273
-2.21903923445224
-2.38824909899589
-2.39888957059781
-2.25406330248817
-2.05613471262702
-1.90595629006186
-1.81398510254677
-1.78210943987972
-1.89090032924384
-2.19188202689234
-2.56781704697059
-2.79724094466299
-2.72864007593174
-2.34682849633716
-1.7211681496464
-0.931404521936215
-0.0132782932193654
1.03173585519826
2.15847387759389
3.24799163282912
4.1690051916195
4.81342005342422
5.09854865927611
5.04191471111429
4.80121928139688
4.51659225644012
4.14475147846688
3.55067926291567
2.7191477482328
1.80318895866538
1.0195854649481
0.543699068292818
0.446026464834566
0.687571356847521
1.1828720686375
1.82112324952819
2.38607281475597
2.55734453489916
2.12817841977611
1.21449987890336
0.184181226973267
-0.593162315110425
-0.911254816323744
-0.760160464125078
-0.324153540586133
0.0410552077629318
-0.0858318670115639
-0.978772714104878
-2.55775401655271
-4.39757092879502
-5.98310833713313
-6.96259579998366
-7.22316684342775
-6.89003735401865
-6.29352868276291
-5.74904036505113
-5.24171902946755
-4.44724625403305
-3.15318152666198
-1.52210412362988
0.128131419926362
1.614321951162
2.85912162487077
3.75979852179274
4.23229712430395
4.32519060709968
4.25586797573419
4.37431208544895
5.01397709846815
6.22687107929832
7.62684935190242
8.54748425750344
8.40944988032681
7.01946352929091
4.62936167204915
1.77253782086665
-0.974072506684854
-3.16744024409349
-4.61934104345665
-5.47437371079912
-6.10720899393009
-6.81394688137923
-7.62631494321345
-8.46154433898248
-9.28632428948993
-10.0084845980076
-10.3795498757458
-10.1778463301986
-9.39257407176057
-8.14350227521134
-6.5641032991279
-4.85956029632237
-3.32995759563796
-2.16687192668459
-1.23155301948174
-0.123447500846559
1.45870426120403
3.39050539664756
5.20972962747381
6.60418176616318
7.72673204803174
8.89075517515688
10.0804596748987
11.0004777770569
11.5162364695159
11.7600043545347
11.817422501677
11.5364187167704
10.6673866136149
9.08087115263486
6.87914035376958
4.36764151808741
1.88645791987375
-0.339347044922938
-2.15640795201319
-3.40335917497193
-4.02863276807056
-4.22418419777086
-4.2844958570645
-4.36736177325408
-4.48010596774058
-4.58387884180034
-4.5788350033772
-4.27697651241961
-3.52316792380501
-2.34367852874149
-0.964285710384577
0.298471471860631
1.21570366664583
1.78394678401316
2.17518691944236
2.55360324496193
2.99920288470725
3.57598256722238
4.32658915363519
5.14047710821288
5.71598372331717
5.72481856935579
5.02252174554427
3.73285269169563
2.15670234812218
0.57105767450629
-0.892444357449764
-2.18315286025963
-3.25229185849809
-4.08802166227143
-4.70746470102797
-5.08573695053628
-5.28148559249279
-5.65785749952481
-6.68439487918742
-8.35823619178123
-10.033714972687
-11.0140863401624
-11.2161242455816
-11.1642509909803
-11.4401041738466
-12.1873419521705
-13.0209535840752
-13.3279040876972
-12.6955745407443
-11.1090692375925
-8.83568526280634
-6.24743634131086
-3.70832524958648
-1.43275777344596
0.618721014358482
2.63708105132135
4.75892486226924
6.98303124578006
9.20546619506214
11.2767252489082
13.096689059853
14.6977794296957
16.159592129586
17.4085445234059
18.1827430271153
18.249423441937
17.6396417895631
16.658250340584
15.6381246264066
14.6404181410952
13.4500168711966
11.9486534314714
10.3853074187869
9.10376553454812
8.07227348596843
6.89626060680509
5.32892214700409
3.62422605532041
2.26656044413489
1.33337518194479
0.212874256625542
-1.91471885949521
-5.31462133901451
-9.51996660128748
-13.8331167790039
-17.7651156387481
-21.0359734386788
-23.5171625958041
-25.2869684763426
-26.4776595070218
-27.0025262168737
-26.6614466802013
-25.4920220272935
-23.7418106468794
-21.5137353563009
-18.7173907350228
-15.4099101089191
-11.9820087560552
-8.90140778170722
-6.2970402057355
-3.84296262542401
-1.13795333325946
1.7733973686364
4.42746349685595
6.62925057141371
8.91080043664591
11.9875322482675
15.8059192494203
19.452189030007
22.094053519397
23.7783107753569
25.136938036892
26.4724146487759
27.417974724004
27.5078480480171
26.7725588906409
25.6019862446328
24.268481150588
22.8272694253811
21.2965354998229
19.6336636722078
17.6050304859729
14.9443810842823
11.6747551925484
8.16316941143582
4.89148220088961
2.2296606720112
0.273587659904028
-1.29331615836622
-3.13499531307788
-5.8704865114584
-9.61762399108877
-13.8759622029641
-17.8903277931062
-21.2166482689468
-23.932196665216
-26.2510780899889
-28.0819195336706
-29.1608683456392
-29.4977484141164
-29.4091229607971
-29.1346563062964
-28.6460114483971
-27.8116166000263
-26.5472746815957
-24.7997812215552
-22.5116989400751
-19.6028279793226
-15.9780772316262
-11.6786015144565
-7.04843223160465
-2.58348649383708
1.44863036072732
5.13563864643957
8.65833189875175
11.9835990396144
14.8011857639607
16.7166236844035
17.5603885218095
17.5703835089521
17.2651105633855
17.1251237715093
17.3559608324159
17.8293730276276
18.1615321592613
17.9286006235541
16.9400790778429
15.34743565645
13.5147611141685
11.8174997254955
10.4794268981726
9.46682271953123
8.55622225458966
7.58219771946751
6.56834608849185
5.57213326305038
4.50998419358336
3.21681876339018
1.61571954029643
-0.208237332362922
-2.04208879431685
-3.6350992003864
-4.81115309407981
-5.52928187206674
-5.86513761662886
-5.97965793045043
-6.06030123579351
-6.17339404383718
-6.18928095900875
-5.9662437741155
-5.5548108030183
-5.10864060247827
-4.73933655066369
-4.63688125211359
-5.12995579253829
-6.31446093893877
-7.69125545297789
-8.43575171032768
-8.06847646924424
-6.77936615067498
-5.13359850859354
-3.52679389564243
-1.89788995717557
0.0685147154206487
2.48929951033982
5.09729973909983
7.50422122807196
9.52203398802099
11.1773938778927
12.5291086874377
13.5282383193053
13.9770666091986
13.6204438060881
12.3622404075969
10.3929701578824
8.07111284342434
5.71891470095426
3.54296241784972
1.67818816993908
0.24504531102055
-0.705421260840541
-1.39505476046124
-2.39878798085016
-4.27745306221998
-7.0630882337248
-10.3099879242899
-13.6725170685675
-17.1124957611948
-20.437775172253
-23.0212282402928
-24.2695607067779
-24.1973398599262
-23.2953414654353
-21.844975195862
-19.4877593732195
-15.5928392574419
-10.1145016087075
-3.96971621775437
1.57142145225967
5.76607948165314
8.60858837811977
10.4897327021305
11.9409612168368
13.4694076044263
15.233768857961
16.8579234862192
17.7149358503905
17.3836466138115
15.8778373587763
13.6629404613142
11.4954526747996
10.0094846841855
9.30849652244841
8.96326728938457
8.34957151105456
6.99037943803518
4.79972523168485
2.16622556595579
-0.29781755710923
-2.18309936480046
-3.41721032539193
-4.05266114016069
-4.12286841764554
-3.70097178369085
-2.93070721585933
-2.01778157716593
-1.31002677752449
-1.26849031471785
-2.15002739751612
-3.72958811234177
-5.42329568814645
-6.67462193794373
-7.29532908020481
-7.59600712989712
-8.16623132657523
-9.37657200676917
-11.0616857254079
-12.657929102528
-13.4945035401048
-12.9871490883194
-10.9279612750715
-7.83890661520515
-4.83671674823209
-2.85757322881694
-1.98703747836964
-1.57189538966345
-0.863122129612058
0.48529098051943
2.34806871072902
4.34102857295686
6.07106057592491
7.30988553123799
8.10264928357746
8.74566984864791
9.53942131389833
10.5538472831259
11.7453950227032
13.1669234762699
14.7487115192038
15.9551219558895
16.129984247031
15.3369489351051
14.5017225380649
14.4725985290904
15.121814297596
15.5702830550462
15.168267775621
14.0168079776752
12.5124413941418
10.6485323397125
8.07083766202738
4.78965860486472
1.46257336673596
-1.20621674403933
-3.08727459431231
-4.49723961466187
-5.76252534178752
-7.1715800223517
-9.11604148482123
-11.8960371130996
-15.3437480897617
-18.8192921081701
-21.6643759093045
-23.644767673501
-24.9498466407154
-25.7989832187009
-26.1199561714182
-25.6542622616667
-24.280110794076
-22.1169254037276
-19.4259980063642
-16.5871155090872
-14.0422064893118
-11.9735331700048
-10.029720660215
-7.57552384896431
-4.28550359422166
-0.462328408187069
3.16612663275485
5.88633457383577
7.31161390725983
7.46177106014602
6.74137265223868
5.89939271825418
5.79734744982767
6.88985337196415
8.86623952601525
10.991418967019
12.8107543645663
14.3243678174836
15.5574550625829
16.3431199813058
16.6098539232409
16.5631032401478
16.4067203372137
16.0360634494633
15.1588170478797
13.7159873806258
12.1062575511597
10.8920290635151
10.242887031734
9.75232646751075
8.85815474644752
7.37073126779453
5.57283463665625
3.91434399663735
2.62036858915969
1.49208571371133
0.139256556079254
-1.47443351146047
-2.85735269406133
-3.54741550672413
-3.6798026227788
-3.78859576344516
-4.23956358766089
-5.10484034454033
-6.39505598188986
-8.07620962669463
-9.87796885496933
-11.3068252083193
-11.9407903058069
-11.7488062808914
-11.1990205469028
-10.9992013702227
-11.5143553563563
-12.3241925623873
-12.454251701453
-11.2063226323063
-8.87374728231264
-6.64449947112636
-5.6466934722279
-5.92813124966046
-6.38723168717765
-5.74201102692932
-3.5087413315265
-0.152759578981171
3.3774479026017
6.18286308599998
7.81193164633296
8.39321282082537
8.38012535352096
8.19189602533124
8.1373368045857
8.46285206432403
9.18939321707703
9.95299369220823
10.2170298366059
9.64661747320859
8.23280555539143
6.19845752967646
3.88368020325266
1.59338912219903
-0.565692313148069
-2.6823332193842
-4.85465636807506
-6.98811412305544
-8.74296598407705
-9.73867478545658
-9.88879986026382
-9.45520846899205
-8.68530136267168
-7.51743106123666
-5.76585576405524
-3.49298176932134
-1.11329784452141
0.754155167772312
1.53040024178231
1.03294822585017
-0.274896813004376
-1.53833302157169
-2.10720922276869
-1.85021006434835
-0.999765433562946
0.139654329733314
1.37277465501275
2.60273211854923
3.62802387227599
4.06858611125603
3.75302425726237
3.17693818193695
3.29491028833791
4.73308569578676
7.2902700866993
10.15385258507
12.4392940792791
13.6323452465152
13.8354220346911
13.6619878906084
13.6571123965188
13.6788167788287
12.9609415229892
10.9113792912821
7.80646802996344
4.60216350889546
2.10707125026255
0.478587920916446
-0.526300756862108
-1.0927775274176
-1.27078596861504
-1.17149099130193
-1.11820979414304
-1.70277981079472
-3.62318074128362
-7.0941090629453
-11.2782421735331
-14.6562035553284
-16.257183230132
-16.3893022269127
-16.0555599351694
-15.9027768301351
-15.8736660527616
-15.6280056585353
-15.1103458018998
-14.779558644683
-15.2444904270957
-16.476388330077
-17.4164199484234
-16.6501928071883
-13.6484218022771
-9.30753835147166
-5.20850946703281
-2.34466182723731
-0.556673660335911
0.91824080616024
2.56423707249003
4.32914687390796
5.98377478925738
7.38493428680003
8.39410850759998
8.85793872673677
8.81338449421252
8.58640588305981
8.61822731900013
9.21685590272967
10.3997775764825
11.8745741772893
13.1864047132677
13.9332173699461
13.8848232170181
13.0218116392228
11.5769327667536
9.9887614498197
8.67913393719919
7.79501923575901
7.11520359405305
6.20135930604583
4.78385897334874
3.14211161323339
1.97238558240361
1.66633973575239
1.82772569263313
1.71847724626967
1.04311561871918
0.0537093177275769
-0.948046983736635
-1.88831360697469
-2.7528594451708
-3.40394646501198
-3.63772940523052
-3.37416515045478
-2.79297741524892
-2.25188831700136
-1.99317363210466
-1.94948402999137
-1.89995624979232
-1.76517801433797
-1.68833013470611
-1.89842569651676
-2.54472550702696
-3.58864672182288
-4.82632239131896
-6.05639830468009
-7.16194167700038
-7.96674084422526
-8.16173269995298
-7.53509338565471
-6.20298425382321
-4.50399673434695
-2.71024100950323
-0.847754452244882
1.31979675054037
4.12075395576905
7.59686402188472
11.2328022670618
14.1971291286722
15.8890838192911
16.1841483756438
15.2914170078235
13.6450734305724
11.8705465634746
10.4226441277443
8.98811079230693
6.49951140649963
2.21174502233689
-3.15814392232632
-7.76228575214523
-10.3401772532825
-11.3806119965481
-12.4300598132573
-14.5697592185408
-17.7614030844868
-21.2458184597522
-24.1022091537043
-25.5815464747378
-25.3571067982902
-23.5966249354807
-20.7367964638871
-17.2258704078722
-13.435925446459
-9.61918662274357
-5.90602703089106
-2.46182910002621
0.391120697566503
2.29893875510686
3.0541299867181
2.68167732200344
1.62269361711832
0.881748949643546
1.56964922050613
3.9232022545478
6.8907608695063
8.97860726932126
9.51795112424079
8.96857594607762
8.10176427179675
7.19496418763556
6.1079393548163
4.89038672278619
4.02717994802769
4.05161924685229
5.07859805788893
6.79624092819859
8.78537635569841
10.7008476273912
12.1835511657974
12.7826225921621
12.1621934237649
10.5043298412482
8.65137417775686
7.64289286521354
7.96189795225769
9.22155137409236
10.5629673321687
11.308531715209
11.344942820867
11.1118385723462
11.2561147925855
12.0723126162088
13.1265531314817
13.5011759915112
12.5112885610862
10.2446601013723
7.52070538659695
5.36744252885557
4.33943121699373
4.10703813929626
3.69077622059497
2.20754169988847
-0.511365767321747
-3.90727358079286
-7.18106575217227
-9.82750597919793
-11.7957103458981
-13.1989141396083
-14.0056105538751
-14.1731652970182
-13.9696512140655
-13.8713156250806
-14.1558645733656
-14.8253874426901
-15.810080304834
-16.9502754839064
-17.9364529082305
-18.6111470742421
-19.1668424266211
-19.7012226676448
-19.770460959436
-18.8030343727533
-16.8802661800121
-14.7288728854026
-12.9216910342509
-11.4003159570451
-9.88629146798588
-8.48511548985515
-7.61457371271985
-7.41624366311227
-7.51160799579239
-7.3571096428167
-6.52362306853181
-4.51504544892472
-0.763329975962408
4.72615936937555
10.8885499511267
16.215945004149
19.8959672985416
22.0785119963998
23.0706336438088
22.6346358649971
20.2556487832457
15.9553041042877
10.6737608418726
5.8190167638391
2.43729307210741
0.745142825955751
0.312487232865708
0.551222918106367
1.05736232032073
1.71697081815541
2.65716676005046
4.02468093183333
5.67849883058603
7.11118316807846
7.79043768498892
7.67776930250287
7.3813520186125
7.63382476380407
8.56834571821599
9.70872833059451
10.754568047469
12.0598860677159
14.0567097645547
16.4127777703178
18.1176652875689
18.3992892783993
17.36246136779
15.7657292216343
14.3351196174703
13.2191250703772
11.8797452388162
9.49481675208989
5.69553018659114
1.06157466332647
-3.25205466536116
-6.61817637928877
-9.61155796176729
-13.2702686577258
-17.6925375016789
-21.811587202896
-24.6720243805526
-26.3924922442093
-27.6099390382573
-28.5606285443813
-29.1808319199977
-29.647348085512
-30.2173057274936
-30.722929274464
-30.6529814433587
-29.6323062952112
-27.5986131056228
-24.6686678919601
-20.9931791818356
-16.6248041714556
-11.4757538585036
-5.50609110926647
1.05587521172538
7.73184875793471
13.9789420823163
19.3736805838562
23.7312843976995
27.0826952321514
29.5657663352429
31.4356664117024
33.0659205501878
34.5970133184428
35.5271139078076
34.9716893343938
32.4610075302882
28.3190726286886
23.3237675048081
18.2467504312247
13.5736788883961
9.26809530248506
4.80059139829427
-0.340046687414382
-6.15871575452374
-12.1892657115346
-17.7708134189067
-22.2200026385205
-25.0869509985428
-26.5134738560482
-27.2086106517314
-27.8883191381888
-28.7250249615612
-29.2924742730822
-28.9244909192719
-27.1679150633847
-24.0796529921852
-20.2034697158669
-16.2421018156327
-12.6272733018025
-9.21907717315399
-5.39125416575901
-0.623986666134046
4.86265065355702
10.1888523610942
14.5672825813463
17.8480930291686
20.3725952704774
22.4916243584884
24.1744731763994
24.8945790756939
24.0166297436499
21.5659196529848
18.5270516476443
16.0930287020268
14.6514617151873
13.7164865098612
12.7324116425778
11.6347780528416
10.6312601816115
9.71273012357945
8.55057976584948
6.85448535927543
4.74293848318596
2.68632635819615
1.08705012276825
-0.0393463853853107
-0.988896637634661
-2.02194235130878
-3.07796365869787
-3.84875277818593
-4.17434897906747
-4.27473903849705
-4.45439385218504
-4.66912729998283
-4.57491705971803
-3.93622622103199
-2.82018678873206
-1.52341057824274
-0.490667727827389
-0.0797243256482367
-0.149339015297692
-0.14873285640028
0.0387462012079899
-0.427305634103909
-2.61731850787208
-6.65446743137816
-11.5392174081484
-16.070615238547
-19.6824782623214
-22.3948355382505
-24.2480599027371
-25.0333128455096
-24.5779337616937
-23.1089915275426
-21.1740076984021
-19.2204784816454
-17.3277654646137
-15.282783955144
-12.8233317170913
-9.88987519976695
-6.71892709157917
-3.56772255951155
-0.292925864273569
3.58086660149885
8.21199030837892
12.9843397314909
16.8450069521004
19.0959067488247
19.8713456681722
19.9347765108979
20.0142780328969
20.1984635412742
19.8413528815864
18.0493819065841
14.412780755863
9.48310390891449
4.62869691716756
1.26847555253531
0.00348399413234657
0.355778056323333
1.25728686989402
1.74449997311885
1.41165681878071
0.588798356678788
0.129654044162771
0.714704921497078
2.22204682641505
3.88180584871382
4.9935065558624
5.3441246948585
5.05675851704968
4.32380540059122
3.35714151700857
2.46753933540549
2.05124371269065
2.31574668802413
2.89707499667698
2.95872808762831
1.98765060997032
0.398735395699498
-0.955262315129056
-1.75362808261224
-2.30303021896131
-2.70995617737549
-2.39467752013247
-0.630905423611867
2.59262154092828
6.38960715706469
9.62517179743657
11.7070727179956
12.7511730425143
13.04202505338
12.508834330124
10.8826446898183
8.24220764518064
5.10247096506341
1.89540512891454
-1.41095045131593
-5.04254100178316
-8.91993877592175
-12.6025611232885
-15.6483795393794
-17.8194201212969
-18.9860256784927
-19.1719852303987
-18.801846316093
-18.5367890452208
-18.5788832431162
-18.3507924948675
-17.1260991367339
-14.8348648103633
-12.0745932927173
-9.55912131840216
-7.83168775316152
-7.32699781344835
-8.27782502249713
-10.3828225142771
-12.6835614209989
-13.9915498265189
-13.6814940927703
-12.1443543823877
-10.2838776404183
-8.48925582112189
-6.32420917154097
-3.31653697593026
0.245439209283435
3.53135647048507
6.01774458866538
7.89986130576165
9.70866086966341
11.7134059484896
13.7972910732664
15.804638382549
17.7629823394255
19.6958955098315
21.4472181133177
22.7841760940374
23.392887108287
22.7150532801472
20.3141220642076
16.7228094393352
13.4752446210992
11.8357404928252
11.6630115973584
11.7353773694858
10.9551354672294
9.08810339706273
6.64764267340375
4.37671869982723
2.785486840503
1.96585587650588
1.65779391502215
1.35098120996111
0.409411549171774
-1.52759504338738
-4.04981779127681
-6.14237741669214
-7.15379844386444
-7.46892718221644
-7.96490363748585
-8.93093501353885
-9.85097985311516
-10.2400288952495
-10.3094795592249
-10.5150314865107
-10.5999136328514
-9.51401815370379
-6.50388451534531
-2.11872019409422
2.08947391977495
4.8609570552873
6.17722817833691
7.06871601552723
8.60325625113409
10.8865736216188
12.8424283049236
13.0949107270869
11.2961122826997
8.51573747532736
6.11351496927413
4.25150593995368
1.71655884541998
-2.69787661137761
-8.73019207920546
-14.6985458935978
-18.971189257629
-21.2055771156397
-22.1646946806252
-22.730212573758
-23.3979954179485
-24.4287387090185
-25.9225986728724
-27.6099533870347
-28.8465472191497
-28.9856375071131
-27.733484779879
-25.1947730104072
-21.6510460363452
-17.2184587834891
-11.6597839408491
-4.65863968737052
3.5983992345563
12.1427677123221
19.5853412705756
24.8160320140751
27.514537363379
28.1819721110975
27.7321249395479
26.9413459101479
26.1439670061537
25.3239863329353
24.3661096516809
23.1642777574151
21.6132383918499
19.7033094611743
17.696191118228
16.0684197943306
15.0765243855996
14.3451192469602
13.0678237073013
10.7368073703604
7.57645227904891
4.2275985876459
1.2046209057737
-1.26216764523123
-3.09641426681169
-4.29911838626513
-4.93837359069918
-5.11234428288989
-4.92512398239321
-4.49032092602029
-3.93144326693009
-3.39653442110467
-3.0403790716705
-2.9165534873584
-2.96312268777843
-3.22778687315995
-3.9836694175338
-5.41476250051299
-7.29504015462917
-9.15753995268876
-10.6162838863229
-11.38558523029
-11.3115734710799
-10.687382351487
-10.2722329047572
-10.6026362172571
-11.3412800438849
-11.5760659049359
-10.7647505633591
-9.21152250888911
-7.61944896915914
-6.35646808482339
-5.2372786961071
-3.90137739441329
-2.27061708265192
-0.654749339372163
0.508086173873828
1.05165192784814
1.34627680888803
2.13369908110226
3.89670610125863
6.28122764240819
8.18187158254498
8.42164579763353
6.41581064357906
2.41505846132028
-2.69329176951711
-7.85397051604334
-12.2061722901131
-15.0668564502963
-15.8728174029195
-14.5326433750788
-11.7677494070946
-8.65950488997323
-5.70729564226077
-2.54399446025494
1.4035869854762
6.16270166615668
11.0227199338865
14.8337483893711
16.615700162008
16.2748776684908
14.8829198991745
14.0505815039778
14.708193281611
16.2989191445462
17.2142634937586
16.1946447573861
13.3433461402184
9.76502191449992
6.47029641572794
3.92631503905321
2.4282821439252
2.26353161783305
3.27360853841086
4.58912106993455
5.04568445600418
3.83344111529182
0.901824003638372
-2.94288883308742
-6.37271010925556
-8.31332363201383
-8.55735112298825
-7.64279434849033
-6.2740012899234
-4.92147488641203
-3.76932758051108
-2.82174585408776
-2.01199823514054
-1.21379340979374
-0.198322472336267
1.23794114009319
2.99026051265553
4.59545597464557
5.52593349233927
5.42587319091723
4.08885037934756
1.46266183473979
-2.15927446696189
-5.99174009129936
-8.94630515695284
-10.2681574598387
-10.2603211187693
-10.1784083284252
-10.9584527462067
-12.0722419624324
-12.0329288179565
-10.0279305914629
-6.71674988626005
-3.50071477773983
-1.43536722270593
-0.842291990860424
-1.48368224845558
-2.84597049650856
-4.39404228401173
-5.68004230922418
-6.26412047295297
-5.73687384995799
-4.033444137403
-1.71360127139966
0.225305194813381
1.00336393073668
0.695612615551943
0.201212092401561
0.415653730659051
1.44035929114095
2.74585391473305
3.93560255359668
4.9185641129011
5.34832071890088
4.54958810217337
2.47913927075451
0.426260075826778
0.140498171777939
2.18255240217212
5.45548964870292
8.35671596248827
10.0173453301868
10.3897649885293
9.72530850113226
8.44632149731434
7.20904425546015
6.46142602049069
5.86915284809335
4.55497424805222
2.03535485258646
-1.22572635507379
-4.1527256630802
-5.75026904918219
-5.53292068055715
-3.62334092274312
-0.679542430052204
2.29084917207348
4.22287633256982
4.41166883749602
2.99087742515085
1.03000312730129
-0.21250915285408
-0.389808113102159
-0.288910984556408
-0.858294810278183
-2.19932229345251
-3.59327558984017
-4.27230284080077
-3.97683370319238
-2.92574229072953
-1.53227755307369
-0.220782091414344
0.66291122353865
0.970905512021583
0.805336212716824
0.354292632039571
-0.281915393460296
-0.93414974260649
-1.10778230527623
-0.277301566012223
1.34118323048918
2.60760199522408
2.46722642380389
1.13851582153998
-0.0259040789607946
0.0666201832144112
1.31265962472624
2.98066271193313
4.68756471273168
6.29483333655959
7.2209905298261
6.70909975844033
4.86190796039859
2.74056138858889
1.2039821837803
0.138648709874569
-0.973681862290467
-2.25612537443573
-3.55440943609905
-4.96405066717521
-6.79199516417362
-9.06661871051728
-11.2904142088066
-12.6465767148499
-12.4615707304288
-10.6734860476966
-7.93329892707202
-5.09033099636878
-2.50192450521416
-0.0325458544083829
2.14664054926719
3.07506912927136
1.8462745034562
-0.981499195436443
-3.34179016703703
-3.49637321678537
-1.79189790331348
-0.264788346711051
-0.547136086076823
-2.27503651974103
-3.26555831320186
-1.08896828457907
4.92396285114846
12.5447309410692
17.7713568501986
17.8335292348929
13.287766273473
7.05385895840581
1.70314981626052
-2.07244325770277
-4.93632417809978
-7.73805271102862
-10.8830511004032
-14.207684175533
-17.1421213857292
-19.1903129512569
-20.4005591815546
-21.2215949476128
-21.7675832136565
-21.3618908515671
-19.0652889080624
-14.715068423036
-9.25302429813141
-3.91429415750379
0.783142678898766
5.17017642544905
9.68280582083075
14.0943972534631
17.5290191929033
19.3475665781355
20.0079924592982
20.759431346551
22.3388911333436
24.2564088656882
25.5692233144043
26.0373805365399
26.1791082176187
26.4014345045274
26.4276198111303
25.4955125684023
22.9018082021069
18.4974702583032
12.9503853859398
7.56241219473725
3.60771545448932
1.57249330905431
0.891641389605159
0.49583015426066
-0.277331615347406
-1.34679450654985
-2.42590412570538
-3.63407389470859
-5.39576631963478
-7.88624921399812
-10.7596141521798
-13.3320317835587
-14.8846916446462
-14.9008112642074
-13.3160172567308
-10.7661267257783
-8.54119711305417
-7.96417147104792
-9.50019107190491
-12.5013483081678
-15.9481149068935
-19.2410866633361
-22.1005317506726
-24.1328351009706
-25.0487766712903
-25.1217586306586
-24.879867671683
-24.3384803407251
-22.9121557550464
-20.1441736309639
-16.3435632141839
-12.4926373747065
-9.56213860939375
-7.81972196986034
-6.76576997441139
-5.71439195299995
-4.19789134127455
-1.71995986650378
2.397987276856
8.43234292081096
15.6760306200778
22.7426534206893
28.3123405960872
31.5129094535971
32.0403159226308
30.3227548874944
27.4103450215161
24.373343880927
21.6955232019298
19.2043839145216
16.5154450513227
13.5394859199066
10.5409971716882
7.67371529926743
4.65431699214423
1.18699808000313
-2.34401558029857
-4.91417122708461
-5.67453279903761
-4.65703360959553
-2.79035706084161
-1.35731584185681
-1.28977733431126
-2.75585076550242
-5.33863677096761
-8.5295164064345
-11.9310099214798
-15.0891307929302
-17.472588407224
-18.7894110697793
-19.1222645403562
-18.5289949569399
-16.6490618351236
-13.0630567523717
-8.17733395599943
-3.49688884417071
-0.657496707057006
-0.106747365646192
-0.902634200764243
-1.75766056069906
-1.95204937312208
-1.21527651533597
0.750951057877801
4.19796316125951
8.89944977003745
14.0679832291538
18.7612129794307
22.3947556895774
24.9539247136285
26.726164255905
27.818702771319
28.0404443895654
27.2878101127985
25.8493582694683
24.2037831441156
22.6562953388669
21.2150436903925
19.568843779572
17.057411251293
12.9293353399867
6.94095766789949
-0.243948102320885
-7.32855755545493
-13.1298599475157
-17.1514387313642
-19.5797223198243
-20.9243036122614
-21.7748494699563
-22.7573442883016
-24.4337253599979
-27.1082969594082
-30.6916334482066
-34.5358871826513
-37.2425126850277
-37.0196032543272
-32.9026373997541
-25.8090433974799
-18.0861897835717
-11.8890058368739
-8.06338259032711
-6.3569504122305
-6.22642131240387
-7.24130078752946
-8.87643930084341
-10.2536701192309
-10.4646475789563
-9.27385538300511
-7.24104036013733
-4.97001364224253
-2.46616560374287
0.613018340821334
4.37116053841654
8.58256264270919
12.9702041592672
17.3295744153775
21.4858988597592
25.2649323921403
28.4102144145772
30.4908602915421
31.0590328929938
29.9891801034827
27.5666453325861
24.197906397761
20.158649529667
15.7511142949682
11.6206644895933
8.63904817754177
7.3071091279216
7.38388521434361
8.19708928716675
9.09737717812393
9.39051723544191
8.11036388960857
4.44969829324162
-1.36048824184848
-7.84665765392131
-13.1879720046732
-16.352488514196
-17.4506516908636
-17.1547964766834
-15.9083018779849
-13.8435931276785
-11.4610720789497
-9.92371640062529
-10.1655668660176
-11.8206796598571
-13.4581294484775
-13.8419932465018
-12.7324088987392
-10.7319357711891
-8.76400007540178
-7.46875454190813
-6.61085704236377
-5.18185567653348
-2.53076927553854
0.630738882549494
2.74515840033567
3.07283347399139
2.65649881598315
3.43925054324102
6.40016377287626
10.6636628653601
14.4420721917136
16.6001788207751
17.1701326931131
16.7220498114232
15.7069442330507
14.3519419917924
12.819242415263
11.3395113911186
10.2387619529902
9.75519729042051
9.76513366543834
9.78569048132509
9.29774397284295
8.04070772571512
6.09294936257372
3.76949004471845
1.3524852156013
-1.11014137711081
-3.58916192374383
-5.71271359503161
-6.92104967395394
-7.03362244143366
-6.46844585551822
-5.9341710231667
-6.04401358992292
-7.0141329941008
-8.42816798328263
-9.44628853694601
-9.6452092786656
-9.73287269304773
-11.2066136293197
-15.0867919247533
-20.8178386680439
-26.3496732632645
-29.5280323931334
-29.7216832828814
-28.0955226112886
-26.2014058693068
-24.4826277118901
-22.2410152833924
-18.6777969299224
-13.6412352335889
-7.62561586286142
-1.46586640284831
3.9627826774797
8.02042885255431
10.4863702580191
11.5985866874956
12.0037472190284
12.5946996418759
14.1145815750064
16.6124776491099
19.2236534587348
20.7589491478086
20.7920096087497
20.0102372975018
19.1586230699894
17.8809934532564
15.2794101944156
11.6136804742635
8.59338164785911
7.56501713834267
8.03425288987144
8.54593473535902
8.57748987113959
8.8193102115629
9.67789046328106
10.2907845620925
9.48922718742465
7.42148366276796
5.6354019861294
5.42456549613531
6.49153332748219
7.46760115035008
7.32521448357188
5.84760805653143
3.11597990315128
-0.678661163393968
-4.86413688907395
-8.34598863672192
-10.3458933066414
-10.9045918402646
-10.5997664401232
-9.9882579607337
-9.42321284840788
-9.21012791742385
-9.60716243789447
-10.5008986238135
-11.2836559380121
-11.4053793475914
-10.9979259527204
-10.5366883753082
-9.88485070928853
-8.26131940543805
-5.41827586356468
-2.36582473905177
-0.514981752002031
-0.323281118517396
-1.07966846752651
-1.83736782693543
-2.1952350861485
-2.16104302681624
-1.64337659774161
-0.434156455253845
1.3729382245432
3.25975009808282
4.6524779750951
5.250098158028
5.04677819338288
4.32794464922913
3.66662462227379
3.60091881965005
4.1589719591421
4.81837995010456
4.9501353725093
4.2570478571637
2.93648020748499
1.52112913916359
0.377778280640871
-0.704156896240995
-2.20245528934243
-4.12771619474221
-5.88725500100968
-6.90157812626167
-7.05114129329381
-6.49542539981752
-5.45684303280399
-4.42247204778051
-4.25914953101398
-5.61153618267291
-7.99859494516367
-9.82074126338038
-9.70120300915403
-7.88259949306368
-6.01835712786581
-5.45461133998092
-5.85616154402224
-5.56778828869267
-3.21950356043265
0.973237282685685
5.35715923388177
8.36027175993694
9.95526710304579
11.4076232697449
13.5008229496126
15.5347272900278
16.5764441630764
17.2550922574839
19.322057643078
23.1945612343242
26.7064799687774
26.9289865203112
23.0265995912575
16.9584041713253
11.5518959164024
8.19641909338943
6.1848302364875
3.75391760026991
-0.371877232114908
-6.04935301196275
-11.937248329509
-16.6815606245776
-20.0354046541952
-22.769055635585
-25.4762697945256
-27.7102708107957
-28.4419469358084
-27.1244826351169
-24.020804332408
-19.6258712624098
-14.156112391873
-7.73658311090856
-0.902964646951316
5.30989879999439
9.9177582676978
12.613471264567
13.6824297776221
13.3066592458651
11.307547324402
7.75043655864043
3.43208645322627
-0.585898710512535
-3.77924851449579
-6.26894004590705
-8.2556122665326
-9.60433855583933
-10.1100321523777
-10.1324043047522
-10.6926422624322
-12.5525954338815
-15.1619717595393
-16.8731400723574
-16.3453264665376
-13.5261173762477
-9.27411100737141
-4.40991328747002
0.72367211382564
6.06957330631839
11.4590084335665
16.384740474514
20.2139921180343
22.7583926462171
24.5934234474347
26.6108162967564
29.0997519704226
31.2735187735258
31.8688109126838
30.3861469696142
27.6549972216409
24.9183988404878
22.4121352240175
19.2436927927704
14.7579492301384
9.55950497785862
4.88084860002527
1.26361251798721
-1.72074519277732
-4.55474347954949
-7.03447788453161
-8.67263141613705
-9.631482978121
-10.8834743259125
-13.3207409142349
-16.8554587392821
-20.4677382223427
-23.0187227359138
-24.0148349958712
-23.8007057017241
-23.1736887370002
-22.785486421709
-22.8480859078484
-23.3052383925735
-24.035162634357
-24.7203584536667
-24.6773998172114
-23.0276571111017
-19.0540956674858
-12.5161552644039
-3.96724776234187
5.15494013792401
13.0844691140727
18.586830203413
21.2691989566388
21.3296871622149
19.4625839075874
16.9054089848871
14.9052293714875
13.7505183831153
12.5412426338641
10.1075595078244
5.97307097178554
0.337609500463315
-6.46482675625071
-13.9704820475354
-21.0207219032012
-25.6514709036153
-26.0911600974129
-22.1908922618025
-15.8383337767388
-9.61607122178064
-4.7151407858921
-0.220086405618719
5.31399834063898
11.7708748274697
17.415405992393
20.7808154825747
21.9633086103993
22.0603865016845
22.1422367050391
22.9755413420562
24.8131336465637
26.7540794644273
26.8216050975685
23.4074663702832
16.6035088956187
7.94116463264199
-0.80640767953807
-8.38071264969524
-14.1975091561201
-18.2990845460745
-21.0171672613886
-22.4736687796166
-22.5236364800148
-21.1674794030845
-18.759205742549
-15.7723329611415
-12.5386702369902
-9.19267468050039
-5.71113074528927
-2.05268724949403
1.62922630668371
5.05023835360974
8.23775408653855
11.7277935526427
16.0189172014435
20.8557948267292
25.2748742970814
28.3550270454564
29.7368833429224
29.4365973900941
27.5166859895597
24.2385283802503
20.3415081474168
16.7012056830627
13.6038130507013
10.6317844398874
7.28041937356558
3.33878346000178
-1.36284231335031
-7.05513692959399
-13.4979941022436
-19.5916076817713
-24.008486642969
-26.4332031998404
-28.0409968780015
-30.4320701581421
-33.8994894634394
-36.9064140953513
-37.4875763177456
-35.0437354563144
-30.6435354082809
-25.9450209423128
-22.2039213910934
-19.9838586782732
-19.1107843888225
-18.6844655607394
-17.4698751273305
-14.6476819420597
-10.3584610834522
-5.5572916487025
-1.26293728856438
2.16700969368305
5.04978191300153
7.71684159682855
10.0473454201086
11.769695101933
12.962725198806
13.9729660214039
14.9656922085341
15.807133682276
16.3136879291719
16.4310380900097
16.2199119841167
15.7817097164936
15.1347540621765
14.0878682340007
12.3724232027873
10.1460139849013
8.43335455916619
8.78501324633444
12.0276210022394
17.1403052519846
21.62461230852
23.3285468122702
21.9659461917503
18.8763088371454
15.605475237226
12.9505654020637
11.1058293244857
10.1837121712881
10.274713592175
11.0765186054557
11.7981463684809
11.7047612728899
10.6691416583616
8.92602522346949
6.41413535458901
2.83428442359754
-1.57874632896658
-5.86014049554594
-9.20613058573213
-11.7939819729879
-14.4467375368825
-17.6289975000068
-20.9997429383559
-23.937520430389
-26.2870362020959
-28.3119663645832
-29.8901884674825
-30.2131366368646
-28.709490055056
-26.052215142173
-23.8023432539037
-23.0561097738739
-23.5843613303215
-24.0758139023048
-23.0513076446603
-19.90745187005
-15.494019405076
-11.5605016148924
-9.26515667608132
-8.09767360507553
-6.29521894908895
-2.27549427540678
4.29516308349647
12.5548193961372
21.1930906448983
28.9704424801188
34.6727579245884
37.1079178531028
35.7530476646266
31.571665190132
26.8905600640505
24.0722250196183
24.0051974587121
25.6861396902884
27.2075767657518
27.1999871618026
25.4026508706896
22.0965846114276
17.4838973602858
11.9027668406107
6.25722455255298
1.57836327861086
-1.96098465807923
-5.22069640408141
-9.12691343747077
-13.737842564658
-18.3223151781767
-22.070304495084
-24.5059526035442
-25.3893040409767
-24.5994544477129
-22.2844464789109
-19.0093942220025
-15.6168856118361
-12.8861558118761
-11.2131869688877
-10.4498422007095
-10.0547533415683
-9.6130679848315
-9.28969974420407
-9.51033585598616
-10.0160824153564
-9.60666221310387
-7.30440882905158
-3.64150059798079
-0.375421628152608
1.03179662915907
0.46933375826905
-0.977912132893525
-1.91878565408807
-1.66298658789323
-0.683635359688849
0.0757916499914982
0.49061519049645
1.50605373116008
3.8729853720506
7.06660774398839
9.93882976835853
12.1461642799577
14.2340555594258
16.2626979383003
17.0840877991313
15.4981557409928
11.7931242791095
7.60429798629652
4.36989935977341
2.38190451200791
1.21789537806886
0.484375170328607
0.0160893474988975
-0.157080019712795
0.196385157788676
1.28732922258999
2.98249043298938
4.89932436805544
6.75145688119168
8.32998919079783
9.29963034677951
9.43512766517883
9.0293392832963
8.71311625279069
8.81916748152079
9.00860369901887
8.33825250994431
5.65699220665562
0.423591072728827
-6.48147735850528
-13.0193373514261
-17.4513428607046
-19.4905465986007
-19.9193254839256
-19.433003153609
-18.2652487431885
-16.7102845964425
-15.3383819319773
-14.4405678486624
-13.6175073031035
-12.1869798872346
-9.78801178618259
-6.42701892415506
-2.2636722566153
2.33046479940983
6.72115077835121
10.3179955408396
12.822111670684
14.1112503419922
14.2188419657461
13.5759811783143
12.9350109461494
12.8447295725275
13.3576167488548
14.2354806691189
15.1655970880201
15.7582694981067
15.5900591537919
14.3272585902695
11.7400351456115
7.74179353390624
2.63076484555711
-2.80501868058907
-7.69902466183579
-11.688911532555
-14.9638840293761
-17.6823827507343
-19.4661206667304
-19.668914614092
-18.1963029766999
-15.8564179260544
-13.7502210882595
-12.4533392897801
-11.8171944648094
-11.1909830075075
-9.67627305730879
-6.66417955072764
-2.54504825018702
1.39951980285587
4.14065727919477
5.6974135869511
6.64220172771978
7.31906419280299
7.91492987669763
8.78952617768482
10.0546725046487
10.9014455692424
9.87333951663276
6.07406174759644
0.0668340936279085
-6.4806174953174
-12.0220672969113
-15.9725590597695
-18.4747378021377
-19.723485115709
-19.7703837105379
-18.7154277682902
-16.6190804189271
-13.1955336004621
-7.97264657166507
-0.966679499598986
6.94585176467235
14.4664533418202
20.6300978033676
25.1116182910355
27.9403726254221
29.0558345073693
28.1715699963641
25.1410598364511
20.606107203961
16.23966282459
13.9293818165856
14.2841714052825
15.9530883749658
16.6967807231015
15.1943014363079
11.7347931190755
7.40739765984507
3.07383951444996
-0.869512042400962
-4.27371535577351
-7.19785627126293
-9.93313711770449
-12.7154129699238
-15.2924288969576
-16.8241575365368
-16.2992063918809
-13.2486695286925
-8.29632251615986
-3.07058399246092
0.594130094857974
1.64102645542911
0.242807536968759
-2.55952483665116
-5.64023260150496
-8.35005330769093
-10.6413430126772
-12.9904748209305
-16.1267628263066
-20.3496997517416
-24.8463155945535
-27.9381841654259
-28.269748840912
-25.6973005772132
-21.0536018360752
-15.3933643464481
-9.54897863319952
-3.95349967355271
1.44698842013949
6.88530957877497
12.13077151391
16.3003822384133
18.4736265875637
18.4105393438745
16.630982637869
13.9618429636719
11.1277491050451
8.68525173065903
7.11625854915016
6.72745035964857
7.360334623386
8.39180386227256
9.25605727961025
9.88043115225975
10.3910253711625
10.543993264834
9.83790711007974
8.21563470135288
6.33218109754975
4.99200925461841
4.44459928256084
4.2616067694498
3.79633851224774
2.7366072375964
1.27869732642251
-0.175617287462951
-1.42478477047867
-2.51461855732415
-3.4484077158986
-4.02940576236294
-4.07279935900601
-3.64759464564397
-2.97444766618672
-2.19768296787396
-1.52173263886127
-1.54946575650079
-2.99886994131817
-5.68351900989797
-8.07389819437816
-8.48974315869685
-6.7724028669371
-4.34009470645988
-2.56694600762787
-1.56179004324693
-0.635434884713798
0.51818671628424
1.48354161195799
1.8528943327162
2.02763877120878
3.11846963408756
5.91232685577034
9.87182865901761
13.211741805579
14.0405858010591
11.5612918910411
6.4805248981775
0.530411989540873
-4.54217204619404
-7.89771057938329
-9.73929058288367
-10.6379646904263
-10.9199215897363
-10.7524068623171
-10.478543991256
-10.4804658141219
-10.7138668365585
-10.6662166601632
-9.97992416024559
-9.03307611338989
-8.62205782553263
-8.96388208298994
-9.33728161367419
-9.0448406055346
-8.4548550062188
-8.51373825200515
-9.24453303140715
-9.34185885652399
-7.58144351487817
-4.32012347333914
-1.16459116465775
0.882019068971555
2.5560242464856
5.28707986850653
9.28875166573563
13.3317930376068
16.4563870876299
19.1614831082165
22.4716838544951
26.3300638145424
29.4118196901922
30.2645156735022
28.3404117567289
24.2901802677914
19.6556690699239
16.0028465675062
13.8608510802669
12.4237002162039
10.395628058218
7.08145529488251
2.67887128252968
-2.16282349964046
-6.76893652282376
-10.6311398555616
-13.7256133581053
-16.8225711639862
-20.9990454163964
-26.329978778002
-31.1605680515343
-33.1064872410062
-30.9347983507365
-25.4294496663323
-18.5721890009608
-12.0485227234633
-6.35425947445741
-1.00167436752001
4.52617642413413
10.0241069211886
14.7409824812773
18.0070578442083
19.3081592091283
18.0148023254215
13.867653341171
7.99183518840582
2.75072597998519
-0.0489266045017538
-0.726023647833966
-1.24185624324963
-3.28398501547775
-7.00155240887506
-11.3346271465049
-15.0707311823423
-17.4833369448091
-18.3786949217735
-17.9779389106808
-16.7579682930531
-15.0908594537719
-12.8816436023087
-9.65284595102512
-5.0221441420052
0.88778637350775
7.25029139572204
12.5691864483726
15.322538754355
15.128193273848
13.2303569159899
11.4568313732914
10.661688216028
10.3469466740104
9.63149732483507
8.24418878326961
6.57392341544208
5.08613649796464
3.94609907760139
3.19372242207359
3.06091235200982
3.8430973535773
5.39766009812625
7.01306872481325
7.97833075247057
8.1719336432348
7.93909486415677
7.50978348792829
6.75159150236898
5.513816303439
4.04212369816458
2.83944191947959
2.02551532217003
0.986174809296382
-1.09125520592716
-4.29191525571375
-7.73301581395594
-10.2855274949247
-11.4352019865723
-11.4659019880236
-10.9916893270495
-10.4231741480741
-9.86304057281052
-9.40893264425087
-9.31337581819012
-9.63107168622202
-9.84756602854013
-9.18964876822999
-7.36104158028636
-4.81531174294698
-2.32579198339456
-0.423475116241145
0.801834430319593
1.55010796790885
2.08029396278575
2.60797096055199
3.27583537856707
4.00056544929445
4.33343126477285
3.77563890060251
2.44943864266539
1.28981352492913
1.36113975421946
3.01029008274803
5.64862698235934
8.14976910898723
9.51157060053489
9.46912088371698
8.57654641249919
7.57541702179357
6.74361704948099
5.93872418178607
5.02628839153956
4.02391856445365
2.98999041245904
1.97504403338692
0.955521171417168
-0.270519457063327
-1.87490725066953
-3.5466980521668
-4.50676116496857
-4.21416207502163
-2.97937062752214
-1.74506167722109
-1.27152369340983
-1.55244570706236
-1.94539908970609
-1.72504829229931
-0.439527188737662
2.03407701670778
5.34410706409635
8.48500492117485
10.1648866426694
9.64074282460745
7.07374604149865
3.0888240977129
-1.58453246104346
-5.9379234148738
-8.82977207161647
-9.92179341638529
-10.2669624465426
-11.4878501042873
-14.3227860264488
-18.0523006060722
-21.1449633060617
-22.3444184516914
-21.3929195883917
-19.0164641948687
-16.3010704751355
-14.0405870705429
-12.5193899209136
-11.5813548099907
-10.6637419342574
-8.94983306092534
-5.89408429224302
-1.68681689831097
3.03811813441567
7.96802551514367
13.2170626576951
18.5245113177805
22.789439100937
24.8538040106703
24.5931676606984
22.8877063464086
20.6978278374067
18.5543174144373
16.7382850048038
15.347901959668
14.0638807209345
12.2762666431786
9.74275877142243
7.05631285324011
5.30482093353945
5.14861679546605
6.13728536404853
6.95058605087892
6.43443801761249
4.46937339251382
1.84310780429262
-0.599696924309368
-2.56296387570922
-4.24385894501878
-6.00105707095724
-8.09112030709232
-10.458373182094
-12.6681761997922
-14.1837007137219
-14.7934700126253
-14.7122015424202
-14.2640346397853
-13.5592825727021
-12.4792064033635
-10.848216867828
-8.59598582696924
-5.94112431685911
-3.52675073967416
-2.1119488465196
-1.78557390794497
-1.61490562914071
-0.528247628773045
1.43699535743315
3.24827151250558
4.32042253875819
5.25590095016288
6.84989899599824
8.84924645802769
10.1238292236326
9.83345161545343
8.15577714799014
6.05478946415352
4.52958553394799
3.9200327818081
3.74130184496956
3.24503775858071
2.25038427631212
1.39654562251519
1.51155962192131
2.72280705466424
4.17192826919978
4.57073650727301
3.09972656498352
-0.0690258218672027
-4.012047876669
-7.82522356290405
-11.183157466782
-14.0887764101255
-16.1489162395183
-16.4472683519414
-14.3886676713992
-10.4442016938085
-5.7527452898144
-1.20530681852382
2.68698708374815
5.29627488027782
6.0031076054646
5.03850174858884
3.70579165816502
3.35877877691472
4.24636922948464
5.49754951316038
6.10545369058083
5.78277179920944
4.92435937166394
3.91801794292104
2.66224539284483
0.784966056235927
-1.86091625818229
-5.06492365149087
-8.41887961620929
-11.3625411725619
-13.2260237925105
-13.5707551008707
-12.5322543444429
-10.6456396501718
-8.32389756863561
-5.66082250108615
-2.74535465511984
0.0695561130029363
2.46688210911847
4.75091332056162
7.8346291221427
12.3124962772889
17.6156768701478
22.4426061468069
26.0454366330001
28.7125647080687
30.8668518690382
32.038737704444
30.9966283806003
26.8273139133114
19.8220847982562
11.3815741592247
3.11619081141691
-3.98264085331898
-9.63119644341093
-13.8653398549267
-16.8946668390533
-19.2567479006643
-21.6675753556272
-24.4577556653979
-27.304332440161
-29.6709971214698
-31.3940724709138
-32.7036084040883
-33.7242933087197
-34.0280727016942
-32.664317870692
-28.6787659111705
-21.7973220906568
-12.8348308181485
-3.51811643056637
4.31227799352274
9.7472749573169
13.2938831581639
16.1735641506573
18.9523456188955
20.9547190434636
21.1405090052136
19.3875221126016
16.7418243684633
14.5723676767602
13.6891128026879
14.1322656056705
15.4226279484004
16.7716774323462
17.1885293704375
15.8481403225473
12.775797480493
9.19142637069211
6.89959723902497
7.07589661840727
9.47521589288144
12.6869415326906
15.1120073482939
15.7581820914866
14.2683243574317
10.5527819894275
4.82977515188266
-1.95291801847344
-8.24413221138553
-12.8571414062976
-15.7241401389012
-17.5215308513832
-18.7211192778931
-19.1741836691714
-18.4313467990667
-16.2471975805305
-12.8608104447656
-8.98552671675439
-5.58451117692294
-3.53753220305893
-3.22352476758648
-4.12659959435484
-4.9544840405827
-4.62158746439375
-3.36996249958415
-2.71961710006586
-4.11265335026546
-7.63491771136713
-11.9888938285414
-15.4706958648228
-16.9792443142941
-16.3862276856523
-14.1519525756238
-10.6375031523116
-5.84604477972617
0.184702467202296
6.90026696523581
13.238168309743
18.0901473367495
20.7943266223978
21.3349513651958
20.2330314791019
18.3106776080031
16.4070051931432
14.9766974554933
13.7707919176299
12.0815077301631
9.49216218788738
6.2536822509407
2.78810413741381
-0.906343823094777
-5.02228919501362
-9.25710310295665
-12.7514314737991
-14.8277472623853
-15.6614629488517
-16.1511773326862
-17.0914511610499
-18.3546095285638
-18.8172976095125
-17.1973155006418
-13.1429298110922
-7.64204165701831
-2.41602706284758
1.24489032190473
3.40516097896892
5.42130998002399
8.67200795931756
13.0093979889486
16.5680931313117
17.4047735571388
15.3276821643222
11.9363742207887
8.98244387099759
7.06970225995217
6.00304343843115
5.80580881172322
6.73847368656168
8.43019423462242
9.67286473218333
9.35994575408926
7.34006680454924
4.25213421805489
0.898439454662023
-2.03825150114876
-4.06311188440066
-5.11860923249833
-5.73889375322625
-6.6072349323267
-7.73295717547771
-8.1441183585975
-6.67779772540339
-3.26898305360005
0.671936950467376
3.38706282152213
4.22186110211184
3.83068706847513
3.21828050681187
3.01719470961351
3.58898881832091
5.1320914558582
7.25975811523325
8.86096790313577
9.02962499906598
8.16626469975969
7.62578277126881
8.04307033930537
8.43054915688146
7.28153519682819
4.2115388863251
0.0301231080527916
-4.51094596389765
-9.32012210530914
-14.313509880201
-18.8728956939077
-22.3114244074371
-24.5601093014219
-26.1366609468609
-27.5882618140593
-29.0736969456088
-30.2989140299129
-30.643740939543
-29.3574484531559
-25.8497357402215
-20.094122825268
-12.8902695777283
-5.56588133445134
0.783463665245033
5.7299983571271
9.24395520958808
11.4124391315421
12.699125414591
14.0814948662218
16.3691208912792
19.3673060681409
21.9891932434519
23.2452258239666
23.0695611940064
22.2436651296536
21.5701599496401
21.1365756972858
20.4563717945317
19.2755064778579
17.941890976453
16.8169128524503
15.5593211995187
13.2767122545944
9.42361411468787
4.53914338286037
0.105657586573601
-2.50198846903058
-3.13807622614092
-2.90537215551704
-2.98523922571379
-3.63993636783207
-4.43898985487369
-5.0916626298376
-5.69188173420949
-6.26765703781802
-6.4874931319347
-6.0651174733382
-5.43130590355354
-5.74134662556979
-7.90044199830687
-11.5363697543249
-15.1568197293503
-17.3764211486537
-17.7880794745043
-16.6753159043346
-14.333871481861
-10.992490438129
-7.19665882551709
-3.86260209655816
-1.70161492655555
-0.552229364092325
0.566496589885709
2.54635332682808
5.31977653669965
7.94457072640811
9.42832599866291
9.37133050347822
8.02648384324224
6.00419968567082
3.84534707625779
1.72457034666628
-0.302610542834459
-1.71243271393361
-1.58520059348283
0.364327935658251
3.06479673786736
4.84003557614487
4.89081860444808
3.75201827513927
2.27990008940046
0.584695962168555
-1.69914736161421
-4.32623227273705
-6.26446825240087
-6.81193568936728
-6.38932252824977
-5.83020958724736
-5.20453250766004
-3.79422014630319
-1.14590658619896
2.14659304194101
4.7008259581702
5.32093171848342
3.91425978156321
1.62260375593957
-0.034433754068467
-0.276152511628065
0.596131012423734
1.77670278273819
2.67285285598136
3.14047027937332
3.33622452869092
3.5292191258414
3.94475036744427
4.57171935196526
5.07705726941483
5.04111481212519
4.34051291484258
3.24216755084993
2.16146321095758
1.45679469381374
1.36696826843707
1.84412256815351
2.3912445199589
2.37984868254054
1.70088285541608
0.870300067482078
0.343180257623308
-0.0303345287562834
-0.697110922919009
-1.78089856016014
-2.9914405770539
-4.06056002302969
-5.10108983678499
-6.45825025860134
-8.16836110592357
-9.63764690861126
-10.0382112381456
-9.04852491127185
-7.05426339965949
-4.64520028789387
-2.14116465580301
0.385611314633288
2.91938769283227
5.4872852942859
8.1911207744135
11.091885280344
13.9690652801427
16.1120056324516
16.4788780102229
14.4027017224681
10.2420729788875
5.12664048927706
0.0308905210114776
-4.70765613983831
-9.03951205150629
-12.7639369420502
-15.6261791762356
-17.7158059724607
-19.5883386933533
-21.85816606893
-24.5271332540757
-26.6679382402315
-26.902186829992
-24.3887575015173
-19.4995304823013
-13.5813871696193
-7.93322820488455
-2.84810426065344
2.30256054502265
7.97482392461154
13.6850259972089
18.5549546710591
22.3148689749813
25.3184295745733
27.6883289644284
28.9111226838243
28.3631528806094
25.980250402463
22.3410872750641
18.2658637147737
14.4129255641408
11.1468355852696
8.59709261736217
6.66172482522451
4.93405940358503
2.86863426771963
0.29351042449325
-2.25129756134691
-3.89191488497632
-4.24714262281495
-3.86164680933085
-3.79824897548284
-4.78794322355147
-6.7219787099302
-8.85404284184676
-10.3828593315472
-10.9134264874555
-10.6229749184903
-10.0908315232834
-9.74875748410428
-9.35704874194526
-8.24802643532652
-6.248666314258
-4.06770928156205
-2.47462784769911
-1.34361847648063
0.0772279227734722
2.02228646636671
3.69090526174526
3.91617043471306
2.14000083004994
-1.27452548192943
-5.42100162062801
-9.33426416085443
-12.2501210933259
-13.8222412168907
-14.4117700475984
-15.0027069154454
-16.3189713723997
-17.7504805455441
-17.4078011803645
-13.6639466567601
-6.80032874848579
0.942894765414608
6.99710004962265
10.1920951870673
11.1135786390382
11.1894908586052
11.6699142072452
13.1705299214156
15.5386184607841
17.8950049316059
19.1535398182522
18.8358468763129
17.3395396587603
15.4029888306722
13.5435423090361
12.0478822756187
11.1353530720755
10.8399433398085
10.8503176598483
10.6656338203093
9.90485376163529
8.42993404102709
6.23046950512479
3.23753145512856
-0.687294211020291
-5.45067725569977
-10.4295018556255
-14.6812885052889
-17.5363434798417
-18.8971643823858
-19.0505409863488
-18.4412841907739
-17.5757803233833
-16.7227009124681
-15.4554437274477
-12.7556058227116
-8.04588261008965
-2.27743937426985
2.31825230095852
3.96788006782897
2.92050063639539
1.11281169740879
0.349239854646596
1.07179583161461
2.70020241324772
4.43925924265543
5.49680542681726
5.19735822896488
3.56296539309904
1.63012477007913
0.686525211452446
1.0503407535498
1.73437063097303
1.40269521635507
-0.29286053927261
-2.32352336431198
-3.32764182155578
-3.04642803304827
-2.52968632058173
-2.90191184730983
-4.20805322063667
-5.5459375254583
-6.0206054511423
-5.4089015712393
-4.07636769459732
-2.40243704587005
-0.369516572846041
2.11664160272804
4.54753599308359
5.88505556399194
5.6141653020066
4.5300386323163
4.17616782397953
5.47923187629474
8.02666081551431
10.6084688587798
12.2712048258295
12.7757275499038
12.2410179574668
10.6957298597342
8.12222845104406
4.75528113810909
1.11169649282431
-2.31411922495725
-5.35451472153978
-8.16476298541603
-10.8705501198939
-13.2281881281492
-14.7689593720624
-15.2565922377996
-14.7310200869735
-13.0802345434982
-10.005695541488
-5.67165187823401
-1.0601400040162
2.69826929661351
5.28903783460988
7.35765276376134
9.77859896471898
12.8140574242821
15.8135401224777
17.6874140509719
17.8300955125003
16.6187531922995
14.9458205181334
13.3667786678626
11.8303886943648
10.1214914807254
8.3532237685839
6.93420322034956
6.03016972877515
5.09782600069987
3.1310480754742
-0.467221200675099
-5.30700555068078
-10.4062016690515
-15.0757483877803
-19.2611231832457
-23.0765915042652
-26.2568024903737
-28.2167295080656
-28.5750637388785
-27.4640772575343
-25.2987635660756
-22.382280952508
-18.8057365913255
-14.5444179431979
-9.51620219158527
-3.80794332588169
1.8831958617309
6.28925901909754
8.50140860872012
8.87318785705709
8.73567929626107
9.19325545738031
10.3230525773091
11.4438617254726
11.9115218394862
11.6039045506135
10.7996620912483
9.73595483758283
8.34088708732621
6.39503599067987
3.8992404502921
1.24301926868421
-0.963243769728776
-2.24377530438382
-2.56811375280184
-2.37343259243625
-2.20831073250501
-2.23928026586913
-1.99442593780489
-0.555220622961977
2.80136560960092
7.83595117293217
13.1707220646425
17.123559860261
18.8662711089177
18.7345715116939
17.5495375449338
15.9260942128378
14.1761093219597
12.4439540005617
10.7050995381676
8.79347548009292
6.58217798116804
4.10952897545155
1.51207898452999
-1.10850734517362
-3.69490905045716
-6.09653544776155
-8.02468477854779
-9.31667736672925
-10.2352731232732
-11.3054148286847
-12.8003790700644
-14.5370136908551
-16.1759567233893
-17.538669043148
-18.6410032113657
-19.5976660964065
-20.3969828389787
-20.4995304053567
-18.8262300116775
-14.6721392058581
-8.76100156875285
-2.97186251396443
1.28726601733574
4.26846472712792
7.21973361708857
10.6543798079749
13.5860808724415
14.5269781252343
12.9771754984501
9.78756322415121
6.29244798467112
3.35415989023234
1.13443250335404
-0.585175138341573
-2.06597707864633
-3.49551967070776
-5.00924681120081
-6.64449219103441
-8.16001314580796
-9.01418715441876
-8.76568265859343
-7.51168346005381
-5.77396488980676
-4.01775583393799
-2.43023629257177
-0.971349474540742
0.640157115261124
2.81313407331492
5.58722976092897
8.28929958908676
9.9847408023902
10.323938382567
9.80186774244732
9.19256211133034
8.85215400304023
8.58168505138009
8.04282165640941
7.15554431025981
6.043938843489
4.76739341463496
3.31730337940675
1.78294742645634
0.272235875423797
-1.25971731082585
-2.8254085387375
-4.07251456684168
-4.40774861945776
-3.54290750222669
-1.82065510929607
0.0457589932458476
1.5721000274546
2.90977465788744
4.65907125646023
7.21536407227867
10.3122028642418
13.2099283551512
15.1803870591915
15.7550367591441
14.7942344273343
12.5999232382609
9.84266977779827
7.13396829148198
4.67389529005458
2.37965942989591
0.223975413225551
-1.71751847090351
-3.53023821880966
-5.59739055247071
-8.27910713332348
-11.3975667784047
-14.2022919813227
-16.0202992303576
-16.890040246852
-17.4296537836968
-18.1201327869621
-18.7691623190342
-18.5765332335703
-16.724225023345
-13.1400043174647
-8.78372928234916
-4.97798195260462
-2.34068255047382
-0.502022762162677
1.12509970585298
2.50465202627983
2.97973425153459
1.97036599289511
-0.457091451105454
-3.69888995632126
-7.13835177923269
-10.3778071545622
-12.9829243187589
-14.3346952691935
-14.0353548938604
-12.4020276117067
-10.3195146007312
-8.51625191796436
-7.00584123124867
-5.1839526052493
-2.41551655786929
1.40732397145174
5.79747461216256
10.1234055181228
14.0534110477116
17.468572277025
20.0209420219377
21.0197969605809
19.9401046048213
17.0788160647491
13.6536467873808
11.1292614746213
10.2566217084017
10.630396661547
11.1904821005183
11.2265896446331
10.9008688026993
10.7834135058122
10.9888614074029
10.9598832213908
10.1674820191108
8.84475957176653
7.76975193515677
7.33433038112139
7.12860784865644
6.56287527530835
5.6034030400297
4.66581256680882
4.02542469986896
3.64815694772861
3.46835645565357
3.47348095409987
3.46515208817767
2.98804607174841
1.66328807399882
-0.424170715702666
-2.7229438185913
-4.65120785461529
-6.09238281572259
-7.47262645124358
-9.37160562785481
-12.1214951275099
-15.7344039240667
-19.9960271541033
-24.4639158074084
-28.4360724610233
-31.1251960104843
-32.056709071215
-31.3573591590644
-29.5863255891782
-27.2810974723625
-24.7592345532704
-22.2097932992262
-19.5257767207412
-15.9228487552702
-10.2848645753922
-2.43697434912225
6.09137229111767
12.9952730927571
16.8679409605889
17.8718341410883
17.1857006905938
16.2135425994775
16.0189922870266
16.8620792014446
18.0672732809459
18.5781103578847
17.8448885266261
16.2011325072613
14.4127241940149
12.9857302476286
11.9633856839667
11.2011678171683
10.5504134093198
9.76303400204704
8.51637894451176
6.72374625973177
4.70847573760285
2.97865248134107
1.9232070050763
1.69047422152378
2.10890323592091
2.66908955552837
2.8203522632051
2.40382134901368
1.71819367442872
1.19904347232389
1.11861392352735
1.44801708249891
1.82330499591108
1.75513480713486
1.07658717041028
0.137312146654357
-0.592111898396238
-1.05718680915202
-1.63000652527157
-2.60714760049977
-3.8038741484714
-4.6899906121713
-4.92309315802476
-4.72373591849733
-4.69340299767401
-5.27824470007877
-6.42376930883644
-7.69430598719393
-8.72688254074185
-9.66412248208271
-11.0842439168249
-13.2859209675212
-15.6657694232029
-17.1067154493836
-17.069623909082
-16.0695319602864
-15.0186364023442
-14.3133288467421
-13.5281618822323
-11.6835363198379
-7.88593661489897
-2.25288675493193
3.62697358058185
7.68950026752446
9.28712231596888
9.85920880962289
11.3328627447775
13.9388357446319
15.9484296967916
15.5863361380624
12.8847303378566
9.52575369988584
7.16133842177016
6.18205353116195
5.94632365725277
5.73398701332463
5.27761512273748
4.61341586370033
3.75494869402546
2.65989590775135
1.4881869152927
0.732086670968354
0.892331344337506
2.01138436149048
3.62248522458018
5.03021048833648
5.48305646542963
4.40103187852893
1.95647175116452
-0.635728003732394
-1.91598409706649
-1.45189232015179
-0.174482877587901
0.478980101530344
-0.397479915401514
-2.70664036972758
-5.41470019197273
-7.10734552087412
-6.99607295410343
-5.65026505153377
-4.47275523920901
-4.15549720051565
-3.80543815705712
-1.98211914709525
1.39563442576102
4.66257913803484
6.20445878381031
6.23624807815949
6.31608284088954
7.34846689106121
8.66130683999362
9.03658198901615
8.09638320811396
6.45957354880469
4.87496751515611
3.4893203520537
1.85765349891042
-0.55943783316068
-3.94925869832103
-8.03116615514199
-12.1951353565783
-15.7302898475776
-18.0835550009255
-19.0854412615897
-19.0218405162189
-18.4746119987864
-17.8970532069301
-17.0607416913448
-14.936722137642
-10.5121618814365
-3.98424137678322
2.99371521123284
8.45516878927709
11.5624643551827
12.9932971726887
14.0241212854068
15.2472480302121
16.1572062242866
15.9718347725765
14.6510204006836
12.8199137765812
10.8259682135817
8.37664803123229
5.21693109408095
1.71799509012665
-1.44116657224765
-3.88874338217201
-5.6290878526834
-6.64829041053059
-6.66222747542184
-5.33708758703756
-2.77209064332397
0.325712316879048
3.07506292583957
4.98686271303427
6.01263132536126
6.22990637477798
5.77404991811394
4.95994597029535
4.05738531427263
2.85540328605314
0.729003318836249
-2.71700871132174
-7.16683307389239
-11.762469005935
-15.6257008934264
-18.2039261467109
-19.3091958240361
-19.0937366828247
-18.0350174746109
-16.6258821525065
-14.8019433088772
-11.9189373810189
-7.68082058480267
-2.86806397987522
1.37909568787265
4.84392232445493
8.12762421274834
11.2775669355346
13.3505050170967
13.7210720442789
13.2287314038283
13.4518366200666
15.0263395560718
17.0619014871823
18.1323225822734
17.5249327877866
15.5416374216063
12.9787352161776
10.5778085717759
8.76074246847342
7.50899435252728
6.43384583080353
5.13185210053313
3.51443726904662
1.78905014838915
0.285011258874225
-0.626026936803524
-0.703113953788134
-0.16180150285826
0.321633632242795
0.110470165963099
-0.965736819352536
-2.63614037164513
-4.34685467471948
-5.4608406689784
-5.8174043535438
-6.22589933379298
-7.8921295541697
-11.0626615578355
-14.612155960323
-17.2699508474009
-18.8930199872924
-20.1142681066157
-21.043254175986
-20.9748024071005
-19.4080687008081
-16.6880554807486
-13.30713638781
-9.14893035790704
-4.08790283540068
0.929911523322987
4.21478012094318
4.94884475768327
4.06279079805614
3.3673440678507
4.03109694609313
5.82246017916431
7.50416860879562
7.9830869210877
7.35143382922753
6.8031719379016
7.33132355863345
8.57290316225947
9.19212452878666
8.39566843952499
6.79430782843241
5.66045899662665
5.54664596261083
5.84855247451673
5.66005829705536
4.79402496750192
3.8221405006715
3.28754474985535
3.14366567817512
2.94868277070686
2.39782892500976
1.62757990252138
1.09201423974158
1.10799001703859
1.50639473832652
1.88924259498733
2.21921031307579
2.80614253633559
3.56167881557433
3.67765660703362
2.48236755189447
0.503477890745287
-0.732190912768384
-0.118396032149863
1.92828303977529
3.86051845007545
4.39408162017122
3.39353340368579
1.51208006894248
-0.625225020654247
-2.64335498201562
-4.14540751722149
-4.71633580606422
-4.3282522902428
-3.57767886484436
-3.34058253826197
-3.9973170156348
-4.88925560516809
-4.75749234311128
-3.02639735167741
-0.575994068446478
1.03507978868542
1.0455426990719
-0.0328970411089485
-1.21542018341611
-1.93319856570484
-2.21547885869555
-2.39832229742653
-2.77934912488551
-3.42863175568958
-4.26858067367662
-5.26572752471056
-6.42938462835858
-7.67669919303552
-8.8426422798232
-9.77600304386759
-10.3063510650655
-10.1872916655184
-9.20504690463284
-7.33953581595946
-4.80723623581478
-2.02228891771129
0.49507697025165
2.32174465704005
3.34861467140024
3.81392748987782
4.14679310186616
4.74241349041569
5.74128246338535
6.9273525844069
7.86982156045208
8.20150936239194
7.79411942897093
6.77491088440208
5.46882261173057
4.27838803063964
3.50441134564295
3.21270300511001
3.24591700589888
3.3592030119192
3.37981924748734
3.28542635704745
3.15689592212926
3.09130302372487
3.18413587410458
3.49931597498107
3.90884467683924
4.02223215484548
3.50732514569695
2.52965836378478
1.69407280546602
1.46461394877107
1.71663671754704
1.88935163067462
1.54260051206458
0.759894616841384
-0.00513794189845894
-0.479613574577752
-0.861308334924711
-1.47969843999847
-2.33092875307525
-3.15572590072062
-3.8626805112182
-4.59970057706722
-5.42970317770044
-6.18703849413958
-6.7096548446318
-7.0685658921166
-7.49968200773426
-8.11178002379108
-8.65016787998655
-8.62369493658584
-7.79285097991276
-6.51373776602334
-5.46711732465033
-4.98435981300569
-4.65048978003998
-3.59987711783361
-1.28630379780744
1.94924020000433
5.08623145304644
7.24807373111861
8.31984312450691
8.81766312401263
9.31780390950457
10.0214986575934
10.6631460423156
10.7594355869067
10.0880828522952
8.95709904895438
7.92074986645366
7.30805331457631
7.11252042421837
7.13859559753927
7.03764011385652
6.34177970739446
4.75893276068866
2.53815972881955
0.468591906138285
-0.644046140654561
-0.724495049043047
-0.744917680805093
-2.093814558877
-5.39226087420073
-9.94110289821071
-14.3596730498038
-17.5870162812849
-19.2161220676281
-19.2418476160209
-17.921616873346
-15.8750477281965
-13.9291424828869
-12.4843361685958
-10.9873542825552
-8.36624855382008
-4.29010921978131
0.170968063543751
3.47288709526087
5.07263995818747
5.65345727752263
6.0399359382162
6.36624997989429
6.32971544056081
5.82315603157288
5.13510065717476
4.7280309086697
4.92632557109001
5.72711425591261
6.84332237024767
7.89362227255634
8.5433537249255
8.58728980633339
8.02909832693154
7.04168313101936
5.79806619867059
4.41513668357285
3.0560914424094
1.91631212633903
1.04743126632951
0.343639163556824
-0.224040902445452
-0.495386384558877
-0.35382267112127
-0.00399448596988454
0.102293446316808
-0.329715490234409
-1.11824629327817
-1.7536960146732
-1.90613453158207
-1.70953531669663
-1.49287289433435
-1.37490752103072
-1.26722478190897
-1.16189768949233
-1.2150825179852
-1.55044489296752
-2.1084233883826
-2.70709683375668
-3.16125670670857
-3.29706859771192
-2.92300461533216
-1.93846768953255
-0.57055078935719
0.595000163704268
1.03375666394734
0.780652521666411
0.362803864781902
0.215983180469454
0.330882257358124
0.482385046874046
0.589963247397925
0.748291985849548
1.01171909041087
1.24956798678867
1.24439292757322
0.952672439610333
0.618134796059754
0.535553462725592
0.736387956390086
1.009004874457
1.17403067606064
1.21124319863948
1.17750203832705
1.15894383845783
1.27682048708192
1.60433261574156
2.06321337258997
2.44019320496262
2.50058484824719
2.15113670171074
1.56745253234975
1.05899150907205
0.69828362905782
0.206551029717115
-0.665487088076134
-1.75631864271253
-2.61282630197448
-2.93566916902501
-2.89743149412738
-3.11054387771001
-4.20112508409794
-6.20163415877518
-8.36770386973153
-9.76521744461458
-10.0398242615774
-9.53892412101272
-8.81865562728878
-8.18115178864111
-7.56924806152805
-6.72662722189957
-5.45810058908743
-3.79164990054682
-1.92133600799852
-0.0752725624164488
1.53082856984487
2.74650455670069
3.6251167463563
4.4694595160339
5.6137216281948
7.0723012067869
8.39259057359863
8.95192720695663
8.54074215415696
7.65695225378252
7.10621507036095
7.29739613747639
7.99755921742904
8.66480294952181
8.83553673760042
8.30273226439403
7.2129588530189
6.02055566472897
5.16233667959618
4.72561596836999
4.46071134396976
4.02390017667976
3.14929531971548
1.71401807662753
-0.228637437561808
-2.47570996536125
-4.74402381235914
-6.72009682928447
-8.16563333443561
-9.11013484937147
-9.86929101164792
-10.6945669690289
-11.3611479179017
-11.1824631895578
-9.54413620055692
-6.56893206190034
-3.28658847903227
-0.935819316902586
0.0830893877265114
0.477527552654319
1.21960586936589
2.57929127989705
4.01789760481266
4.78605540592936
4.50694107410847
3.38043171451803
1.99160762444582
0.876116459674349
0.238765188147893
0.0851682148823732
0.434242684133754
1.22168234848878
2.15161243117082
2.88428915388714
3.31102732121835
3.49469035523335
3.42484224659269
2.98290424373338
2.13338621951503
1.07007257839984
0.122003439422772
-0.564551407804646
-1.27755820359074
-2.52858697897861
-4.43285835323956
-6.36142597972052
-7.39997909190737
-7.19879548932596
-6.24579773876998
-5.22730325787452
-4.23231573640517
-2.77567740765405
-0.618831379626397
1.67615375025598
3.20426550324631
3.59875115547613
3.25835723594965
2.79952202729034
2.5017041288688
2.26717602528133
1.95976604901391
1.71915620373654
1.89427803242433
2.57490867585575
3.26270401125546
3.23598098694945
2.28910670013863
0.944524296683401
-0.093084654802367
-0.536014799432174
-0.577423480490103
-0.560473946899963
-0.665967912016244
-0.844083409066963
-0.975299464459767
-1.0226291576702
-0.965729169212652
-0.684264661098078
-0.0787185799456156
0.696768432173896
1.26330649587935
1.34631182361659
1.0522568323576
0.775503130576586
0.779445101761364
0.877893074424097
0.641506959777858
-0.0399844914075468
-0.750283840307061
-0.998357606941356
-0.736507133405644
-0.322550501443808
-0.126291705874624
-0.303011381766053
-0.802014298044859
-1.41802723447218
-1.85641098581201
-1.83872271562254
-1.22662421353397
-0.162668472620229
0.88178529610377
1.3412175955299
0.953184216645291
-0.0813527647657867
-1.28556232384769
-2.17656646678509
-2.46598301325708
-2.21370639644461
-1.79853466278416
-1.60148148557817
-1.70376925597706
-1.93081903733586
-2.08945115727922
-2.0874751859098
-1.93215385682015
-1.69825097708789
-1.43717424683034
-1.10005770458144
-0.622896872081445
-0.0832853664306238
0.304113121069514
0.37570984415274
0.202749638721193
0.0940967156736856
0.371852653501176
1.0835094563411
1.94901047005625
2.6060449573924
2.85095601070705
2.67305556540679
2.24401938339562
1.92622611267105
2.06916411921607
2.64572421336118
3.19239858563333
3.19171896709942
2.48774842439142
1.4083367092399
0.600663709242105
0.659858868774393
1.74059048425518
3.48118117040088
5.29323703193498
6.68101570136414
7.36956434781415
7.33595677676554
6.79350053853105
6.04676155456805
5.28776828656717
4.50884377097594
3.55006203992418
2.23428248097455
0.579791038619461
-1.09574163517465
-2.41102691414094
-3.28772674643562
-4.00298632365318
-4.92154871532703
-6.23243648126664
-7.8022075929206
-9.16412144786701
-9.7991097259447
-9.58977742347933
-8.93457296147354
-8.33719964276213
-7.93732578658882
-7.42839749030195
-6.32468617688991
-4.37539026003188
-1.94285325273077
-0.00846991850655595
0.414009665409432
-0.921466100061299
-3.19240866591794
-5.01017292749352
-5.35584286245101
-4.22486091733107
-2.47463927705876
-1.06909064621285
-0.41690107012458
-0.248048763831578
0.0597680841657983
0.972367816638314
2.4075773797291
3.80077170258663
4.60706161424292
4.68683155555843
4.20617447829991
3.39702361787501
2.5706264876396
2.14423181957666
2.36314319254678
3.02565127247897
3.65566277646233
3.9561160283733
4.02977079444515
4.18212306500637
4.55701186910604
4.9789139512137
5.14930355456413
4.93844884635026
4.41852223831555
3.69329170194129
2.85341412282061
2.07096840554132
1.54339712924136
1.27214054789781
1.0113554218037
0.526890614101193
-0.110051481085794
-0.521845754883873
-0.356963970922192
0.33085744718687
1.06850902688388
1.3873311018296
1.21333817209814
0.796805479591205
0.375489523074284
-0.0021710370773676
-0.43562302952094
-1.06490847530167
-1.93685484722317
-2.90700271407961
-3.7123768920609
-4.15702476667337
-4.19596225919101
-3.88900029394728
-3.36447399160469
-2.81066967015728
-2.42348636330709
-2.33459161888935
-2.54965925457635
-2.88976965783036
-3.05697796919691
-2.89212355804572
-2.5220306433817
-2.12665312940748
-1.65625093364636
-0.957100388037967
-0.10285711822332
0.600548199717552
0.933748599278224
0.936124022877501
0.750036939511529
0.446924844459565
0.109587922561474
0.00226869594853939
0.461942710365868
1.51032889244597
2.67113658936221
3.34016578924473
3.34401541947822
3.03818346544148
2.89762478259413
3.11914634918567
3.54035920212384
3.7827604258019
3.50476816299592
2.62854001848779
1.3142529462652
-0.260514368969966
-1.94622446130436
-3.44132170561194
-4.29217172180874
-4.23473662486401
-3.49709704696211
-2.69926937360527
-2.43034962366549
-2.84431189989654
-3.59425530769027
-4.18730321353311
-4.41400323531785
-4.37823572393615
-4.18164782653822
-3.7625204419963
-3.05064391202907
-2.12561378125452
-1.18461646805506
-0.407531413649969
0.17805777221907
0.715251651342831
1.32136890318547
1.88178876508921
2.16739342857104
2.15955476720935
2.11893457776923
2.30462814182625
2.72538114388237
3.18033582740645
3.47526388772934
3.59803275382014
3.70102644948741
3.88760195067552
4.05728855020172
4.02954850361786
3.75086229769075
3.30949511095086
2.86430691583863
2.6312102958971
2.76302970707763
3.11631953465829
3.2780679207119
2.95052660138454
2.24498154783152
1.56312968838768
1.26665731813644
1.4384027443023
1.84154375808821
2.10505443843113
2.02816160767863
1.69625320076669
1.28785898037438
0.855620458622974
0.323814743306529
-0.390975365262213
-1.2872971476673
-2.26612974326367
-3.22900051709744
-4.18179024589879
-5.15502250763258
-6.0438285873204
-6.65135482553112
-6.85711286066622
-6.61055273789722
-5.84713023545603
-4.63558413569753
-3.38311609993257
-2.65107368885416
-2.68215446029342
-3.20424088303521
-3.69399099415474
-3.75843285731333
-3.34151250020516
-2.69910850487153
-2.16674644893814
-1.8949990013212
-1.81677039749596
-1.83032734290568
-1.89983899948446
-1.93607903552258
-1.66420723406317
-0.76076214829465
0.753554727724806
2.29823146857131
3.11266911189217
2.96197330092479
2.36554322061552
2.06229032804455
2.35274795276025
2.97397829126135
3.4246097680474
3.34081214189315
2.72947300100071
1.93135844386332
1.2793283837496
0.805494471684543
0.361894446556681
-0.0722189036591381
-0.346545288879664
-0.326016466581715
0.0281947966348478
0.755074352886122
1.96333903498142
3.69643824260485
5.65190759312511
7.11804786309281
7.42907617825878
6.57971166763234
5.23745747879366
4.0791215182052
3.26037728322534
2.54669616353597
1.73003220676672
0.828729632635611
0.0512329810734303
-0.354575546128063
-0.306236863391015
0.0414578743488596
0.461896535664774
0.823098714083466
1.05232252941372
1.0416829829431
0.660319963808875
-0.173788970418472
-1.41703026829926
-2.8345519517226
-4.06166679760091
-4.83089922282277
-5.13935615765937
-5.17407563412363
-5.12871624048231
-5.08454108231872
-4.96111629428844
-4.58424205988748
-3.90480837883155
-3.11352917172463
-2.4434982334138
-1.94362759819029
-1.53999209994388
-1.19421831662543
-0.897496775249935
