3.37784447235578
-11.5106882287786
-18.6097337733864
-19.0509429294952
-17.027074265079
-14.7084526987488
-13.1903670101799
-12.9159430621555
-13.515801381709
-14.0664299756579
-13.5948858880808
-11.4984100485743
-7.80119787550522
-3.10303236841382
1.79045572377192
6.14687118587092
9.26578256651094
10.5693858680759
10.1129308621138
8.83910120893024
7.9249010686878
7.83813838549848
8.23779539232983
8.77706206215473
9.78169672658595
11.9818358614821
15.5202116864545
19.3366143775649
21.8638893841017
22.4976049169487
22.0936792137618
21.8043300250002
21.7327979260828
21.0245322369156
19.0402636921758
16.1111161120193
13.1805548170369
10.8483031997255
8.79485492176154
6.22172728148353
2.89406434194286
-0.488784896759162
-3.15865930867977
-5.25944487637155
-7.62332095935951
-10.7345833998904
-14.2900319748423
-17.7021302077537
-20.66009357519
-23.1392784570552
-25.1456407038111
-26.7000003219695
-28.074726956024
-29.7653842721645
-31.9017204585742
-33.735581384682
-34.0601524104985
-32.2546297331785
-28.7484759369833
-24.3637985590688
-19.2036612587257
-12.2464092609896
-2.37524092528106
9.84609809320187
21.7309738328662
30.4171151994767
35.2031701911755
37.5310097846796
38.9812970176854
39.9862386147372
40.2436193532718
39.3965199704817
37.0389703582652
32.706854306799
26.3921138276999
19.0162963865337
12.061512846434
6.38299575954491
1.3029352380982
-4.7787214722852
-12.5427500994688
-20.6734716408174
-26.9519459810629
-30.3658109369824
-31.8235052397805
-32.7500452402569
-33.2607466369559
-31.9492398259462
-27.4970750590943
-20.3354751436055
-12.5057389010643
-5.94650933741871
-1.25410967167211
1.97052471590953
4.28250065404737
6.23956418514983
8.4553773343286
11.1446749643644
13.7323661770648
15.2554930171951
15.0839787037969
13.1477456008777
9.79222187954273
5.8211539928252
2.57046382136822
1.33706356484996
2.26424311043542
3.96456255906279
4.77451889777576
4.4782234464933
4.3885339176834
5.63055116616303
7.73738264141107
9.03288818623067
8.07532976643161
4.80484646234487
0.767158348538543
-1.80918772918285
-1.76044804982029
-0.125490016998686
0.663695231746416
-1.10281300812294
-5.02295479840274
-8.98986702335834
-10.7792382855454
-9.63425747220009
-6.83920262983252
-4.76114931565545
-5.07254165476403
-7.80606572676113
-11.9261618974133
-16.3845803403593
-20.5041789010102
-23.7207719274703
-25.3804373419852
-24.9456120210528
-22.2689509602602
-17.4297957621643
-10.3995217575694
-1.31130914215034
8.89250639271608
18.6108534881575
26.5884164863047
32.4211640300131
36.1486941960991
38.0597283747547
39.0139117950099
40.0994993154524
41.4423289545284
41.7606662147061
39.4521382468093
33.9405394901579
25.9878309947197
17.0977677752553
8.64360546611664
1.12237595524495
-6.03944270903556
-13.912865998705
-23.0970009350077
-32.9197614884505
-41.3140959400025
-45.8608452924763
-45.6207569139266
-41.9547783158711
-37.1209923172631
-32.2207712922163
-27.004334012503
-21.3715392034308
-16.1852448773134
-12.4259211255449
-10.0888591423089
-8.20030691734272
-5.73696452017631
-2.40920969147515
1.28146256022009
4.45780186175748
6.28225535071176
6.37499744932328
5.2708662879977
4.32714743892696
4.74478199489318
6.61827395796152
9.05500789530265
11.0506296475259
12.1633565697343
12.6532321244129
13.1616813711319
14.0754751297022
15.086116370727
15.3806285604183
14.2247221663011
11.6303787883
8.9094107723618
8.19751776461258
10.4225496004153
13.7359485976101
14.9946525946853
13.0419293976316
9.71951074205118
7.52372601317215
7.12556079231861
7.37005413052524
6.77103464800527
4.48242846424614
0.424405003670781
-4.80217641153257
-10.03927946726
-13.9005096208806
-15.4043049548738
-14.7036411250015
-13.1095406666518
-11.9068400554514
-11.1223984924984
-9.85766611549464
-7.67594017266767
-5.09466068123073
-2.86205352632762
-1.48703232251712
-1.56169253579443
-3.80065565209009
-8.23636476393392
-13.5545938444769
-17.5928153065342
-18.6534770441659
-16.5013578405289
-12.4651645501216
-8.76099314314305
-7.15865807341834
-7.41259760111602
-6.99010735615458
-3.33550830830956
3.10311457279108
8.77681434905387
10.4785933713986
8.40862634387646
5.49348444851521
4.34714957533705
5.53308383423511
8.34081888277437
12.2601603961565
17.2285789009953
22.758786984315
27.4933201509929
29.9539952904696
29.3595073036319
25.2912437639996
17.1728173234348
5.27342031461485
-7.76959800524253
-17.7866200283918
-22.2979434976501
-22.5641898999721
-22.1611190437633
-23.7800297740883
-27.2397889689612
-29.937696416001
-29.0235698960806
-23.4889443630401
-14.5207941279015
-4.24955500218101
5.52694809324694
13.8446777868872
20.6978960295346
26.7805695345781
32.5271016700098
37.2615617425991
39.5971305384046
38.6362943433247
34.579178104613
28.4495892405755
21.727500526095
16.229523564548
13.673397493293
14.4815828016639
16.6976845189211
16.7430359976585
12.096880464035
3.25452407274382
-7.30636047375087
-17.7509478366229
-27.8536639411675
-37.5904897582309
-45.7086488570144
-50.1968767431895
-49.9294518383718
-45.5288421414499
-38.6742484064408
-30.8460328857283
-22.9124658738305
-15.7001654563156
-10.313981059571
-7.43257207713091
-6.51842834231982
-6.16982413342062
-5.26925791376906
-3.66929075000696
-1.99655179006401
-1.08399816484899
-1.49635783508494
-3.2661906977515
-5.81852057163344
-8.09104145915498
-8.99557529919423
-8.15610097872819
-6.20091312392531
-4.02994245781008
-1.84683289475423
0.766130819202486
3.97896208911405
7.38249207404928
10.3983841368203
12.5472076074223
13.4879700219357
13.4502622481504
13.7093699437192
16.0092542513613
21.020563942622
27.4804592361848
33.2428354684335
37.2527323686746
40.1384808313358
42.7126705201402
44.4548997954343
44.1435866943431
41.7326895691959
38.636907871699
35.7993044339817
32.1340127851158
25.4439805921245
14.6741813710218
1.12749715283622
-12.0708494007744
-21.6123680733511
-26.0208600404054
-26.8616768563681
-27.6602230879747
-30.8592496582527
-35.6046615554138
-38.6888078872158
-37.6820697391597
-33.0582677143585
-27.4293251796958
-23.1201333764212
-20.6943843946387
-19.4065825309178
-18.3227670825779
-16.8101750189013
-14.516716220726
-11.3859328641429
-7.68433414581777
-3.93096648370585
-0.797838898295199
1.13993029548988
1.78051640667781
1.52410897701348
0.864530209030959
0.12973579232108
-0.471641078482963
-0.954427773590025
-1.68708533789951
-2.97269303853282
-4.48823777612647
-5.57476933514763
-6.06320151795363
-6.31115244872556
-6.39776054301068
-5.83864836009184
-4.27953999338605
-2.02858846289551
0.376230865279461
2.85339746143211
5.65964980639875
8.57313022539
10.5741890353193
10.7413982573707
9.37479444316758
7.77616678558926
6.88752937706666
6.65614770548905
6.87915456992529
8.03003875646639
10.6402614233704
14.0399768881782
16.3977254739819
16.4561987212762
15.0556270471143
14.4391664414274
15.907235858626
18.5124887782344
20.1962958592634
19.7727217551598
17.6123312986153
14.913828191696
12.624107421903
10.6147551034754
7.68713368077186
2.96269130907269
-2.45101077767554
-5.87188374121807
-5.71962680465786
-3.43086604158673
-2.18788045589782
-3.95438345253613
-8.19059273375299
-13.1596324008672
-17.6262446150703
-20.9911783115113
-22.544717428839
-21.6337379815946
-18.7373433554815
-15.6021002253228
-13.7024088193995
-12.8700056504273
-11.8985304523345
-10.1554453222635
-8.03842808033855
-6.12095143181381
-4.54690640597538
-3.3046355348866
-2.56889977709013
-2.50191733247975
-2.86991234690629
-3.08391545070328
-2.728099070524
-1.96288428164302
-1.23968241195837
-0.725571921293426
-0.29704404260751
0.0447709860063072
0.221977357295693
0.455147472041957
1.01306679967215
1.53587287407583
1.1450771067124
-0.569470084708965
-2.98294248426534
-5.05464240900742
-6.39194917709212
-7.46927313249182
-8.63505043778479
-9.07036955743282
-7.20905131527091
-2.35469519473389
4.53905024863125
11.8939429343862
18.7335342203199
24.471715209115
28.184885241296
29.096050719478
27.694920498543
25.4801813987889
23.2277391791852
20.0209866626389
14.5413782485432
7.1943847005468
0.318934498067408
-4.01096564854383
-5.87542429856291
-6.74082123497161
-7.4097100794058
-7.61029452659552
-7.24339376074586
-6.86711642333678
-6.78525845646098
-6.55253722041164
-5.73230345658253
-4.56512457399701
-3.55478104470822
-2.78337291415254
-2.00684638789489
-1.2646456661364
-0.966847014176474
-1.19673072365374
-1.25621070863348
-0.374349990901154
1.20414120226379
2.32061926515052
2.12796281750932
0.773723207389997
-1.1524746463137
-3.2966948571301
-5.48086596553006
-7.48273599356495
-9.24950896133618
-11.0625998213342
-13.1664745326971
-15.2752590842278
-16.4856013664025
-15.639874390165
-12.0684414749079
-6.34164308066456
-0.119321703221578
5.11544686160891
9.08466847588226
12.2764388844539
14.7452694527812
15.7389184075655
14.4642826055373
10.9147756617551
5.88406544307258
0.443731509110177
-4.36311173660841
-7.56471791098822
-8.58296868297106
-7.71455987175654
-5.93496809254044
-4.02579378066059
-2.13703002268292
-0.21322049757147
1.59198413943332
3.07659587653924
4.23255483902341
5.16418510001867
5.91320282322643
6.42567202809439
6.66763278096117
6.76412465918751
6.84954867868519
6.64133251506099
5.45399408852021
2.96298138953341
-0.261787249904499
-3.29457952019752
-5.69470336104766
-7.51120557885032
-8.74986431946498
-9.2670528581496
-9.04903908312241
-8.2615235468968
-7.11174784379846
-5.8148568004916
-4.48493006695609
-2.92211010279388
-0.716086828797936
2.35211614504062
6.09917961610784
9.92732637763068
12.7866778876739
13.4832214119495
11.54878174334
7.80938988978991
3.8390692159967
0.865648111524704
-0.780926279219125
-1.46575638225726
-1.77060731718716
-2.10952725533133
-2.54820705883913
-2.78148691775884
-2.24847564182155
-0.566587979590541
1.8410462592986
3.74268815571112
4.07204529677399
2.80543540034232
0.70623103395968
-1.47705462476409
-3.27814305711075
-4.34084724912411
-4.47885523419732
-3.93201358478904
-3.32078730944843
-3.1910021443738
-3.52949163131794
-3.74845908430294
-3.29120670763
-2.28267455275444
-1.41224939186341
-1.1799883613141
-1.49849610678318
-1.96633136332439
-2.14145426960716
-1.5937333519747
-0.217984007121834
1.38303167317241
2.28917673077315
2.30185153911062
2.35868945912084
3.5980905988795
5.93563047170354
7.79698137005215
7.62636420165943
5.66968519320567
3.84197523691211
3.70482786821669
4.97628519414799
6.09985439010959
5.7600534341787
3.75714195780548
1.01418913401716
-1.06618214611283
-1.7403261294446
-1.598035869883
-1.81637439085215
-2.84682274722074
-4.20117292623782
-5.30084220079981
-6.00271577649148
-6.36491861907426
-6.39243532682295
-6.13528795774827
-5.81320166095121
-5.75655701431502
-6.21075180204652
-7.05366932590011
-7.69124359180196
-7.46008772523343
-6.21897904084423
-4.42016440532184
-2.64095105109203
-1.1819773034118
-0.00318592638773505
1.12743116950878
2.33441783176153
3.32757238930738
3.39484682835826
1.79074011150876
-1.65412132786927
-6.017242971278
-9.40531980892875
-10.0082330035429
-7.34598208281788
-2.53458481925501
2.54981731325765
6.31871251054253
8.13320041099288
8.51936837018422
8.78679985915199
10.0275669632972
12.1327755434385
13.6849026560652
12.9959680798819
9.63935618518979
5.11371348062389
1.75145327311648
0.851672452510925
2.02498645482965
4.13074290401316
6.26769323280559
7.88654258839122
8.7209984764247
9.02461374530847
9.45965104873374
10.3570372453716
11.2250826657081
11.1195262886959
9.32843735231698
5.68485552880492
0.461464041589772
-5.91554980732721
-12.9671668581851
-19.7723861069252
-24.6698560327799
-26.0624287116752
-23.816924116168
-19.4075266630921
-14.4238188135231
-9.31129286050975
-3.76151238256934
2.06068294016988
7.04583315524462
9.85401649086834
9.96457674906983
8.03898653409849
5.41398796113094
3.3654984448179
2.61404197482817
2.97695794839072
3.31284061479551
2.26123803302429
-0.524918392589339
-3.86655841164668
-5.89753484899726
-5.6445718227114
-4.16002376707633
-4.02358960708016
-7.0066757633658
-11.9054116562475
-15.2438239532719
-14.4664388208137
-10.0415575871665
-4.41023731880143
0.316535999634314
3.34452523698509
4.84173004927033
5.42748388975551
5.74949693808903
6.03455255140311
6.02690846235209
5.43637032790514
4.29676937881253
2.83798241210578
1.15461608993625
-0.825663745509429
-2.88860196375922
-4.15858222738647
-3.70397353694353
-1.74943164346574
0.3006615352916
1.50566199357678
2.52469284916625
4.54476773029009
7.51236673698969
10.0683166832209
11.0224349858825
10.3595219208526
8.81294585393472
6.83461774919354
4.25917782613347
1.01392485182956
-2.18819089457966
-4.35593750013465
-5.31415303081323
-5.63913441443272
-5.38260463808758
-3.5598815056026
0.620396806105905
6.3702094541396
11.6416192133672
14.7453820198488
15.3075446231576
13.6999145778064
10.1391468774365
4.84379257229878
-1.23075853209408
-6.64452304245845
-10.6810055257212
-13.6182713915576
-15.4456210827624
-15.1179576467796
-11.8632173732105
-6.75295465959188
-2.12993426235088
0.45186332661039
1.25179278353873
1.48502058282889
1.96186501251263
2.67228239038422
3.32556425223311
3.82245400889957
4.07873618915426
3.79791060244549
2.82928024212891
1.55979735469629
0.555766282648437
-0.0989081688250362
-0.85564103970471
-2.22098058347475
-4.34246696055333
-6.81796180333306
-8.81022287351316
-9.61683520666879
-9.19699450912681
-7.99581389095569
-6.46291368759376
-5.0052971618526
-4.04417656552344
-3.62172686800277
-3.16720552588348
-2.11116224780398
-0.592134837994665
0.795799845560823
1.75226474635445
2.37209867527377
2.67381610618226
2.49643865552639
1.89126230852361
1.27071440055973
1.00601004113079
1.02339632513727
1.01541651093497
1.04898379382627
1.61230409933133
2.80020196576079
3.82183488813487
3.82623100297813
3.00826505891247
2.36662852482188
2.48097716517358
3.01309469838634
3.37478091127667
3.46073338103842
3.58316979450893
3.83941587312737
3.74588912798088
2.72746246857463
0.982550295880679
-0.517379503224311
-1.09513557469202
-1.07385018317286
-1.15699658185506
-1.42488210504944
-1.23489919259235
0.0536926988812462
2.41775809924327
5.11981032679545
7.21932827430725
8.12699677772313
7.72171252601157
6.21501298255261
4.14032747816986
2.19895993126319
0.735623677106614
-0.429791044658169
-1.34376032077882
-1.51964957221871
-0.755094619070204
0.0350416836218023
-0.433103903129547
-2.32005528836555
-4.46958411531913
-5.6222359940997
-5.44931874535567
-4.57460762618961
-3.95578790802175
-4.17668700543962
-5.11356815972189
-6.2128399692179
-7.00327168796813
-7.34887590564549
-7.48049288845353
-7.88907136353368
-8.90506001017382
-10.2558474228454
-11.2536552638512
-11.4431763550018
-10.8439185347273
-9.59194545011847
-7.57101796149945
-4.43316927671111
0.00222902325557386
5.2325829108883
10.0451433713976
13.2930788576095
14.7227518946459
14.9391880746927
14.7436246704728
14.6200929364121
14.543718692415
14.0385442498195
12.6473944925587
10.5240447986131
8.33442041686594
6.45671340645931
4.60712571522859
2.5114609889725
0.739290657953227
0.542596959308906
2.68480989548546
6.28462893539267
8.88042544223568
8.10448694931254
3.6808651991365
-2.32752188944656
-7.3429052420487
-10.1435244492095
-11.0621956149807
-11.0054453166001
-10.6541582897824
-10.2834371113111
-9.89835800140776
-9.44057630460189
-8.96661000217266
-8.72300424236097
-9.01439373645536
-9.7750160001932
-10.1840275483894
-9.06616458214982
-6.06166246859823
-2.30469425382432
0.336645842641609
0.759220464723302
-0.554249546418165
-2.01755014655024
-2.26689217642963
-1.20837150303275
0.145758225723313
0.719183339482608
0.0525160370164017
-1.75107119429609
-4.0720314222405
-5.67098859227761
-5.21432914645719
-2.34552664662394
1.97620719372877
6.32711630357869
9.76586262802976
12.0194765200348
13.2616080138682
13.9201669689745
14.4441286100556
15.0678530971653
15.6809594659272
15.6960917117717
14.1694425359517
10.605089662936
5.7752792032544
1.31902713482473
-1.58450132403249
-2.90003243535478
-3.32015503903137
-3.67252961744263
-4.60756855337496
-6.23594106525442
-7.84023250169326
-8.27203706108264
-6.97650740261065
-4.66270252052747
-2.76746522284046
-2.11321714970614
-2.2431308503435
-2.24563599918424
-1.96298655604411
-2.01672418564894
-2.82575545771198
-4.01613857944138
-4.74770504029564
-4.38356269897345
-2.99139955754597
-1.41143409261183
-0.664272007520514
-1.06744114958623
-1.98717941676491
-2.455712229682
-1.84748416597528
-0.0776142121802646
2.39945512347584
4.71755572226039
6.16313514898459
6.78947260197881
7.22770228798135
7.84931561178875
8.32614236406092
8.00250101634949
6.53182190277267
4.15231788623737
1.43088474282624
-1.18758377939557
-3.49401407128003
-5.29973589640781
-6.41848300484869
-6.85914257400516
-6.71927962754835
-5.95162527352424
-4.65510719407018
-3.53691337019909
-3.55566652287818
-4.95213512327792
-6.89947405245736
-8.17424460779344
-8.07681133860769
-6.79102181233553
-4.94032968335763
-2.80262026884219
-0.174064912982399
2.83610190097258
5.2577909198368
5.97459028664442
4.8889452606551
3.06001372471667
1.69332107549985
1.0939282770648
0.529725124452186
-0.905875929072828
-3.22994771971484
-5.4772192817949
-6.76400829543035
-7.13506634722526
-7.08284265032731
-6.61034243955236
-5.24779521168424
-2.78039829095509
0.431076857105405
3.69238210009284
6.33619889873739
8.10829489837856
9.35221338168601
10.5450874288374
11.5791198696379
11.8100782638911
10.9395472318107
9.65868480630974
9.25877039661975
10.5052291586213
12.8107376106343
14.6051981825386
14.6502749320331
12.9495265795718
10.4485700864141
8.16488761137877
6.57932564666059
5.3610656866825
3.47121472962332
-0.157613180842582
-5.83265000675339
-12.8890922335438
-19.9170659953329
-25.1184738121243
-27.0994935500874
-25.8836323617202
-22.8667943959
-19.4028162204844
-15.7701124349029
-11.8279895488617
-8.08349905628648
-5.39883069097381
-3.91837540664703
-2.94469306702367
-1.8453376255818
-0.730828968601044
-0.317204204284184
-1.23219790991508
-3.12447356763402
-4.24291516684033
-2.29342656023492
3.75181303377256
12.5767126856756
21.422386655359
28.1704200498019
32.5160279249491
35.189718908245
36.3627773284174
35.0550562190494
30.0091167205122
21.0765892945273
9.91006242065944
-0.814586871262072
-9.31685283076153
-15.9084685141908
-21.9297247503424
-27.7023430601355
-32.0998769981011
-33.8417883615208
-32.4365444766825
-28.124470988916
-21.8484752530787
-15.2871206452333
-10.1252186807653
-7.02595323883203
-5.50398938669386
-4.63260532540049
-3.6608923350404
-2.26706607764762
-0.582987806707276
1.14705488475181
3.09002829526727
5.84255132041472
9.85401581972265
14.9269486579409
20.094226804175
23.7866714019133
24.5593414599386
22.2198978778026
18.0981887430113
13.8329397917925
10.0384929433564
6.36919188307802
2.58557286657935
-0.876688053185621
-3.48450372936196
-5.53495521848074
-8.09211865701286
-11.696103043726
-15.4019946876899
-17.5942538971496
-17.6488223680121
-16.353285930319
-14.8506121497241
-13.6681318786358
-12.667710616099
-11.4592072687261
-9.83138785536878
-7.99013480278983
-6.30030030951105
-4.73238288023438
-2.73848683867044
0.325036518484237
4.80242112365043
10.5750887234563
16.96815105091
22.9216034592134
27.5619952777232
30.6130540724917
32.1668401881488
32.2404880569882
30.6595377756714
27.1166897714413
21.2885307095213
13.3689013672948
4.75005777697166
-2.31277457678265
-6.31376890955314
-7.81156181253193
-8.87124535061211
-11.1120003006292
-14.3779996305403
-17.2595459807957
-18.6038730461499
-18.3147522644561
-17.0002444611215
-15.373525356048
-13.9849322611365
-13.0496627985324
-12.3782243611664
-11.7261915598119
-11.2083555829015
-11.1312964416195
-11.5352806200042
-12.1720465748735
-12.7517345630717
-12.8861162354074
-11.9463640760165
-9.35164687098101
-5.11230333255186
-0.105685244378559
4.1789961979235
6.45789920265991
6.61722023415776
5.89606623409954
5.89025630423586
7.27917470242286
9.46472252868321
11.2585667233151
11.8646631474096
11.4457849215737
10.9559459235065
11.3468751161124
12.7530039940113
14.2942960119765
14.5588777459214
12.4963655791142
8.38369667698593
3.99866415304972
1.26515969076295
0.502797728064315
0.416543056137544
-0.228621850925212
-1.50634623539426
-2.77278517489768
-3.43296670691081
-3.23338813164479
-2.51695361537704
-2.33475890660854
-3.71615949392239
-6.51666547441767
-9.17555601596671
-9.7795769190775
-7.47014077140934
-3.01884633571922
1.79502294405942
5.29958188544958
6.56849403396015
5.57967944220466
3.40865924267928
1.94829054381365
2.42203846693669
3.94846151174498
4.25075316912137
1.96065419757736
-2.30458415134591
-7.08654500280686
-11.4636402959586
-14.9960971292225
-17.0291333137937
-16.8165212548937
-14.4038581738294
-10.9985554645662
-8.04019483725228
-5.76869056227389
-3.02677880353385
1.23866502388331
6.56482863563357
11.3570916173014
14.3382080989809
15.301718415941
14.8502077793458
13.7910059804319
12.4422259674175
10.1712799266327
5.96252289922182
-0.0766803568085232
-5.83756165045468
-8.27299664728015
-5.76601376816595
0.346909312963578
6.70486744711588
10.5398815406513
11.3945788600729
10.4848973546298
9.0294952454221
7.5068145766568
5.91872461172849
4.02597846699844
1.34879290282954
-2.5564562306403
-7.486440632553
-12.2611280825708
-15.2992863307544
-15.8387729593082
-14.4951748678574
-12.341191465219
-9.67957694939419
-6.27060024024263
-2.6038598284628
-0.0803224317510903
0.378123730693791
-0.717779215457934
-2.20303905863463
-3.43905339061164
-4.3218718704139
-4.61226298008268
-3.85882341119196
-1.96341459970931
0.453885725106693
2.3520936996893
2.9379894574436
2.0982915682343
0.375676244284652
-1.2370427483868
-1.69119213440993
-0.701962222169586
0.727901209108576
1.20973465541572
0.567851166153233
0.0124124420613567
0.618774919814847
2.13857423636975
3.37931985017419
3.39830266568479
2.44476960241302
1.9876017195351
3.38648148719182
6.09909840264781
7.66655943270422
6.09668910304814
2.12818687801452
-1.20542994641218
-1.15220027801058
2.65409739807086
8.14795327034905
12.381344292898
13.2974569603941
10.6939839703958
6.10369195780851
1.89422465252754
0.0398439106861361
1.01335423291131
3.40642653565651
4.75562611286542
3.18834035115784
-1.25115384643149
-6.49692266592451
-9.71012429801863
-9.21429104780706
-5.71248328678598
-1.67445542455117
0.517936669614341
-0.0176299281114518
-2.51041680027613
-5.2704604579936
-6.77777343205987
-6.57624376731992
-5.32840317926354
-4.0731195866606
-3.48942975128478
-3.65043541055169
-4.1659317896613
-4.59783623038353
-4.85246109906438
-5.0431953393904
-5.07530859519024
-4.74514991188371
-4.08464670991474
-3.09982540606206
-1.47114789593754
0.774489595519769
2.608929422658
2.88396738931352
1.76235697736306
0.649707827940011
0.873764988025889
2.80789751109758
5.76913167454332
8.14990276350586
8.07701331081364
4.686353929942
-1.1767348756343
-7.48464509309336
-11.8619326544359
-12.2630835457837
-8.14029468201897
-1.53687396542725
3.79634776544062
5.25766730903275
3.4524546417971
1.29109188243189
1.15573413913246
2.96810053155182
4.76051911299433
4.78651591453871
2.99644759180694
0.815328229925046
-0.127995117606462
0.765098201875154
2.5795950534322
3.61488762490458
2.98606914543497
1.5370194324284
0.924765509292997
1.88934260578489
3.6001725009983
4.50392368614223
3.71200612124403
1.8994192646038
0.982625703108452
2.61260247198877
6.88586918391158
12.5868838994727
18.2312799233159
22.3971104753103
23.6152495091426
21.0414403672401
15.3989841910182
8.54118057974005
1.82677661369351
-4.65505023594709
-11.2497232003843
-17.7858996122038
-23.7190148068128
-28.6364098861903
-32.0086178486482
-32.6406874652298
-29.2391274761372
-22.1341979402197
-14.0926994452116
-8.59450348875351
-7.02454378040975
-7.80349614422935
-8.21081359254543
-6.77203973567713
-4.08736470911428
-1.83798952988653
-1.06274588232385
-1.23070479152117
-0.953955989666955
0.621692774341353
3.45927950324598
7.27854683568769
11.7566472311978
16.1376975468916
19.4579030064831
21.389700384761
22.4433841558963
23.2877542763826
24.1062227926099
24.3747852718988
22.8843199786644
18.2139474904206
9.80539419337086
-1.085847580463
-11.5812424250996
-18.6586381536782
-20.9081232068489
-19.147935142404
-15.3475581877486
-10.9439441567961
-6.30726388454277
-1.68560279019192
1.88387026468398
2.9856215145844
1.10081449072625
-2.59034376569245
-5.72366304176519
-6.38818760840029
-4.5291152726143
-1.65974588214765
0.701373227592917
1.92486249666379
1.87869364767351
0.595208748402655
-1.3293140711494
-2.6656837855709
-2.48981241070492
-1.13810391421156
0.0378324100293188
-0.0292170311995207
-1.12864203287924
-2.1909164811887
-2.54759259770822
-2.35875829235179
-1.88547931029996
-1.12957124136607
-0.424248816773558
-0.504464037231682
-1.43666885203918
-2.09481959363241
-1.23643077406985
1.27788658798785
4.61633337433128
7.86822292407467
10.4849465840651
12.174215058935
12.720822407194
11.9115416802743
9.62056362579166
6.02411818212191
1.66599919721927
-2.62499691205816
-5.63221802580459
-5.87103360445626
-2.79603375922861
1.71922511631674
4.00411971259097
1.74185247074788
-3.4746483460551
-7.36272087784067
-6.97331440297267
-3.17654619670291
0.930110031657222
3.31453503345233
4.02061977747526
3.63599933644296
2.22874052921367
-0.0801399096807727
-2.75481813449612
-5.49532508110042
-8.3522915331001
-10.9221613317746
-12.3750630849272
-12.6324054644024
-12.6484822475918
-13.0672678353539
-13.2236086639496
-11.9316163765512
-8.9366603652968
-5.23855335350383
-2.09598572773276
-0.033897047790491
1.03013859912171
1.02768239616781
-0.245840364624207
-2.20095150876531
-3.13082236095036
-1.36749665276181
3.29803078908669
9.51766596275418
15.5114700781344
20.1561798126297
23.2448274826282
24.9842833182713
25.3082961230912
23.7920352709894
20.3329660891258
15.6348918471066
10.6689138538831
5.74627258325791
0.388032113886271
-5.87033796988353
-12.603701341432
-18.4519737104801
-22.1314907883857
-23.5748646300262
-23.7326415154926
-23.0152361116592
-20.3200278782674
-14.0437618334597
-3.962764380449
8.08393548988773
19.2847799311175
27.6596475335678
33.0393159039345
36.3132751136183
37.7187718124254
36.1108124858058
29.8854142603479
18.2905121647056
2.21667442061908
-15.3248948839693
-29.6492911141312
-36.8257882426563
-36.5772887404393
-32.2983502763968
-27.8145436179881
-24.5173137758552
-21.6317299592761
-18.318480485895
-14.90210669435
-12.4299936108316
-11.5153206278423
-11.6396764644964
-11.5074663907304
-10.0543749641747
-7.14454042835805
-3.55347132035827
-0.457602487541865
1.42851084491821
2.6577205626206
4.8248460666092
9.11973344849818
15.056437448819
20.7289804618864
24.2535859496018
25.0275328405235
23.9074246007511
22.365442871994
21.3296601256967
20.5232899179024
18.6915739477699
14.5758002027195
8.06618278970988
0.534769153862038
-6.24511680801433
-11.4784989778177
-15.2481354671827
-17.3147777444188
-16.979172823574
-14.3109574769248
-10.6596575329368
-7.55799842675875
-5.59855486475571
-4.51261413063533
-3.79109288935522
-3.0217270928881
-2.04918420494509
-1.02065051245504
-0.0557936781711552
1.09789355953082
2.73394095184413
4.4738130431714
5.17624821022458
3.73975447590066
0.112678057384808
-4.32440243023629
-7.40651045372105
-7.41594408539531
-3.85235881232758
2.66446587816026
10.8092964358714
18.946507159814
25.614997914526
29.8254442118678
30.9175959924149
28.4652017529203
22.4814822534531
13.4329995132957
2.16589827567636
-9.65768830846379
-19.4243097642181
-25.0297649508966
-26.7068635174244
-26.6318209644801
-26.5585357284492
-26.3396894812633
-24.6135340327022
-20.3100724958323
-13.5701989943482
-5.78147491418757
1.15842994407906
5.92730293519354
8.40392328363301
9.36968268009722
9.59161131886424
9.00519898471962
6.74642967340391
2.25611252111095
-3.54981766632729
-8.55427205741259
-11.0862281016921
-11.0678449753158
-9.54306758687347
-7.54840221856246
-5.51820959153261
-3.24834402836648
-0.195914296736661
3.88674040739362
8.45658401345241
12.3550568177184
14.3843177038813
13.863980224114
11.188932158583
8.01461740391816
6.35771366432603
7.10281876093616
9.45670962800752
11.8165825821735
12.9660185292239
12.6067062147076
11.1183452411012
8.89824901362545
5.95572770710881
2.26744746741021
-1.72904120430788
-5.5074427279655
-9.22313130023869
-13.4719838744591
-18.061419887567
-21.4378654782822
-21.765839330987
-18.7066962751646
-14.0659433595556
-10.5061447326478
-9.43844270137018
-10.0828194011665
-10.463138679383
-9.09619100619095
-5.71875875688643
-0.841500150331494
4.92244785216807
11.1418127023409
17.502679835104
23.5323856145415
28.3980415288013
31.1594012724916
31.2626979582459
28.6674576697251
23.6246983923239
16.5927469008133
8.29340532602979
-0.395365167725232
-8.60414359929327
-15.4169820120565
-19.7396692189358
-20.5594380228394
-17.781196558466
-12.9758142008754
-8.85009685348693
-7.32362603435234
-8.01520710074356
-8.86983460415088
-8.20163173452901
-5.98391062675467
-3.51754067532738
-2.20952781039691
-2.38577268664725
-2.97371001386119
-2.57943984133985
-1.00766057204225
0.590618748222895
1.07169734005115
0.381981006768406
-0.675692831074831
-1.27663063825275
-1.11852713765545
-0.501023027124571
0.0634178262201847
0.487221026758108
1.23674252292943
2.63828781680865
4.26453422254419
5.27081425095858
5.2485638724022
4.62918875742934
4.25845596189609
4.43467705601684
4.35350011366791
2.93954067283078
0.392510028062943
-1.64353285123773
-1.70936679056032
0.190613782196009
3.04524596642684
5.79638757894947
7.53939222774918
7.56805895846618
5.88228409206259
3.35509720260306
0.926345359331703
-1.30207297648024
-3.91291766483194
-7.13719404116458
-10.2097373487097
-11.9137993843406
-11.6328491231603
-9.70648271135189
-7.04491944311754
-4.79957181741028
-4.09659339101676
-5.36173457823278
-7.80215704617263
-9.9223845959488
-10.5312332547713
-9.13507654354161
-5.88432954861286
-1.7049224917358
1.89744361405134
3.90530173918052
4.65218506516134
5.27167999341069
6.5221185730871
8.44509712233588
10.7180149780812
12.8479842154492
14.3211873577268
14.96237917988
14.9796759780199
14.5213261578227
13.4835741406202
11.9266126821502
10.4228171717127
9.6289436120486
9.37633390965146
8.4825374997614
6.00677523739423
2.73261068579585
0.763756275502041
1.25874279600448
2.89819692190938
2.90090762421839
-0.519282054470822
-6.57565234187546
-12.4649300140145
-15.6516144483375
-15.9298266959474
-15.1390511942777
-14.9016577961555
-15.1860198569567
-15.0940297853827
-14.1718050700669
-12.5506353622553
-10.4897168787533
-8.30950918960358
-6.44118476794704
-5.17390733348744
-4.44263293324838
-3.8964117333462
-3.03691280305409
-1.46766102919722
0.662521938922333
2.57801102357072
3.55684036081967
3.65306992117077
3.62161740444056
4.27202016763941
5.87569240969053
7.87158594821323
9.10278808212691
8.68374705503369
6.78569223475092
4.44574724748027
2.60693143486571
1.4482893928933
0.570780417911831
-0.397024821355355
-1.54246421099008
-2.92436191254536
-4.70168860548996
-6.72941817649228
-8.30956254853143
-8.74634789204308
-7.91636049008147
-5.93191983292147
-2.6964458924635
1.63388471756799
6.20658527055917
10.1695981496741
13.4723275461452
16.4484634342602
19.0280724754087
20.8599256936153
21.7441703641255
21.3776890791329
19.0387990150026
14.1672987579418
7.22485185874308
-0.368902556613864
-7.11293024500452
-12.0459247717472
-14.7096827849413
-14.9885849994268
-13.2675576636058
-10.5950320658023
-8.24276705796043
-6.81050635153623
-5.89569257382681
-4.81327589992176
-3.49843819377128
-2.62729291096361
-3.02660539328606
-4.89331784465289
-7.31434289642605
-8.72633120597686
-8.2642357365112
-6.59230034969957
-5.19248028661036
-5.05017471207655
-6.08436706743269
-7.31296761677142
-7.38792415854943
-5.60510702630841
-2.71809622131887
-0.30752796149105
0.811966837217754
1.15394543380793
1.57390223478504
2.25479139217668
2.78307196933001
2.89133514579621
2.89664380695237
3.30198068280009
4.03046590507622
4.52693991558335
4.93373773693321
6.61227316036448
10.7665784799598
16.716172951227
22.0873622071466
24.5906511137399
23.3301411359566
18.949459375074
13.2188987506678
8.09297529190955
4.27181630802708
0.56786414044604
-4.8480880931107
-12.324192526875
-19.7969376746451
-24.0615485444017
-23.3496279765002
-18.9477386242241
-14.1597900026008
-11.5632938708331
-11.2657667237578
-11.4306594140124
-10.0028876047186
-6.18859753512778
-0.950999002041435
3.79369505332193
6.71223371015479
7.82334761869004
7.84887521440002
7.17890282444524
5.53532252904046
2.40544543950127
-2.10029543543292
-6.68159353979353
-9.53623166285818
-9.87926343871234
-8.3571030029879
-5.80170838035168
-2.21168581078256
2.72734524520326
8.69700939564478
14.7308037992495
19.8237234144068
23.3118967666718
24.8390643286263
24.0678156217607
20.5247381760781
14.1570345459828
6.14024904088791
-1.55469361529861
-7.75725633471151
-12.6647410421304
-16.5934255425997
-18.9716850940708
-19.0233297185817
-16.8649990425904
-13.4911426864217
-9.95173359045628
-6.74592361834625
-3.85661098342416
-1.24902732868958
0.754424495633262
1.71743752886965
1.62946365457589
1.06713740819746
0.939906126716064
2.07791401120986
4.61127164589016
7.47468861780942
8.92604905041356
8.00090139636437
5.41451476563329
2.92245305575748
1.86658014175748
2.25098395099969
2.9822957413276
2.93242519155958
1.80149457680255
-0.0109992161996115
-2.10324179200618
-4.29426640409305
-6.30329508995314
-7.71642360733142
-8.37387039071307
-8.43887523373654
-8.03234718372695
-7.14831666093773
-5.96360100239974
-4.88278106122067
-4.20259322358574
-3.91543035400054
-3.76614128977026
-3.34298414049247
-2.30254920723806
-0.767995134865366
0.560827104635203
0.930837976330493
0.313216947802499
-0.352870666169849
0.146768728931409
2.23233870348591
5.20591627109285
7.972887301783
9.83356425660991
10.5519052012396
10.0884317457087
8.51766875868774
6.02025387326115
2.9878354366757
0.383683015388746
-0.372965960466147
1.39310783428164
4.57827406118537
7.0526018260383
7.49169785723469
6.18556603622034
4.25176141327526
2.45091091666702
0.757675033303492
-1.09258469063138
-2.76728143114668
-3.36616020641688
-2.542454901156
-1.2050060595132
-0.499747587305774
-0.290959270917433
0.590686621973395
2.49799893370276
3.99754261201828
3.05794213835439
-0.972077373469914
-6.57292915456568
-11.0604114241772
-12.4511790697829
-10.5823222278901
-6.6938578704145
-2.31006529804009
1.36389173800192
3.49279640210217
3.70907979223382
2.23958204888546
-0.266807034640438
-3.07746800470109
-5.60311019842871
-7.48951849239185
-8.56459042424629
-8.68923752873917
-7.77245323508742
-5.9474218152515
-3.56215334020354
-1.01959602783079
1.24989210263065
2.9120525402813
4.07692952602036
5.20356582813536
6.41151910594132
7.30437472399509
7.67354227995921
7.78072554348658
7.65428915022294
6.78983361481494
5.05927239564703
3.40637384893505
2.98272204311328
3.64281501151491
3.64746900214441
1.09137447916408
-4.1060678981258
-9.5515513197794
-12.1108289797183
-10.5645706315753
-6.37840688363625
-2.03053017327156
0.844360343866058
1.89910977551983
1.70459153284484
1.26229216265196
1.31661355442671
1.85413351607084
2.39819922509298
2.65693562343385
2.68295452965851
2.5877170955259
2.31983372251953
1.69174634817428
0.635201294546455
-0.55361516884776
-1.42579898017786
-1.87549052478512
-2.14869803963696
-2.41940390767023
-2.76059901903588
-3.40414630727323
-4.50521854193322
-5.72193238498839
-6.44287619840913
-6.30175934123919
-5.23053961155666
-3.37791828471259
-1.30366821133434
0.151172793054045
0.632615788121922
0.721150596075179
1.3301716207238
2.8096427851512
4.78699505736175
6.69424451012894
8.33090087791092
10.0222991270466
12.1940716971278
14.6523273515081
16.3660085478329
16.1195124173594
13.4530798649665
9.10986679932271
4.61158338135353
1.10820644983095
-1.52917973173748
-4.27796993345319
-7.67126432422668
-11.2927123455324
-14.3984650263083
-16.4541864714917
-17.1107180556352
-16.2462750466393
-14.1200082386291
-11.1843024133708
-7.85317437449449
-4.62219174323634
-2.06322183125043
-0.397477723671797
0.73527559697284
1.95936507598463
3.70504507534366
5.8811902165596
7.78559942356557
8.57010124246291
8.02558755906732
6.76232013548246
5.59094108005859
4.91635347129941
4.54153543345803
3.66620418586331
1.33292304629896
-2.45463860237116
-6.07036671862414
-7.3808571860348
-5.76040898593354
-2.70350855467971
-0.418976235074863
-0.0224670042686896
-0.894715841400284
-1.46611380256587
-0.768615164348518
0.517063581651028
0.65300065775775
-1.36072910619962
-4.6522264541067
-7.20198263669987
-7.66248592559243
-6.45694024754989
-5.08368877617741
-4.39802597633103
-3.79490656594519
-2.13515545171709
0.86809945809794
4.36650643498582
7.13135416768782
8.43588219316994
8.61662008654644
8.93858885400357
10.4762862601609
12.974090653565
15.133213731726
15.9459950851556
15.3443695281483
13.7258331239873
11.4005443415529
8.51940554916631
5.1596990391321
1.32613394627099
-3.08843895149946
-8.22064976828697
-13.7972394840907
-18.6447682504654
-21.1237090908537
-20.5398014530415
-17.8715620563879
-14.7148839272431
-11.8001794810057
-8.88218781172778
-5.69850822271561
-2.56387419081739
-0.107019518566925
1.42392016165013
2.61226437348215
4.39907844996889
6.9258769370209
9.13578292341488
9.82864790225612
8.90548985602054
7.41097592828182
6.54446796495854
6.5727982782457
6.42637739258403
4.57380536638443
0.737094637733319
-3.40058644679941
-5.55828717038078
-4.83899452511645
-2.2906057795496
0.126920161717775
0.980219366836192
0.140384329590329
-1.57868585884723
-3.41488185861513
-5.04384611334784
-6.11823569854821
-6.14900931764837
-5.14556944164137
-3.80900550503325
-2.71936179782145
-1.74240526811158
-0.537183709979941
0.735148226357211
1.52086913814458
1.44646150247135
0.609103194844418
-0.494137928263591
-1.26327671111294
-1.4152588093039
-1.14557867180263
-0.843543272855812
-0.775580661293204
-1.03126931567301
-1.55219943948492
-2.17263529649788
-2.69400345976228
-2.79834609945005
-1.95297836029977
0.181195699952091
3.154766225226
5.93576919276026
7.82121790047296
8.89117873971976
9.63512078848693
10.4171483530399
11.1907394624344
11.5058090699517
10.9108684343986
9.38899190316099
7.21148881989482
4.57382483025254
1.80017937810439
-0.366511780632963
-1.31571551374598
-1.34463309754033
-1.41997331652116
-2.2435283851595
-3.85137525553898
-5.88809522005724
-7.84266007495605
-9.1272743588886
-9.34592222603996
-8.59425355086142
-7.37175479514803
-6.20031035890531
-5.34470179653346
-4.78420363931693
-4.36819668404945
-3.97495364919021
-3.49038707637986
-2.78186688078965
-1.9180466869083
-1.25552982509475
-0.990389746131012
-0.782005680124019
-0.136840552510402
1.01709201984727
2.38187355716794
3.63877338728238
4.51457879930998
4.80985117597712
4.62809625615628
4.43435347201443
4.7763831790576
5.89596469432286
7.29997971379889
7.62567923548892
5.51856105853448
1.10207562822618
-3.73201079225072
-6.81306255161916
-7.31893476181613
-6.01231794141006
-4.36840440846438
-3.54727554571547
-3.70828216666045
-3.98267002369594
-3.22341956447837
-0.981334470622351
2.10477422661886
4.73662838035755
5.83940982639153
5.33247926073546
4.14839473391875
3.30739326187481
2.95131817370601
2.42332027631471
1.07809725487108
-1.25058289249467
-4.19025743935867
-6.73887200285759
-7.57005488685415
-6.08211904050233
-3.17603560002852
-0.679034953898354
0.081479675394721
-0.829765210245407
-2.26099434213608
-3.00501566401731
-2.58269977905513
-1.26921090407965
0.254364938277308
1.17170673595924
0.924814996186871
-0.24040300825078
-1.30562730232641
-1.30683857239885
0.00589590489269754
2.25657223701561
4.71312835824423
6.47012960239441
6.95764571089725
6.46438714087287
5.82664192308165
5.55086169521778
5.44508674647016
5.00233441684758
3.96282606639666
2.61267978682946
1.56208768512267
1.03218633072366
0.455565630149236
-0.861953710614635
-2.76582434468645
-4.34311419442233
-4.88322473935848
-4.31566607909378
-2.86227792895783
-0.818098516681206
1.32672626456332
2.96964513062256
3.70248463642274
3.47106328550506
2.54267379772238
1.3338778391127
0.161820721997106
-0.797337716859663
-1.39811222930499
-1.72991117129159
-2.35551732335265
-3.7835288431084
-5.67458275133113
-7.11802723751694
-7.68610693587087
-7.70726705875685
-7.61105461214842
-7.50973808868411
-7.2865031055578
-6.6841859357603
-5.4716783914688
-3.77725577161964
-2.05226104343336
-0.611719042690674
0.568341616633037
1.67575986875404
2.93345005373441
4.44284040122895
5.88484181300244
6.65012753750769
6.56060948392355
6.16434662805995
6.00569319566297
5.90942428840392
5.32941067925072
4.14236761933604
2.76349221248101
1.67419473401447
1.11821307382122
1.15165181429068
1.7490169580209
2.74255174882272
3.67987691486172
3.99897779318927
3.57498642999289
2.84982431945884
2.12725406140768
1.07671016122349
-0.649706208205786
-2.63011962294071
-3.9761457990261
-4.24948812246019
-3.77867698057845
-3.23738798011275
-3.07472356652029
-3.19554225428131
-3.13836299371163
-2.64484295402949
-1.92306183285412
-1.29761985603903
-0.895295605122043
-0.755830218434453
-0.921109056509922
-1.34231847233602
-1.92453832277332
-2.55355988169328
-2.88954010952893
-2.47492757403164
-1.36846046863425
-0.309912118235834
0.11278753916916
0.136433143675935
0.3378515527415
0.818718974830139
1.21031975073539
1.20403455946637
0.797465325268496
0.23280882018019
-0.166188261071756
-0.290221743281801
-0.375290562207381
-0.657261406710259
-1.024848047351
-1.19580786741184
-1.05143242081021
-0.631020817688743
0.0472636514565611
1.04518825589956
2.43001530326845
4.10896489458351
5.75619102254965
7.04761843755272
7.88715560031686
8.22097841944005
7.87878033278217
6.91386646924621
5.77824856297921
4.76239191053677
3.5858941859992
1.89792495843707
-0.1797131262499
-2.26193562378085
-4.01198107748687
-5.08725148394803
-5.31371267296117
-5.09703047354853
-5.19846621294554
-5.97675968535541
-7.18298247146027
-8.40324101420254
-9.22102525465943
-9.01120625790117
-7.18573091259506
-3.89727781362221
-0.230374433126029
2.50650017764588
3.70191307669056
3.75463153093982
3.51244646093507
3.33790830012529
2.81170171831091
1.40812121484157
-0.778069097064474
-3.06822171879847
-4.68516094705362
-5.17651462334175
-4.69475779658704
-3.88884827216561
-3.26272074361527
-2.693985121787
-1.75513696422646
-0.35530550558953
1.05518406483275
1.76978978461618
1.37957793206588
0.289639086323274
-0.456238540560006
-0.126573298028516
1.07792549535066
2.4257276003764
3.29616774286731
3.42109063057099
3.09116662755755
3.19941389639366
4.42271257050337
6.19322989627401
7.05798540431516
6.2947702793915
4.76508103598148
3.88017528806002
3.89444053932564
3.5323726539864
1.48537546313038
-1.82251452398193
-4.34926963114731
-4.548369821128
-3.04592907984503
-1.79859809912413
-1.77502261535849
-1.90550226814242
-0.26596292267923
3.93230523418307
9.35095073591506
13.3605432990798
14.1601420019633
12.2767623864834
9.84756163027241
8.47087346986841
7.87047636473022
6.31852519325841
2.08917466995286
-4.97466439071076
-12.7286878207856
-17.8716953873335
-18.4830309538216
-15.5226333632928
-11.7323137734447
-9.25501547710783
-8.31788307897953
-7.79352012201101
-6.70732331850002
-5.16105939982396
-3.88100020512669
-3.19769942534663
-2.80930102171557
-2.31625527432421
-1.54514469681269
-0.52844707512605
0.396232805167963
0.666680812565719
0.138410369966213
-0.505797989036523
-0.41479461856126
0.467863190146367
1.43095661609933
1.85490236956474
1.76642594449154
1.65328123793027
1.91113988283325
2.39731333318352
2.52469580496775
1.91314185523769
0.851796963736117
-0.00682244269401697
-0.26000757865116
0.0304591260451776
0.544405004733716
0.991039668510389
1.2448951656186
1.26973065129635
1.07603092752609
0.914129125024842
1.25505918071085
2.19773537534163
3.10920276487899
3.28784506502088
2.74197459491354
1.90144428852099
0.983012786095728
0.210534810029369
0.217852202171211
1.4702545315315
3.40241838769292
4.65754543207628
4.25885372557213
2.4784617451636
0.670008986904234
0.181936396587014
1.20677332213107
2.72850406374747
3.6821029222163
3.92510682161864
3.93522911139914
3.94491555918875
3.72692693567395
2.99549881775787
1.6953038501647
0.00165850383175372
-1.81135416294031
-3.57106357047325
-5.22414359746442
-6.55259530221015
-7.08881256574452
-6.53288884685732
-5.1168019123501
-3.46947626832629
-2.26915726615144
-1.92738872702882
-2.30424511745401
-2.75754080750373
-2.67921630218979
-1.95176706338139
-0.893612779277682
-0.00187532146346404
0.305045739552068
0.0614778308245455
-0.16167760557268
0.113812558818111
0.680890146316663
0.993117352801811
0.86577529020441
0.50990671438097
0.141450924410574
-0.128067117961206
-0.206181608385282
-0.0282848326565415
0.410814160539862
0.970408514581263
1.2425709154859
0.824292429864065
-0.0685449817235457
-0.592253549869148
-0.164198119249152
0.927816406047797
2.00872873145793
2.7140169397757
2.96271360526627
2.68742104436668
1.95340480876314
1.05228337862501
0.19241680329249
-0.737142397546687
-1.94902073645441
-3.39864467530138
-4.7088122611801
-5.47108997133615
-5.61215552101196
-5.30877271489697
-4.53293112702374
-3.04992274442706
-1.02587515408891
0.794905882979618
1.80247388536663
2.08551033755393
2.08916863538659
2.04269215028184
1.89590864115199
1.57874892147508
1.22833655886044
1.19952867575372
1.64689078904024
2.0687609534423
1.69520917416247
0.443079862477067
-0.945648071045248
-1.75856731590732
-1.838388182682
-1.27049687627727
-0.0955017508648213
1.50742933385881
3.06152290841728
3.94499265603358
3.66733250119574
2.1991309521034
0.224749337274179
-1.13103833182128
-1.09608831732385
0.222399499532714
2.04059289346857
3.44723399120957
3.92309252059736
3.67650871294765
3.41046068953331
3.53918543745005
3.74804769972148
3.38430438296698
2.04441211691992
-0.146642630964034
-2.41932516411391
-3.58004548790344
-2.86319275666929
-0.745757059873639
1.25201100695257
1.65659955302773
0.0933952346519085
-2.43374918685928
-4.32231172209645
-4.70481992259953
-4.02338437611962
-3.29282174672946
-3.16957450566119
-3.7844771861859
-4.82456239486034
-5.48768434495054
-4.95872721448803
-3.30978695527014
-1.55719670938804
-0.633166273876685
-0.602655402743921
-0.907414487296983
-0.996360264970611
-0.654826439490369
-0.018629639103207
0.643474805046372
1.25343261075209
1.94932618436373
2.76632635108764
3.53054384732636
4.08902757998918
4.34310843397279
4.08620099435684
3.18660121024908
1.94053985515952
0.949788739893055
0.64465797709505
1.0306810978103
1.73811108803874
2.20709969647969
1.98552140600694
0.969652113368017
-0.581952935395878
-2.11009202321546
-2.90384352299598
-2.58186046030754
-1.50558952062392
-0.405412858467222
0.36119179042085
0.865331217290833
1.15309497451714
1.20623164944414
1.17545970809668
1.25557155317658
1.49886484813748
1.94160853392863
2.59049388197937
3.16178686762782
3.22818960832772
2.7339082687617
2.04447421363168
1.48847892730464
1.13999259340256
0.937650032036516
0.664577997492316
-0.092976445434898
-1.6129275021026
-3.67900549938899
-5.73176650932207
-7.25391518524309
-7.92248650765608
-7.66460243874322
-6.73838690314546
-5.57593004694999
-4.46365433879015
-3.47238521643382
-2.61292277329629
-1.92586538746158
-1.49994337758785
-1.44009482762242
-1.72114642566995
-2.13709731989577
-2.47420161488242
-2.55236203284418
-2.07382181602616
-0.825783930080183
0.831856779891257
2.08100772805211
2.41291169649051
2.01550110287515
1.43475263518379
1.16083246536154
1.40911607202292
1.96932212970226
2.3630485158001
2.28193224312047
1.70084080567356
0.696716341351664
-0.413034676880653
-0.937501356279514
-0.398871205854525
0.887184676370381
2.37605810384673
4.21006763677084
6.88498422646863
10.1485383174502
12.9570011695828
14.5431739659154
14.9581376599318
14.5463176421166
13.3746660804128
11.2696711066133
8.15153440784877
4.26173978239268
0.111681891235736
-3.79255254200411
-7.0853009105091
-9.3764029507488
-10.21041816084
-9.42940902653483
-7.52121930099069
-5.48282854266043
-4.27315190502367
-4.25783313219404
-5.06339769288801
-5.97834585761724
-6.46308643656171
-6.27655176170783
-5.44922378404448
-4.42083634876335
-3.85661428639685
-3.91020481476085
-3.95873793765989
-3.41283603141981
-2.41863361250208
-1.46397841169262
-0.767466990913098
-0.378926428202359
-0.400175210944015
-0.739309118883527
-0.99401020216221
-0.874690567071327
-0.520408154278201
-0.237961242102396
-0.133192952912828
-0.0996545294649013
-0.00760572635645513
0.156206056901173
0.27808701658489
0.30034801377917
0.385676189708872
0.695482233432116
1.05199159655077
1.10431512988878
0.795057558744916
0.419343816257727
0.293399276931497
0.516147043785613
0.90988830710932
1.1100784998838
0.892508040164199
0.440894097654181
0.168872300932531
0.368875715665235
1.08756668596038
2.08208044776394
2.84856200744252
3.0627993992716
3.03253508493831
3.30584347392534
3.84863856220916
4.03841203818999
3.40780726870028
2.02721487478416
0.332314230873461
-1.08153876693854
-1.72716707383847
-1.60389860862328
-1.1625338871688
-0.806849918537869
-0.633337208040955
-0.587582693313659
-0.554787883556352
-0.369504058137978
-0.041936803101545
0.132557122439736
-0.0481355588814373
-0.387509392714485
-0.605672641732582
-0.697595744546698
-0.725416997785605
-0.554958129759859
-0.0852719581652479
0.45960389513765
0.672831237694528
0.344778795085542
-0.285781666128696
-0.627420322207813
-0.237498008390044
0.712169801923376
1.60390560899302
1.98479480177769
1.92081333788335
1.90995863239243
2.52059268061421
3.81990433945118
5.06654883669856
5.31279691767175
4.36673491992645
2.81098688821859
1.16854905781707
-0.44696235509772
-1.93218412102656
-3.01510343948152
-3.57500439239227
-3.83408385296932
-4.15519242211647
-4.67711450553684
-5.06864706146544
-4.77037718139435
-3.70534040745873
-2.57344474121301
-2.13946694405866
-2.39523478359885
-2.71461343719264
-2.63457186040119
-2.18498833837291
-1.67916282885899
-1.50864479148564
-1.94162350930421
-2.81469948974379
-3.54043895111729
-3.55337307741307
-2.6281296348476
-0.858481778403492
1.34761417336046
3.27706143798983
4.240916145123
4.07196732895762
3.38053593847159
3.31194147037574
4.66163628822948
6.83765407592117
7.97639347699144
6.60688611676801
3.15208899464642
-0.490986355856031
-2.70956221429615
-3.34828247180134
-3.40710989848703
-3.84014669239561
-4.64352867655228
-5.13103111403076
-4.96308885385206
-4.45224092672506
-3.82973539318409
-2.86491370492441
-1.43388574942762
0.146366886425618
1.62083910028554
3.11082632651033
4.6722679271149
5.96426391159541
6.5893855178971
6.48013196768787
5.84035707298053
4.96687456838869
4.16051087227319
3.53852213028953
2.90162110957631
1.97188162828776
0.739220301274043
-0.508603135618699
-1.3969837502799
-1.70692330506694
-1.5552014688654
-1.27917693279859
-1.05883616774083
-0.846703157560355
-0.729340349234032
-1.02246647443217
-1.86298216386929
-2.96893048629397
-3.89748383647787
-4.37719872507682
-4.41801348990234
-4.1962167998141
-3.71872252391967
-2.65894301991823
-0.847059718682483
1.17026584454618
2.53027935848681
2.98226791617015
3.00766680986602
3.12956521882838
3.49123838468407
3.94891031750539
4.17477221867886
3.73068121569818
2.3297950842636
0.125975450914548
-2.2198667238606
-3.79110134218055
-4.00399816854457
-3.16576310217004
-2.28576973501442
-2.13713819784648
-2.64536760543323
-3.27690557818412
-3.67593725989014
-3.70321419012086
-3.23256001538746
-2.28362938227743
-1.20641154020316
-0.511797860643502
-0.52531179044644
-1.14898139979851
-1.88698724428973
-2.2429309390423
-2.16158900312628
-1.95594364759437
-1.87616756376197
-1.92970891473668
-1.92324568036213
-1.44148229172604
-0.0797172375224156
1.97101991048461
3.79808068883419
4.50755749712696
4.01715958420807
3.15303304538009
3.13084703974097
4.67468367553757
7.27704052160725
9.52223632364961
10.3754825637489
9.88789216358793
8.62977034476572
7.04136529074754
5.49156000896607
4.28041085342777
3.18059917249711
1.40178843321889
-1.57474758109656
-5.2233869154655
-8.19719665991986
-9.32909493879171
-8.52842423454679
-6.83188682741592
-5.47495099701562
-4.82059849346608
-4.3154714147727
-3.41013461227388
-2.15749263676443
-0.904544997674911
0.183635415212223
1.1455811773375
1.99452373318851
2.59819772605006
2.80924231298668
2.72600699306672
2.64490812237838
2.62833056786695
2.41657638821726
1.96194071939936
1.62560179775072
1.54773610530817
1.27227926097308
0.33997814674305
-1.13028279832522
-2.68892665982822
-3.99899481162036
-4.90484572122891
-5.44708319105975
-5.87147815841709
-6.3256187955236
-6.61543454451063
-6.49913310567668
-6.05114625466281
-5.54045787198647
-5.15660221958555
-4.97552693585152
-4.93734245409638
-4.76556466182365
-4.17707121296019
-3.22958777097077
-2.18615447768181
-1.02092181539853
0.635523212591337
3.01215457461618
5.84727491761537
8.48864946307501
10.2687673062391
10.9384821310771
10.7784434685737
10.1829075249384
9.31702226043068
8.35510332085332
7.65689883169034
7.32314162496299
6.92364854277127
6.08155555071412
5.04498605857791
4.25888028684302
3.4978174570884
1.82295776779926
-1.34286329963901
-5.09561186624238
-7.39560909214817
-6.99430043494748
-4.84235846619656
-3.10013671598054
-2.96928132942059
-3.99711107291868
-5.1117850498415
-5.58682080571905
-5.21356465415064
-4.24778104801557
-3.18914787933681
-2.25287697952471
-1.17300500385571
0.296718031205143
1.96998717979831
3.48440794098926
4.62366902946664
5.18824191695308
4.91302205299236
3.78963436787239
2.22594392648992
0.653994083077859
-0.89197348652981
-2.66117047877805
-4.66002916900062
-6.30349669508735
-6.75473262183989
-5.73168310583512
-3.83262121672679
-1.98828281211218
-0.818121129672302
-0.50751046976581
-0.879248456509493
-1.45757425434709
-1.78971495004735
-1.76681255875599
-1.44553282531611
-0.770626770807765
0.213132185626709
1.12497659388904
1.56586178977628
1.50188503896413
1.17872309353118
0.896865034741653
0.896335197414857
1.15861039130086
1.36227876470147
1.2945834216036
1.14605554466623
1.16463679034292
1.26753524947771
1.23434033353845
1.05921001244851
0.921463017657312
0.961249811073669
1.15895803007965
1.30846087467821
1.15192895536296
0.697719069326191
0.289516105064042
0.186099101263045
0.269513900399496
0.361852664284019
0.534490437404462
0.847036100975726
1.08473933171711
1.02629257780015
0.741684310610325
0.451097406707635
0.281433549383953
0.254899585125712
0.379637098778135
0.686355684752536
1.16411913044931
1.64534422010683
1.90098271372592
1.93996863858036
1.95517908116908
1.83604216493821
1.11281285093035
-0.389554184032768
-2.20160162166701
-3.6879122904994
-4.52601950527715
-4.66192867785507
-4.20717088094078
-3.42117507373213
-2.49638705818641
-1.45328692650092
-0.431658320628378
0.214176513411421
0.320869847106313
0.0913125854826214
-0.262992355429672
-0.671127349362568
-0.927323683013615
-0.739096671596661
-0.171351267707094
0.393249188988136
0.831965149805087
1.39626866034339
2.17966043301621
2.87110853227015
3.10952214434842
2.80108119610209
2.0910057023602
1.22748602310325
0.422241157432256
-0.273631708276527
-0.965096943355875
-1.80345160838085
-2.82490960109736
-3.73598252156367
-3.96040415784664
-3.21975763818689
-2.01505271385726
-1.17992849395501
-0.973381105575717
-0.889770804521201
-0.293952343201396
0.960612786223567
2.39766262646812
3.25060067708633
3.11028435573686
2.30705831601439
1.48443499653622
0.908359425605269
0.437247897742894
-0.0471250518201508
-0.515779558724329
-0.924316251832839
-1.17923899275753
-1.10554172063841
-0.65196298919794
-0.0306092303007866
0.468697155552249
0.744347795500052
0.933082427786761
1.22885700110369
1.59605166022192
1.6744434555928
1.18705311958467
0.474260421693497
0.292498743460352
0.983007293817882
2.15318883503194
3.18566049278076
3.6726277082567
3.39991465940379
2.40303988085099
1.12509796444863
0.164767230717144
-0.276885362745891
-0.61678990833251
-1.50750229813757
-3.10891607682571
-4.6693025046145
-5.08696710433481
-4.06498209204971
-2.43119976441785
-1.18496458577721
-0.613187801292657
-0.450991888650418
-0.39690221348204
-0.260600577198931
-0.00781368717862639
0.189207603900616
0.176964692673984
0.0150919198149628
-0.24152730423104
-0.682291014837014
-1.2418629930716
-1.58961095321671
-1.54084049376716
-1.28913586023398
-1.0964024337955
-1.04411515320539
-1.12927490325873
-1.25230402784112
-1.09850600170841
-0.419992821581656
0.551608414472892
1.31825285972235
1.69429815322951
1.86953064186302
2.00570388480332
2.05919259751409
1.9331341708138
1.61390492152567
1.14726597402941
0.497691763573464
-0.474506307936824
-1.67346130637359
-2.50248389569626
-2.37830778825473
-1.53379463253774
-0.853897560809503
-0.849354404028937
-1.17003727542409
-1.12228557095497
-0.313350581625123
1.16200229525343
2.84660420602562
4.22180627758529
5.01349027698452
5.19273971014578
4.80314056846227
3.98015069731436
2.99346455188246
2.06376175885182
1.24646175467802
0.494594002014665
-0.431035858538977
-1.97869150030118
-4.21367840769168
-6.24425885358395
-6.83171512207234
-5.69176144607079
-3.74934729081645
-2.06441803477666
-0.920219291058106
0.0504361461005128
1.26030049906671
2.70477923664935
3.8587271561798
4.13755156776813
3.56953987812626
2.76562381382524
2.19673382701122
1.87204286855592
1.75062981039521
1.99481836080268
2.58824430002964
2.97143980129988
2.40553039710372
0.843063582648708
-0.752546204988849
-1.36445760451564
-1.19822103330122
-1.4517824484734
-2.69482329459481
-4.1321591577433
-4.68953583173558
-4.15572976684449
-3.03552967794727
-1.95975356314337
-1.46037295898375
-1.71326680784197
-2.28600740485714
-2.53278239093729
-2.26480957935403
-1.74147591613455
-1.1677121965994
-0.548165353039145
0.105574550505105
0.715393504937223
1.17708403787939
1.31405084729432
0.9771356192882
0.273933301084878
-0.538724645603944
-1.39169282769672
-2.30732196397204
-2.98360768368334
-2.85028172072183
-1.62504447008976
0.353322771096342
2.32025870304052
3.56684109147954
3.88126977753069
3.59038103317833
3.14353421644771
2.77354029920147
2.56202878606788
2.48938414295767
2.25565793612604
1.38970566042205
-0.175255249948958
-1.74947941856292
-2.30799035100382
-1.39795140883419
0.261900290677611
1.24618144714531
0.80897902553483
-0.321385359074469
-0.892586678576119
-0.606052526371115
-0.145051005056096
-0.0707071683684299
-0.357331209750466
-0.784707098817799
-1.11843969379153
-0.991856043751025
-0.130471846700478
1.28943363444608
2.73553112351036
3.67410910846917
3.77956614064859
3.13367439167083
2.37440690090191
2.27924584269398
2.95145534145829
3.63220525639107
3.44919699401264
2.21554337027347
0.521713919468142
-0.78709181957033
-1.24688760673639
-1.00175408344671
-0.495747932226509
-0.155802674199344
-0.403481164547122
-1.52251061579363
-3.20033010802906
-4.53731818353398
-4.84874092915384
-4.29143744753769
-3.58753347796577
-3.34795728690146
-3.65465762465381
-4.03829103039746
-3.90043906325631
-3.12580644908564
-2.14838910449716
-1.39206630472989
-0.965073809247331
-0.876472413667972
-1.07993492923933
-1.26090458944116
-1.00942645836149
-0.276191679497786
0.579119854870385
1.12439427447653
1.10819644614841
0.626785365114972
0.239923809949064
0.652829632330681
2.00019074541308
3.55840612050877
4.32363008059004
3.81423099825788
2.35219379262883
0.758166495194479
-0.291379324558006
-0.846729868801515
-1.59006513299681
-2.99488280639347
-4.66127966044081
-5.60718883444898
-5.17271289802514
-3.64690865405618
-2.06206611625746
-1.27352438115844
-1.17125717587436
-0.851545044963777
0.569711499795135
3.45192901649483
7.49230649098137
11.5505556270396
13.9672165103124
13.8212196415846
11.8351960776802
9.57182729009441
7.90213765336305
6.58967837544211
5.01406114089621
2.89007389141123
0.508176966733057
-1.50444459535928
-2.81977648103544
-3.7421273136597
-4.65682690599968
-5.41164285556046
-5.68980084788228
-5.74179540222981
-6.17146133889439
-7.07789823614902
-7.88656225176434
-8.00025479623182
-7.27062901616106
-5.91258980385366
-4.28111064957165
-2.71678389782216
-1.40868078833988
-0.351702149989945
0.578424412936775
1.50039612988231
2.36536249023504
2.92416156679949
2.98069507053576
2.58854168802825
1.86552951766253
0.83612488685252
-0.350520193084166
-1.32837941140264
-1.87671056448848
-2.14884407426105
-2.41301834333638
-2.80290507713601
-3.33346648917134
-3.86757811929996
-4.07818041731772
-3.68485295606977
-2.69145419600339
-1.32880384820424
0.0388823633263415
0.992810453562956
1.40076739028084
1.63866475790084
2.11828938243392
2.69943931895572
2.91386230692738
2.62753484090953
2.172915286936
1.97618391108686
2.27901910613187
3.0237502124149
3.79802592026745
4.08542726272657
3.7541658560791
3.17039075328642
2.80375826483815
2.90145092203189
3.44450260000649
4.10985297381998
4.32915937901779
3.66804734056488
2.18176914308505
0.368187134500775
-1.11878030844897
-1.77544115943809
-1.50485955487982
-0.610046458823029
0.47599114109256
1.32475321579389
1.51081583396256
0.888000839047205
-0.12407886770301
-0.902596399143409
-1.25412340713179
-1.39180432647001
-1.46698621597974
-1.50794311983479
-1.65753582517327
-2.10726564091773
-2.85310134031751
-3.64643877306283
-4.10165605564042
-3.95447209809295
-3.41332351540363
-3.0638909278153
-3.21324108868496
-3.58921106407522
-3.84639513690307
-3.96281290704064
-3.90529545605249
-3.35949110837548
-2.16920729697634
-0.745832034833477
0.2879748693685
0.666340270004736
0.504235021337995
-0.0126994713167177
-0.768088520235361
-1.62775347435759
-2.27199854022495
-2.2130113904095
-1.23864643340209
0.189521258648945
1.35255525694275
2.11599801971859
3.01392037418137
4.48223160746343
6.27817863732236
7.64941592110704
7.93850874403089
7.08333073504809
5.54938511099111
3.75287394633849
1.784034759499
-0.230215806052961
-1.98515426880314
-3.44116768452176
-4.79972939833407
-5.72581971622831
-5.26731615750139
-3.00098563070452
0.20753473133512
2.90732608418889
4.24052874988325
4.41555444442589
4.38857580532194
5.05045201653729
6.38244036620464
7.37526051705082
6.9094802684094
4.68682967610896
1.37894184410022
-1.87380729639
-4.14837626054882
-5.27521900988399
-5.75760431432503
-6.00069827032037
-5.81203483488066
-4.91612187982071
-3.62072826003029
-2.51983994613904
-1.74845196667876
-0.955035084850317
0.0611018296820385
0.951488109408848
1.0988408078176
0.298565215899958
-0.855115249191846
-1.43138625810111
-1.02752040025742
0.0326079015684094
1.24329546133212
2.25626081302705
2.76633242099219
2.5666015269753
1.78336451830268
0.765304020912025
-0.218727182976141
-1.06815713564581
-1.91676393963621
-3.160022904687
-4.95008180488152
-6.58398311476653
-6.93821687556641
-5.69230954649042
-3.73698123301783
-2.27243482560882
-1.77830592794895
-1.84709992014425
-1.73784524771847
-1.05947691887745
-0.0534083599150377
0.801475394447278
1.40045567153388
1.96055355796492
2.39048902367492
2.2193719739862
1.39457840445635
0.747525691603232
1.25136705047394
2.86805464375466
4.41009993922986
4.74721171825473
4.10510898101335
3.87250031716497
5.03564960624407
7.15804764820589
9.00909509304966
9.71025451118076
9.09054628070101
7.50071060166158
5.63984269810301
4.20334150884295
3.40098208078571
2.85308056957965
1.81082413801834
-0.553818445458323
-4.48442563966886
-8.89841853756165
-11.8769107921862
-12.359870824277
-10.9937292777511
-9.14876480497672
-7.6296034141401
-6.44529284908815
-5.21299589122612
-3.5594695101656
-1.54318224750391
0.185894685118704
0.926756926770065
0.630141144828749
-0.164204730274929
-0.961008771195774
-1.57007693939038
-1.82990099511276
-1.4297089387335
-0.165803658464437
1.63426858853845
3.04672493381466
3.20864838299702
2.20803051112951
1.0640863302363
0.653368547581554
0.910238451391939
1.18406284298656
1.05761547166317
0.661734989789575
0.386725612520941
0.390608881169515
0.391150152239173
0.0407914349316357
-0.566930262642456
-1.02746075048337
-1.17342664344193
-1.14592386128931
-1.00399236276509
-0.614877660611002
0.13759662261872
1.2605962066346
2.60591563357348
3.80470347821383
4.51569097713097
4.76995105390984
4.75397016957934
4.32758475182677
3.17382489249678
1.41116454195584
-0.282606634595331
-1.17352067334006
-0.953757109883205
0.129069040503471
1.43856503522813
2.36872006046103
2.71507528469302
2.51511685851148
1.60904882559527
-0.229034499026663
-2.64795155064527
-4.64150987839889
-5.34994216427151
-4.77182436228369
-3.63214444015322
-2.68496110380506
-2.13908363440395
-1.68761812204202
-1.05652857471146
-0.368669560521457
0.108801979193857
0.315523680410809
0.315641708733036
0.103318264930821
-0.338859204601278
-0.963470823514304
-1.68736448330212
-2.3365744234992
-2.65997336787068
-2.57393325210127
-2.20033784450426
-1.54570079625814
-0.498679977037267
0.736709255823373
1.66311911976788
2.07980527975873
2.21992477869353
2.27134113592723
2.24596083281049
2.31664181091839
2.72363915262213
3.22339909979569
3.0822704118569
1.82665811665454
-0.231615004480736
-2.29659194873203
-3.7057598798022
-4.22385713438601
-3.98023690898397
-3.30754996541109
-2.6362289790924
-2.36437135466051
-2.52618291487444
-2.54722486296498
-1.72179431955016
-0.132857964189605
1.24278077384087
1.55039883357964
0.924086153627381
0.262669208437868
0.397024482541188
1.47777726407383
2.92968407493065
3.9616603856437
4.16585756208937
3.59558285633812
2.54012616786516
1.62219104066636
1.80885578683933
3.60174720835437
6.23596374542986
8.25928110644086
8.90919771070314
8.53434075743411
7.81719704076437
7.00267311309326
5.83792515674481
4.00271108799012
1.54362543840492
-1.13794971099463
-3.7193112234267
-6.12798427337349
-8.14716255913496
-9.21574169743815
-8.99072201713179
-7.91483942143045
-6.90175352122931
-6.56758416164913
-6.88958534487368
-7.30942203643112
-7.02225396557084
-5.5727577954882
-3.42794189542105
-1.68827063851962
-1.04185292907418
-1.15473905921967
-1.14123929751292
-0.497769787274174
0.46965610590677
1.06285009097852
0.886236300586217
0.00682870222644301
-1.352935699708
-2.85173378212615
-3.85951076459936
-3.83138249653449
-2.93607836489917
-1.86020111774754
-0.983222984172373
-0.153261728580293
0.834178792385534
1.96083676929772
3.06324531713332
3.87971386313358
4.20723968229619
4.17699305569892
4.11358619197371
4.08002948601364
3.88190180832368
3.48878834245426
3.13141096307918
3.07045631806005
3.52622730201636
4.59978475861181
5.9173043063152
6.60478267996008
6.04954834438691
4.56410555791539
2.99560624887725
1.84930262675771
1.01612629983539
0.101570099816395
-1.23095581935687
-3.04098031188115
-4.99644484054148
-6.50637841713872
-7.04701630705811
-6.44565250662655
-4.96948988812327
-3.10110814914403
-1.12526995152471
0.943885507346445
2.95130042472341
4.40700625632736
4.92863968160932
4.69275904849759
4.3037699153731
4.32943204182444
4.87811121319631
5.39368922972923
5.00254792934087
3.30092057732197
0.652466048950335
-2.29274328859798
-4.91144255373846
-6.45481923350159
-6.35134478007447
-4.97108149326384
-3.55054944853121
-3.06345035815741
-3.45024444794863
-3.99981619937797
-4.1454586343696
-3.82540141730781
-3.31267293995748
-2.7735518953202
-1.9706219278162
-0.52591351432693
1.50920432068466
3.56122966238732
5.02153722172939
5.63205193798875
5.49865512135243
4.96593837092869
4.31674194599699
3.38878269959357
1.72388443672846
-0.748916734711684
-3.46410296754697
-5.73532463265757
-7.21055171323352
-7.80421972504123
-7.53476057227713
-6.5368302334574
-5.11500996327049
-3.79408037761634
-3.20163911922781
-3.56679202391902
-4.34986210466308
-4.73631435074088
-4.49226892546513
-4.02705679308541
-3.73404779329694
-3.62498166377726
-3.52806880450475
-3.34209481361206
-3.03279648379065
-2.38687009807445
-0.828374099749978
2.15959160735497
6.1692027555162
9.7544610289922
11.5965287730989
11.6686886950799
11.0366039673851
10.7450498747113
11.1315471135341
11.917752111999
12.568830278421
12.6344601897852
11.966496700877
10.6448965043147
8.81223266715458
6.73407670444732
4.80109998859773
3.1806101994232
1.58982006285097
-0.437583705582469
-3.19458893878379
-6.60838938261903
-10.040503530988
-12.3988501556343
-12.9605779619301
-12.1351573446076
-11.0678689566924
-10.4595598197997
-9.9744955166777
-8.76203393804288
-6.42257761381795
-3.46373612567356
-0.791531417369772
1.19213676311684
2.71858108784586
3.89661876212338
4.35133283577105
3.84802649835225
2.83670007168487
2.0987953834322
2.11316333729501
2.84275835415137
3.82520088751197
4.41403845163863
4.20550465469632
3.29046113462565
2.00100104990972
0.58549013261375
-0.742839444053673
-1.79060190512107
-2.70176831835748
-3.95174777634702
-5.69036619739554
-7.34863642733172
-8.15880866200573
-7.87770420499242
-6.89544710290091
-5.83389280397568
-5.07679518712371
-4.55464428960973
-3.98841883538336
-3.30896207304228
-2.66744217472387
-2.0972553139206
-1.41107062148638
-0.395145454205905
1.0549774602428
2.86184656325827
4.70304191991104
6.20151937982841
7.24489427583989
7.92195001984493
8.20640788982688
7.9844214797728
7.31753682307605
6.43699433859923
5.57484380895436
4.87586050061222
4.21880853920356
3.11086948887454
1.13749481545915
-1.43279447323804
-3.80708823100179
-5.39350132338771
-6.0812547947289
-5.96145617090333
-5.19697472867331
-4.14329737755054
-3.2431412060146
-2.72236602257341
-2.48648236558825
-2.21528956727457
-1.52983207015063
-0.333994158605242
0.924853470664535
1.61629335010434
1.64955581546842
1.64599188762081
2.37097477824813
4.11248393562317
6.50330684319399
8.71684178884908
9.78980487884102
8.95462957092363
6.0971797155979
2.27302284037884
-0.495943444210121
-0.673244525513759
1.32201169344183
3.44786599700269
3.86588532814536
2.22491976484427
-0.470030390862621
-2.68906983546952
-3.35820758665341
-2.62548683679593
-1.60661175443717
-1.19288993404881
-1.43484944965491
-2.14589030038617
-3.44622736963574
-5.36053102425458
-7.33988799591468
-8.55486089528127
-8.50238565001555
-7.2764154636816
-5.5112965732719
-4.06132235937649
-3.39650282949297
-3.21329033819781
-2.82305705555566
-1.92383932829237
-0.85249304630958
-0.107705385139585
0.320672720302843
1.13840722018233
3.05914404406672
5.76495715565324
7.82078251000287
7.91303547700165
6.0383750633832
3.35571142899851
1.09504352628432
-0.310596588067567
-1.27980601065403
-2.43638153380176
-3.9150760172113
-5.40210076258766
-6.75450958607242
-8.12964902156773
-9.3705993482799
-9.71657523768217
-8.43327105695465
-5.58676768000036
-2.13647063434989
0.636873965241889
1.96937097695898
2.13396026242597
2.07472041469534
2.49710164294787
3.4861606193213
4.87268688299059
6.50560684585747
8.10164380816874
9.24857101162642
9.74981849894403
9.76496514977604
9.54778119899531
9.22479779861165
8.83775674775448
8.43580951152973
8.10489790314993
7.89703491820412
7.53699298542529
6.18918866325178
2.88836767853912
-2.4761654896457
-8.56679843334347
-13.099626397723
-14.2949524501257
-12.3025450377618
-9.19142396056949
-7.11837681989068
-6.42892546181383
-5.7663763452861
-3.83142111780167
-0.627730584136258
2.84824094616211
5.63206164189054
7.40087905129798
8.2953329520498
8.34840699468531
7.35470886000877
5.43110303310806
3.31891979739921
1.73565932597039
0.701944345252378
-0.140590888240046
-0.899397918263224
-1.53661480523454
-2.28947829375497
-3.50922328929316
-5.15752564145674
-6.7246156162638
-7.6328133434511
-7.67768870604
-7.16540961143335
-6.59003790661513
-6.08876979017613
-5.37919470955323
-4.36416139142687
-3.46508359821118
-3.03156218424101
-2.68460008965759
-1.61554383409544
0.54013410383154
3.25507884676844
5.41817658001334
6.11420941699341
5.3000145699742
3.7485281636091
2.32437104259409
1.3995306459491
0.820411116288814
0.130405194594862
-1.10782363051224
-2.91943750848662
-4.86128251597701
-6.4159408509689
-7.2317596518221
-7.04715537893996
-5.89479220425219
-4.45249609671159
-3.62782056303351
-3.57715983115889
-3.48119657107063
-2.38086572415757
0.00949020269321207
3.27199480476469
6.78521457928587
10.1682173643713
13.2557731447031
15.6890377433518
16.7820298919076
16.0403199840091
13.7023773516393
10.5478858310377
7.26802816657713
4.20022408032906
1.48932711564091
-0.789076143484444
-2.59197511429637
-3.82576744272001
-4.42701667035452
-4.58254475826029
-4.61569094460152
-4.60150391496738
-4.35321884200105
-3.780931772841
-3.00484511812518
-2.15213065481037
-1.2519047676936
-0.297239710942883
0.671990452664641
1.5002474898501
2.01047510298393
2.26805345746022
2.53976055110192
2.83163625118533
2.73947376151974
1.90861610402198
0.343086270496068
-1.78279881850832
-4.19443827450972
-6.34263108834741
-7.57825816613082
-7.59992940198736
-6.57019920794776
-4.98568786387549
-3.61599659110927
-3.20404634279678
-3.86853565010296
-4.95971489080172
-5.65846027426229
-5.54432295512532
-4.58878373123515
-2.96307934552466
-1.01984322132551
0.760279894171365
1.96826672556865
2.39770640505038
2.0655997334179
1.21185802366478
0.200007781591305
-0.635124464440771
-1.00655426591768
-0.716817428071024
0.0987199919397232
0.907041646866993
1.17591743048997
0.796924014234876
0.151565177161349
-0.0345116287632586
0.954264886393133
3.21750898327957
5.97980161390329
8.14312801630107
8.99669662155534
8.37636363889446
6.61095826386012
4.56426574793944
3.28962362730617
3.28681638611355
4.21313437022107
5.26340463826177
5.58872862614975
4.61139109265996
2.42006437734732
-0.202692731181257
-2.39885710443392
-3.78395916233682
-4.41515958973743
-4.62123613080411
-4.91072100738211
-5.58653605151771
-6.33441019361102
-6.55245136599947
-6.08871039584905
-5.25849606547523
-4.21493104279402
-2.81612079801913
-1.12845198593711
0.381547124946212
1.22034844167386
1.20338198112201
0.495702679794239
-0.495094320362773
-1.31667723544641
-1.62747900152912
-1.19992107066578
-0.0156453948869322
1.48396730614382
2.46711189237729
2.26065035637647
0.837091954771999
-1.14319879739377
-2.64639201506346
-2.85599709176987
-1.75159882999253
-0.0128653962392898
1.73677201108741
3.35118901092229
4.84891447838366
6.14134631066173
7.16991273778358
7.91046339358823
8.17673641038586
7.73652272904166
6.59711946345483
4.95935289869182
3.06270908165207
1.27485185618244
0.0560622562756027
-0.46495398959261
-0.737667377495213
-1.40597995821264
-2.75336984256856
-4.59407972393095
-6.54645821202783
-8.283649769564
-9.59611273717407
-10.3220192514679
-10.3125673003001
-9.59494101382655
-8.52659570075649
-7.55455047955454
-6.79944256146088
-6.06710155062197
-5.20721657214534
-4.22326453652592
-3.06904744619604
-1.51821055348779
0.731443228951283
3.72038749287353
6.81725608208399
8.82694077347828
8.89350934569805
7.3221293877596
5.35085575032162
4.19653047339428
4.28686912120241
5.02433648853751
5.20805224514988
4.09929892136313
2.16134446160441
0.43067275909237
-0.705245857020508
-1.66332820320802
-2.77734565407447
-3.751119931177
-3.94377889942388
-2.9371302820291
-1.00580484092417
0.787182299654582
1.28002155081708
0.29873594100661
-1.11193827628582
-1.69610682643224
-1.04103858021876
0.3768913404102
1.81536101971346
2.80490809906949
3.41122963637527
4.16410543976396
5.54469595526938
7.39550896907893
8.89236433819515
9.19971593832633
8.23965863273906
6.79594169883295
5.7264501886127
5.1123652200481
4.37352527177526
3.09073521206774
1.37746048132813
-0.441075505725503
-2.11556079244458
-3.51540172510106
-4.71949467490481
-5.95553791000553
-7.21019684969252
-8.09856701107883
-8.29893594153074
-7.88230776598177
-7.16458338134613
-6.53426954376216
-6.32896240162304
-6.45627024604343
-6.25372156338787
-5.17495810650225
-3.52810423548926
-2.18115779591244
-1.64460411689552
-1.68261022680978
-1.65317595096159
-1.0455475594808
0.108787740936668
1.20421635665416
1.63326570064251
1.45558761101375
1.28149612336426
1.52107984130515
2.02370531966983
2.40363539953281
2.44415470435795
2.22130931585952
2.0035357617578
1.94844719409691
1.81439160097341
1.10321514763612
-0.407567170637403
-2.2759438415732
-3.55437259039659
-3.48277412691516
-2.20133193512122
-0.687337543177632
0.143728007431213
0.111058981279666
-0.47964141075683
-1.32211674432808
-2.15016266842061
-2.72241273228575
-3.00076055758665
-3.00515801301365
-2.43343203467137
-0.871935309148066
1.56414710113502
4.19302505566331
6.32896448223313
7.56251105865243
7.69227953234482
6.81972223880027
5.42669070644006
4.04855011469923
2.91472318929772
2.01508324816452
1.31065059627113
0.724322187300699
0.107792106417849
-0.642747971577291
-1.53627576456676
-2.53642115317938
-3.5061045702431
-4.14920068018528
-4.13369337102109
-3.22504152071327
-1.34017535898861
1.30553694965088
4.10799407933853
6.33478497345452
7.49027904783819
7.43831283381739
6.42428322932125
5.03746095199541
3.85594100378293
3.05756198751237
2.56541463287485
2.4036708156359
2.57377230837816
2.77289298940651
2.62313478812455
2.06182374182612
1.2613378118493
0.326706791450455
-0.799532855467115
-2.30306250345332
-4.30480279035759
-6.45955148093402
-7.95888143628866
-8.27174258486155
-7.6608378673677
-6.69226788162687
-5.5686018232525
-4.2515205702625
-2.8754827895942
-1.65126681711203
-0.586846945400116
0.392633574522338
1.20901172977167
1.70657440000739
1.79448243085428
1.37838247260883
0.309461273361377
-1.46113969370945
-3.69056508459524
-5.8176245608398
-7.21355459024672
-7.61239709176756
-7.25157088479216
-6.49245894653943
-5.48186069842735
-4.3232077607921
-3.29732184347158
-2.62936155146146
-2.13651345657114
-1.25431655892816
0.544938515952127
3.15145180248424
5.51375737136719
6.31986723068184
5.33470117951822
3.77044891446449
3.02026067352538
3.32540390871094
3.92085704400279
4.09460210872735
3.78481170834251
3.36915668367466
3.10515258014037
2.79087569965943
2.07111905973949
1.06388286128046
0.344457880503975
0.18083285964591
0.133221043948757
-0.41907508805362
-1.64379959590598
-3.23064759689254
-4.64731210921681
-5.32083109855508
-4.9040668838592
-3.49715341146672
-1.45306597229762
0.92459954520064
3.29279803487273
5.16104686714007
6.26438936059007
6.93659948259215
7.83072415407886
9.26713863570398
10.9123305032185
12.0487494253131
12.1718322665004
11.3198185802266
9.74518704189973
7.42956840774059
4.26295329486068
0.656558322748481
-2.42288156900234
-4.21076771130437
-4.89293208056754
-5.6025922708631
-7.48345686647692
-10.4083431565306
-12.7880469032088
-13.1391480303559
-11.6655192044458
-9.75258397858429
-8.2044351374321
-6.70591814320883
-4.81297065603407
-2.69293996939949
-0.838270276205768
0.463448907108675
1.31141458343167
2.05140739769049
2.86057566543204
3.37951045770113
3.00823951085868
1.68178376770703
0.0595714009665274
-1.15671515026133
-1.78195859265517
-1.97082958918514
-1.86903066198298
-1.61824867222987
-1.49384157455409
-1.8634532150198
-2.96933192882912
-4.69528734175152
-6.54426229644581
-7.87649252146117
-8.1481518674539
-7.03408129475072
-4.5925559992964
-1.33997364639519
2.06027401455545
5.19758240857489
7.90179325681291
10.0449078998125
11.5683772363383
12.47557240697
12.6336541586084
11.9141337019564
10.6589631428344
9.56849741800316
8.95397351518039
8.45961191424406
7.54986047480835
5.88805377629328
3.32929833461062
0.0285962875870942
-3.43939469055903
-6.41250012639485
-8.5487557541762
-9.69595951809429
-9.60383614798226
-8.15058166019654
-5.75533351661783
-3.25101443522183
-1.34314239463189
-0.275164486264677
0.12984715758822
0.227564976430193
0.271181554718426
0.286945798010966
0.156787054866096
-0.285259032769421
-1.15079735252964
-2.27937034964383
-3.2141501637309
-3.6501638355391
-3.84999907873968
-4.41538624582709
-5.67456416965777
-7.33226989986575
-8.62015884703002
-8.86369380020507
-8.05804139864602
-6.71484979125667
-5.00231153330422
-2.45490656588116
1.12192231056657
4.89500080396447
7.63964580012489
8.89981612198556
9.18319061003297
9.18129769847528
9.00538318701636
8.14793816798628
6.25424043816182
3.97048005870519
2.7000635168977
3.24506923360893
4.90763465237964
6.15619145130913
5.96403430453071
4.36489812432524
2.08897542982721
0.00688079874279437
-1.28813675722337
-1.72622160776085
-1.6868963005286
-1.70264164500842
-2.23119621639011
-3.43894813757784
-4.95245941683804
-6.01998291896918
-6.19079451091877
-5.7504013973076
-5.36813590985347
-5.42089759318465
-5.69731730418792
-5.65580942656553
-4.95520782661721
-3.75821937162984
-2.48674901516578
-1.35364803652588
-0.22951924449163
1.16083622870537
3.00937038490745
5.16902039428339
7.02517817338365
7.92159408162094
7.81038113114857
7.17845297225939
6.38518648952986
5.51184219081648
4.74443980804577
4.30067715368313
3.97023716919157
3.26914908275844
2.12380454716557
1.00875384757274
0.361486345367227
0.157518193319978
0.0845810052283896
-0.0927871365442623
-0.368201202904431
-0.57379935163104
-0.639263545792456
-0.754880030909377
-1.13437808944843
-1.67324274302726
-2.07745160449927
-2.30559203618612
-2.68890775385882
-3.6442562038651
-5.3280970221124
-7.4055313616114
-9.09933874372317
-9.67119152736609
-8.96205787656929
-7.41457538623439
-5.63086460721504
-3.97601104623338
-2.52420111555401
-1.35147554992897
-0.863890612980383
-1.56694272645601
-3.29795990798898
-4.99291495687779
-5.56895581659816
-4.86149767945409
-3.49337443965917
-2.11545650285067
-0.964202088508413
0.153940433547103
1.62915116200789
3.58393144731019
5.59074605008601
7.01634178691891
7.56422539173437
7.36211204268174
6.78627143612181
6.41120929452007
6.78484736160627
7.88392131263805
8.99925241908457
9.45521717897945
9.25812553221544
8.84897801185807
8.50241850742198
8.18131399949746
7.69693841129006
6.7850134326468
5.27823692728694
3.48550400499494
2.24336888482091
2.18940237473835
2.84157831989037
2.72364993123671
0.783765497033876
-2.4189678485983
-5.26459510332469
-6.65654626359773
-6.69458445393163
-6.03624068405816
-5.23793269310234
-4.74774553287261
-4.98279592444815
-6.13757846667258
-7.99493659485776
-9.89402614955353
-10.9463690129135
-10.6492854615165
-9.40041701354854
-8.10004721875955
-7.18933023216166
-6.34561826284232
-5.05220384398397
-3.15869731402179
-0.977648079831295
0.888281498814324
1.93968052662007
2.25867430208238
2.4732464072639
3.05225805681013
3.78896672501847
4.12458872475914
3.76257693885641
2.80823946994418
1.53641405288024
0.220709981947276
-0.912851942798351
-1.67954080732927
-1.93532348036258
-1.69827142083334
-1.23940255315682
-0.83846945628434
-0.461420800618083
0.119316461158773
0.95699241848894
1.86856954642841
2.60955676603724
2.96575035574093
2.86889267497642
2.55725165000239
2.43648225154323
2.71217343719892
3.30569390930755
4.06311877499378
4.87017574588656
5.68858991863319
6.60495094235398
7.63108018310861
8.40941068883963
8.46966014937535
7.85201381654518
7.09456856193121
6.49066043244363
5.65658232162255
3.92731837609177
0.999245831570584
-2.81123415150493
-6.75438093392227
-10.0548481851831
-12.2585405457216
-13.3062812359075
-13.426108735024
-13.0519256070415
-12.6513284551726
-12.3409791711589
-11.7238029880611
-10.3123711659928
-8.02757936806869
-5.18282997238338
-2.22713245672728
0.372601736521079
2.3182094582729
3.73724520944612
5.03789185097371
6.4172967954729
7.65089373957156
8.30903560087496
8.04952242413856
6.85581884880817
5.16577971592952
3.67459236408642
2.94291374946658
3.22499135803319
4.46214881217098
6.17899132074938
7.55349410770929
7.89245152103193
7.01990000413223
5.20487978701366
2.96314690729591
0.902773826417787
-0.589182358119106
-1.51267371546501
-1.85839612095338
-1.26783017598267
0.449556792552426
2.57884858396198
3.78617362904115
3.23529557739171
1.18747695867713
-1.41319704086202
-3.64238212664304
-4.97683991306245
-5.37778864147569
-5.16194968015848
-4.70664247655516
-4.21805938163633
-3.72479784252333
-3.22201758034958
-2.83252462927225
-2.80029023060899
-3.20900304115321
-3.74526193122204
-3.90478224338797
-3.42929861560878
-2.49592354441015
-1.62490809627433
-1.4366262194446
-2.23367904360079
-3.700062292322
-5.16619825763178
-6.13137416352883
-6.36139405396643
-5.73723984272011
-4.41630699817811
-2.97591234993261
-1.9820337627878
-1.4736568309169
-1.0883133968736
-0.532612600882984
0.233917136041004
1.08150396940793
1.81728982788288
2.31340200513521
2.60796135020851
2.90350538465953
3.53659018157791
4.83806766525653
6.73304285990855
8.49716060492127
9.26363790531977
8.82303027639978
7.59529486772598
5.85852528130962
3.52397079579471
0.771875382453154
-1.61888643785276
-2.8554003687427
-2.80389841172473
-1.96700456491285
-0.967289632370983
-0.108076190916553
0.647896867059286
1.33922331428997
1.779614713284
1.77536720005328
1.45147257789918
1.24799153890623
1.66695582267979
2.95974497495842
4.81529304092153
6.40736055974151
7.04411079986017
6.73592281394722
5.95091429093028
5.06863942567956
4.29827182446269
3.70274336943221
2.93050485864666
1.33600380884224
-1.23134693828926
-4.086242084771
-6.45154765189508
-8.22131932218935
-9.74457705957342
-11.157923254187
-12.178863519274
-12.3689059288301
-11.4375330285852
-9.43578211319827
-6.78669618104582
-4.07243322891788
-1.74306114446377
-0.00525398909753664
1.12018194383912
1.69365512744123
1.76584675597749
1.43440050285826
1.01901444374689
0.97593192467603
1.48948107123871
2.29707546651643
2.98817110150782
3.2982669345578
3.12560131749298
2.53897999547742
1.82454295420044
1.3146927587775
1.09362197606034
0.926360550919248
0.466626832817054
-0.418136699434349
-1.41320091679595
-1.94170334728529
-1.75623049147419
-1.22602273168086
-0.882220048052943
-0.872146816666943
-0.99381172658895
-0.99069694644649
-0.667943251061627
0.013737305151805
0.866546290014505
1.72252916232966
2.70052473019841
3.9266089976876
5.061950028846
5.4579379862101
4.78845602020069
3.29076764216688
1.45546650936705
-0.244927036025507
-1.37206233675616
-1.57337076140318
-0.754617707148265
0.787870476958988
2.38034872754898
3.26235662581833
3.11866848436329
2.33555830764495
1.6094201774003
1.33599929911588
1.37656788303004
1.2464390109408
0.520452518377268
-0.792462954660003
-2.32528658078768
-3.87123215268717
-5.54703416638603
-7.24763873871427
-8.30803364024977
-8.08937443637091
-6.73152565088363
-5.07403192413326
-3.94275214358802
-3.58187689977137
-3.59804332746175
-3.39802586092794
-2.77158851768505
-2.01712449791635
-1.52228782928569
-1.40859363138942
-1.54265523959083
-1.63208773324401
-1.35682133166447
-0.681491770037698
0.0205847833385574
0.421544367478636
0.754712649434244
1.62442226545432
3.34042129931175
5.62132290598877
7.86795925322856
9.56696096385981
10.534193861923
10.8945758706752
10.7516656893633
9.92002311338864
8.20509357207293
5.91899147017661
3.84877730828296
2.62603686582547
2.19959575993147
1.92369421433807
1.18424439349382
0.0105105744469715
-0.986018696093269
-1.29853398060891
-0.958642206352556
-0.288377629832218
0.392879106023441
0.695447024498884
0.233679639651938
-0.968094304367738
-2.41128308751191
-3.59966032673648
-4.36386166351842
-4.72906785983566
-4.74591284192229
-4.46041874785698
-3.86615985174829
-2.95159379176382
-1.93695871692508
-1.34394239635969
-1.63533866493016
-2.76474649195159
-4.13542559712519
-5.025043639465
-5.10480373466026
-4.63102166886669
-4.16108406565822
-4.0526996852515
-4.2083711238545
-4.24539998557432
-3.825155936137
-2.84516351608437
-1.44594442506536
0.120009527056257
1.60303897115993
2.63190427594713
2.57636751427339
0.957364562815256
-1.80779249997915
-4.34949642079972
-5.28749970148688
-4.24001164221494
-1.99208154625061
0.20710680748348
1.63004140451498
2.48376437838102
3.28170302459551
3.94732796886067
3.89891921382597
2.94048987616499
1.59168866589979
0.512589623129185
0.0146778014391184
0.133943170442037
0.796997119531852
1.8660233192126
3.20280744726428
4.62415989863377
5.76731494827554
6.27055418881626
6.17478332854813
5.88766431273802
5.69775578692601
5.57514397066593
5.45624859653815
5.4302863813265
5.57627134377171
5.8099895945457
5.88798945000489
5.39195317363275
3.80986504129269
0.942741038489276
-2.67235116318094
-5.90482731077165
-7.78745169904123
-8.23350285111492
-7.96686605756963
-7.6957984557485
-7.49031388789809
-7.03661147772018
-6.17270580344431
-4.91189092684414
-3.27947901818393
-1.49944772279502
-0.0605474865597597
0.77849072625955
1.32705280159166
2.01424215971002
2.81349673634136
3.31609190782453
3.17624363948003
2.38564239068077
1.30117618786615
0.405199722054554
-0.117103322545209
-0.470563963824919
-0.854500901672811
-1.23498719673976
-1.58725075115024
-2.00684806144308
-2.44038905713492
-2.62456433195344
-2.42961935441942
-2.02538662793473
-1.65644673550786
-1.49254244923116
-1.69756310744834
-2.33867153851637
-3.12539544644521
-3.42791705802327
-2.67991127755335
-0.816163273775756
1.57029544673037
3.53101227372362
4.4494437222128
4.52230719313614
4.48789607733914
4.9048849101358
5.71690006506726
6.35957187279525
6.2126472339335
5.10261294107748
3.45975544914489
1.93147502249311
0.848316085337251
0.0623423630479163
-0.816599647304251
-2.00266628422406
-3.16708393615575
-3.6001806870091
-3.04128471481586
-2.19251387846517
-1.99796519838077
-2.55531673103774
-3.18352460547146
-3.41554914194926
-3.42673793056483
-3.52621509559701
-3.64944881321787
-3.43456530295106
-2.60892646396597
-1.28199112650274
0.0681502756766698
0.943789088372976
1.20572025828311
1.0886507038769
0.945300345379691
1.10253631217199
1.80478296915827
3.00380559688676
4.23111342123618
4.90454029680684
4.76850915745779
3.95348687308564
2.72860332501737
1.32592257973313
-0.0606588833372871
-1.21085461558629
-1.90680075932672
-2.15419249203475
-2.34046834932129
-2.95138601867409
-4.07310715705961
-5.31570128170948
-6.22073420847385
-6.62814939022399
-6.70357976274806
-6.69229035522301
-6.56680651943591
-5.92987725077865
-4.42612253400136
-2.2037464612934
0.173912476275978
2.11390271420247
3.16911486614857
3.20702987599308
2.72110286015716
2.66919019296317
3.66131323306334
5.4565447435162
7.37082148773354
8.90178656502612
9.85715747202804
10.2263231885663
10.1648385847591
9.92306507864179
9.59670575600481
8.9882972850552
7.76653081566218
5.76841127860355
3.24240545468446
0.832006824166501
-0.835401154688457
-1.62156434782292
-1.86245996553349
-1.96879402523327
-2.22742237168494
-2.85619993186033
-3.91197853261481
-5.09523402277017
-5.85030843206486
-5.7740354729134
-4.94793343359611
-3.8793907965519
-3.0591570537704
-2.55823735506913
-2.15460687370326
-1.79036393479974
-1.64829779815803
-1.80733998906695
-2.14148284975994
-2.54506579558472
-2.94207024718881
-3.14121485116783
-3.02827019445822
-2.84045557867829
-2.96617073080005
-3.55663340904287
-4.5070162494657
-5.63426044345416
-6.70843189100163
-7.49953604522324
-7.92787888460788
-8.0199641714157
-7.69008875798745
-6.77580364199599
-5.3090040385844
-3.54052437799753
-1.71209397964825
-0.0309153658507685
1.18872398496776
1.6661204709
1.503016465937
1.23186214888118
1.47201552632815
2.57264451802682
4.53133890944793
7.1395141716733
10.0771888284045
12.8369977134043
14.7986233505229
15.6475132146349
15.5986514697927
14.9792821186758
13.7761668676494
11.8402537424006
9.30190219452766
6.51143997818651
3.78667105830428
1.40881297013131
-0.423720791677249
-1.83677239128418
-3.21825649608201
-4.75333773941945
-6.17102879547847
-6.96799133618838
-6.78437197906935
-5.69741397243572
-4.27256771323278
-3.14121056739493
-2.40302508933289
-1.61871481376117
-0.463664613989951
0.797455002052824
1.52455656988564
1.21304308146314
-0.176158968636686
-2.14500482485493
-3.90325009475222
-4.90731033766954
-5.19097485281308
-5.08895344914015
-4.79792242621236
-4.36791132384734
-3.93631905337693
-3.74130134052594
-3.94117539853353
-4.49935575614231
-5.2368322359181
-6.02143842768176
-6.87575137189312
-7.76716649399126
-8.31999086919707
-7.92508056814319
-6.1712167971716
-3.14409556909135
0.51754469589431
3.78371171592607
5.78219168299052
6.4492185125738
6.48100894491085
6.56693539411804
6.88206312801889
7.25670601779192
7.44776065373882
7.22562827381592
6.52103284570281
5.49609273227074
4.28770306680705
2.83357588362121
1.16882589452166
-0.2872450025664
-0.99907641514649
-0.797199178959186
0.0359572788297995
1.04021977696096
1.81559351609704
2.12568226539415
1.96841057752061
1.58846168262595
1.3577271552574
1.53383253356655
2.02658810187405
2.44835599314691
2.50902633452237
2.25975895872838
1.8137324145367
1.03654971751211
-0.230722310384915
-1.79081903867363
-3.17805431922553
-4.07052036153191
-4.5221685388973
-4.86162327168385
-5.35396324479356
-5.88264477816741
-6.06725277120728
-5.76524267883458
-5.24500675746124
-4.76557518725284
-4.25286570592594
-3.50342494029513
-2.43504271887325
-1.0431057151759
0.635537666315669
2.43667526555324
4.10781951536751
5.43446138258076
6.26165141931381
6.50598933048307
6.20719730601087
5.45914411761499
4.33546888861733
3.06172665778942
2.15061061118056
2.04601021827977
2.61184502963914
3.21953198853856
3.34972545954347
2.89839679594133
1.9464309425777
0.514091275861406
-1.38616367378442
-3.57089639246511
-5.59959865729723
-6.93009165938002
-7.27945866537622
-6.78158598750729
-5.70616200412607
-4.18561464876649
-2.34580632712047
-0.508518936767303
0.912619585623407
1.64499748088444
1.68428497227561
1.32025688838939
0.990356051083337
0.975467617179226
1.27942536307236
1.79299429766863
2.37292087474904
2.78799062972091
2.8862503682504
2.80311832446534
2.71447659834203
2.45942352750231
1.72426692785332
0.53933795237213
-0.657236950364441
-1.41070232860924
-1.62982876207195
-1.72750839409763
-2.39039295471561
-3.9659840555474
-6.03447314255411
-7.78195205112885
-8.78099261453484
-9.22908272183706
-9.54322931151878
-9.96217628375147
-10.3702625649072
-10.202740117533
-8.71336643001666
-5.70782087948241
-1.94685302957603
1.38626345511266
3.53768154374862
4.4908071434778
4.71021131053042
4.72275956796651
4.80303652613971
4.96271424659942
5.18991390308157
5.53720671524092
5.96195571988517
6.34033726436583
6.75290969255935
7.52765939974055
8.8100799159515
10.1686707366096
10.7932123798469
10.2060202049061
8.79545280046066
7.49947656284831
6.88174441815495
6.71306105031201
6.52859613383575
6.2306031903667
5.93026106150741
5.57663911534315
5.08065904541319
4.56636553039841
4.19380987993447
3.85435130229669
3.24103178048627
2.15144863507387
0.641490178353761
-1.01941386628989
-2.51649514300227
-3.72540719745547
-4.76841537972307
-5.77105474947662
-6.71681529993458
-7.65697133607942
-8.81769680412066
-10.2759902253046
-11.6902304908106
-12.5347455860293
-12.525952827078
-11.760036185346
-10.5216818818075
-9.03032872948598
-7.43601257242152
-6.08139568635102
-5.52211045378873
-5.98634340549717
-6.92882106855936
-7.4297658849656
-6.98553184538388
-5.74159474799685
-4.16672968526351
-2.72652266734119
-1.65084224320312
-0.800174712270334
0.086518888163797
0.964813198975294
1.53171446963241
1.67884786391274
1.64360287073452
1.73871187177417
2.12595177102047
2.77504662047485
3.48581542216569
4.04989085782356
4.49262018115683
5.0179040476411
5.65289412449514
6.14953800460466
6.32631380856025
6.30765064900176
6.33618592544777
6.5234278340112
6.8603769088986
7.3483575298914
8.04756049147818
8.97761079131666
9.92139450492741
10.410044341406
10.0723573832685
8.97733844815014
7.52129614337026
6.04750285087438
4.65517804903986
3.2655304082671
1.77835965117665
0.185104213431947
-1.51091175423379
-3.4604425303427
-5.79767160414462
-8.22141961635292
-10.0827190361029
-11.052194319172
-11.3972554973048
-11.5092804455067
-11.5185500271052
-11.439131572116
-11.3076130184067
-11.0937973674326
-10.7469417070234
-10.3104448470019
-9.76052606997174
-8.84297715085395
-7.34092059241573
-5.4387080619074
-3.5823724681617
-1.97046793159767
-0.298267856691739
1.98976344663572
5.17224855658032
8.86007507698502
12.152408671347
14.310724601649
15.23632930146
15.2260791705434
14.4862916875783
13.1008505031185
11.3284214682781
9.68996191680772
8.68341136216243
8.35620330574258
8.17808562703905
7.54256435849603
6.45878345543556
5.52012902439947
5.13512332422301
5.03372127366629
4.54212523227279
3.06645493468231
0.327597957618358
-3.51798806394965
-7.82950950549603
-11.6879685165702
-14.305292675708
-15.4026925573242
-15.3320455034215
-14.7136518524575
-13.7990844451635
-12.3505918741488
-10.2689309510218
-8.01661964420943
-6.15527820335209
-4.73272830288061
-3.41149612312161
-2.01291783342733
-0.715801128982313
0.117562921628835
0.183244805780008
-0.455525766125839
-1.15747771671288
-1.07716289048072
0.0340702285202751
1.56165768940803
2.68207176273132
3.13573507436145
3.28874414566802
3.59580615633248
4.14280563869314
4.70747623610519
5.12759429328783
5.40581425329044
5.45689877203078
5.04352087398157
4.09330826447784
2.83159214117388
1.45011440963304
-0.137142883490833
-2.0250125960343
-3.89033749886131
-4.95984972484153
-4.52551416738235
-2.66514228193502
-0.409743036447778
1.08240112125238
1.54070311598016
1.53776446646751
1.5490794423245
1.46174332895295
0.995733425599579
0.209350823919111
-0.518467459464006
-0.81009032328432
-0.572396889699998
-0.0732178978460645
0.309645318019894
0.505417551843213
0.858911252471875
1.76058580632662
3.22737681001036
4.87435378358479
6.22170674897073
7.02073721556624
7.34411757405933
7.34171657051478
6.92664885203711
5.86434755787231
4.18776872835609
2.29953799004307
0.606596240997777
-0.761803730046295
-1.87511727287126
-2.8455772800059
-3.79285849563921
-4.87087400776802
-6.26341616143377
-7.9951335652042
-9.61874651655624
-10.3217257456294
-9.64338559897024
-7.95652557167958
-6.03500487573502
-4.3637769564214
-3.03680645777063
-1.97936879885154
-1.01239429853298
0.028307288395848
1.05782366705833
1.84086752955312
2.32869647566468
2.61809237349154
2.63056180922719
2.16121327318605
1.25160332157648
0.292231774077376
-0.22493321459886
0.0506020007497886
1.16873759347179
2.76917695118329
4.23775780075765
5.13815920625249
5.44828833139384
5.35535873622123
4.96054453214445
4.20495169322549
2.96135506903538
1.21099174087237
-0.807842336382174
-2.72157498992292
-4.33438891221208
-5.70292657924021
-6.91517722126281
-7.94678808935643
-8.69536796752244
-8.98671117561293
-8.53913164173179
-7.01894736188679
-4.23681960961362
-0.48590349898819
3.25128049804706
5.78815114581204
6.76908532964285
7.01526021673945
7.52412198099235
8.32769816216154
8.65693144416446
8.05248037892342
6.98785230069945
6.43835928373199
6.99168223856174
8.34279026429967
9.58097508580166
9.93071247764936
9.16100455894244
7.38696704787865
4.79002181384953
1.65362673167393
-1.59254008298012
-4.60889293489258
-7.33906556139775
-9.84375567410733
-12.0537555196925
-13.7747096313387
-14.8086373740076
-15.006588243199
-14.3112120105275
-12.7830627829864
-10.5619095769884
-7.88807894748415
-5.17158420979982
-2.87197740819699
-1.24827925826561
-0.286447616939345
0.217995155282218
0.586709324651118
1.07968294142685
1.65270153935229
2.04325075029069
2.14476403999232
2.10549251488185
2.07007661829556
2.04598762271299
1.98566391881466
1.80474804759655
1.40177770669778
0.805847411406261
0.19172029276255
-0.298169482118505
-0.574383807284
-0.4893707972528
0.0481405790065982
0.919404091569971
2.00751539540381
3.45085603787491
5.40747939315424
7.64225606482035
9.5750596158703
10.6778484294352
10.7133636663763
9.79754575067359
8.43681157309707
7.29971228276797
6.692601022561
6.34544504483958
5.80876299272609
4.89567937064983
3.67402343140636
2.24110818545488
0.648224853445557
-1.02287924845344
-2.59015741685686
-3.79788516799062
-4.39660311163484
-4.18596911116234
-3.13200886885232
-1.67167290122846
-0.786590235299969
-1.36496231140986
-3.37255160379236
-5.86491856293774
-7.8194442771556
-8.80017271484463
-8.9724682783014
-8.74598144638055
-8.34051700258708
-7.59239481498614
-6.34138862414502
-4.98893558501192
-4.33950429566753
-4.82762156950649
-6.13706034410808
-7.49681710039409
-8.08972286087051
-7.39268074510238
-5.55560804781702
-3.37450585488915
-1.54755645217016
-0.0158137448097028
1.72091190139183
3.78365169879114
5.68235149757601
6.80027810016614
6.91654711181468
6.35082153244415
5.70970425896496
5.40961106825353
5.42291097179304
5.50917940485039
5.53072585404144
5.43800960047428
5.13686576319524
4.51550158601224
3.50846666024919
2.12468565542224
0.562177205622927
-0.695768638742315
-1.04731750731047
-0.153776929997228
1.74871339522969
3.88276089645579
5.40984404284313
5.97364615633002
5.66574284278752
4.53786559608786
2.53469443323749
-0.0622602184312141
-2.59667870097244
-4.55327819762063
-5.71508721591321
-5.85775387365416
-4.87462009660703
-3.29555766443763
-2.14538026104356
-2.06362990198353
-2.81789906769212
-3.72473383907632
-4.29769288121507
-4.46290347133639
-4.36149243010751
-4.02600886059616
-3.25240785526648
-1.90164736897851
-0.30643494894716
0.888651678248356
1.3852688990624
1.52090577208239
1.83490117232506
2.52951947778863
3.4315185968197
4.36476484385291
5.43915490292854
6.90251693034729
8.7498822818623
10.6420744622754
12.1980421426489
13.1285485705976
13.1124577286316
11.9091826389307
9.64658619654167
6.67511751072195
3.1640417943124
-0.792606753821337
-4.73923892721124
-7.9452332999107
-9.94198212639187
-10.7490975293334
-10.7165397322099
-10.3641551928672
-10.178334211021
-10.3303521414283
-10.6685393028212
-11.0026492225949
-11.2462590107459
-11.3658385655158
-11.4267843180757
-11.6185141805198
-12.0050006178592
-12.3202668090602
-12.2095360567647
-11.588650427415
-10.6046003014264
-9.36921846013627
-7.88639949210311
-6.10616700736371
-3.92838204051117
-1.2780923790798
1.75544511737933
4.93149765949329
7.95240406055929
10.4556884736207
12.0565370409831
12.5620819736513
12.096998811532
10.9844463322923
9.59391650080868
8.29810326423043
7.4578995956253
7.36631641134084
8.10762922498392
9.4040601003837
10.784032014208
12.0950960204558
13.6208393314269
15.3965813424012
16.6779877553943
16.5303918490428
14.8319545927896
12.3589613364397
9.9960329949693
8.13943744278283
6.75868727898759
5.73176903760056
5.01029244140844
4.51565799811037
3.99743512032871
3.13796662898543
1.7808351758759
-0.0997716806829473
-2.58413994953395
-5.64747266072571
-8.79707815448889
-11.2466343142598
-12.6002976530019
-13.1242879859237
-13.3357517725799
-13.6215808256212
-14.2023250084782
-15.0767483352456
-15.9358581941895
-16.3440842694866
-16.0152288871607
-14.8759464829238
-13.0513469380844
-10.9070237936404
-8.96693578786268
-7.66660179323368
-7.13161015358466
-7.07221091685719
-6.88040687743113
-6.02913837525632
-4.47209949650499
-2.58262185264041
-0.776171718987786
0.705465050336941
1.83728680160691
2.80624562323743
3.74365232773382
4.36016541190457
4.17553252753109
3.22437122068249
2.17752391512369
1.65207301310954
1.70726494778051
2.03794339801432
2.32051434247275
2.36162797859929
2.26405133005529
2.48816869459872
3.41686218737409
4.77040648880311
5.71627591558931
5.67263771725825
4.86223206005265
4.05115130981716
3.88486576407206
4.49578846973476
5.59523219890744
6.77456833800836
7.68082933418267
8.0753625627784
7.94900963703939
7.57695142741851
7.33112351263812
7.47162521056496
8.13636731826455
9.2772610348108
10.438991299965
10.8509561827587
9.99019946257564
7.96542028449332
5.27776255805858
2.36602261182307
-0.571010329611341
-3.45339850788999
-6.0610602860558
-7.92015870192756
-8.63872985993265
-8.35628565588272
-7.5836932771902
-6.6325386030313
-5.55516990877699
-4.55372361116856
-3.95262389185616
-3.74333925476071
-3.5964704654339
-3.39301105580788
-3.39642923908172
-3.83146222697299
-4.55411336671247
-5.17679246998936
-5.33173749869489
-4.84772208081892
-3.8757791677779
-2.85833248149494
-2.27219400196885
-2.36385254026259
-3.04039695189798
-3.90462091470375
-4.49031535277767
-4.60244137926794
-4.37345889558419
-3.96136524236851
-3.32701198297159
-2.31834100391591
-0.850296796452041
0.963219572676044
2.77917977325764
4.24389017847323
5.2937012774858
6.08495177874397
6.66415975444235
6.96560941256419
7.08005436040345
7.21144245870781
7.38991163325111
7.47446377391608
7.37495290502186
7.08783134530574
6.60598948905078
5.89323780304154
4.84976659294728
3.32905083421816
1.33739692875863
-0.852969804741833
-2.90803894704754
-4.62009572874065
-5.82896066685852
-6.40350884230565
-6.43485031385625
-6.22492547276357
-5.96771442019967
-5.65287207951566
-5.32740088625926
-5.15846371530546
-5.17439409448206
-5.2438582116376
-5.35983452424997
-5.64902689295624
-6.06153245693165
-6.31635567524911
-6.21816684963617
-5.88443135011134
-5.62666166021573
-5.62145056574908
-5.65145335479819
-5.22322063648402
-4.05543508633763
-2.41846838114912
-0.92076969491708
0.00471943202862292
0.436893909321134
0.898107286530379
1.86531308587418
3.24198239949946
4.50222964776231
5.45089422550035
6.47612439208215
7.84760171360558
9.16854695621286
9.79340249310494
9.46074513708806
8.33321553792206
6.7778584928983
5.30313113595016
4.39602948109664
4.18758426693932
4.37764428370838
4.48466871453103
4.02371091963811
2.60610105213189
0.259181525261459
-2.2892180736975
-3.89670938673473
-3.70535676044692
-1.60895124716339
1.78642245256613
5.56383898771754
8.95874183607017
11.5125225209148
12.9292227670219
13.1297755693287
12.5100532076744
11.7029514408227
10.8263143368536
9.27016950228184
6.49128237064498
2.86454364944067
-0.431274724872575
-2.37463316533059
-2.9845271497489
-3.28026277310462
-4.28376122803423
-6.07523828411256
-7.93461301265057
-9.25805102892057
-10.0593056167633
-10.6700443685854
-11.2817657939975
-11.8295676444381
-12.155407080726
-12.2324447757713
-12.2276293739246
-12.3160649102791
-12.510422832892
-12.716367412204
-12.7599425797096
-12.2308235831463
-10.5663459941103
-7.59391839237497
-3.87528676249067
-0.293218889233171
2.56265616738331
4.4403915325495
5.16335948748238
4.68454167174567
3.28598506970275
1.47656649093164
-0.247923347483038
-1.46480647739147
-1.8399906794075
-1.29642093164479
-0.174779335061094
0.896478135652219
1.42798781884984
1.3830438691506
0.971919897528208
0.246760597727257
-0.770617472352638
-1.59566650312441
-1.42605456415542
0.00749743928449998
2.07107938921349
3.85418295980835
4.89864720770082
5.2973811212694
5.41358710422939
5.56397056923615
5.7757185171128
5.86472923084492
5.77176164870736
5.567331768872
5.08814159995227
3.97636220330979
2.24783653954943
0.472078198037769
-0.797025944036195
-1.48962099670489
-1.77233695920815
-1.60373287157972
-0.74725594350476
0.866166657497901
2.87394997058396
4.5798118296633
5.44030577772255
5.55696144199751
5.56860252353088
5.98957897554255
6.77465003847753
7.51966516263788
7.91409425276944
7.99893661771016
8.09461585439269
8.44739231015537
8.93528280941627
9.21267396993942
9.04091025478145
8.26308773431407
6.61027383804139
3.92512224940465
0.609118410165101
-2.42888540168938
-4.38284410655741
-5.11459074787391
-5.239586904038
-5.68803179701898
-7.01756045111991
-9.06383726939833
-11.2288599338371
-12.9378742149432
-13.7683478657883
-13.4370768225385
-11.9159592902552
-9.49562654652042
-6.67183818878324
-4.02519087104739
-2.09074204663932
-1.09845613746641
-0.846918139212944
-1.01954779256392
-1.59345499967524
-2.74732185226351
-4.41183890539209
-6.12896683311585
-7.38061121274403
-7.94707699174394
-7.95673263650425
-7.64700347871867
-7.08982871044671
-6.20062164014277
-5.00397331081236
-3.7338317571304
-2.65616732441166
-1.96869648758576
-1.82127168893983
-2.1637214837375
-2.59592014683604
-2.63325427634425
-2.14726687475214
-1.44320007623784
-1.00069894476864
-1.15213633365509
-1.75091839709097
-2.10204929920631
-1.50993890265023
0.068617938493393
2.14595681141521
4.3176685657063
6.39444884068742
8.11974053742347
9.23630531626215
9.80516887406192
10.1773561443013
10.7371790142034
11.8096124751973
13.5446361287149
15.6156771458656
17.1917046068188
17.4750609621957
16.3076148625585
14.2611960488783
12.2096511405669
10.7144731143254
9.65412977456426
8.52150451975815
7.17316126056204
6.06834002462552
5.62771756643308
5.64068876434046
5.51857870487928
4.87216177002078
3.5868365931934
1.53889298650156
-1.38859610422137
-4.93038066602749
-8.32407133557743
-10.8309602672368
-12.3413964591155
-13.2368511651331
-13.700792610976
-13.519480199222
-12.6138169512721
-11.3865971527215
-10.4018193067557
-9.98091556480386
-10.1345171582384
-10.5985751524264
-10.951446441137
-10.9569928827125
-10.7338220312249
-10.4206060685516
-9.88256382738557
-8.94927470229505
-7.71008360891106
-6.37280629397188
-5.02700536365191
-3.68430778071038
-2.354222841451
-0.980881528019449
0.499641095777807
1.96805843662321
3.17647746446977
4.03705287911671
4.66650644928451
5.08986960710137
5.03917579945024
4.1341765111366
2.3125861318345
0.123882963972744
-1.53704165233067
-2.15370552892931
-1.94619342941812
-1.40373813953506
-0.681982598437012
0.361928889004063
1.75757131460215
3.2768785118858
4.63386767567241
5.73641932357626
6.74887973847484
7.85196669798164
8.93956776401817
9.70017284119621
9.97314863777198
9.81041165054616
9.27449355331919
8.48417123005203
7.76060004124683
7.39240464428204
7.35583099249465
7.52778495804704
7.9573469326697
8.62596132194205
9.16638157304085
9.13987951446517
8.45600113451068
7.30840540140909
5.83777244683864
4.01712666966239
1.74023389097197
-1.08806936882422
-4.42770040847447
-7.98757505924181
-11.2972218967272
-13.8768504580322
-15.3110401159687
-15.3517040389574
-14.1431229163315
-12.2588122538241
-10.3671646964127
-8.83684679182126
-7.60705075267438
-6.35372378172924
-4.84685823945485
-3.24247993719768
-2.00144825395755
-1.51275150534551
-1.81812539872738
-2.60895490400355
-3.42002588240995
-3.94409085642674
-4.20689437503786
-4.30393473905172
-4.04398831565126
-3.15607125290065
-1.81883922086775
-0.645465319578478
-0.137533826541793
-0.404143433240462
-1.29583294212777
-2.49503561042203
-3.56139214037467
-4.15847729513418
-4.2207692086845
-3.84849752638527
-3.18349277045525
-2.36349892469401
-1.36201505445149
0.0809595031095058
2.09330395879025
4.31184477942202
6.21411207509523
7.74264846636942
9.25505073863682
10.8951866108514
12.3427424148751
13.1835723661346
13.2711825026089
12.7017365154226
11.5979603929726
9.97475390161716
7.79086859076528
5.0999657894379
2.12071602696444
-0.755847740442168
-2.91585629940649
-3.66134643208543
-2.73413932919823
-0.693422840548041
1.47272291199421
3.09249095538022
4.04200183974541
4.46001977190534
4.53808309709329
4.49747453444921
4.51978787824008
4.66293082898198
4.85282198586863
4.90788108424262
4.66132293543408
4.13960920513489
3.4758314303229
2.62420679742499
1.42962741295513
-0.00697649128966191
-1.42594334339787
-2.94408719903525
-5.01763191443603
-7.63947505975017
-9.96271926455124
-11.0368615887536
-10.7188283136944
-9.69274083518289
-8.81887571005309
-8.59865906780708
-9.04634823505157
-9.85617506613666
-10.6506773979132
-11.0810929309807
-10.8348247380072
-9.79029220456923
-8.18454405684978
-6.48168007689602
-5.10102591704135
-4.32420315348632
-4.27387138250432
-4.8229065749119
-5.62538431184982
-6.29653409568681
-6.50164889704096
-6.01037345525078
-4.88253808445852
-3.48919277639945
-2.14168413450451
-0.802745118640347
0.724299711968912
2.51569460707495
4.54417003618227
6.77188936405051
9.1190092175342
11.4284542245622
13.4236175851334
14.6468471476557
14.653794184274
13.459360283641
11.6473847216302
9.87912948616924
8.3940996348112
7.05320060036979
5.67918759954504
4.24220097177949
2.88045077690056
1.85675667269221
1.37828878358646
1.40341776263258
1.70707950652531
2.06342332292837
2.21131821103687
1.76537885919452
0.449413937971205
-1.51841927104091
-3.42133561325416
-4.53601587963752
-4.63886629211772
-4.0081419080805
-3.00211056727302
-1.80473162952862
-0.573217869863678
0.472566502908284
1.27026281763323
1.9805239646925
2.67295732264066
3.17591601722843
3.35893616160816
3.3353639399309
3.33363724316909
3.59490800252306
4.30832834615877
5.30920224207953
5.95790472660477
5.71490626527324
4.75417157728618
3.66888600172891
2.69194735604679
1.53119062782542
-0.135280935277036
-2.28216015461797
-4.56356710489638
-6.49855725775938
-7.71164471030063
-8.14956047981323
-8.01757240410012
-7.50109296708354
-6.71702769912352
-5.91786692096484
-5.47794989947149
-5.58282152848216
-6.04379225244471
-6.42811280635975
-6.34717046922479
-5.72947718889232
-4.86759809714151
-4.13266490097244
-3.67637572424435
-3.45984626645758
-3.42029163165761
-3.48690425680854
-3.56832289878665
-3.64744684536004
-3.82981943830986
-4.27705472090817
-5.10622168627855
-6.22263829950643
-7.19621388054249
-7.51872771878113
-7.07857252909955
-6.1622143620205
-4.96245994125142
-3.40908017546147
-1.5539387275744
0.204456824962577
1.41505765654455
1.9266712087731
1.9522698669255
1.9663187251855
2.51800697164449
3.95629783950643
6.2512431382297
9.0501803897152
11.8259371098464
14.0300615492835
15.3569087813017
15.9723390268086
16.3382058960906
16.7427152867168
17.0970819816711
17.1474106796608
16.7170687861403
15.7474250582084
14.2244427273145
12.1038593605168
9.34399934335261
6.0692823224848
2.63403291271774
-0.562092783772861
-3.27022006587377
-5.40518932541164
-7.00981680171109
-8.23362943449238
-9.23087151380075
-10.0781244689491
-10.8107376088255
-11.3852764496882
-11.5641302632006
-11.0621074593809
-9.85459637588594
-8.12408525348413
-5.97409273825939
-3.51638289950729
-1.1422070880536
0.67758969506103
1.8198071506251
2.46058435014646
2.73696936820435
2.72561127743856
2.57252838761488
2.31586007231504
1.67125016211258
0.277919196253627
-1.83274911493756
-4.1568125464286
-6.10820593839766
-7.46690794733973
-8.50269636161022
-9.62932361946122
-10.8535808982607
-11.6608847898965
-11.5588314377201
-10.6099321743595
-9.3327337815458
-8.23323695222242
-7.48779162657067
-6.87885559784964
-5.95647613873201
-4.39348271464372
-2.21373093153673
0.36241274408834
3.17448495302043
6.1427658688356
9.18122705769315
12.2037027885996
15.1414773462083
17.8770207289497
20.1093839357248
21.2141748644575
20.3720187230318
17.1727295768912
12.1704063135141
6.62302204165785
1.66410197542855
-2.14220775568963
-4.65725087379342
-5.97421505047185
-6.35873437653514
-6.14326426943603
-5.63933812069062
-5.13741524842717
-4.79482429789507
-4.46884273500244
-3.90643907390951
-3.21725557712503
-2.9275498943035
-3.39996487190733
-4.36129331078002
-5.15049186988034
-5.33929366913515
-5.03981510520244
-4.69053459596154
-4.59066256781824
-4.61113432059827
-4.333880372635
-3.42536130348006
-1.86292599458323
0.0816805507969237
2.00867217930872
3.64817155053411
4.99813238680171
6.13919539888126
7.03563192319898
7.70716267902456
8.40788655771876
9.31856995434825
10.2043228684946
10.6909249095225
10.7329931814403
10.5059834675714
9.97511838511244
8.84870148673418
6.89360776016831
4.18372194239617
1.14467902156505
-1.63640996264822
-3.80398377739135
-5.42474309113372
-6.68454644124927
-7.5389423727606
-7.85004108417171
-7.72751782927256
-7.48684602073652
-7.31502921090861
-7.15879138304925
-6.91296142430966
-6.58913117586623
-6.32055466933768
-6.26143284022936
-6.44118239484104
-6.70490747773279
-6.82614955156899
-6.63366013588634
-6.03336593468653
-5.04939704455187
-3.89467790273477
-2.89789955997286
-2.32206457122521
-2.24322584371775
-2.47515741947
-2.5676435141483
-2.05168742406527
-0.781376396952179
1.03202626263842
3.04838885744618
4.91081012872144
6.26338830500472
6.89916815294799
6.86473881508034
6.34072078815837
5.54815787309673
4.76895391373746
4.18443770967378
3.64528135476922
2.86459059197688
1.87066257905688
1.04740324307964
0.754216045028435
1.09999177061271
1.99529772628002
3.19369359802009
4.33536551461659
5.13727631051152
5.51728163707954
5.46233617061295
4.90495705883003
3.8230401019488
2.33019606554954
0.614339033531005
-1.06917113695875
-2.37123033456143
-3.06540535746894
-3.34443039401213
-3.70680371771957
-4.44517341233229
-5.30104449407036
-5.67702740880123
-5.19298960649656
-3.9835283780328
-2.42049296202689
-0.705752025427166
1.06745256061798
2.60298784279645
3.47332899910736
3.48099316706884
2.74812676747332
1.55887418518072
0.307468589357717
-0.569085862532857
-0.827173088603602
-0.484438492518064
0.380078600249402
1.64969167733828
2.99051274207565
3.96816133430393
4.39715308759221
4.35565210767004
3.90592172869116
3.02680954874466
1.76286288989281
0.269612349124017
-1.21960087479254
-2.40631571916513
-3.08284578693935
-3.35635766629075
-3.51373615328859
-3.58763911020271
-3.2918454700581
-2.48011811637834
-1.43671730857214
-0.585523967700187
-0.0512202977170932
0.396223706479213
0.98392256445227
1.54146471604631
1.56613813615871
0.812838361584579
-0.296049489931224
-1.07175462797092
-1.33672119183981
-1.64653825135884
-2.73547643000255
-4.75727846651903
-7.03271005430435
-8.63764132084582
-9.31658820518505
-9.62652108117829
-10.1105951248543
-10.6982478029549
-11.0737844246393
-11.1233350758624
-10.6706889963041
-9.22472296475503
-6.4519718866813
-2.70282272984704
1.1910075309774
4.49440515027946
6.86816824312657
8.33160032982122
9.08206809506528
9.31142493001083
9.20257642030127
9.07147749453313
9.28623467279368
9.89668386392715
10.491755850862
10.5802180812979
10.0494677246562
9.2087945230718
8.47551988925812
7.99345309330883
7.45820629890405
6.42407398646312
4.90612925135843
3.53285831026408
2.98529605512125
3.42411226647317
4.501946970629
5.71897628473558
6.67836659406157
7.14390377187591
6.96350424617911
5.99736517942349
4.22074838044446
1.87611517654777
-0.62850967336189
-2.97837403108273
-5.00432456431263
-6.56407835596859
-7.55950590089807
-8.0734828952832
-8.40580533135613
-8.94739571396888
-9.89340945601694
-10.9390519466656
-11.4148302212587
-10.9493231783159
-9.8670688497808
-8.74484650121623
-7.79144861544371
-6.9100682478693
-6.14007544143289
-5.68700967978558
-5.59008295196016
-5.61964167380002
-5.48789422876068
-5.02939199450848
-4.24090158843023
-3.23462844305601
-2.08294911395487
-0.698303697919236
1.02294195028511
2.95022615533768
4.71033364000534
5.91247225975137
6.37451474096574
6.20895130866168
5.65816008440876
4.7792753165233
3.44319657781124
1.76955359800118
0.331714491977025
-0.309029615718621
-0.144885490330343
0.356006672585562
0.736099121402251
0.859589787171426
0.872009297619969
0.936378742074648
0.991883652119872
0.844159081740497
0.49638932791274
0.196387941147655
0.132867566719258
0.324849510448231
0.809907514898959
1.65721852365267
2.78131320424538
3.98142305009874
5.13390660692526
6.14585530648386
6.81777059925848
6.99228984229448
6.79571850964907
6.55995865514425
6.53676864693868
6.75308752278803
7.01901785450428
6.99937934200259
6.40792188768879
5.18981764885069
3.44377054833371
1.2625814009543
-1.18000774876433
-3.49125508431589
-5.23478757846758
-6.25830048686353
-6.75664960818049
-6.99622062311079
-6.99371085748362
-6.5406542942184
-5.65925160186826
-4.92508077885309
-5.04195174904234
-6.08321001989102
-7.43102944573834
-8.47673083704129
-9.1045403852406
-9.49394390471302
-9.74206030676896
-9.73148323894149
-9.19865015941572
-7.93121786355345
-5.96432576973131
-3.52271721583833
-0.815851501277577
1.95024632192302
4.45001078800012
6.37180312041979
7.66384716365978
8.52039313705985
9.1983469983133
9.91516611187888
10.7702201999952
11.6748996548186
12.4808498512793
13.1522791196308
13.5871939980248
13.330455037897
11.8276173821981
9.03469857146978
5.53473319080029
2.05497609162437
-0.953663074984823
-3.39879822432624
-5.45822839586549
-7.3309716954342
-8.9468031417751
-10.0473218865285
-10.6066163582932
-10.9685723705911
-11.4597524443154
-11.9871114909484
-12.1115723823085
-11.4995035580596
-10.2474044809926
-8.6791745331032
-6.85319283599632
-4.5142541194859
-1.62904896882156
1.32722388086753
3.78761395610156
5.50424233641825
6.40185783332556
6.39143610580606
5.55809023150472
4.2705692313083
2.93433081974762
1.81017388019619
1.09661309968247
0.937571825083157
1.26396572455726
1.77196141979046
2.09605288677571
1.95907631532193
1.27352946281878
0.240837685352885
-0.734702564949042
-1.35633823237063
-1.60541970862724
-1.58187500186473
-1.30200037946224
-0.675632099136077
0.415366052102924
1.99250281268176
3.86780303004195
5.71033723992955
7.24386901060092
8.33066461505008
8.95456916381751
9.21787084982397
9.20107697399907
8.72161728003394
7.45568907850421
5.43763865309775
3.21197014958656
1.36234353695533
0.0882916504689518
-0.704337362860005
-1.14932495408135
-1.36190330423616
-1.50082023326215
-1.8272124763483
-2.6577475107714
-4.10724437241759
-5.88814859876356
-7.55830393644218
-8.93543429990012
-10.0780564143822
-10.9785986701756
-11.5445840013674
-11.7855915625234
-11.7481333281629
-11.338665646258
-10.4441585031438
-9.14690671507265
-7.61312369012327
-5.86187698375389
-3.83478898159799
-1.61125738034626
0.607898923169453
2.70266815406169
4.75353769749526
6.94130871980788
9.24674389089815
11.2358838817577
12.2936034532416
12.1155804299641
10.861078067293
8.89098930538345
6.56658563446717
4.28013382327215
2.47259096679389
1.51212638068483
1.47857825101005
1.97117469482282
2.2549430331683
1.8495569226125
0.932367175085591
-0.0223405468148688
-0.835643534781428
-1.5982336681932
-2.26108282019598
-2.60784100978146
-2.55544726761219
-2.23322986739303
-1.81053190525948
-1.37523216011174
-0.928880808408609
-0.450364369022416
0.014657355615972
0.392842170451981
0.754411340007237
1.29472463142423
2.02966230774599
2.65370166929378
2.83867065555168
2.55624900171077
2.01614455514999
1.44057022954014
0.960136284475406
0.535504621070657
-0.078468721364467
-1.10750752899052
-2.45383439709132
-3.74052625845493
-4.64371193983126
-5.0993248502698
-5.24337010240847
-5.22329435833647
-5.05214609353907
-4.6563533817923
-4.05210311938815
-3.35744957074721
-2.61586645295262
-1.75288458319069
-0.721789628467958
0.415731514284683
1.47973344064306
2.14978129225527
2.15811500497071
1.65159955764042
1.10683613632822
0.741684121423896
0.30696767783783
-0.420953039450699
