-2.73188143727712
-2.0927242615126
-2.87451992352679
-3.76801444858911
-3.10475319042605
-1.32835328334321
0.189376121154436
0.809403579507625
0.837189591208297
0.83530436523452
1.02142873469651
1.21685866905284
1.23421657301602
1.1328479293836
1.04406918446007
0.971168021961642
0.898549395191871
0.898582007661849
0.931839846618325
0.629196032084123
-0.515309917136022
-2.621894336097
-5.14232755246466
-7.23511998514893
-8.44553407018827
-8.89638002839042
-8.8817749136164
-8.58198512596953
-8.17920011737955
-7.85360096814992
-7.55455050936148
-7.06135697956663
-6.2462368990958
-5.01162620941192
-3.19455961161449
-0.918918447075485
1.24304412145506
2.883148261758
4.1904037058421
5.33949168006423
5.89511496125475
5.42437058031011
4.36471210088954
3.65684775285663
3.70599821291417
4.19157750133532
4.70089695270472
5.12088058493551
5.54351660270511
6.07762110065694
6.66582689585405
6.99642180083207
6.73959221556088
5.8854996557304
4.72995631274649
3.60141755837748
2.72410839289077
2.21664513461707
2.00397563517985
1.70650659158339
0.785999583484131
-0.988524942824349
-3.17060332094426
-4.91363626023634
-5.73382901972436
-5.84284303689257
-5.68872588294596
-5.48822887482362
-5.32084177915072
-5.27881928232966
-5.29260800387106
-5.09359212887289
-4.48922937172906
-3.46084414848906
-2.04018522008307
-0.361709786934394
1.29409831304069
2.77509999032836
4.15465709530941
5.30848864930544
5.74840850640473
5.23840034067976
4.26600709559628
3.53929825359997
3.27869647157779
3.27111377779718
3.28424209866545
3.15414739372164
2.78494096316152
2.29754520794309
1.92671396566082
1.6575779021779
1.20767011625055
0.417434601074487
-0.54787702649883
-1.4021340444706
-2.006450541116
-2.44265307158457
-2.91454159872711
-3.60927978179661
-4.62967086886587
-5.95338140322835
-7.35624909145715
-8.47257670426392
-9.06727006739518
-9.15306491651631
-8.78250901057269
-7.97466688586265
-6.93307996680647
-5.97757210860621
-5.1200934384829
-4.06181635439137
-2.68811200161423
-1.19171880678625
0.285819730392874
1.72220571289067
2.98216149164824
3.92005943425157
4.61780583899618
5.17545103169341
5.45378258189491
5.37759207363026
5.26005815264882
5.45314880386813
5.88935123775875
6.27425202788038
6.47932975898598
6.49157036742137
6.26846755837324
5.87446391311691
5.51021522884231
5.26238471824959
5.0339866900836
4.76210318963942
4.49741949053504
4.25605933032948
3.95673427445411
3.52233695303594
2.94909557325914
2.23953546844367
1.30540368349646
0.0418938914742871
-1.44033921559361
-2.79766408596514
-3.79542044228412
-4.49765439337968
-4.98639733964167
-5.16603224472721
-5.03295285824825
-4.81824727604364
-4.65058472844936
-4.38715392750293
-3.9225383618659
-3.33872200185324
-2.68509095895554
-1.95027982998136
-1.24901284408061
-0.710387454645521
-0.254257026468992
0.211296571259745
0.507873093861504
0.411471725733668
-0.00820853481879616
-0.55137303349216
-1.16672669240703
-1.79963811766727
-2.2359468989894
-2.37082070412794
-2.37594052070975
-2.38957524801828
-2.29918634306236
-1.98557450664588
-1.54908458892109
-1.18071218114295
-0.967555117870063
-0.879175785948534
-0.853103574720549
-0.857717957023271
-0.860912156240012
-0.741735041850953
-0.332115980958194
0.409325313515605
1.3585148053106
2.34167058967386
3.15472884930923
3.5538664649095
3.42251652019646
2.8637513048344
2.00750160002949
0.927643335105104
-0.166600063021621
-0.98276628260888
-1.48081611936897
-1.80332446099051
-1.84278574083013
-1.28951039602763
-0.143208210429084
1.19085339758437
2.31584728200342
3.06203915577786
3.38264835573557
3.32786946866861
3.03690317468151
2.54414195471462
1.75263236764373
0.760119898293233
-0.0522495340723142
-0.43373074033025
-0.488001443483983
-0.358996183394688
-0.0127441124131893
0.551063895603335
1.16268863036354
1.66477984993075
2.03872736249002
2.30688916117845
2.43213782566096
2.33086380524801
1.94916364260828
1.32979257328291
0.574780428664105
-0.246697020270254
-1.06603255774517
-1.75113443548494
-2.23498303830716
-2.61917488620427
-2.96766078666041
-3.15872695895368
-3.14657250484698
-3.1283729424927
-3.21512638377364
-3.2073533551193
-2.91224327448563
-2.40619359838796
-1.84190653560867
-1.2867105024764
-0.820536961280751
-0.504406001838282
-0.239706415705962
0.094173220540888
0.437029363023844
0.705975385843105
0.984692587857138
1.30365240092209
1.45454887410093
1.30719091538169
1.08688313644361
1.07160134694181
1.231230524537
1.37214582653479
1.41768740608749
1.39194136015495
1.31656117283803
1.22831548720507
1.18676623813992
1.22807743003992
1.33117628919489
1.38536479517937
1.23552647328444
0.857287486168864
0.40918754416304
0.0188829772193061
-0.35550143591651
-0.777980238674402
-1.21191252356248
-1.58811020212117
-1.83436020268044
-1.86682317880568
-1.71482187005147
-1.5491323980917
-1.44141599238694
-1.27311620324403
-0.986791500065103
-0.683300819973257
-0.410757591979792
-0.137135958914273
0.0599633815280871
0.0625383419204414
-0.0684011153621242
-0.195438050471905
-0.314425523093896
-0.427518840091515
-0.393431617741053
-0.148992463661425
0.147327538696317
0.427444401070724
0.892805708621489
1.64359409886925
2.40348321994855
2.81231842787672
2.74813296047706
2.2588784215465
1.43427128733021
0.418336803130398
-0.639618290791034
-1.67255624824289
-2.65255304899494
-3.52410825329378
-4.22266997847317
-4.6832020880693
-4.84217628528676
-4.68621378996266
-4.23253290593051
-3.46217528379263
-2.41047742816491
-1.26880016893587
-0.197895785061212
0.861128966848176
1.98270104357113
3.04875343452767
3.96899134362024
4.85970364978426
5.7782430690755
6.5467862850258
7.00855481151846
7.17985169547972
7.06202829141368
6.60712780212534
5.908999206814
5.13724411923692
4.29007113551127
3.27937556365663
2.19853760750297
1.24295265412776
0.445370288619634
-0.291459409812051
-1.02035098145747
-1.77375590807274
-2.59391876898481
-3.42030989617017
-4.12095748893678
-4.66963199040674
-5.11136753315031
-5.40245981018541
-5.48369562800595
-5.44452494472791
-5.45022203812483
-5.55845386356021
-5.684520862784
-5.70286884140928
-5.58573494699153
-5.44133106972354
-5.30144428777006
-4.91067300068175
-3.96923211832548
-2.57715034776714
-1.17640298618871
-0.0878457439740755
0.650117648661331
1.09960862656004
1.33902388867663
1.43534729042226
1.34007156308232
0.999621997476559
0.621654772065006
0.546783014556715
0.835172235131586
1.27575164284658
1.76663150954882
2.38670450817551
3.1718467726391
4.10162345151879
5.17177620836553
6.20460949719406
6.77265357856889
6.59762774241223
5.85309209125385
4.87546202172479
3.8253722546212
2.79858593759366
1.97447354034435
1.46951308026953
1.23370591460736
1.15614794131221
1.13032565097754
1.06170637826504
0.945517219293882
0.866286007379694
0.855809069438957
0.852529502766774
0.797656053043481
0.641332981860212
0.282462660088949
-0.385201472835487
-1.3828459550348
-2.58877368788925
-3.68768062091153
-4.30188106101581
-4.35570585285804
-4.16158742585391
-3.9806991652419
-3.74305351611877
-3.3648658920296
-3.00333654682375
-2.78310174584102
-2.57498843510245
-2.22136618685518
-1.72921203884576
-1.16028803566217
-0.579182504565646
-0.136207712850406
0.0373186174938091
0.0177648096634363
-0.00979452889051136
0.0369489775230212
0.181849094640796
0.476699538722171
0.864308428629594
1.14609278036328
1.23126845074867
1.22033553087312
1.17887784554633
1.06626610165552
0.912772078373363
0.833936138812037
0.855930511016546
0.891290441987202
0.874065758965236
0.831673716801463
0.847710062236411
0.951507398953567
1.01551404102185
0.847580573369959
0.409244621654775
-0.200688643742616
-0.958342907152751
-1.88682039835756
-2.84738698033524
-3.59998150415673
-4.01700987357079
-4.04774019707866
-3.62725965442179
-2.80697019975891
-1.78185639959829
-0.666116630447052
0.530446275717959
1.68154312099552
2.60603806496716
3.34530822897923
4.05977836471234
4.67984170399744
4.97152944519189
4.89421946737867
4.60145022915293
4.17574863157157
3.63447451372736
3.07471384222207
2.56329145346893
2.01203325272394
1.33415675744543
0.579410954478257
-0.160335181118727
-0.812703425920439
-1.2981800396672
-1.61324411119783
-1.89971482554711
-2.32020705153465
-2.93721484753735
-3.72565118848944
-4.5577646881153
-5.19786744938571
-5.46924799620925
-5.39279709769331
-5.08708491048518
-4.65397776500253
-4.1853557947788
-3.68036982432273
-2.96149007167027
-1.89567379432079
-0.634492173850201
0.573473686670409
1.64537760485838
2.536333085867
3.10193916003753
3.31722399687888
3.39913269546001
3.53646596617077
3.68879101820097
3.71194265220476
3.48602576026671
2.94460765946476
2.19655217663798
1.5674130961651
1.32025846709885
1.41054366548486
1.64430450245982
1.89125998420877
2.01452167315545
1.86690139777837
1.52813953672497
1.28861343780259
1.26827077021879
1.27964752507703
1.11973941357646
0.783756346840312
0.382247175482116
0.015000776783004
-0.275601751919983
-0.497774592963627
-0.643491061252319
-0.683618579863134
-0.691838132301903
-0.84301665079494
-1.1992451120622
-1.6505607154464
-2.10816316156424
-2.55308484940442
-2.90584979834114
-3.09398969045702
-3.19775406792858
-3.30292271931266
-3.34561989154364
-3.30728859314124
-3.34026693352496
-3.50503204010597
-3.63028189004779
-3.56677240111996
-3.30739721935849
-2.78306771367099
-1.84053749535667
-0.495325180864633
1.02576631910055
2.47978162820401
3.63394887172961
4.22589281421862
4.19522077072642
3.85863433066787
3.59566418068985
3.46224155045986
3.29302392546378
3.02329839284937
2.74306611133736
2.54967212309754
2.43900590649396
2.29729750798763
2.03030783700646
1.70714800774703
1.45294453859642
1.22477906932464
0.877342609002292
0.402741019137388
-0.0939830947377959
-0.588550873360052
-1.12934819755444
-1.71998847691146
-2.31610617805842
-2.81866596172328
-3.05445480995855
-2.94603919381613
-2.66204493082576
-2.40293064143052
-2.14783260568959
-1.80059254828753
-1.40299700814777
-1.02449697883398
-0.650491037308576
-0.315391938553947
-0.129914535110065
-0.0940883121927781
-0.0844794438940117
-0.0444822228766276
0.00224868012482881
0.0830697185621127
0.229220555007458
0.381634954356569
0.514611432339369
0.708846139067236
0.941584286776721
0.999819562225688
0.747521370633216
0.272546752327061
-0.309458335534339
-0.95804299236224
-1.57136979813053
-1.96592621276599
-2.02387042519872
-1.75835549437419
-1.29710902287688
-0.83822766663336
-0.490096539833231
-0.153157866430521
0.319155181664648
0.931577203532529
1.64239149798966
2.4686368314391
3.33703416788092
4.01318172665481
4.31287068513098
4.23705473938412
3.88661938886856
3.42029821111196
3.01714857983054
2.68395714306217
2.22125106820865
1.51722534371389
0.678580571468387
-0.204194085819491
-1.12906053713219
-1.94499197890665
-2.366573489116
-2.32816957292503
-2.05664282375965
-1.7391305559369
-1.37217608501006
-0.957001603083726
-0.598911903842757
-0.39913674582247
-0.406166448900698
-0.609616853855894
-0.884968449325007
-1.07991351473248
-1.1986069875902
-1.33103154739962
-1.43134289105388
-1.3709199499652
-1.15467053531456
-0.906659142722285
-0.708727787073525
-0.559801322434962
-0.418575513575795
-0.261976434840095
-0.157790049727257
-0.185750524695684
-0.235567779015562
-0.0982023608819198
0.16174011686668
0.196085593853413
-0.184396107955842
-0.831910909962133
-1.53088316511646
-2.13064725760695
-2.45058302802428
-2.38708707041815
-2.0883200587786
-1.78310551432041
-1.51181004057369
-1.18218908477818
-0.758521609316949
-0.270595676037228
0.246163370407148
0.748450137445488
1.20182156978191
1.57068575786844
1.71064040867095
1.4125746279045
0.718938315584365
0.0416966405993239
-0.22090089047009
-0.0422123259526006
0.368824109742251
0.846657918136836
1.31367347579308
1.7568936960979
2.21867351658777
2.66615448265515
2.93067951805727
2.9103184082622
2.70643785238572
2.46551338767621
2.26219424810762
2.18530302471063
2.31510017427951
2.56294287894359
2.70461849560288
2.58020678442916
2.17667095634155
1.61176342663781
1.09495393971567
0.763534132048311
0.549704844999461
0.340059134120816
0.151123787510857
-0.0132489881152744
-0.272357258698209
-0.651356611217811
-0.988111041562005
-1.21661780519919
-1.50634768886719
-2.01897115719757
-2.76481106165885
-3.72871483746651
-4.85601410597679
-5.87941505253019
-6.42727463455175
-6.35306734124147
-5.79154632032781
-4.94847945592196
-3.98858976512936
-2.99619220131336
-1.90022591789697
-0.597246420065293
0.772411927341263
1.8667157484351
2.47773711732448
2.63068281584734
2.4167629003924
1.95823934782936
1.48007222146505
1.22425195973661
1.29508329957665
1.61132721606287
1.94713729305725
2.09124580108662
2.07440560798486
2.13594144457597
2.4069367406557
2.81192893954647
3.28084814632142
3.75334089172564
3.97644328978388
3.65623148707779
2.82981224353913
1.80513751951745
0.799926668977117
-0.124720428607559
-0.930080280520033
-1.62932649987055
-2.30429718381702
-2.95241989096785
-3.468789435427
-3.81348556252983
-4.00003520221149
-3.9564099581449
-3.65143080590454
-3.28810653208692
-3.07376791735269
-2.87431380629623
-2.39477022277103
-1.6173533406471
-0.798006608726295
-0.131926028718784
0.364042810161262
0.732965957775255
0.986728604656223
1.08931113146621
1.01673352984242
0.8571092141249
0.751144917458456
0.709958260038421
0.648430579074735
0.595354090440661
0.673159203511199
0.88265013281571
1.08360829984003
1.14117957502286
0.979273623504271
0.622428152358859
0.266944559483
0.128215127148895
0.187581486398918
0.294536219426256
0.458622883081994
0.793441091048532
1.27956741027391
1.82077785981926
2.39251217495237
2.94852901534465
3.36382565006461
3.60631523761782
3.76206614080893
3.80952011025613
3.59523812213668
3.09094620303679
2.46013287101628
1.84973310798626
1.30643024564086
0.852954710261786
0.455054474818123
-0.0052691237272032
-0.571396226308186
-1.149656143335
-1.68572160220488
-2.22270418955268
-2.75309928141509
-3.21861433707629
-3.65102604613375
-4.12558472004601
-4.60848826314776
-4.98215882091516
-5.16488896287651
-5.15406216629663
-5.03034539648705
-4.88856697217683
-4.67157485282097
-4.17852901000627
-3.33446110254143
-2.29442872195391
-1.21475107510864
-0.131567136154476
0.897576307650314
1.75649315091537
2.36158215643156
2.60548898653391
2.3491682990176
1.68317038545044
1.00374229765895
0.617733431553545
0.47213892010948
0.423551233690321
0.518451216114375
0.845824215191517
1.34175147220452
1.87234914812265
2.32296741253686
2.55726227101548
2.49325545432889
2.22559717073428
1.89539148872694
1.51913482417789
1.1105333460004
0.810308140875793
0.72161586931012
0.776569342808811
0.881275295553703
1.04153870859141
1.29183298424423
1.60796396330443
1.87642965198593
1.92459706728179
1.69767723827096
1.3872629326264
1.20479998430146
1.08342320386893
0.807143803971306
0.337475314618537
-0.192542513965666
-0.679870319182263
-1.06797249989555
-1.30193038089931
-1.38561720663823
-1.36215618870919
-1.24551863482752
-1.11227768723677
-1.1378860539536
-1.35999356155887
-1.567155017699
-1.58586563613061
-1.50202116033584
-1.48886220454905
-1.60063649363464
-1.78364380169605
-1.89745717878247
-1.73234565857649
-1.21253404859177
-0.543791761012583
0.0283460837671471
0.499826895607532
0.950626822256646
1.26703816595637
1.24149223960293
0.81476118166092
0.0861795918373039
-0.74980917596124
-1.41843709901065
-1.70744782093203
-1.61652523442
-1.24477585980735
-0.638535098672596
0.12184947311153
0.84669551241943
1.3743736016862
1.66646010712401
1.76213866293192
1.77584302242214
1.85113012566917
1.96444111350587
1.91872089345874
1.64202224468364
1.27267894181239
0.883989421782801
0.413314103487672
-0.0990388929594479
-0.503325345119108
-0.773803021314665
-0.997027564154786
-1.20361926967853
-1.41051372459566
-1.67043100567665
-1.90767103145263
-1.91051945424593
-1.63606061578848
-1.30870934786965
-1.11119531292705
-1.00645982621353
-0.928151353139892
-0.894169814135303
-0.87860444361696
-0.787571752862688
-0.567080636124614
-0.188212188907855
0.372843054140667
1.00973680516981
1.48693540549491
1.65739791176726
1.54855770017418
1.24592567135373
0.853350429919959
0.518601686130615
0.361360841738254
0.4300351803783
0.755812003110956
1.31327818540927
1.93331390879165
2.40306776451597
2.61386931937138
2.52013333485612
2.10149588244748
1.4636200490464
0.788063325222745
0.12917289922836
-0.525455373320372
-1.03478810264481
-1.22743706487989
-1.17547692055603
-1.07731283642426
-0.982643051920306
-0.85529229259379
-0.729056947712796
-0.598213746455561
-0.348715925309714
0.0329413685058502
0.365326899795834
0.488888110324227
0.386010727426762
0.0522835702423856
-0.513493773665442
-1.17001189186874
-1.71031480751923
-2.06605092019091
-2.26309980992279
-2.26843272816166
-2.03692576270931
-1.59494735654194
-0.987985955370625
-0.270220854136521
0.448066311676726
1.06646488366885
1.54240894649702
1.78640274886621
1.66762586314025
1.22436831954681
0.715232151519908
0.39995340064382
0.371312704840307
0.543673546883524
0.697019202201117
0.662716155562464
0.543596885537618
0.553873121029342
0.634726328932698
0.521683367737485
0.166879992718369
-0.240776755732492
-0.611317237884976
-0.977344300689052
-1.28853563755751
-1.48458141634948
-1.64458993114203
-1.82794032219633
-1.92914577947145
-1.87229856160362
-1.75802371644611
-1.67036804381411
-1.53813649618229
-1.29315272430193
-0.960519818096005
-0.543336830638393
-0.0374040062318255
0.438797127924192
0.737657030450014
0.864487371435218
0.914944779572724
0.937439973296478
0.9607163340649
1.01456513506618
1.06130050417589
1.03350899378906
0.941183807176353
0.850710653231515
0.809261411871887
0.826217176275712
0.837472831929837
0.719781100385664
0.466758701842426
0.260729114147561
0.236649339521753
0.324831273106283
0.443317937232906
0.622846582056957
0.835673187862453
0.964786543678669
1.02099667312641
1.12852301363227
1.28830999583898
1.41089789551655
1.5154169547521
1.652561090643
1.74873180773347
1.73229068387449
1.65309403294562
1.51846528495739
1.22606356843348
0.803501110562678
0.47241572263886
0.341761355482973
0.278272736200592
0.171222755514876
0.0744478967860186
0.0272905912046134
-0.0355376029983799
-0.169057533707828
-0.374021071563777
-0.637567615392993
-0.926993282781867
-1.21245601363321
-1.51489994438368
-1.84816618202915
-2.15942943736069
-2.39417187778895
-2.52182230331017
-2.48175488691169
-2.26585952957877
-2.03157364918012
-1.94095722078623
-1.9529876370359
-1.95851667992046
-1.98260526325509
-2.06680646433989
-2.13221876318812
-2.12209380464145
-2.08997500939372
-2.06356791766191
-2.03162519396877
-2.06744683509526
-2.24935979043801
-2.51699365531098
-2.77788667995814
-3.01246724892035
-3.11874868647957
-2.84784225772494
-2.05956631645903
-0.887024048490816
0.447133969126564
1.81204964899413
3.12474762976984
4.30831595099993
5.30442941172924
5.98064161650257
6.12607936490043
5.71866115341996
5.04630333755671
4.40048708318651
3.83714158071161
3.34205658194704
2.98119797341456
2.78384693314632
2.67835404508383
2.5887983801382
2.46835581318375
2.28241184186573
2.03481308083439
1.71710016043105
1.24482682722797
0.607684077167577
0.0106779428203768
-0.34468454480756
-0.522812050519603
-0.708657601618287
-0.95003424842307
-1.20255333009569
-1.43925261955514
-1.60068639319006
-1.63362757855404
-1.61494798106421
-1.6459756896256
-1.68383060809318
-1.67484015532948
-1.73834769394149
-2.01899191852381
-2.45584691587012
-2.82276170892566
-2.90127502079253
-2.5979989436489
-2.05229508859197
-1.604280293635
-1.45958532297386
-1.43471731566611
-1.22758597820536
-0.832712004699149
-0.488235579784069
-0.360189561612723
-0.46636584200842
-0.748071352659677
-1.07014024503237
-1.28717844670254
-1.35798522550087
-1.28938110475432
-1.06284341505655
-0.744313927533287
-0.484447074815708
-0.273534956225472
0.0818615319075606
0.622475995323539
1.11179583743884
1.32886100391213
1.27872761449995
1.11029796802729
1.01897988767513
1.16981721344328
1.56081968249532
2.06226031451911
2.63400067044561
3.28795912325477
3.83149486892016
3.93439639867077
3.48500049924452
2.67928872587991
1.80209900890744
1.06976919051319
0.555584676041878
0.109138475460106
-0.517518995098042
-1.3442284283481
-2.10535949970901
-2.5769403277993
-2.78113753211575
-2.84851426189993
-2.88667730829025
-2.96376253837155
-3.00868180883804
-2.7861643251646
-2.14263304279555
-1.17188215098683
-0.0488211230072933
1.10529107901943
2.12822836161008
2.81295116930938
3.07168546678956
2.97994426469907
2.68668032880627
2.357724176196
2.09583570698484
1.85651273035378
1.55762747012011
1.24324520390714
0.987573145702408
0.729610939328913
0.374884282082733
-0.0594047406720478
-0.524075171051787
-0.989136032574186
-1.35578174185951
-1.53891059157458
-1.62942270151546
-1.72758144771765
-1.69530945999096
-1.33978971041572
-0.727284575012631
-0.0752356330481589
0.507385022239054
0.951083851937074
1.09208852614922
0.84404268609142
0.348710326915273
-0.221380632373689
-0.849386333517478
-1.54544911212018
-2.21837709973804
-2.7632835595705
-3.12222902280969
-3.24801856001599
-3.14184182749592
-2.88209871337343
-2.53285465446218
-2.10358688589128
-1.59696161087957
-0.975745108045123
-0.158460455971895
0.800558358421096
1.63306194195811
2.09478667537336
2.175874670099
2.01943387198018
1.77274837047524
1.52168955198956
1.23686542402154
0.852264618220155
0.490321967760186
0.410197930285525
0.620043932865166
0.805965309939682
0.753922173304965
0.561118411018023
0.380926730386036
0.26310663086729
0.256704689243025
0.386209646989993
0.542241804885354
0.604397598093228
0.590115151103444
0.529064811059237
0.345697955944707
0.0194353006780864
-0.305911280161621
-0.502003927665219
-0.581974131611872
-0.577440701433158
-0.469257809220324
-0.256711670571816
0.0696949078802
0.555565190558772
1.12923692404654
1.56319316838588
1.72326589722834
1.6902035918869
1.5676705148133
1.36523004203209
1.09413201797575
0.807889879700493
0.564695853369618
0.432052099702767
0.424919547215173
0.423440334468949
0.322505572487177
0.21121354313064
0.184647263257824
0.101789326204098
-0.195829768756557
-0.573783994553178
-0.786148765729102
-0.81071417166511
-0.789651695315596
-0.808618252750959
-0.870558962005686
-0.916200230923573
-0.833407669259584
-0.620601183005785
-0.4880762088066
-0.611917931148509
-0.881610704675681
-1.05624631997547
-1.03841182372089
-0.848930841191261
-0.504845338232083
-0.0797330825613221
0.275716067065715
0.493659520449172
0.627074367812191
0.69904057502006
0.681953451214078
0.594399995326022
0.451508511230945
0.192426398420763
-0.217562255700254
-0.711097501984601
-1.18882804838583
-1.54438235708694
-1.66202923128565
-1.5285433864932
-1.25738689174446
-0.908269046361602
-0.451716629355375
0.0236618053692603
0.302542445058446
0.312070391111762
0.19870107873321
0.128464880153349
0.16997269613933
0.28153215540962
0.273200656732625
-0.0455684384785709
-0.577340856633293
-1.0245471662738
-1.29950632074326
-1.55962402735008
-1.85261046691379
-2.05245804591954
-2.1219209465408
-2.13946288333597
-2.10322642944263
-1.95619500186255
-1.75537783097614
-1.62868841740919
-1.63040912554165
-1.74566168919919
-1.90523899962081
-1.92192031934216
-1.5875556868041
-0.889740061352422
0.0214714572769514
1.05349610822445
2.19081711805179
3.3630556391458
4.4330714380075
5.24633755295601
5.6594458786263
5.64896131522431
5.37838296029461
5.03382415377925
4.66236768189187
4.25575492398073
3.84802251348257
3.45961078281302
3.10418590212757
2.85982711855371
2.7588890315599
2.66675577155248
2.45458164162871
2.18349906337307
1.96316790387361
1.7930140603599
1.6504597277031
1.52687797319486
1.32931919836962
0.973964809626932
0.555323520048181
0.211605031337578
-0.0674179956855037
-0.299177596342305
-0.368656254245057
-0.253484643533399
-0.187060051420989
-0.389564120439725
-0.839709283150668
-1.47570433578055
-2.36838544797697
-3.51734101490594
-4.71517084480985
-5.76957125323817
-6.66941634888823
-7.46000415349173
-8.12422403506467
-8.60352160930127
-8.83433269582959
-8.81723537702521
-8.67839952146429
-8.54571190971516
-8.38464362236754
-8.07551603092333
-7.55388714505769
-6.75293959856526
-5.5624753414115
-3.96269818650421
-2.05323089710314
0.0687045392405112
2.26397842942704
4.23820464137938
5.70925695672121
6.62016146698537
7.02722973442683
6.97833899055048
6.66527684588795
6.41415820317716
6.33505569673601
6.23001459495448
5.95552584550259
5.61613944885152
5.34191353720029
5.12254334896704
4.89652085997712
4.61233143887225
4.21220432523896
3.70451066274157
3.2013025487354
2.77748368814796
2.39001163277976
2.00432851625263
1.65502599706909
1.3380580292165
0.997176301158885
0.617411346793353
0.211393330808162
-0.203924354929851
-0.525866464144974
-0.619878495463646
-0.526303769366048
-0.438671464755363
-0.456259249364047
-0.520055769619668
-0.542916352903978
-0.465181755046686
-0.294287950467543
-0.182994556905742
-0.301761164260677
-0.593429700916411
-0.856230079183712
-1.04218101570612
-1.23980109619986
-1.44170696556385
-1.56804650758012
-1.61219910884053
-1.58500367557184
-1.47525265420916
-1.37142352808719
-1.41105730828727
-1.56546097125429
-1.70550530484816
-1.86230006250465
-2.17839721124641
-2.63948466129655
-3.06599874828073
-3.30780657310814
-3.28219214853539
-2.9283003265475
-2.28581304951034
-1.52309439362121
-0.793877808133013
-0.181241992440283
0.212419545180375
0.301096616521281
0.123105747208842
-0.241398208660086
-0.768594758527175
-1.37552623136969
-1.86019534654991
-2.0653950958479
-1.95544565918671
-1.52802843728138
-0.847104379896578
-0.126969863218006
0.40747944033706
0.701096093710232
0.823840303226315
0.879618725790449
0.997356148049964
1.23258421753592
1.48146296498261
1.65260782119675
1.80860411824209
1.96105744553952
1.93539542942412
1.6484853425852
1.29875080410113
1.11033378378086
1.09954752984269
1.16882128144882
1.20601804168997
1.08909243451172
0.814838261069917
0.575681757645063
0.521314182322919
0.55472631042159
0.540202692213081
0.555104231593599
0.746400518941651
1.09147156868607
1.45728889040583
1.7451075993606
1.89055711317467
1.88908954842374
1.84127312408107
1.81470928949384
1.72269608089117
1.47778845772743
1.14099775894778
0.82177009890245
0.585885409938553
0.485393571938588
0.499433524077712
0.490474597093605
0.394866063121533
0.338037913894199
0.396914502023939
0.429361524607507
0.293517664207236
0.0312513515753337
-0.281889844750923
-0.652089453442713
-1.05843095353915
-1.41818235644969
-1.67732500952552
-1.81438198366353
-1.8329758384042
-1.82514701720532
-1.90096815302363
-2.03077016049138
-2.11999744307716
-2.20358569954081
-2.39141561956153
-2.68107650528242
-2.96126010263361
-3.11578580244023
-3.04968266072039
-2.75287668077659
-2.38789654857459
-2.13971191957372
-1.9559058649877
-1.63470378192139
-1.14533299636158
-0.622600141033598
-0.102663615205542
0.476853811537698
1.0831912828892
1.61353731434246
2.0249999421571
2.30353161500897
2.42747383082265
2.41651006486202
2.27422821591502
1.9135638053515
1.29769049384134
0.572469930428045
-0.0745206823907464
-0.568498036932841
-0.896723473930271
-1.07510508194913
-1.17326562246421
-1.18311438990201
-0.935012358232331
-0.348261512493758
0.374307961220269
0.985234943000506
1.42835858673607
1.71284812579482
1.83175757707951
1.91811007626306
2.19299051510558
2.66113855646274
3.08335834915662
3.26942321845406
3.19970599132932
2.90277741774933
2.42215242631591
1.86662726505101
1.3378291511169
0.867062450690339
0.49456167708806
0.253735989130797
0.0185493771742981
-0.424582799634368
-1.09659560158285
-1.79551849093354
-2.33259169534174
-2.64607673976267
-2.76458647401859
-2.7960700069265
-2.86020947470175
-2.96037005053021
-3.01221095893691
-2.97767345325821
-2.87607082385406
-2.74887233627858
-2.67501896768681
-2.66345602994435
-2.50887277958942
-1.97465522584424
-1.10878994741653
-0.144558809607289
0.81935319571521
1.7707076900883
2.56856721502171
3.06535072995314
3.29334085777035
3.32258021265409
3.13221213323024
2.76248100764472
2.36409085006947
2.00505580867964
1.63793162349867
1.2771954976617
1.00744060378235
0.839842814267889
0.737634790944023
0.718399895462126
0.773495285674841
0.780553048056953
0.624219601815504
0.298983732926181
-0.149952697658627
-0.624413214560217
-0.934638618554326
-0.977461544611196
-0.905106152432508
-0.921406784004347
-0.997962235558139
-0.94836832418295
-0.681641086646143
-0.296525354159742
-0.0162798464740802
-0.0106623708810565
-0.194109129537292
-0.311161428478066
-0.290003696451674
-0.313055229137816
-0.487713209840396
-0.711006360529172
-0.898691031581173
-1.07065650472691
-1.20917137839503
-1.2927105783287
-1.40972475021253
-1.61517846302043
-1.7981550073961
-1.85857024011534
-1.83171410962079
-1.72859210208153
-1.47389853006444
-1.07144571061831
-0.632287556781799
-0.242931052639351
0.0122277973065642
-0.0161902115192998
-0.366705366647986
-0.806284742723931
-1.04398557266156
-1.01684657273332
-0.819879033471622
-0.499897875882496
-0.062371827260864
0.456616950906287
1.0226672240753
1.60600079558476
2.15526166712755
2.6441749146593
3.04671702014843
3.22660280615575
3.03935067951194
2.57026333239913
2.05926355870327
1.60669851149318
1.16180352446569
0.726515908034641
0.365459386354543
0.107945413771485
-0.0193861414726352
0.00523138485058636
0.0988205333803549
0.143701722859506
0.146011293511213
0.144619901408798
0.063873003191749
-0.149607947596857
-0.396289931104831
-0.580475557044145
-0.693684362949311
-0.662143798949128
-0.377487611048665
0.0749085442847017
0.487901889779905
0.829412693313048
1.21185516874665
1.62648351096764
1.97287983727582
2.26889069014688
2.570442982999
2.78345748637601
2.80465672228591
2.74072208614556
2.76782422243276
2.86763885870831
2.84490970715799
2.52213255035302
1.87662695960254
1.07498419500894
0.339518846859459
-0.289154748548762
-0.979245448969864
-1.88508262517834
-3.0124137064747
-4.25240546646305
-5.39672953919546
-6.2007938710165
-6.58157822584706
-6.68259589927949
-6.70176378627154
-6.7896926043258
-7.05967906901498
-7.44982340661963
-7.62627531929732
-7.25844675716842
-6.29971756014912
-4.84263296642358
-2.94811602255504
-0.831675025896514
1.04507588950943
2.28998697637564
2.82924017829581
2.81776602112979
2.55550034423757
2.47581407108947
2.89494982123172
3.68965732582665
4.3955955947068
4.62975537378896
4.32803753469955
3.70948166744682
3.15734867378064
2.98607207681827
3.18051377787321
3.46610524274939
3.63909146621687
3.66234116202668
3.51427310551942
3.17260970180767
2.68742207050238
2.12027057479866
1.52085718988064
1.03427266919971
0.854693414741876
1.01765976764977
1.36796680957335
1.68916733953597
1.75576589102609
1.40218226271811
0.677993572151087
-0.183347919665191
-0.972161578155533
-1.52209847904963
-1.64470197353068
-1.33080806185423
-0.895176795071459
-0.645690438713538
-0.564443338419682
-0.51372342019057
-0.495242721535024
-0.515851867072907
-0.487495275151562
-0.431885748161039
-0.533526602140694
-0.884493298418637
-1.38320502295572
-1.89945037798762
-2.33501754255282
-2.56650550891658
-2.54138781427945
-2.36785663877024
-2.14214868313926
-1.81622984447172
-1.38152024959648
-0.992762626840398
-0.759919945757457
-0.593431265191879
-0.357725685253828
-0.0404442715678609
0.256897954732123
0.404964159119703
0.366966759269639
0.265886070990203
0.239804112491546
0.274269911453178
0.30438712851238
0.35847364607116
0.4481581422166
0.499724432958428
0.5458555084411
0.756971721006918
1.14336222912247
1.45297284515737
1.44157293912938
1.0401266603006
0.300317314199734
-0.586887473069461
-1.31452612797905
-1.71998666394457
-1.91691496647647
-2.06756480805669
-2.21000362216125
-2.35028101149432
-2.49189172460758
-2.55217697476703
-2.45235778162312
-2.25536540289833
-2.03391027232566
-1.69805995047083
-1.14145821632355
-0.444888861143715
0.223339036336754
0.772658810703957
1.16865705939841
1.4530998973923
1.83147911608521
2.48357331796996
3.24925015988334
3.72352185778238
3.65843469994653
3.14026209640475
2.48887168792533
2.09338733021905
2.17728811788857
2.61026123107807
3.04128046391898
3.20536150167798
3.03666194553562
2.63991750268007
2.27588064233576
2.19296142002352
2.35544046959399
2.49528181539976
2.44007010779223
2.1867771153974
1.72700726481267
1.06274479680211
0.327241259676667
-0.312849269033274
-0.784565400150698
-1.060059666216
-1.16983431426579
-1.28366614491239
-1.53652147501537
-1.79381471989872
-1.84067680174254
-1.73447748832388
-1.70518021108786
-1.81287310452257
-1.99345747234495
-2.33081316507706
-2.97293088550711
-3.83553381337854
-4.61540375237513
-5.0431149093937
-5.01757515168185
-4.60276253381721
-3.9391152467252
-3.07718539009479
-1.98719218552014
-0.832562559255722
-0.0435789214677818
0.040913995227079
-0.528898077278384
-1.42244170383962
-2.26285644839823
-2.77044939159901
-2.87920916745341
-2.72063510038504
-2.42650660970414
-2.07328038634732
-1.83649994563853
-1.93887044385157
-2.36893783506004
-2.85522756654688
-3.11749726540038
-2.99710137463224
-2.48890226624593
-1.79849655625408
-1.13352484992989
-0.319703746961617
1.05228378474325
2.98602535194713
4.93913755676302
6.42315734211637
7.40328444414675
8.04031268577149
8.40402521686926
8.55741084598841
8.63562902015983
8.72081174825006
8.78097347867446
8.71696822908847
8.36857232678156
7.6015287215448
6.49166853009755
5.27896943654625
4.11487982644156
3.03182096502452
2.11018122527588
1.45944555285874
1.08376387953561
0.907080515200321
0.833260147757897
0.711394649053263
0.387095204778968
-0.17177602263207
-0.907945350664105
-1.78385199371365
-2.76368751249352
-3.78423220538782
-4.78740420683024
-5.65594483466857
-6.18955458421034
-6.36556268731917
-6.49426223106994
-6.8398861911284
-7.24104878114018
-7.36161872599805
-7.11168318873496
-6.59536966697436
-5.88871303853639
-5.08079721797984
-4.32492778045907
-3.70219323967615
-3.18019443119384
-2.71815038349107
-2.25161349422523
-1.652298799192
-0.902956285804493
-0.200173645745899
0.312525188280576
0.756567819053259
1.26895009578677
1.7131375489943
1.80402844341035
1.37441399704877
0.455342654981472
-0.732785735710977
-1.83658524887503
-2.53651562980643
-2.66819371385428
-2.23077970318767
-1.43366288582194
-0.650954390743944
-0.0908041182354227
0.415205028823436
1.11970245144985
2.05102383785911
3.15893274927612
4.45232323152867
5.77165945718411
6.73991781595585
7.1447032929847
7.11290141603544
6.84317826855236
6.44791017393774
6.01428797139391
5.50038820659335
4.65017685756695
3.30997103819277
1.75837580349286
0.527829520508376
-0.0198582226866057
0.109313808230429
0.578579925925689
0.905028597718489
0.794813778121343
0.333658965914244
-0.268211164263449
-1.01830316557428
-2.04596398403941
-3.29956087323642
-4.56131738970411
-5.66640569966917
-6.56375906497633
-7.26755802017229
-7.78791976575817
-7.97470564194413
-7.49915079597755
-6.17455814029897
-4.19578774388032
-1.92112481812315
0.415780803121029
2.66492382211384
4.63908560104057
6.15092457185897
7.03949219122337
7.13728300600993
6.31245391647402
4.53568988068325
1.94981693013343
-0.962434465434599
-3.38935880704924
-4.70100702907793
-4.92803283305416
-4.48914469004813
-3.60787137470636
-2.30303052439609
-0.746447821763244
0.733397477226288
1.91558014168019
2.77640149482938
3.45322881122417
4.18674371021811
5.10167532994594
6.00998045733465
6.61789242148723
6.90079257944112
7.07966084574382
7.29509728139227
7.48394698984886
7.45593400802484
6.94160762259137
5.7727775314919
4.19027194196347
2.76916471467583
1.89455460246949
1.45201283285275
1.0386592919691
0.293021687403969
-0.966482787284869
-2.76741082348986
-5.09978630203127
-7.94209147824411
-11.0767554215573
-14.0258245605769
-16.3689194773246
-17.9909143461086
-18.8549811392638
-18.7642896054225
-17.5775318637036
-15.4795840122389
-12.8725315047815
-10.1443978647059
-7.57455938715828
-5.2661386196171
-3.17080094868622
-1.29638407656501
0.256856893335381
1.55908283727034
2.85618993229428
4.14913911106633
5.06632559889619
5.34826217274479
5.23638964050253
5.24348028647211
5.71203778358023
6.64841330659162
7.78388359660796
8.72391142411112
9.1721511195807
9.06745543054321
8.53361036986838
7.84716304479752
7.44389141397247
7.68168974664873
8.4958789339052
9.43141979235285
9.99281308026814
9.8815560042174
9.11015650882812
8.07887416623653
7.34709052291382
7.14587060454188
7.22531586604635
7.20551468356429
6.92053862824397
6.45385830166481
5.99463661528965
5.59913667696086
5.0110637746205
3.85938823287435
2.08345877964749
-0.00306163721404921
-2.03783896119388
-3.79992317959109
-5.1891991612977
-6.26582717301753
-7.21222774348511
-8.10405643159818
-8.89006469206338
-9.65041654165689
-10.551576255136
-11.4483535392832
-11.8729275839791
-11.5479018965643
-10.6524236803177
-9.55556606583792
-8.56906101437626
-7.92698808732126
-7.6702143751998
-7.54639831288427
-7.27684515808604
-6.87190523688182
-6.52423365751959
-6.35950541718031
-6.43741701714359
-6.77613744400439
-7.21316371193456
-7.40270144171125
-7.07389403788996
-6.25193264798385
-5.23901722347208
-4.3856718163973
-3.79093939576069
-3.23918152652265
-2.50342086255774
-1.56336991551648
-0.374266493832708
1.35440000526815
3.88252621896146
7.06867282708755
10.4375169277842
13.4672518190397
15.7582794966055
17.1695752796375
17.8660053376283
18.0448848113061
17.6381153662882
16.468247246622
14.6212829964601
12.4873482997059
10.5037645415816
8.96020663644056
7.9388517332581
7.33232675715895
6.95200645718853
6.59304450971506
5.94060958646424
4.60139826468089
2.47744525842815
0.00569972759542926
-2.21531672617127
-3.96275108730403
-5.39693336547367
-6.66940014856156
-7.6711799702974
-8.08414982666626
-7.65588566786984
-6.51938990287075
-5.17857438032561
-4.07875980421497
-3.28551339155356
-2.61844915874644
-1.94958187181989
-1.38698296333245
-1.33511821805807
-2.29042261924986
-4.38173905215496
-7.1936707751017
-10.1236322968062
-12.7011682238978
-14.5322647295407
-15.3261037439144
-15.1429008261037
-14.3342441789732
-13.1611333360494
-11.6798399404622
-9.90955319042552
-7.84347641957251
-5.41538962360012
-2.70532098545689
-0.0688349756621788
2.09730107700627
3.59635204878848
4.4075423689415
4.66886533979912
4.75137990300626
5.09009619447845
5.83191688941722
6.81049402653338
7.86286945895226
8.9882119499873
10.2303085212921
11.5499469602015
12.7579033762383
13.5425340124602
13.7280645958456
13.5280413766669
13.3694884416188
13.435432880288
13.4316734102822
12.7408617401151
10.8738368461758
7.99756334273864
4.96344958846769
2.55852012855042
0.813217088153924
-0.721705429794155
-2.20660228155937
-3.31894492148292
-3.67225767426185
-3.20770536679052
-2.33923499953649
-1.83937702784567
-2.35965162975708
-3.94302577907278
-6.120781643943
-8.41641756716246
-10.5926933131981
-12.5552288032344
-14.2312204415727
-15.4680336734202
-15.9746556049244
-15.516959644911
-14.2215701218986
-12.5065665286094
-10.6554073248608
-8.59037025366432
-6.05199891454889
-2.87322452436102
0.837183572718075
4.61902936956187
7.84953519629072
10.1094777850894
11.2629293977625
11.2249986701114
9.9215202019641
7.47238391169332
4.17331007948585
0.366414997324725
-3.45399725302027
-6.57956396728671
-8.43420381333589
-8.93650217268731
-8.39538695311557
-7.16705946644514
-5.49131096913965
-3.54282241118927
-1.58445856504199
-0.0465893880555294
0.741054448093866
1.00540264050669
1.51351306806495
2.93469698824913
5.26378166958131
7.81057323957629
9.64893503224931
10.2845430661899
10.1114774237016
10.0507645664874
10.593626119254
11.4019667592941
11.8716638213221
11.7019709711403
10.7940811128982
9.01453814999562
6.35241803027214
3.12670252150597
-0.141655278644516
-3.00389729336711
-5.25836804121992
-6.98159075251194
-8.33157400290303
-9.24922610400843
-9.49497181770119
-9.01992064719042
-8.09707330813837
-7.05295015309617
-6.04547811368241
-5.05819407227142
-3.93390257937975
-2.50051835673852
-0.802547910422111
0.919447262106308
2.57581315345315
4.40200821559879
6.68679693987169
9.35754409867874
11.7813992888802
12.9907794593656
12.3387266264245
10.0064192550618
6.68828574718797
2.89361541969917
-1.0869903715118
-4.69578970861654
-7.16153996971606
-8.1177004603094
-7.83626828347842
-6.86037362096816
-5.64178099677711
-4.46175359272452
-3.50675007112144
-3.01753364475077
-3.30911324854083
-4.45192684577198
-5.97019872352291
-7.09188430130139
-7.30434669442502
-6.55330925374742
-5.10189388382351
-3.46859029396508
-2.34267680183283
-2.24398970276177
-3.22562442134785
-4.87310024236513
-6.43588455920958
-7.14264488620159
-6.79846814497102
-6.0203491346614
-5.52595996563845
-5.2290376356482
-4.30820841241176
-2.12483042646259
1.08520114231641
4.35861322727669
6.77091743810069
8.13242337137524
8.94990232972492
9.74729703996099
10.584179856047
11.1772462969721
11.1984670302909
10.5096140989472
9.45592035489024
8.84009492211521
9.20991831374525
10.2340096982208
11.0457804644659
10.9821212945897
9.74122026124099
7.21557304739193
3.62865202975151
-0.340937011414983
-3.89733422729237
-6.52787280494858
-8.04514925323643
-8.56396732120984
-8.60447264085358
-8.93193764637349
-10.0456166076002
-11.8625360996898
-13.8875192952297
-15.5832117875662
-16.6423769126143
-17.0250142757107
-16.7233714486543
-15.5344719522897
-13.1651484750911
-9.50206351921721
-4.74352123038692
0.553275117936532
5.54214619492819
9.51603345874466
12.3818532122071
14.5382316502874
16.3635736656746
18.0599191485135
19.7621233377287
21.3579258961646
22.325665396828
22.1519590978733
20.8184979642453
18.592282160895
15.5259205308879
11.498845281735
6.67589377326206
1.7144903652621
-2.49297958108911
-5.31913405225595
-6.79553626647939
-7.5413075246855
-8.24162417579153
-9.1853871546818
-10.224330097915
-11.0043483418072
-11.2463537786772
-10.972698842348
-10.4361708173926
-9.70101452522818
-8.46553438858504
-6.53105687158077
-4.23064325860062
-2.07270764834824
-0.147770849693257
1.74963567486591
3.4751775272124
4.29024938389343
3.37353663008359
0.616039084580496
-3.09703356126584
-6.53357936593079
-9.09741773133619
-11.0859079182493
-13.1095317275433
-15.5091969561415
-18.1577877710925
-20.3893105386689
-21.1528129650607
-19.6425277723318
-15.8965008609987
-10.6788651256488
-4.87295303427393
0.946578762217978
6.55059846620476
11.7784616085024
16.1614571184933
18.9736475553306
19.849881160986
19.1841820381074
17.7663390000581
16.2613266446596
15.1000946586422
14.3997732405146
13.6923534594028
12.0904594111532
9.09753572873734
5.15410717576866
1.26292158266062
-1.76824695661642
-3.72215910615282
-4.9075500372164
-5.77817078688411
-6.46640511897239
-6.72323618785856
-6.35981076489938
-5.52308870029454
-4.41335069612549
-2.93418536671696
-0.771161856773564
2.1975300757282
5.52650724098701
8.31299029713422
9.96108890037277
10.8308316471726
11.7789016830044
13.0450084917433
13.9537416202928
13.7211294333305
12.244305384775
10.1586732005103
8.38363349666169
7.46750141368177
7.11730557741777
6.48027265409577
4.98536629601309
2.73138523659728
0.083852956243397
-2.80733391653839
-6.09611902048643
-10.0929525807287
-14.9672325751788
-20.3765111001773
-25.4470948451928
-29.2616831093625
-31.3275889132424
-31.6323568065194
-30.533973535923
-28.6503250698164
-26.5163123663785
-24.1517246795769
-21.120848164691
-17.1015905453048
-12.3123774701612
-7.41264982304402
-3.03675464564992
0.656986451785282
3.95119823823111
6.9980184294741
9.49255128182966
11.126720341167
12.0753944474852
12.7004389504247
13.0231456906281
12.854848237916
12.333276266736
12.0747559303926
12.7598689525361
14.509223649419
16.5969772132717
17.9548299193663
18.0770508746708
17.265530053579
16.0943664016368
15.1075243974466
14.9657941650274
16.1625313664762
18.3461635731581
20.3887034502629
21.334338247828
21.0760783092023
20.1685089773159
19.2287555335578
18.3889450933151
17.0541422051496
14.261305611629
9.45428821841526
2.88808664623901
-4.65794330998918
-12.3066855727713
-19.2702370734254
-25.0213904089676
-29.4564484343612
-32.7356940081633
-34.9367176444285
-35.9527290777681
-35.6733375483626
-34.242156896391
-32.206918385023
-30.2645133365395
-28.6405399445616
-26.8284621143467
-24.04959688646
-19.7493019083459
-13.6443472663138
-5.81055085980417
2.96281086936977
11.2020066351701
17.4338851807649
20.8770466549755
21.6012859985469
20.2325504262047
17.492927428525
13.953779002114
10.1955005359709
6.89096167719949
4.38362207415266
2.39819877649245
0.551017926496108
-1.03080121624811
-1.89124988642221
-1.79381920960794
-0.822257924941204
0.784915000724352
2.64604214127722
4.3412621355388
5.73231062752926
6.99022981456555
8.21170523151475
9.24698525322141
9.95482853787636
10.395661224719
10.8127144772264
11.6244014543839
13.2050977463855
15.3295375409658
17.0433645011272
17.4400801662844
16.4317193081787
14.5467361882468
12.2152504782259
9.53690597651156
6.59579208156141
3.64327661940974
0.801211443314295
-2.26476182538137
-6.03001796446087
-10.3583458252695
-14.4070798262024
-17.5068148462835
-19.787539894378
-21.6828966351707
-23.2579041353086
-24.4091755443688
-25.3481157280342
-26.4358788625751
-27.6699775388886
-28.5112247391759
-28.0994720885983
-25.7182946056713
-21.3719420900615
-15.953164999015
-10.6546691873922
-6.15976555309002
-2.33734008758735
1.51322690286328
6.13918211155938
11.6999139108658
17.4267898144686
22.0516537920558
24.6916816758034
25.3168712524644
24.5445781960095
23.1956685916945
21.9061583157969
20.9208759691933
20.2375495296251
19.8616808083926
19.7127700957251
19.4149784940885
18.5294712647142
16.9680655332966
14.9488787334011
12.6301617951489
9.96545178803713
6.84064022559617
3.30935429256957
-0.177301552441788
-2.84328583984548
-4.11908284013706
-4.08134864094406
-3.28251684081098
-2.36792228127499
-1.99002781601136
-2.74266601237538
-4.83162099164266
-7.86612973376437
-11.0617995738538
-13.6375273676678
-15.2261942789515
-16.1307485844519
-17.0338848603215
-18.2715902397233
-19.5302353974869
-20.3054211533788
-20.3726783173205
-19.7358810170438
-18.4604789943559
-16.6787466974425
-14.4461700509642
-11.5343135742771
-7.76212030063869
-3.69271218484136
-0.724005428070217
-0.294550906794252
-2.9344845777326
-7.84416957777234
-13.2021926528653
-17.0416068017967
-18.0914871374989
-16.0303426017739
-11.3384979026066
-5.10684407651558
1.39403234438215
7.35220008175787
12.5071846416464
16.5505087215773
18.8776387810773
19.2198693772908
18.2158726817056
17.0671756379219
16.7196967819346
17.4104591643531
18.8036174715295
20.4341231321917
21.9983402341404
23.2361035347697
23.7721079577989
23.3590774338948
22.1601800088695
20.5143497176489
18.5290082503249
16.1397220635444
13.4303365320906
10.6523250821763
8.03190036201753
5.73814871521609
3.92417982637111
2.62290597924723
1.63412035621119
0.568536512023805
-0.963592847398019
-2.99656385541838
-4.94096164634087
-6.01988270878458
-6.2000374700114
-6.30121577209558
-6.92891700759818
-7.76526574661669
-8.26277899667596
-8.61314826941828
-9.59294189312332
-11.6618016371616
-14.5571075299804
-17.7109566678924
-20.7844098300634
-23.6631562171373
-26.1102141972126
-27.7930744758932
-28.7274731857408
-29.2824444460279
-29.5065951952803
-28.8070657184668
-26.545991310812
-22.6372445559713
-17.4604401066818
-11.7236074220469
-6.61711839503365
-3.47203886360354
-2.70888656404555
-3.247338780793
-3.21423660940259
-1.24632493368145
2.81088622745437
8.16169549091797
13.7596038621679
18.7867184072406
22.7063580128144
25.2111720880748
26.3435035160695
26.5240354944266
26.2095740169911
25.5800711509427
24.7145135569085
23.8882366707343
23.4371272766277
23.3835894674867
23.2825290579827
22.371873666685
20.0103898149553
16.2132520702981
11.6567987944917
7.01463556205307
2.57790538892172
-1.31471458063363
-3.99051340149411
-5.04323536170018
-4.95396038660018
-4.74610545565139
-5.13748759113416
-6.18180607754747
-7.55622717354291
-8.98730688458556
-10.3485553082558
-11.4079464785782
-11.7663552860674
-11.3266086031116
-10.5809476470929
-10.0117210340801
-9.43778065848238
-8.45925586206706
-7.30418261956346
-6.59100781542961
-6.34978299438239
-5.91038337387961
-4.81511582427212
-3.35101267005
-2.11065688057174
-1.46215831017764
-1.58252191498828
-2.64101983644929
-4.62555129645371
-6.99436817321944
-8.72057288631328
-8.97003252923304
-7.84411969145566
-6.28659968156817
-5.17514746457916
-4.65535973013029
-4.34463526287567
-3.89820888292424
-3.26304801284512
-2.54929459586817
-1.82167466483355
-1.12130328207929
-0.674676906669527
-0.746385635531157
-0.97518670553109
-0.158992423980469
2.74625938227195
7.43874211432017
12.4296395375156
16.2504647718996
18.1665766530341
17.9763787479607
15.7432798709431
11.8956187093841
7.30402079278941
3.01258514553792
-0.212278813931072
-2.11308335162662
-2.75298572795681
-2.24794935142809
-0.879646851009393
0.646979820503621
1.43419459448132
1.01089995969434
-0.405800936190108
-2.17929994577952
-3.53251605120701
-3.72244920821529
-2.44609892287935
-0.209342210518765
2.00647131915028
3.55884954101089
4.50932252568638
5.26418720502853
6.03168788445331
6.57559254639508
6.37121203523746
5.00792068095365
2.50098054975234
-0.656088123528753
-3.58333927775441
-5.29620837811182
-5.27434318895641
-3.85423972590677
-1.9364119562332
-0.42637057298538
-0.0458449500858707
-1.20497902856844
-3.57437430712392
-6.08606119036682
-7.85075943212423
-8.88108442774762
-9.55075499006193
-9.60206290028262
-8.1266962523001
-4.52935296273856
0.641755642176338
5.82580309478899
9.43290037003618
10.7549231776093
9.95864318062452
7.49224154968433
3.90475688803265
0.0864471293961434
-2.95808206462499
-4.79389514260548
-5.69085993533475
-6.0737587385174
-6.25413220031077
-6.66646699927745
-7.77949809755945
-9.50829012649386
-10.9568633996779
-10.9198514136703
-8.68308325615046
-4.47126092511996
0.799785122614996
6.16070524262311
10.8039043290062
13.7871688591759
14.2125403068935
12.0984244708026
8.60144333126065
4.96732989764337
1.63336679098904
-1.37111297752163
-3.66753057792381
-4.65581591426348
-4.17881368515325
-2.73134110554653
-1.02205239700572
0.619183816413773
2.39873110399045
4.54948290420589
6.72854698151771
8.15247713439498
8.30504173872969
7.28540782460806
5.55959433494572
3.69510697872844
2.29467703014187
1.79984332808465
2.16456041866247
2.83172534095619
3.13412373811347
2.74165391226221
1.78156089425697
0.575503747968643
-0.723767683851552
-2.13596479740924
-3.47000990179138
-4.21661224216401
-4.07208701786198
-3.42929221736464
-3.17870727900313
-4.08672818433093
-6.25686769633206
-8.89554440696441
-10.7128340868299
-10.9863177254877
-10.2677716887831
-9.74324614945943
-9.89890397116855
-10.0559941369801
-9.21054294458011
-7.13089418734935
-4.54808775333632
-2.33557621874484
-0.693393176538849
0.675891462395632
1.79544230538488
2.319899885566
2.23585097298992
2.12880423436568
2.56080622901717
3.51934837362249
4.56380199310176
5.23431517493834
5.33239781760193
5.05998140530414
4.82489590055754
4.73372611696926
4.46210204434169
3.8252121347031
3.21626691716605
3.20214295702767
3.91266192170762
5.11321121587885
6.66320212874352
8.54407688259353
10.4359943161716
11.5033824883107
10.8825700284516
8.62419823856368
6.01883870522071
4.5446809932729
4.45465894071585
4.8104169546974
4.8954510473267
5.05829985895482
5.97887481769965
7.4647799014441
8.24652873005681
6.98070091866732
3.46895565890797
-1.15840251891525
-5.53595742654597
-9.1750950319009
-12.3650310661862
-15.3290909394543
-17.8492111522851
-19.4857475129673
-19.8418405826969
-18.8074329041058
-16.7223399874778
-14.0543340892225
-10.9025867807233
-7.239348135447
-3.66503822063057
-1.35190980335139
-0.923258802991047
-1.65365363649558
-2.04497542038416
-1.16438843219835
0.622935750370767
2.16262334712344
2.68506390374409
2.43856070212089
2.19564044238346
2.40140935734567
3.01152628927415
3.84230933530395
4.62685550341817
4.88215185926671
4.19995365152925
2.74365853354916
1.25155519946828
0.48807034692609
0.644424563673185
1.14326664600132
1.06543973072623
-0.0768636202891311
-1.98628142511614
-3.98184959920808
-5.53832992289711
-6.35157582240856
-6.160258549076
-4.79546324095234
-2.44836779053774
0.165704517131165
2.06152223442535
2.66789010759356
2.28305892134156
1.63437345123649
1.11403210814597
0.820656060001282
1.15138753789867
2.72517510749777
5.64973292262727
9.28164582512466
12.7505518121569
15.4846123377772
17.392421451693
18.8381810359784
20.2350575112389
21.32739553444
21.0901515072273
18.7155299532969
14.597917861477
10.1495854376964
6.82552037680764
5.36174509135436
5.46380344792639
5.84656121771659
4.82930722283155
1.39013540173859
-4.10982941212404
-10.2367463905913
-15.592346401837
-19.6576103153751
-22.5824022523265
-24.4280185256653
-25.0336756692346
-24.5933879703497
-23.8758149538755
-23.6876093450529
-24.323535203604
-25.4204622038896
-25.9728308802958
-24.6676453913499
-20.7462169443528
-14.5806724972263
-7.18571292892436
0.585972816498415
8.07002648986508
14.3715998341598
18.4640659451826
19.8219068705296
18.883012262289
16.8460167637012
14.827816616174
13.0495251447901
10.9769184068167
8.3636868623692
5.90280640138883
4.65777847668693
5.08706997149824
6.80314208848674
8.96749446706059
10.5917661444228
10.6721664518391
8.54604111741362
4.44534738004399
-0.285707180975929
-3.79300221771402
-4.91398761903858
-3.94722114135197
-2.21741698455137
-0.968712129199194
-0.689314148500147
-1.16253280037182
-1.85365163389491
-2.34825004693311
-2.59414514474991
-2.73775037535041
-2.90650948177083
-3.35484142717676
-4.48756914560712
-6.23976730391456
-7.64407970057228
-7.59975311211087
-6.10083701489205
-4.4043503936833
-4.04995161547538
-5.81520026819459
-9.29158715857331
-13.1636192944759
-16.02353776226
-17.136407368619
-16.5359971920016
-14.5964040556555
-11.6828877714184
-8.06723976005521
-3.95069180472413
0.430943711412611
4.70096830106619
8.47248559482188
11.5918743788498
14.0853297495637
15.9442853488942
17.2373007500316
18.3369130632657
19.6936062118226
21.4185926277443
23.2937028416575
25.0068622218387
26.1446341400939
26.1881221744321
24.8327039941052
22.2787664792999
19.1165437683487
15.9688827427898
13.1897719747486
10.7901147663646
8.6713084904954
6.90630043736825
5.6333371143443
4.68787354554577
3.52188661717813
1.46671484568878
-2.0044718576027
-7.01443316245236
-12.9971378030719
-18.8439273451748
-23.6102958236686
-27.0570019028453
-29.4926202128777
-31.2657104827645
-32.3643136681633
-32.2628373896675
-30.2524209424315
-26.2907854076277
-21.5754957101593
-17.97430209638
-16.6836547378217
-17.3763168234714
-18.5059833739332
-18.4010311256676
-16.3705022144344
-13.0605954584966
-9.72351394412083
-7.04888037644985
-4.69820351317191
-1.85001110753864
1.9196791675554
6.12367166920669
9.56665686245831
11.2542215181257
11.311917431422
10.9477576166136
11.4395996620107
13.172301665807
15.5447185446508
17.6471282314512
19.0173385217792
19.7657316248715
20.0158533319282
19.495352150918
17.9080649670847
15.4846944257177
12.8633084254564
10.5789961983705
8.8634777920304
7.70884106612155
6.97786148695772
6.71730670097396
7.37593427503559
9.28621959778757
11.8625586174526
13.706431613358
13.5732467105792
11.0354808524941
6.49462446114947
1.07423455110418
-3.66178705508372
-6.52156887820684
-7.40772572192943
-7.09442548492363
-6.44681995179359
-6.0074256544179
-6.01156871605971
-6.47591029694618
-7.37218672787603
-8.77513770631605
-10.6354839646555
-12.4115288140451
-13.1973393884563
-12.3404178991366
-9.93927912101871
-6.82632109033982
-4.05702820850011
-2.24764937760255
-1.33045107607536
-0.91170690856303
-0.711011514723356
-0.673092893708921
-0.951814104657189
-1.84038987074563
-3.40977861041221
-5.1482285620422
-6.21753576388193
-6.12431042402859
-5.0506546545469
-3.65643217181601
-2.61441551567821
-2.10154718948408
-1.71900443567344
-1.15994227644299
-0.829463612613215
-1.41371676532456
-2.94487560498297
-4.70631254299709
-5.98241027643242
-6.539531479581
-6.48274673898285
-6.03647201101324
-5.46791996782809
-4.98057090674109
-4.64692323500708
-4.39504973377647
-3.83886218896432
-2.24769606576467
0.819395741685736
4.7681857722533
8.2527139581656
10.3152510552442
11.063694967897
11.33467582334
11.9327822747073
13.0825748819367
14.3806697293644
15.2510365048678
15.4161385995099
14.8563989678937
13.5072149354041
11.2709602576782
8.25904951931404
4.8403164186278
1.50875895830492
-1.26323677689718
-3.22159178532599
-4.44988307447886
-5.20183711582752
-5.65552531304395
-5.87962126487727
-5.88429220593426
-5.61965462408949
-5.03902481728878
-4.16452488804759
-2.98844536609545
-1.40604603096476
0.617350523599153
2.90541122939974
5.15205620893758
6.95319339409382
7.73273244759475
7.00206002184247
4.9098339415419
2.29791314498914
0.0791123345860745
-1.23642165767022
-1.50225631543965
-0.926649958208118
-0.163876378951756
0.0447729859360825
-0.510457779040265
-1.42653717199091
-2.19510815199209
-2.69303586250466
-3.28517080311526
-4.39857744406746
-5.74897341963515
-6.13108285061382
-4.38769761774597
-0.531490779581027
4.40459850224221
9.39778646914584
13.8066704703814
16.8146944445582
17.1562754524541
13.8849704164364
7.47040564824901
-0.0949867792818185
-6.5828586354447
-11.077558470963
-14.3344212638251
-17.8796560009158
-22.8754192639883
-29.3285554640128
-35.7746678834792
-39.9130804753524
-40.1711048633762
-36.7812113908081
-31.1831376811791
-24.6488946337606
-17.8146482924657
-11.1504990820045
-5.16229538743561
-0.0483421580372302
4.41841261441228
8.51420587778606
12.1942195544516
15.1111059454596
17.0097294838401
18.1910411958711
19.5142657619493
21.7848492368189
25.1424083339795
29.0223948921712
32.5144136488381
34.7151167939934
34.9845486872291
33.0793268637897
29.1107139694956
23.4582447073464
16.7417625555984
9.74206228191309
3.27274133022715
-1.88321224445062
-5.14131706961185
-6.48470168100608
-6.54970749146632
-6.15894671031993
-5.9462181527047
-6.46496432343033
-8.09108233751849
-10.4238568274334
-12.208549393972
-12.3816550800584
-11.1235361112837
-9.62846448676168
-8.89031450456357
-8.84351946897833
-8.64902486269549
-7.70630359736499
-6.27718433917321
-5.05953431999159
-4.31594534980456
-3.70411303358616
-2.88898506555092
-1.90806474938581
-0.818614367930091
0.693529512045255
3.11076177316321
6.44162690239226
9.71376006392664
11.2399719046004
9.81746239963761
5.86146916176918
1.16994860758908
-2.48109591085947
-4.42947490522994
-5.11584584422026
-5.40446276574972
-5.85356802072052
-6.36176404909938
-6.48340508465311
-6.0471944145378
-5.26566400535101
-4.34296525210977
-3.35114479459101
-2.45361982179425
-1.87637867916865
-1.65674908088265
-1.64363371476838
-1.62027100074162
-1.26209301037578
-0.23079602952117
1.4282967294426
3.11137798679204
4.05290327250419
3.90378418380719
3.00864282010781
2.26221689185496
2.57697097123283
4.20610071031183
6.50787621034507
8.43967979865518
9.24254199130467
8.67164365157698
6.81900347697974
3.87499948093056
0.0271702320469172
-4.30725494165096
-8.09742759801925
-9.99605007218688
-9.48533793028012
-7.51934693415586
-5.66162187809496
-4.77176001964502
-4.76485326794426
-5.3046507778767
-6.30815764729729
-7.82162101103495
-9.58583245642432
-10.7655505468161
-10.2289143548899
-7.25320100174173
-1.9768443984961
4.70734893744252
11.4334734987997
16.6881082752051
19.4413303980232
19.7561774133737
18.6328867735225
17.1329585912885
15.623512248482
13.7798191891597
11.3186582154203
8.76450341349291
7.26574679972595
7.39172013959354
8.27769702921604
8.27465432498971
6.37367539618588
2.8163821857018
-1.43442757016327
-5.45696479196386
-8.7565538684537
-11.3073497746381
-13.3370342468234
-15.0584513711501
-16.6793195564948
-18.5397251413404
-20.9420483541389
-23.8516587665289
-26.9639030501763
-29.9754696781044
-32.5518431677869
-34.0500911433896
-33.4680799991269
-29.8171653377854
-22.6817957229805
-12.5225032815342
-0.517085172689604
11.6966905426113
22.0609271166995
28.4372277447749
29.7336525026041
26.9121696694121
22.5309069646417
19.1205982066269
17.9612063400821
18.9834384594404
21.3271338810341
24.0212162347812
26.4125390094333
28.0223483291379
28.1576382257031
26.0755261277943
21.6750433190435
15.7800247493314
9.62722824711902
4.20840025471805
0.0492458486427632
-2.67894898800531
-4.01553137938414
-4.20903006461202
-3.89831188066355
-4.12630457249432
-5.74381650211468
-8.64020634070745
-11.8321143656237
-14.4225576120858
-16.255682129139
-17.599751875888
-18.4621446402654
-18.4158743179252
-17.1359845989696
-15.0404911843148
-13.152752778811
-12.1515431651253
-11.8037909960955
-11.5699031454962
-11.3663857202894
-11.2050466357844
-10.3485670934373
-7.57190614927294
-2.50993754840684
3.53843967908982
8.35783807624011
10.4020233803747
9.71941333746613
7.48186507714504
4.89268858980236
2.77848682796435
1.93092001562777
3.13756718523729
6.58518189426456
11.4456555132018
16.0968769159815
18.661325523614
17.6965127218265
12.9655877256179
5.67523007630773
-2.23100981227932
-9.01359511330315
-13.4981332523945
-15.1774110828315
-14.5189047463589
-12.8725325127705
-11.4832249030218
-10.5313783020717
-9.29391104135655
-7.10921431593999
-4.07093939614934
-0.93594796850288
1.52688817338737
3.11643156427704
4.13301712804354
4.8204753305966
5.09265667908303
4.87355812565424
4.5228300598526
4.73157035620838
5.88259118412098
7.49989556000635
8.53239674341847
8.36890263013271
7.39388936323069
6.37466161052245
5.66402734828526
5.31542669111144
5.49493369312804
6.20300335962915
6.88824887458586
6.87891710416217
6.01135969467498
4.439248345663
2.07367839174798
-1.31380898260459
-5.48135549329813
-9.54729353313578
-12.5267154382352
-13.9784175421325
-14.1339687373339
-13.3932368711903
-11.7046846940148
-8.60171112148788
-3.9357717951778
1.63737419870391
7.03530112979184
11.3950441304167
14.2234718992859
15.1954375586752
14.1336077119476
11.2500315732232
7.27813760908878
3.14385314292983
-0.623596928736861
-4.02372634362175
-7.08171616318334
-9.55014689164245
-11.2847228511363
-12.4863065487461
-13.244027458654
-13.1997086990639
-11.9934220559524
-9.75463971351801
-6.94615898634559
-4.02565553916633
-1.33416432657729
1.06587494429033
3.44033661225172
5.8164114285371
7.38113760565299
6.93420371097615
4.05482617145448
-0.391436784198505
-4.80254110037157
-7.69107897214137
-8.2303547068528
-6.36236779271835
-2.47838353593921
2.93027532903645
9.0345891095905
14.1313338848874
16.0166658494984
13.5375056840994
7.77736642522118
1.3813932316745
-3.44799611580636
-6.32261356616244
-8.21603760640704
-9.9711712537092
-11.5049758657196
-12.3245154205795
-12.3045501261584
-11.6682074781667
-10.4187600304712
-8.0858627794499
-4.1529575068734
1.13190283993713
6.3325215944252
9.51001175152079
9.65013206495172
7.42717455088036
4.59746725112217
2.82084853415185
2.85910737414963
4.33624743637239
6.13609891307557
7.41896475940125
8.41165921535922
10.0840400455673
13.1442508201736
17.4286546763786
21.9922555731692
25.6431450145013
27.6755581542824
28.2507131083589
27.9096229592034
26.7532377484165
24.3208743160477
20.1428141322055
14.1349466845098
6.66219645244195
-1.3663662095534
-8.59042820089482
-13.8508059378378
-16.8658208170086
-18.1828783824245
-18.6199857207541
-18.8250336467458
-19.0570763849961
-19.1288198049477
-18.6552471072602
-17.4974817795125
-16.0233826056514
-15.0743419746646
-15.6939935969814
-18.5444767832536
-23.2133224144171
-28.0821298268708
-31.1459944048444
-31.3069655864071
-29.1366804996519
-26.3119641377543
-23.9536893065316
-21.4353124966552
-17.1454717119442
-10.5417363659938
-3.19614903797275
2.2670987337305
4.16016957851554
2.89335833168631
0.524844711292447
-0.887704587091047
-0.709898528541085
0.393230131416274
1.68023683796549
2.92719427873912
3.90698739732541
4.08816527242711
3.37601654740072
2.86414320818712
4.33881700274517
8.85839830344449
15.8425462985234
23.5359274894051
30.259106431198
35.1235695358899
37.7897163954453
38.1665138609491
36.5961484591637
33.7815905135035
30.1275208780137
25.5739749208288
20.3851829663052
15.5568886137097
11.9779507418413
9.52878088843344
7.33423160857787
4.63416076485447
1.24764015391191
-2.45890876360447
-5.80269087242158
-8.11517380067172
-8.99695776636994
-8.39993822187658
-6.7288040640396
-4.85659852340674
-3.66698731802027
-3.44830669676488
-3.92653333526377
-4.77637290185471
-5.74264845460536
-6.35890136926562
-6.0107880861893
-4.42010959800103
-1.88341379406909
0.975713150707831
3.50826663795584
5.1048480561854
5.2193866884504
3.55236553330278
0.253983868805251
-4.12348545811543
-8.97435739956136
-13.9849446258297
-19.1052260374782
-24.2238638391733
-28.9781387693324
-32.8103239975507
-35.0328683264181
-34.8732452455726
-31.6015662009436
-24.7105996857839
-14.323087481217
-1.92875979208095
9.44955261001946
16.6809686797873
18.6072010253367
16.6093805209935
13.2161710648089
10.3410399119226
8.38800035615441
6.38019476274414
3.07020652959634
-1.60227967361355
-6.21648651365159
-9.19806965539187
-10.1592039963953
-9.84381547257205
-9.25921033034921
-9.11849003830254
-9.67586163276574
-10.6225215854864
-11.1394164122623
-10.2862745660822
-7.54926201103457
-3.09189624023794
2.6382237188404
9.57117592025022
17.8968146687508
26.9107309545754
34.3015096454981
37.3080151547563
34.8527927420392
28.4379623877229
21.073983084804
15.3746527552376
12.1742006897877
10.4876523542239
8.83991263382348
6.69517701219752
4.49678843972813
2.61671429221096
0.805486334318895
-1.32776746207657
-3.68291842797747
-5.64940453040479
-6.71545781943115
-7.14483919981712
-7.81578408452239
-9.11813740719282
-10.3893466848798
-10.9845230251396
-11.5499623326549
-13.4433932378499
-16.8733515357048
-20.121611270013
-20.7076306110678
-17.2547166303476
-10.5246507790586
-2.88158458537918
3.42724267320042
7.64469932312854
10.2511256990895
11.6791095447294
11.6491090560298
9.65627148650916
5.75323862281931
0.866449717536834
-3.43765563935956
-5.6249078173078
-5.00655504054039
-2.08408437098885
1.84902938048037
5.42712822295774
7.77698601762703
8.77773209325257
8.9299486589969
8.8811132779705
8.93518278681273
8.81279249844014
7.78447913615842
5.29700714387321
1.73085939488875
-1.62255650294833
-3.54650909176698
-3.76293231116574
-2.83723630315491
-1.58567558217196
-0.700062852118087
-0.583041424802484
-1.21517066186357
-2.20739464409788
-3.11874583234798
-3.82084765328458
-4.64458451627471
-6.1373135904774
-8.53890946626221
-11.486953594794
-14.264728429766
-16.2117218491191
-16.9130912716998
-16.3396868932396
-14.9440730181649
-13.2762114432135
-11.2883587048017
-8.27221679383062
-3.70106470569011
1.9585251627484
7.31584745279844
10.8956602636944
12.1739069917868
12.1115827086054
12.4347554645155
13.9172014061592
15.5146725525879
15.6681846394548
14.3303299601486
13.1710694338268
13.7507356301382
15.8827336202845
17.8711142437596
18.026356006412
15.7344164688764
11.3157986305266
5.4574895203839
-0.89802639090101
-6.55177240756899
-10.6135033872269
-13.1263661086916
-14.7644796767388
-15.8539286872693
-15.880388040049
-13.9873416427276
-10.0323406615626
-5.35303816404873
-2.26455663346267
-2.25708153070527
-4.71440299321193
-7.80589808295984
-10.3688645879431
-12.3638720115131
-13.9059759718725
-14.7817803413938
-14.8594994397273
-14.150187618409
-12.3650762875441
-9.1295600014694
-4.88873775532615
-1.02922598008331
1.31440544744749
2.289664989748
2.82127738198797
3.31850165854283
3.42206683610627
3.09443879995429
3.28576632476033
4.87649232705527
7.25305306210911
8.73272070794208
8.46063326607097
7.23782591532169
6.36997838539421
6.35588890124058
7.00514547289021
8.32750414961685
10.7330438620656
14.3267638132735
18.3736536005407
21.7898717980722
24.0506707786384
25.1776089543224
24.8803841612891
22.4905681672962
18.1520353000109
13.4307464390738
10.0983054970798
8.58361648269319
8.01900985630878
7.48835259553444
6.78572929299431
6.07307832094763
5.16166851332164
3.33618924780979
-0.00537790959948589
-4.56480093416193
-9.22723154830999
-13.0545998321961
-16.030734602336
-18.7770843605346
-21.8240446814978
-25.2539212711464
-28.6829401166965
-31.3983460606661
-32.8292029654861
-33.0514834913555
-32.5933326128264
-31.7567013946626
-30.5042326101221
-29.0237380716926
-27.9246629505621
-27.5665881530849
-27.3046221271092
-25.5848762312901
-20.8438261251057
-12.4100644425311
-0.866409687834262
11.9990081044092
23.5156457548953
31.0194975341761
33.2192721094352
30.971321963875
26.6028049868184
22.4430126625616
19.8519724348514
19.0154268838249
19.0819838156103
18.7241666489265
17.2281442354855
15.2419783955731
14.2084928503452
14.9168636406049
16.6745771035995
17.9312327346493
17.5915455301877
15.5727799129315
12.2364030081637
7.79437032619228
2.55061289006952
-2.72128336208954
-7.20807289654423
-10.6788630041996
-13.1244576200339
-13.9363047593801
-12.2502683752793
-8.43691837526075
-4.75296284709406
-3.90065396087542
-6.68069310913503
-11.0863378514923
-13.9209277357794
-13.512801180281
-10.8575051284354
-8.24265254425865
-7.21404593084384
-7.94270158457616
-9.77476057740922
-11.67919415593
-12.4615144283532
-11.2931996218996
-8.27983624398514
-4.3548699382184
-0.534628184578575
2.76504786442783
5.78051681298265
8.84563907770928
11.8850932076365
14.5431418597024
16.6024095393785
17.9888733613243
18.5660241549615
18.3402567561224
17.7742162792571
17.5117240104186
17.7729999887464
18.1679815499551
17.9740361842953
16.4984360347637
13.4532215959152
9.25374045799023
4.84234027517789
1.00922857112018
-2.16389783924959
-5.28381709088847
-9.18016170277782
-14.226212992553
-19.7832153166948
-24.4371835656301
-27.1151668730183
-27.9057832309701
-27.5757727326194
-26.4979606749226
-24.4678123241953
-21.5877864697796
-18.8703169240709
-17.454766167101
-17.177163913446
-16.4005747427205
-13.5868745668217
-8.65263064423683
-2.3946133732345
4.8610270667706
13.1630511833774
21.5943501229594
27.9053514270112
30.0016396089889
27.7639163607459
23.2994837480815
19.2505922875683
16.6213304028918
14.2598786550705
10.570975175121
5.55133836529372
0.999418660097007
-1.03780815869793
0.0150611440525593
2.61036738118847
3.9724017166682
2.16996236132862
-2.29667377491695
-7.07635951556941
-10.1417307623964
-11.2369025978743
-11.423048735437
-11.6141235453828
-11.4821596614717
-9.56857572990749
-4.66074161943549
2.77401000865796
10.7166449327165
17.1471383201148
21.2445710727613
23.338494264474
24.1845166819093
24.0549713511864
21.9866180211349
16.1763396126185
5.82897287432511
-7.33916956948582
-19.9004015996947
-29.1647191257647
-34.7294787120487
-37.7680832545501
-39.1933291887132
-38.7565898739732
-35.7699445021289
-30.248221240368
-23.1275352647615
-15.6307231594412
-8.50958590578395
-1.45503016261739
6.78012288660861
16.7416808487186
26.246577326263
30.9625173013707
28.1435265247407
19.636826761652
10.5570846290657
5.13372460203295
4.11704607104792
5.51720889032583
6.88476603424339
6.98973813423374
6.1767905118417
5.51973421233243
5.51802813835673
5.58406499932016
4.81016548498697
3.03475142448475
0.979127856818517
-0.62163083999487
-1.86653200051222
-3.49152174044539
-5.78173089664455
-7.91239371898681
-8.53467500449495
-6.77909744507185
-2.55062859583868
3.65899135474942
10.6734785381538
16.5056038533259
18.9962293455551
17.0949959224035
11.6878304733291
5.04312381917654
-0.841171320670622
-5.41583993806107
-9.04209112317448
-11.6959003593999
-12.9415196243041
-13.1259554739671
-13.653595571613
-15.51805053847
-17.8824106027878
-18.5098176236909
-15.6244770317532
-9.36705335003297
-1.61937290953933
5.43498606488957
10.6489841574122
14.2027067744017
17.0205399518096
19.9204185941618
22.8529549547398
24.7096562278351
24.249794138946
21.5312324060176
18.1327109822496
15.7079852820644
14.6025717909062
14.0275319879285
13.1536640396203
11.7318938069614
9.88289117763036
7.5771778219145
4.45892770592783
0.319028364572439
-4.35472195778266
-8.67260310925665
-12.2007950548846
-15.1024455822284
-17.4140321153097
-18.718658805366
-18.7339513982626
-17.8878228774218
-17.1586841930471
-17.4904851504123
-19.3294447618427
-22.5299969644029
-26.5675347917922
-30.7143014581788
-34.0767233165805
-35.8965073479293
-36.0748288610343
-35.1127704877378
-33.354486375285
-30.6217731989053
-26.7546763483619
-22.1455047939596
-17.5330340352916
-13.4808944165563
-10.0008514420603
-6.26954160804873
-0.765462116043466
7.70142591155166
18.7771093904793
30.4830104752756
40.3109845032927
46.4357090413277
48.3792960440014
46.9101383055127
43.1167451462892
37.5239955285113
30.5262161423748
23.6174151564927
19.2513180028654
18.7399297959328
20.5557219558087
21.4828569399194
19.8095580397775
17.0308000867474
15.8947862636941
16.9852399535915
18.0092675422492
16.5178154419008
12.4275422898654
7.53850241690174
3.46578907648474
0.576622342028182
-1.82511692686882
-4.96754010428853
-9.76892792592866
-15.8295906634871
-21.3459703828016
-24.3830632668095
-24.2919840721842
-21.8960037747539
-18.4939809824574
-14.8684424757723
-11.2522808255157
-8.00514691548944
-5.8709474182212
-5.30175332676807
-5.79493423071647
-6.29517876370826
-6.13484685032627
-5.28069693667382
-3.90410265505892
-2.14372992585222
-0.13675616669913
2.09951083914725
4.70092770481012
7.56705017684071
10.0092208377669
11.0133500330311
9.94039009210661
7.05122578614315
3.39233111560395
0.0321864955829602
-2.70113590071287
-5.22706790949933
-8.15487263970903
-11.9828781781283
-17.1262093814821
-23.6782690739908
-30.9818576807625
-37.6764346425108
-42.2400057243144
-43.4485380783068
-40.5719738068507
-33.5556736869934
-23.3043025314242
-11.8771355080895
-2.0897734622537
3.8043301113986
5.51887798183217
4.76499727127414
3.94980360025598
5.17905991897227
10.1159961344883
19.433421730294
31.599578106842
42.8916191572215
49.6061964095319
50.4702958428197
46.9015792542697
41.3096212400697
35.2736224132645
28.8821405563611
21.4331626581181
12.8243021968387
4.35730096405482
-1.91178490964878
-4.78153302045829
-5.00617263786655
-4.7257069122689
-5.53967505046175
-7.143764713917
-8.13884474869872
-8.01892216265089
-7.76639004187857
-8.45871728134625
-9.94601107404791
-11.1415784222494
-11.1424285784488
-9.827999847096
-7.69837035577574
-5.39539609451118
-3.34538206472408
-1.79201199753704
-0.987871119027109
-1.01439156467805
-1.3523404255251
-0.951524518421605
1.02377533952876
4.47719290002555
8.30396705897952
10.9362334336828
11.1770799574203
8.88089626111345
4.98687547698098
0.82169256768736
-2.75493643410824
-5.75432241707531
-8.91954670969186
-13.1631441412776
-18.7438943434698
-24.7232545262053
-29.2918825944379
-30.7918561909737
-28.6591297607451
-23.6950478349859
-17.5026496760877
-11.459803240072
-6.15505126364033
-1.74267297613107
1.61641494033528
4.02925142949476
6.18548675267458
8.81111619372688
11.8835152451283
14.7643577089578
17.09231825914
19.3075124185764
22.1590780862279
25.5796823953357
28.1439198535813
28.1174348537987
25.2632147872271
21.2189384709411
17.9053554728882
15.948158518543
14.6728218826475
12.9857713034443
10.0369752086386
5.63891388109194
0.468110448366743
-4.42206332635298
-8.54886192961956
-12.3058543805087
-16.2678561579786
-20.4395359966291
-24.2660716007226
-27.1548396303346
-28.8483601217951
-29.3421098036474
-28.5218898463077
-26.0477912154835
-21.8318027452749
-16.6915312947137
-12.3487051673484
-10.4385830542274
-11.0784165447667
-12.1912434496168
-10.5995162288988
-4.44592788288242
5.08717596840086
14.4511888534317
20.3080338007492
21.8128210187158
20.7421702638289
19.5732708427125
19.5327674658214
20.4805184998158
22.1298691892599
24.556720066481
27.4628143246814
29.6985508277556
29.8574325458849
27.0091167852897
20.9241064911668
12.1917401797103
2.18705963658948
-7.59902011823782
-16.3247358383493
-23.6804729041423
-29.2430890967719
-32.4166282780657
-33.002391188786
-31.553665351396
-29.1869470283336
-27.0664425453261
-25.6860634958807
-24.3351976904711
-21.4976306333045
-16.1286249973092
-8.60472631662532
-0.444964211044273
6.84294678448834
12.7933842005991
18.0294346336548
23.195789951594
27.8275110815328
30.4606533405735
29.8682925702988
26.0866421838561
20.4260946880804
14.7037804481287
10.2544652924513
7.34162246047549
5.4104545827998
3.7807747620757
1.96383036969409
-0.361147478106357
-3.12051806800897
-5.59274540752785
-6.83531600573621
-6.56867167980675
-5.56542593297067
-5.1347813698027
-6.09538703019095
-8.03592218339476
-9.65793150353035
-10.0467527962337
-9.45191159557445
-8.65317368734495
-7.95224126892871
-7.2179718260521
-6.58638766592478
-6.44106783485739
-6.67200944701523
-6.48805559199393
-5.21996159914783
-3.07469473085502
-0.843351680843978
1.07583699130688
3.02447239833543
5.18949789432114
6.66928556783038
6.17098566543995
3.88480599925697
2.13009536617512
3.62547627837166
9.00674535165712
15.9436146408392
20.6608493154137
20.6886177585313
16.4447811389186
10.0881572952195
3.0861156257519
-4.44709501516133
-12.1790213172152
-18.5195298064699
-21.8030183005273
-21.9465680655727
-20.392257134723
-18.6741326413305
-17.318405222693
-15.8311942708377
-13.3650103666369
-9.40704801125738
-4.06525667291616
2.12284832970809
8.61644108833239
15.109959783997
21.2334692788478
25.9805293077198
27.8454081331427
26.0653004656904
21.6352763678414
16.5366548664883
11.9203235047877
7.57568570400789
3.16617033535982
-0.833312752041632
-3.79086589650724
-5.8570458685357
-7.68015886931176
-9.4139240033859
-10.4247028807391
-10.1130455420408
-9.03687997289149
-9.00368369541153
-11.4950567038459
-15.7183420701612
-18.6479892372571
-17.5957614953183
-12.9065758711133
-7.94673665003606
-6.2352869767709
-8.46247495070807
-12.2464500089317
-14.6198821811
-14.4521405015613
-12.4971942107888
-9.72569739367714
-6.18971588511399
-1.39377937671125
4.68651678514416
11.2176459892592
17.2673999158821
22.9337049134387
29.2810054892782
36.7223894302849
43.7382398405852
47.7858903929031
47.4702819283995
43.4082980600794
37.067215657629
29.4087504085021
20.9413234724973
12.5235797238175
5.2842458655859
-0.530914658217695
-6.19736498979232
-13.3615861103689
-22.0746122478696
-30.3236867772416
-35.7385993397799
-37.5469926758217
-36.8293188939092
-35.3355663068416
-34.310438053068
-34.1049645821647
-34.4987497224334
-35.2264263810914
-36.0173720935316
-36.0129462796657
-33.3961771559707
-26.0948427668242
-13.4013569572615
2.64840088107124
17.6571003452159
27.5293104335563
31.420064132947
31.8041365030652
31.4965900394697
31.2530904166138
30.3903288757546
28.4304083753287
25.118440789193
19.6901085318959
11.5536240661769
1.79701557247732
-6.8138293078405
-11.7313177757423
-12.3934798742227
-10.1852038981097
-7.08784673761038
-4.67491399114966
-4.087786219378
-5.98888381111195
-9.69332572585888
-12.6464875109123
-11.9612335990603
-7.19497377825346
-1.24900207196643
2.03366703215196
1.21581893061997
-1.77919923824632
-3.73539679656506
-2.90475282159873
0.144886175124567
3.89664105488053
7.47665602018665
10.8207092391909
13.9873476217279
16.9225630489207
19.5750359322951
21.647632323115
22.3886308014208
21.1786370574819
18.4112389381865
15.4972269459102
13.7578009983961
13.1444698642135
12.0450716642382
8.65873657514589
2.77515697092378
-3.95653511411927
-9.50836514266389
-12.9093510354673
-14.3583041791084
-14.5663903273794
-14.2077448344403
-13.6461965543969
-12.9909464878412
-12.4500093070908
-12.4137156702764
-12.958488907505
-13.5338653799916
-13.5505956762692
-13.2089131925357
-13.4279249641048
-14.9188960930455
-17.4013158747749
-19.5942634768795
-19.8928037810849
-17.2791909837785
-11.9020924414847
-5.00519376924658
1.65208287106478
6.6072806771937
9.40383837329117
10.62603956978
11.162800137702
11.6120043997497
12.4351246910058
14.0908946677297
16.5108458130012
18.7892695430676
19.8525013282437
19.2059033336006
16.79078498062
12.5954962410299
6.90686255409293
0.708043062898146
-4.64608795783595
-8.27512514669177
-10.2970971781864
-11.5818173182552
-12.9777454132219
-14.7258914374834
-16.564325215338
-18.1753186706409
-19.304590952623
-19.5860464334098
-18.5639514068952
-15.9077134891383
-11.4728238589203
-5.28803251524722
2.2568885633179
10.2124163555364
17.2278051885182
22.0691726810588
24.273382723678
24.5296767131053
24.1491220398691
23.7450118837296
22.6070388794153
19.7360157604183
15.2339702469565
10.224558961047
5.60971119170697
1.42758534451185
-2.53599861755856
-5.94913161308796
-8.11045889698305
-8.87035950267341
-8.97497287236554
-9.20985257504773
-9.39308157639213
-8.48566866805205
-5.54638624697744
-0.400530684520604
6.31782032974344
13.4324189369006
19.6785428171082
24.1239141753543
26.1515191582823
25.3020787681142
21.6198217450231
16.0077725023464
9.58431918471063
2.58944037135583
-5.61589387680764
-15.4231382114653
-26.2025032498015
-36.5866058609741
-45.154282682671
-50.9128335389786
-53.5327710267856
-53.21392139765
-50.1498783430653
-44.1529632036944
-34.9321360754942
-22.7060841381554
-8.58813441533609
5.49047703907303
17.4592681026364
26.185931102663
31.9866596411667
35.8954230288602
38.4896921120814
39.5417464584484
38.5596422980385
35.341077128674
30.0764263649829
23.2531655273572
15.6557745679821
8.3294084367756
2.16534012655147
-2.76546419677487
-7.33733208599069
-12.5046319165338
-18.2448920120916
-23.4195283562971
-26.5146003431096
-26.4701640050094
-23.2575645786487
-18.1195324305553
-13.1072836007357
-9.95567061448414
-9.13227585379598
-9.71617420226295
-10.0185844333793
-8.57337107025729
-4.91069179187762
0.607993791125592
7.64132921208877
16.010906102276
24.7370449045664
31.6250147104645
34.5870668183224
33.289939789521
29.2184978197797
24.4578910090541
20.6198127829294
18.2649366073154
16.6444413830635
14.2164785251187
10.0327526266712
4.74725780280369
0.020191123882429
-3.11674308176996
-5.0835978516156
-6.87732662000691
-8.73155187456222
-10.0629851603994
-10.5829393148908
-10.8837226206957
-11.8299021839383
-13.8226926078401
-16.7155518175022
-19.9375770854527
-22.5775627097569
-23.8461120984671
-23.6994317705844
-22.7614532999783
-21.5388274110981
-19.8798616602619
-17.24120021314
-13.4293476652975
-9.03123469143613
-4.90962585175502
-1.16017487882804
3.08473884918096
8.49929626032692
14.5273492776478
19.9071645414252
23.9752311075627
26.9963614096887
29.3718811717834
30.9784856289601
31.2559857633685
29.6523377961528
26.0299229464433
20.8206983913878
14.747631439098
8.37223760145072
1.98516895550895
-4.21659978243393
-10.0710255277394
-15.4400648984525
-20.0492245946155
-23.4926315933689
-25.600899708284
-26.6542799481419
-27.0205288500462
-26.6250531425057
-24.8664277918123
-21.0505101294234
-15.0113531272555
-7.53026793074004
-0.260260204863728
4.86790760126983
6.49594757950895
4.54249841493402
0.300616345081386
-4.2214333967808
-7.15935606658901
-7.2776285287435
-4.34289595402399
0.441422448416666
4.89532506193463
7.67507108499117
9.61400537790545
12.5715544789114
16.8944731147811
20.6619751300802
21.6933874952992
19.9001004500094
17.4130676635031
16.5972683595963
18.021218954135
20.1011114182949
20.5092823937241
17.9963330312069
13.0817220050984
7.23807707936197
1.54296112467172
-3.89854311619217
-9.26550831244233
-13.9468595084837
-16.6238346400776
-16.7090747131072
-15.2733856521624
-13.9902515095738
-13.380415440319
-12.6428480976221
-11.0684565298511
-9.03086992597584
-7.54834241367455
-7.36123361000614
-8.62345288967277
-11.1331066607677
-14.4002837528516
-17.349624889533
-18.335847598525
-16.1170775766652
-11.0310532176949
-4.72821241421062
1.58968427950919
8.23153732031252
15.861264309999
23.6019996845583
28.9562269048924
29.8062902448037
26.2713321453441
20.4900031368104
14.718066431466
9.75005991312296
5.10432249927491
0.444133810659771
-3.52978172974086
-5.67436982244105
-5.70043470118472
-4.7325494831267
-4.49088901901892
-5.73532406312399
-7.5308756142188
-8.39310565645932
-8.21434893481073
-8.56331781446022
-10.8262454525339
-14.4601965325524
-17.4312062366189
-18.1920147085084
-16.9948023513841
-15.3215214108117
-14.1641613581568
-12.9548465236056
-10.1778842615644
-4.76925030476723
3.27007950488411
13.1254374549954
23.2585120779133
31.4040746562029
35.4531500321691
34.8335503384623
30.7122427656522
24.6719734372176
17.5131975433018
9.49519487185202
1.3509044866938
-5.4387004034575
-9.52784346700747
-10.7223691056053
-9.99166409945835
-8.51969597226416
-6.85443249177318
-4.94779212872114
-2.82595114098083
-1.09145632675776
-0.774766911426387
-2.58801123121622
-6.12482313784865
-9.8691261423047
-12.2603620746331
-12.7559969886614
-11.7798291690422
-9.97464369556169
-7.85925975459412
-5.92660567389182
-4.55853313163043
-3.79741100666161
-3.38523890857992
-2.99247378809336
-2.35313721014411
-1.30486452663758
0.158157420791929
1.77020866321659
2.90376307278839
2.85535633972101
1.59432739701357
0.161770952971876
-0.0666565072831138
1.40068108963728
3.83076959557949
6.01225297603931
7.19216494834982
7.5169019871069
7.76213800394166
8.4337381018754
9.01774316184704
8.37326220394143
5.98099469109233
2.56783846303303
-0.562188608707767
-2.54829247578285
-3.29897478947391
-3.18633392751925
-2.6587963966203
-1.98948991622878
-1.17948152400202
-0.0205481639716845
1.78881802181537
4.49654192128235
8.02057772580527
11.7446468478928
14.7496316700194
16.3465226377708
16.4327492686338
15.496675256315
14.3266474153912
13.4983685510427
12.997707001428
12.372332623787
11.1544190312375
9.01066228844765
5.69532453964361
1.20051673280519
-4.00928679122685
-9.06168629341324
-13.091374660157
-15.7784800316532
-17.5890361647443
-19.251595358107
-20.8463400149063
-21.815745724379
-22.1782511101134
-23.1844942750636
-26.060429436461
-30.2151020817338
-33.2482275907946
-32.8633058042848
-28.6358161577712
-22.0718792949088
-15.313964797643
-9.89079667991701
-6.39154087596147
-4.74399328448656
-4.25972325256605
-3.41638935060411
-0.30479810617538
5.95835270048248
14.1134542231937
21.2494226246383
24.5435235554732
22.8105090009303
16.9324655837082
9.2156709741839
2.28320285175076
-1.89617800971507
-2.64153067000507
-0.693263498568858
2.53815284359045
6.18470113070363
10.1129934301853
13.8423646298912
16.1576020521983
16.4517207996736
15.7879311380348
15.8676794108426
17.3510406275877
19.6713180995478
21.8869707873551
23.1050249245594
22.6109849792241
20.3302857795327
17.0390511315787
13.7163709224452
10.7230625620039
7.75279641976252
4.49540548390872
1.23955429070887
-1.18810502307779
-2.05922928720966
-1.26994176570184
0.69188281364703
3.00123784893288
4.62234714322749
4.61916050298095
2.70400833713681
-0.783775917070154
-5.68093511932168
-12.3599509826654
-20.9013157469369
-30.2110856828455
-38.3367262359991
-43.585318029557
-45.308247520194
-43.8723885823478
-40.044512405229
-34.4455447899732
-27.6924210064301
-20.8396941592273
-15.0251762239591
-10.3973153643976
-5.84363989964895
-0.188415019572118
6.47987179101166
12.8488240442319
17.572044661624
20.2333266002401
21.2727883263522
21.3563634670426
21.0889292124164
21.0555828771021
21.5100427302505
21.9742935220855
21.7744448973501
21.0869942513709
20.7365158426014
20.7229875244812
19.7147761520433
16.4860316457069
11.3668574354905
5.84412956864079
1.11978574381578
-2.48828644459761
-5.03134582439901
-6.50774108588731
-7.21222912266365
-8.15117916063609
-10.4752353009896
-14.1091640543499
-17.2035018631535
-17.5161198802656
-14.468161169867
-9.6255985414439
-5.28385621804818
-2.8267708705868
-2.15678299470927
-2.18928625323681
-1.86126466288927
-0.929838032647622
0.0329023952269195
0.224496806106907
-0.889218383791726
-3.25746305234816
-6.05627154101842
-8.15769158685073
-9.23805767107433
-10.1227663881798
-11.5877890507915
-13.1630533901714
-13.6758143657953
-12.740022181927
-11.0869285936173
-9.41492198497858
-7.46442292607989
-4.54328161693523
-0.692229910292842
3.10977988495368
5.88345820449579
7.38318465441531
7.85316810562
7.61242929795603
7.22904147462725
7.67064508433223
9.69974841559462
13.1425406428421
17.065682814879
20.6335020660543
23.571625124678
25.8499081218019
27.1364176015198
26.7495240598903
24.3872398454028
20.9454422630859
18.1206206874814
16.7479349178284
15.8003017897594
13.4296421295792
8.75197250313652
2.32937312294613
-4.62918436392627
-10.9562681626115
-15.6671434858569
-18.1564844397879
-18.624242270794
-18.122754409704
-17.8025737937279
-17.95652018311
-18.0133527582352
-17.5661293483873
-16.9737000376323
-16.6113367459413
-15.9817979664909
-14.1268703119924
-10.6975763190906
-6.2314180637314
-1.6569156910627
2.11709218088481
4.41471923958298
4.99044413520179
3.95812638208793
1.51359746510485
-1.96444554825021
-5.52192190320625
-7.81542123172594
-8.02087648682697
-6.50753145729732
-4.57970435153723
-3.50680581411052
-3.4776891109265
-3.33928564286606
-1.72528081466965
1.35534578639293
4.44756060173303
6.31770237669056
7.1344566988495
7.66660660814477
7.83086053311701
6.59058770908652
3.18529575318273
-1.85471641545959
-6.91543002666007
-10.3706235120139
-11.4640598475587
-10.3866182267238
-7.84880890830881
-4.67497055683318
-1.4881147353661
1.51308921657499
4.4405003621141
7.36187969767709
10.1854066677102
12.7986147868541
15.0551776351588
16.6669940723939
17.3623857841546
17.1569495645481
16.328901715313
15.1538379758496
13.7043168355236
11.8089573860504
9.21179382933556
5.94509901459363
2.52999749423053
-0.43655220197084
-2.89161937742873
-5.20086289919779
-7.44493707152752
-9.22903363066122
-10.3356010027972
-11.151263088869
-12.1172673540563
-12.9453842740035
-12.7504081779349
-11.046245952885
-8.36699559987748
-5.69887416293646
-3.45948178387173
-1.28457522956029
1.33030567000727
4.4501486575557
7.55898407299764
9.68193780048867
9.9172994933015
8.29643541204256
5.98203433097683
4.25265513237837
3.3710250581604
2.63425636263561
1.33202337320052
-0.549565644685826
-2.43912512208783
-3.87133360060177
-5.0642785603954
-6.65301534239566
-8.77472426558985
-10.6993655266107
-11.5242059842216
-10.9578308425259
-9.29473034283081
-6.96674658551095
-4.34700248712382
-1.75755000683788
0.557105566081482
2.4131169624672
3.65686521922589
4.28705333918438
4.50925148256805
4.45504673416626
3.96593112043727
2.92280466654559
1.70327068368497
1.00376345999078
1.09352958053254
1.33671509081241
0.641401467337589
-1.40487168787735
-3.86084051678869
-5.14033433037439
-4.44909898735086
-2.35834728073515
-0.09657609868009
1.36850836063868
1.65727346213497
0.923113352696798
-0.298428956255744
-1.35036542588175
-1.72439766716464
-1.24969197493439
-0.248553190715098
0.59048636920215
0.842577307984357
0.816857200079042
1.10046832087403
1.76246743697092
2.35075947513431
2.536392234894
2.41890927854205
2.29911513126363
2.43393748240853
2.95844376545173
3.85287541323168
4.9627229806284
6.02978436889787
6.63095534794803
6.26259626219608
4.80995035002054
2.88944542162769
1.38333348819359
0.596105437000568
0.117085983693354
-0.499415330852931
-1.14574810327375
-1.23008376515798
-0.181483415196925
2.04279941620791
4.82202494150977
7.31303905532235
9.14774280837507
10.6755987694208
12.4449831228185
14.4542917482704
16.0106694534474
16.3642835755524
15.2805772726166
12.7496589845933
8.37630753216671
1.68396295749903
-6.82296663016778
-15.4296208192925
-22.3734272775587
-26.9755363586784
-29.5006705670608
-30.3055236972038
-29.4299859470554
-26.8370398545224
-22.7502342557321
-17.6292956866122
-11.8151727431819
-5.34211557960514
1.66360692186013
8.30984546905152
12.7643125798832
12.9105703411175
7.48226109692124
-2.93978045774842
-15.7328848618077
-27.2483954757866
-34.5054581974747
-36.3143520161212
-33.2534331226321
-26.99316952563
-19.4218576065493
-11.6978769765106
-3.78370929816565
4.9846050786577
14.8328886252821
25.0207617311234
34.0893978046985
40.56212422571
43.8169598177509
44.5298112174762
44.0079199876255
42.881805685218
40.5737754177603
36.1064990842479
29.3506264732113
21.5337624959084
14.5604424053204
9.63060766432776
6.37606659226788
3.38729425718908
-0.484660766105488
-5.39111218613153
-10.6794190025259
-15.4585418498511
-19.1647485653143
-21.906189996626
-24.2043236286481
-26.3006518281639
-27.8658921667564
-28.3565673456207
-27.3324881537441
-24.4515050543295
-19.6752647968154
-13.7061858241173
-7.82086235185907
-2.95484557572207
0.887506847230321
4.21243580195361
7.27751827111408
9.93894950483689
12.1314594732442
14.2161613177904
16.5894866339408
18.9498030437398
20.2839036532035
19.768199181736
17.4394639364562
13.8254386988738
9.2319393485819
3.66471431268199
-2.72493684563578
-9.34575717656735
-15.2719295682088
-19.5895948598376
-21.7380632038177
-21.6266691147952
-19.5649627483927
-16.2021050209868
-12.325061477552
-8.31566822073385
-3.82155837030155
1.67550126660311
7.91923759850973
13.6967510816427
17.4708220685064
18.0227999902987
14.8187088780613
8.26311088649419
-0.335400905776879
-9.23145364207163
-16.7198861455297
-21.3225052200081
-22.0569207422324
-19.0016604763276
-13.5703001892333
-7.9100915589844
-3.67566630288245
-1.00748691500289
1.44202277393829
5.1836009179276
10.2944358200441
15.2233241928599
18.2646367010903
19.0114564923287
18.282579648052
16.9745404155087
15.3329929743989
13.2568785053104
10.8934995548979
8.62078352883849
6.59696614542576
4.74477094359595
3.18514602105481
2.20572613969142
1.65216901659516
0.794653085283491
-0.992545494504636
-3.7138525210178
-6.92910094126885
-10.1072015577415
-12.9241516966581
-15.6049211996884
-18.7132915620678
-22.0849334762346
-24.2583901629379
-23.6140342890999
-19.9685560153146
-14.5773756428092
-8.81687084536831
-3.4847841238246
0.754882775621123
3.09492275895479
3.2503982306124
2.19431877876988
1.84488756215804
3.76786577096961
8.00801872435058
13.1065323981831
17.2440491225682
19.3692350405038
19.4203736553076
17.8824363293987
15.3535392055938
12.3826512788602
9.53671252324659
7.47555431296736
6.63601336256055
6.61865489463385
6.14726829544763
4.03814660143369
0.292955321722586
-3.82263044707436
-6.76566657101248
-7.87927920389035
-7.74935571200006
-7.42106435382191
-7.34034404821385
-7.34029715799648
-7.54145370720757
-8.54228232962524
-10.3346499854
-11.5258222938148
-10.2638253743202
-6.01604533467675
-0.208871402168896
5.02497485569991
8.68726781800244
11.3906635534216
14.1067775378947
16.8425830173818
18.7262600271948
19.0073312001461
17.6208513002842
15.015570399836
11.7897139882235
8.37172144162022
4.81040397835578
0.977559635832948
-2.96775189940872
-6.60305265794378
-9.7809681905329
-12.7453675352417
-15.6149233374851
-18.2001067932437
-20.5522246954927
-23.3581615541846
-27.394604382014
-32.3885202806396
-36.4525395829152
-37.1610755120512
-33.798032365458
-28.3314240018076
-23.4128672095406
-19.4447827187557
-14.4039337072115
-6.61039651470924
3.25586721448447
13.2817039604161
22.6090629987812
31.6527667044231
40.1707120528704
46.106662554074
47.0714880485604
42.7756331770815
35.4702028022418
28.0548921663531
22.1578998000088
17.832354913126
14.3507972822874
11.040744876319
7.79376486878935
5.05206297975855
3.15274580108608
1.68177182651839
-0.263896046285701
-3.18702134191677
-6.85898796517764
-10.8426085051028
-14.9490454876808
-19.0501830022511
-22.7691651469359
-25.67180807035
-27.6964099492648
-29.0434492311761
-29.4445118679708
-27.8652256323185
-23.4438897544901
-16.6882953276238
-9.2657163396765
-2.54621267886105
3.26444403075363
8.58605988668229
13.5793265124559
17.9182740040328
21.0402391721518
22.4270991445442
21.8134783319958
19.2520483477635
15.1016239882032
10.1803595014725
5.83080539525097
3.31713233531728
2.87739333829876
3.52170086647055
3.84774021169939
3.02215559729434
1.17446067625157
-0.879640271746977
-2.30865881004995
-2.83586294184327
-2.74621300366799
-2.44347220077934
-2.14580581586482
-1.9950104549914
-2.29660980436127
-3.53335438400708
-6.01390500378226
-9.31880591440592
-12.1597629355021
-13.1699023965884
-12.0088757863553
-9.5401088955009
-7.00230655928039
-5.28188226753288
-4.77193209290724
-5.35366012176359
-6.39773205300092
-7.10055291939846
-6.90477326932817
-5.53850313221361
-2.90499325526222
0.758645852028071
4.6954181748935
7.87419805321254
9.60706928921215
10.0637185873184
10.2004630199834
11.0031761855543
12.6755035817591
14.593511624142
15.8977337325833
15.8885058804419
14.0919136399631
10.5200452043198
5.95295952344924
1.51176826259741
-2.27282351618897
-5.74322125484344
-9.30010825298927
-12.4666756293929
-14.0227736962142
-13.1527281022466
-10.3340978038243
-6.92014989278291
-3.83401086079778
-0.798122737420231
3.1556762803196
8.54569387648536
14.6715928384563
19.6559289491308
21.4122294605733
19.2038072513314
14.4513812678914
9.62239124488742
6.17864723659596
3.82566475340152
1.58786287768461
-0.980186215450831
-3.7945240026554
-6.90242374583042
-10.5939986790737
-14.8606660182879
-19.1956454734454
-23.2453720007516
-27.3087147637514
-31.5416611190121
-34.7472128320833
-34.8162041212516
-30.780596880645
-23.9376573624151
-16.6311120035971
-10.3012603084245
-4.84257593560975
0.697886234667419
7.12347778702382
14.42770324128
21.7219912497442
27.6933312427703
31.0890608049847
30.9859992186558
27.2617439814978
21.2574861393447
15.6038532469689
12.7012809888573
13.1141593446246
15.452995401052
17.6223260234811
18.0644477318253
16.1958687132659
12.2841342806793
7.18309942593872
1.8995194372003
-3.0900569772664
-8.22542815188706
-14.2328354612152
-20.9462892996606
-27.0238929630125
-30.9255226970682
-31.9357816980725
-30.3492760624151
-27.0939985997435
-23.0755502482685
-18.4225841066674
-12.5063564449084
-5.1440278693771
2.49882068473524
8.80519281585527
13.3340234268983
17.0069351367168
20.8109208786757
24.8068742504615
28.3126196425819
30.5358959466562
30.8712347618251
28.9007968189691
24.5284212843532
18.3377611422765
11.6603755635983
5.86883633901519
1.37863350685963
-2.5283841901168
-6.8196937661258
-11.7772025173407
-16.8514130381361
-21.0722988206763
-23.5399998134794
-23.9199355797004
-22.7210133117261
-20.9484662227163
-19.3545993563057
-17.9992068177283
-16.3718645244422
-13.8480853016137
-10.2364342711566
-6.05616957122703
-2.24024800118492
0.418939057519636
1.56031739767814
1.35994349695675
0.629254958630753
0.505704502555134
1.59790642666715
3.45267874975234
5.10427539871352
6.14739660585225
7.12122259301521
8.7823277972306
11.0684628991763
12.9676900359494
13.5350833247962
12.8267889590132
11.5984685198209
10.3826579896788
9.29897291098759
8.53610145866659
8.42536607332114
8.9644050612962
9.59284973207843
9.52642402380905
8.28512483114178
6.11749010804409
4.07610339809262
3.43464758935931
4.69444015193958
7.05310519243356
8.78143635634222
8.1329095335348
4.31821855212127
-1.87726299165248
-8.47689404070602
-13.6827290054731
-16.9524468393303
-18.7693107412701
-19.7286872063986
-20.0568711370244
-19.6921649797371
-18.4874371449186
-16.3439673595304
-13.2636352735477
-9.39161958203427
-5.199714611786
-1.59866671319712
0.513980510730986
1.08354780528213
1.1258836545344
1.86178418355186
3.50850360448175
4.95057437415569
4.75216058278293
2.60178320800589
-0.386686113643042
-2.87649436594245
-4.46406943624559
-5.43970598104993
-5.89177678516443
-5.52657636834788
-4.08173605848084
-1.4740518630332
2.27049182441161
6.83603102276606
11.3644705317968
14.5281587279763
14.9518147753723
11.9288991789916
6.16476258635022
-0.324774372428058
-5.53873958223381
-8.75227824656952
-10.3009733307189
-10.5193122446323
-9.40549850683346
-7.09626465427844
-4.14247975933151
-1.28068863623693
0.977529391981357
2.75041442420187
4.81491115167956
7.86697950219094
11.623382183035
14.932538485991
16.8831207203693
17.6271614264202
18.0719273588328
18.8919182927339
19.8594305145312
20.0523240648093
18.6308775579399
15.3647894513777
10.5876178328548
5.05007090728879
-0.0989124896473435
-3.67375594871902
-5.23308559669362
-5.48783207405536
-5.82423039956615
-7.37797171064817
-10.3430336003788
-13.8870312295123
-16.7422881713035
-18.0984527717341
-18.1038938506659
-17.6806003703975
-17.9653504862357
-19.683445948687
-22.5915128275545
-25.3872557066761
-26.4152236883581
-24.6448756644959
-20.0379153007045
-13.2579028219088
-5.33707943357855
2.49069538431257
9.06421542799202
13.7654788798774
16.8712532756637
19.3092796668462
21.7283997371474
23.6864280678949
23.9625543928438
21.7355973789339
17.304215773373
11.8108484515037
6.67070328244486
3.21044995842241
2.29185455148235
3.89146768638643
7.02606960933695
10.1569635091251
11.8537764140554
11.3885596429662
8.82152762205883
4.53384295771847
-1.03827370498498
-7.08549663830287
-12.4647934788222
-16.6983866762444
-20.6003045626022
-25.1873260774176
-30.0248702441507
-33.202783266125
-32.9565716040086
-28.9273746082546
-21.9640601058991
-13.285982674415
-4.01445544364773
4.89132567468046
12.6528009092887
18.7930453090683
23.2671899784084
26.3269943379323
28.070815448516
28.2090250204134
26.4426550127968
22.9701739019967
18.4745555704751
13.7403695127929
9.42489550435701
6.07511686864839
4.12167990862528
3.66438176110472
4.20878188564598
4.81413600335098
4.74906676149477
3.92060291972978
2.51456538082056
0.507344633784574
-2.16409637376117
-5.29656983507268
-8.74974696728714
-12.8609219752966
-18.0909325574732
-24.3144780691543
-30.646164888779
-35.8288816954582
-38.7329600134373
-38.7460692052326
-35.8893033621432
-30.5755329963566
-23.3052172379115
-14.5695838029568
-4.82339163898308
5.50560565456192
15.7279298477137
24.6021751105962
30.7581371392318
33.6029868376186
33.524403006491
31.1400458691726
26.7438246518168
20.637458555312
13.6842782933365
7.29645911539789
2.8368957966018
0.895483428909012
1.01816567866609
2.15208611820821
3.31084872246302
3.80575836146761
3.18144259781054
1.35836037704329
-1.12599010032104
-3.27179489532508
-4.2920065417806
-4.39060017382025
-4.82780140925686
-6.75211140696579
-9.77484082071853
-12.1612691031342
-12.6570469688258
-11.5812553474729
-9.84570059450441
-7.57566689205809
-4.25326174332474
0.18533688818098
4.95549316484395
9.04756947365715
11.9561654078632
13.7778585691389
14.7358751080276
14.7825223918981
13.7880582817218
11.9608626138087
9.75505735871814
7.39572595096654
4.88456805766875
2.49858930831815
0.772219826787358
-0.26164864128478
-1.45211550180897
-3.84301035644692
-7.67046334353404
-12.0810333701385
-15.7599519136761
-17.8701762480057
-18.4222452188227
-17.7523977112593
-15.9081375387541
-12.8163806646718
-8.80774043529781
-4.55081335685129
-0.535450261730409
3.12148105279865
6.47695532102627
9.53762733115526
12.072664424882
13.5625352136978
13.5082075985899
11.7977215736466
8.65408822996717
4.41435161636848
-0.451342672600792
-5.34190318499195
-9.720480413902
-13.0774477341154
-14.6934579434305
-13.8863886624335
-10.7055415683653
-6.17773899385464
-1.7839990757573
1.27130848351821
2.53003570508747
2.35631959135723
1.53008017245372
0.620230412568803
-0.26227440262748
-1.26504626833501
-2.62714410941091
-4.53809458782421
-6.7306737434302
-8.32078032740303
-8.49991409453864
-7.30727036663608
-5.31271201612113
-2.63948876845446
1.22324731439402
6.46055730401157
11.9889706271484
15.856765446649
16.9618003188658
16.3062901730065
16.0463885479035
17.1751325027947
18.5569497955513
18.2278159170591
15.0542195269573
9.14437005257263
1.51828710493908
-6.17578074694533
-12.1136862366154
-15.0175058951091
-14.6463993970143
-11.8028684460297
-7.90717651313691
-4.20091713288139
-1.11997428467595
1.48576057521438
3.72467205502477
5.62075225780858
7.40886379822474
9.22867563808449
10.5964819446777
10.7792130747414
9.70691819251428
7.99964304816129
6.05825474557327
3.63288404463741
0.501671791492945
-2.70788747934785
-4.71753028653614
-4.78883738694869
-3.62445910958296
-2.76347377304567
-3.00916613354657
-3.81994181900315
-4.36566073258768
-4.682455308144
-5.45228034260837
-7.05118109493188
-9.34607646974852
-12.3705631853735
-16.68203859864
-22.5820526748766
-28.9303052636505
-33.1642206565237
-33.0027558078567
-28.2466334390203
-20.8203284145608
-13.1588563556439
-6.54037853093903
-0.526112911308406
6.32854427430999
14.9777009194551
24.7378280005203
33.5346600342091
39.2014906942758
40.5623703468872
37.7464917421249
31.9454072185601
24.7216108689982
17.194716920551
9.88233880761875
3.23473399203713
-2.15664524278888
-6.04686173552242
-8.75490983252526
-10.5986005574899
-11.4521741435185
-11.103402820813
-9.75112867469704
-7.92362727843573
-6.06414445823995
-4.30060056536669
-2.5638016868856
-0.939291208606019
0.170668191725131
0.406472930696735
-0.142615415446448
-1.1208603374669
-2.27186494394267
-3.2771425584186
-3.48171149104879
-2.28399506323326
0.18754244430785
3.02808494431015
5.18223633615917
6.12278492306241
6.12298098148185
5.88583840079195
5.73557585856564
5.2689782218924
3.97323361947942
1.92190181384174
-0.440964230676842
-2.9116062197277
-5.48272666046114
-7.83410950949099
-9.31560694596245
-9.54925197055425
-8.85684794060453
-7.97106839548777
-7.34431510952586
-6.78286986986256
-5.77653371924564
-4.14513402719978
-2.28381461842275
-0.843334257766896
-0.379733682123956
-1.27892826187982
-3.62512055377589
-6.86449332603227
-9.72042277749711
-10.7152464452641
-9.05582071573106
-5.26029596085741
-0.903021981086974
2.52841115818128
4.7025418007364
6.48234605328158
9.10745422975267
13.2819086566204
18.5438644069264
23.221495410806
25.3460514014334
23.9654338056836
19.5460682001623
13.2400541546754
6.16973717863393
-0.655032133309035
-6.34784631113497
-10.4117238194823
-12.8683645696101
-14.0660917828872
-14.374963014507
-13.9187573293188
-12.5408159510242
-10.1446583412828
-6.98181253552253
-3.42410996372042
0.32408930217417
3.93547410131487
6.59399168791542
7.43499132403406
6.38388233942243
4.24245566345342
1.980256406487
0.188598824880793
-0.944248867689788
-1.55046264363562
-2.03041834163791
-2.79644830626325
-3.87053832909921
-4.74815585246091
-4.81696750162507
-4.03478567366591
-3.04174576193306
-2.40494018954822
-1.98279224235285
-1.36156640622733
-0.655292811994803
-0.407867606140224
-0.866545863706137
-1.78574224256976
-2.82125502204028
-3.72327011890493
-4.19172082617123
-3.83057830696517
-2.30766302841067
0.430786717410978
4.00028231626193
7.67301867213578
10.7649341937178
12.9484942707389
14.3054650739256
15.3116657863688
16.6101985077571
18.3135683339996
19.5114250576099
18.934480325901
16.24663663538
12.4321729597504
8.918786120246
6.5291548453807
5.11748848496673
3.84278290050687
1.78069979147988
-1.4830508677173
-5.66611895375271
-9.88610163084717
-12.757499105676
-13.0171393672488
-10.9666380381574
-9.09869313506047
-10.2487925958006
-14.8443683330239
-20.5244531217546
-24.5059159097924
-25.8134513909638
-25.2876991265816
-24.1711269947568
-23.0872837040786
-22.0771718387524
-21.066255188475
-19.9709584479135
-18.490828443244
-16.2360048004011
-13.2130223421894
-9.87437210000227
-6.49978058308452
-2.75071861701203
2.00486199343401
8.01344702152765
14.7244927660803
20.8893122226752
25.1868849173822
27.0259703054295
26.8338852741944
25.6084439037701
24.2578144504515
23.1910754699294
22.1732997326469
20.5073667866042
17.6414326802897
13.7427169887398
9.56876026837878
5.81180442048312
2.75650280625755
0.512800727076423
-0.705459061829163
-0.669662395467
0.530053241543714
2.30242492658459
3.81793066978026
4.48859520248093
4.09117141484945
2.56913071501634
0.15045628324372
-2.31008149399216
-3.65962528785534
-3.45505317946239
-2.419731063374
-1.71572190608196
-1.91866020116455
-2.77867995256686
-3.76934010866815
-4.64886692343763
-5.4458572342117
-6.04784280293718
-6.1117361552496
-5.5622599226537
-5.00050275073282
-5.40097986883434
-7.44430207632953
-11.0987461779478
-15.5496310767375
-19.4963679057467
-21.8809816413871
-22.4976622941838
-21.7522514794986
-19.9010966266603
-16.8095756880228
-12.4547688850484
-7.40466625409879
-2.64331844440218
1.17941066704195
4.43629104927713
8.29446267783029
13.4472544708953
19.1048463234426
23.5183698610286
25.3520764958178
24.3154608842213
20.9639752237415
16.5393245822172
12.6950500221393
10.5822035047399
10.0363018745322
9.91112859215706
9.20002558500308
7.78667327112345
6.31381234682779
5.45534328560273
5.25803049147013
5.1912335217292
4.791039338642
4.04066773178243
3.10963899836403
2.00102468495276
0.522156337121574
-1.58458918112758
-4.41854690521626
-7.60513049994381
-10.2965785265175
-11.7034720625959
-11.6261501284227
-10.5272314601268
-9.30055880349168
-8.87030810507468
-9.65758212083774
-11.4180193837447
-13.7873748905396
-16.7609323331647
-20.2396415561283
-23.2495863794807
-24.118812442233
-21.6274343762428
-15.9680376247187
-8.73679457197405
-2.02714348080969
2.85697767798835
6.19269835800809
9.40973889225808
13.7711100361006
19.2308240605012
24.2065834059339
26.4717534262582
24.7863492181336
19.9446831812892
14.0582631270476
8.83592906605334
4.74527585464357
1.49243234936826
-1.27324436444414
-3.6433536490651
-5.35354487217624
-6.00865879846208
-5.67917328276353
-5.16830501782219
-5.45460501679495
-6.91886059352409
-9.15597826964763
-11.3760767015893
-12.9333395065735
-13.5930279569315
-13.3905015204011
-12.3488254213596
-10.4527861608806
-7.81530611538439
-4.71687110871393
-1.49507212083385
1.67518027898079
5.15194980495561
9.85993782668113
16.3176190625121
23.3805096558991
28.5532465999543
30.0665214047527
28.3637464895672
25.2360691536398
21.893587642195
18.2756898641558
13.9014738160742
8.84167219919833
3.78061508319873
-0.640515359593442
-4.35423258528196
-7.72262526112343
-11.0396849298176
-14.2994212603045
-17.1963900723562
-19.0572745935734
-19.0280984672757
-16.8140617093907
-13.2310048701809
-9.71400644691064
-7.1989262646982
-5.48027329749768
-3.53725540236041
-0.548366726191021
3.24506611668347
6.82165032411341
9.57567156208959
11.7202510037401
13.282195778905
13.468562282206
11.6350246178951
8.31709521834105
4.65489287380808
1.15230477445689
-2.49346732464697
-6.66923386001644
-11.4914400108614
-17.0199936579428
-23.2924646558468
-29.9016673313198
-35.6430434316448
-38.850341442925
-38.3874621610261
-34.3965507395802
-27.9468320395699
-20.0636834547984
-11.3943675302103
-2.61282026820876
5.49105131688568
12.5235044495314
18.7589583538543
24.7261345743294
30.554823406136
35.5944880820983
38.5661717664148
38.3105341282813
34.663059558013
28.6632790972425
21.9170973986989
15.7204020849759
10.5943845963364
6.50208068303161
3.52077017657408
2.12239212185963
2.42102772484108
3.24406625738813
2.59222407501973
-0.635001351019799
-5.60869531522832
-10.4175257088568
-13.7525609526428
-15.666786388663
-16.9083816671367
-17.8139963176346
-17.9735489243242
-16.8168457654269
-14.2111416259539
-10.3920412890712
-5.65896110374523
-0.522134244185324
4.01306756114158
6.85450203726884
7.73811688718075
7.49201452482381
7.19335999882932
7.14796807337642
6.81332469500759
5.67489239388884
4.0350445901743
2.83927114180529
2.85022049680131
4.15157720880067
6.26890742609632
8.43318353818284
9.83585340022045
10.0501179044098
9.27104655732597
7.92807318393241
6.09188585420463
3.37069068620019
-0.767803389099769
-6.6092641563472
-13.7784235323308
-21.0418089871826
-26.7914989839767
-29.9195025524845
-30.2384247342693
-28.2846150182037
-24.9233395967361
-20.8837635359143
-16.3518806891066
-11.0795567361866
-4.94952348615101
1.73134281037382
8.39325375341279
14.2960393423558
18.5423803482155
20.5056108967912
20.4016701518212
19.1660323184075
17.7104117484616
16.4471194955733
15.3280731904578
13.9897153087367
11.9984025080455
9.34425720756352
6.71902387715565
5.10476605183365
4.96172976288246
5.63866852102023
5.47017732015402
2.75531211159917
-2.93551984486583
-10.3161527272647
-17.2242626532558
-21.8179748499883
-23.1932583423256
-21.4132244935912
-17.2220391117263
-11.5514557811329
-5.10652084924814
1.65407024677534
8.25340523088994
13.966093855858
17.8671984185246
19.3550056637992
18.8162919140685
17.4251615396288
15.858444589748
13.4301811490717
8.93286655280502
2.23110127021559
-5.29158970657804
-11.7587721300242
-16.0140922563769
-17.9468681708536
-18.0188935358464
-16.7383017810235
-14.5801941067075
-12.1475701841641
-10.0502460396822
-8.5058850288962
-7.21084674774375
-5.63707804105794
-3.35371458332181
-0.301724448790383
2.81518294533367
4.58187904127987
3.94312156857134
1.37129680221188
-1.34389799969971
-2.48456451489259
-1.45286325936035
1.24869523099849
4.61989809225819
7.71645633753068
9.88873402834802
10.8190009213929
10.7043512838592
10.4847617378278
11.4106529805448
13.8926918187848
16.8386782078831
18.3897251728613
17.345166512672
13.9214702935296
9.34342070122391
4.78898234093724
0.698772169603141
-2.88336049973998
-5.56669833000659
-6.77317518811205
-6.70662360648283
-6.52928172041467
-7.19545225535117
-8.47217272633841
-9.43511180064698
-9.63874016381392
-9.42796063873076
-9.21801577583275
-8.86115454961615
-7.98588268828756
-6.94621104911076
-7.04502257674881
-9.27075573002393
-12.7821152487999
-15.2299963625142
-14.9187846491756
-12.3424194589447
-9.34670804413859
-7.05470141268092
-4.90303738171577
-1.58412346263609
3.38936552478533
9.16557905902697
14.3111207186962
17.6888389068539
18.6922443812656
17.2916778071136
14.2186845181857
10.6820461549736
7.4977371554514
4.7278054587333
2.30392468989202
0.473890198272065
-0.70138251742497
-1.73272608536084
-2.96392649924168
-3.67509875718426
-2.55589346716256
0.760560918971461
4.98143820127959
8.24722306903725
9.78419274901858
10.153318385247
9.9863519477374
9.08976528017602
7.08399542984249
4.35486598468778
1.70525874921395
-0.69123043039029
-3.2764795994639
-6.10199095568926
-8.58266549103664
-10.4945666047489
-12.6656031596283
-16.1666906183162
-20.8035678205151
-24.6621695693728
-25.4705856066301
-22.621687371551
-17.7629827977554
-13.2790790502619
-10.3545742439008
-8.5364668260983
-6.67123290724214
-3.82962624555832
0.379057293396352
5.76148777702667
11.5503450577704
16.5986917668915
19.8164464486331
20.6872081644326
19.5226813922856
17.2068892966147
14.6551857567637
12.3974824914423
10.3601848452369
7.92369361759009
4.55402599504195
0.63156716548152
-2.64501304321841
-4.40511177976749
-4.87543885823472
-4.85627288466364
-4.78481057957859
-4.49812257570486
-3.542329154466
-1.44837773825553
1.96196396855422
6.15160689338832
9.85373546984296
11.8086347653101
11.6800846974014
10.2827344893812
8.86550161846005
8.05563256849391
7.49833078353678
6.5884711998578
5.3880778219541
4.60457076361673
4.78825082964788
5.77325308200533
6.79611767647326
6.93600001735265
5.46583503249687
1.9746277956423
-3.57534622180513
-10.576115815713
-17.5295957799347
-22.5425330137671
-24.4777661240272
-23.593359981117
-21.0458401959077
-17.9976441251367
-15.1186732075628
-12.4704964204948
-9.68354651591944
-6.44108770992033
-2.82895898409779
0.816571525371242
4.12482346529242
6.57928351131595
7.54786496662487
6.79760464737958
4.87262846808553
2.7475708602751
1.13541732381328
0.128157513640052
-0.626688189514956
-1.33858627065675
-1.50541586492956
-0.139515278248711
3.10447527258839
7.1640772369136
10.2737547411605
11.3971447135903
10.7953793839915
9.34586874301205
7.55072589302084
5.20166985242443
1.85389446545738
-2.54383547510727
-7.56342306889827
-12.614495874144
-17.027069174079
-19.9341150560539
-20.5386962951491
-18.720753865431
-15.2993980502816
-11.6256393074692
-8.74422877916622
-6.62633648030625
-4.21898646049078
-0.588005156858806
3.99136245775082
8.36616760025234
11.6938758606451
13.8019748257796
14.6073405270588
13.8961839246011
11.7692159268951
8.87232966206854
6.12302117680355
4.41455431801485
4.40188180331166
6.16126635831533
8.96871846088222
11.5542031945727
12.6600064430617
11.5702215854405
8.49959677766876
4.6114781933131
1.44108413023533
0.112221638928958
0.954415836267325
3.52404449260514
6.76047677015128
9.34449030032627
10.2856031158644
9.38607618328908
7.28329614119103
5.06758587582194
3.63492430060104
3.17465844258087
3.24444859804386
3.30863994934507
3.10909905487977
2.55741014990348
1.40850429043543
-0.869452727447
-4.7309462129543
-9.84549511933694
-14.8745077167715
-18.2835698458867
-19.377651111839
-18.4343058308892
-16.2040224991341
-13.6547201565912
-11.7779499419956
-10.9974429147299
-10.8298417857599
-10.4767632117813
-9.67589564454197
-8.84876262396694
-8.64687191729021
-9.44577106253553
-10.9573814482217
-12.1435119377554
-11.7313366433289
-9.04716123677138
-4.43998731381902
0.920969750224824
5.59445477323559
8.61203350425396
10.0872114565884
10.9644742730736
11.9333243981356
12.7095755351587
12.4460669873845
10.5893380351815
7.26057025609505
3.09419226884507
-1.09947142213572
-4.56863863545624
-6.64104083926026
-6.77714893351434
-4.95559227750989
-1.98946676095879
0.920812986689409
3.12077752332719
4.86978152804597
6.78853047270449
9.07170698581412
11.2272640501544
12.5063629264082
12.5400250534495
11.466258047258
9.5113844717614
6.79670865799321
3.63793110662144
0.616604593960876
-1.86246036650939
-3.80456067927776
-5.32649436249532
-6.42538104378918
-7.06057782898719
-7.11989513852934
-6.30084283744401
-4.3758578325065
-1.57277596600303
1.60726266831191
4.84763513287476
7.96309717283431
10.5606772338042
12.170070873782
12.6664629142661
12.3154125905145
11.4818355428422
10.4089276677587
9.10321016111198
7.30924622314565
4.72229684055223
1.34518059254103
-2.33252983415165
-5.51910838004467
-7.63718384147786
-8.79841347494685
-9.62003431333535
-10.4375774041996
-10.9430576741984
-10.7759673042401
-10.1484372666921
-9.62634844291394
-9.55499621383353
-9.89699122524396
-10.3862600668883
-10.718024499783
-10.8028175834156
-10.8604608889499
-11.1033360040785
-11.4224741768621
-11.4898879533086
-10.9184842647056
-9.21969079112369
-6.06220188522856
-1.93922284806353
1.74131820718126
3.72471447807624
4.09392791594623
4.20679797380399
5.48429016818442
8.28231419309798
11.7423433995572
14.5611034556396
15.91711525855
15.7500037508059
14.3701731016879
12.0804326528017
9.14459808252908
5.84442864780223
2.52278605570699
-0.311043123165209
-2.04855878943818
-2.35520532517668
-1.44127253939688
0.0748855616522431
1.48889416772638
2.30039349627789
2.41169628561674
2.02372575925117
1.25853539297306
0.0419013123242181
-1.60399133778536
-3.41422783612527
-5.03983809127443
-6.07251425161177
-6.04658860496402
-4.86166403492537
-3.12141750208492
-1.62552314798598
-0.571265562207456
0.476342261272383
2.00997008736139
4.21354722786626
6.88566194486312
9.43225182345687
11.1383702603617
11.6357983362907
10.8913697617111
8.71983353520632
4.79513186397272
-0.613041425216293
-6.30063456274195
-10.8641425404373
-13.684844599443
-15.101749171812
-15.7264974816266
-15.6801798833379
-14.5656914583512
-12.1896026527658
-9.05380220325311
-5.8904397913845
-2.92718901084981
0.0255226534954867
2.85802154340228
4.92925030616155
5.70607659501694
5.50357643366824
5.40487221549298
6.33008398937264
8.22548669878451
10.2781660289679
11.7920011926187
12.5692271835762
12.5467812720204
11.5537956244096
9.62748598266324
7.31721470599715
5.45837440045419
4.56616157415939
4.30746427075353
3.54006507158615
1.11030110972422
-3.19832124977935
-8.51850713860875
-13.6400215104952
-17.7496659089
-20.507755510954
-21.6961916234518
-21.0106444888778
-18.2491447743301
-13.7333930071382
-8.47978442185422
-3.70281998677132
-0.00921070479560314
2.7746232571093
4.9714536799737
6.57537915448917
7.53310307804769
8.17378701476666
9.02117560878397
10.1319962865269
10.7428767764714
9.81087944748455
7.12571988700034
3.76337944166008
1.14801751727488
-0.228710665647401
-0.878833030581765
-1.39344514115254
-1.99601300186986
-2.90899349766176
-4.52061338020327
-6.8998908083816
-9.36105143241311
-10.7481995670918
-10.2822135898563
-8.19502454183766
-5.46883933989958
-2.91082584075769
-0.571648291832701
2.00724997521625
5.24988734220313
9.22739974944617
13.5543599857589
17.5496803279623
20.7281611047434
23.0721057022355
24.5267059024276
24.3438739810017
21.4234019304411
15.5042226229826
7.81544643229575
0.440874025179031
-4.93648901851499
-7.85429135572263
-8.96652250775841
-9.28872863729015
-9.56698500605027
-10.214638333482
-11.407687544852
-12.9354314492053
-14.1981617931958
-14.6843580446998
-14.4059666182026
-13.7751552327077
-13.1883252314464
-12.7793951842171
-12.4661706458476
-12.1808852503662
-11.9054328369846
-11.2407494461759
-9.20139860308477
-5.110874699307
0.257202042768757
5.08802712641915
8.24425699723313
10.1071942063778
11.7031661220811
13.5517379216527
15.4695673811957
17.0009309087766
17.746763902082
17.4455934496004
15.9882482378459
13.4766339533384
10.2332243436199
6.57905332058468
2.54528868247532
-1.95437378801571
-6.51674856791866
-10.1546086445645
-12.1795977119924
-12.9709424861591
-13.4895694442297
-14.1842442146772
-14.712615586939
-14.5670506476982
-13.5453973259373
-11.5621634389618
-8.37812338623902
-3.94096299238212
0.946357328813884
4.75329363141929
6.46468326974867
6.51394510572539
6.10789305300431
5.86638093616233
5.5321052072054
4.70502519649822
3.33266775725966
1.66632807454666
0.14227009699394
-0.890640004431419
-1.58421587295452
-2.42434006071892
-3.41835150229327
-3.75505562502667
-2.48819746917795
0.578014591205152
4.64545101877532
8.38507137683925
10.7946832868918
11.8364920011561
12.179767102152
12.3298491995514
12.2751704885735
11.9508897054884
11.5530667937291
11.1831036300519
10.558579580365
9.34810393465439
7.57216635960265
5.46108379969413
3.03126904347388
-0.0241950616204159
-3.93827698720642
-8.35873762590543
-12.4242970974203
-15.5378004994042
-17.8719287381204
-19.8474897720021
-21.327813691563
-21.6868838855176
-20.57316432483
-18.3228424634393
-15.6384426437082
-12.9657302190425
-10.1212005670867
-6.51972760621027
-1.8618020055088
3.42677975902636
8.4598210042021
12.4723176435852
15.1683743885331
16.7140605884455
17.3745717958791
17.0249083600532
15.2663442007084
12.2865519819484
9.21506871983076
