2.71126263912691
3.47236663935275
3.72644131671452
3.80274581768596
3.92917418494729
3.99137856097879
4.01612464945166
4.22229739055274
4.87142374533156
6.07267540086963
7.60894795363814
9.09940146784741
10.438093744718
11.8371825365205
13.2669895280891
14.1180634924385
13.7307629646115
12.1651199457843
10.1960113798721
8.57010923241043
7.43083895079387
6.4380346314632
5.27160569391802
3.94263821779511
2.68013804742074
1.62223823878156
0.680448744699547
-0.329204068625914
-1.49705509107277
-2.74717065164221
-3.87137643290184
-4.63099356854092
-4.92048713327226
-4.92359211632339
-5.11496404988231
-5.99675643334959
-7.67791318942581
-9.68634783561162
-11.3048439174593
-12.1237903051299
-12.2019279109473
-11.7768699488314
-11.0328185703814
-10.1380430711494
-9.26362298706612
-8.4593155428954
-7.59531923155512
-6.44020321855911
-4.7781964177011
-2.57561585328187
-0.116018352942335
2.16622620038704
4.07389778416406
5.71503070320198
7.11295231840676
7.97915331933968
8.04967998785614
7.47778583380799
6.69424299711659
5.97377466689234
5.29133747819609
4.52751468713334
3.67989470660713
2.89829084336444
2.37666138634182
2.18355274788437
2.17444290945481
2.09978548834936
1.80239653692686
1.28991924380808
0.647611248512409
-0.0599913152527838
-0.805967767517763
-1.60123305381608
-2.54124622991014
-3.79452905264443
-5.41209884047895
-7.13104802058569
-8.4934200657088
-9.20552846440217
-9.28519670258993
-8.86664342535953
-8.03196415817938
-6.87475667554093
-5.5683461419084
-4.28471470515662
-3.09337967592637
-1.92522463117193
-0.601939365342128
1.00130211688563
2.75774577270851
4.37030486170399
5.7001558951778
6.84658199330104
7.83583687402994
8.4491027392983
8.49661710620401
8.08901310365678
7.50015692438542
6.90400141590295
6.35331871862524
5.86448450706477
5.39384595120159
4.82523979099732
4.07981623960459
3.20044730034898
2.30412205075243
1.49598575757297
0.822513468678033
0.245058919035872
-0.35303947564872
-1.08306494890097
-1.93508303208306
-2.76226879410267
-3.43635707896104
-4.02779045268608
-4.75514178252216
-5.71462139227321
-6.73091175815391
-7.5041378702797
-7.81059412390508
-7.55951838965047
-6.82113883317062
-5.84670963681608
-4.9031665864573
-4.03179957898454
-3.07431892710804
-1.91703108925761
-0.587049299483185
0.834370605185627
2.24372681437324
3.50242552917199
4.5128974113674
5.26627764196742
5.74681872379107
5.88068314931845
5.65284787471633
5.17661815323551
4.58919635721398
3.98366582550977
3.47410513242156
3.18707537462017
3.12657573200969
3.13861803216989
3.04381353404907
2.75730604297803
2.30052360420979
1.75055267597609
1.16259036267983
0.524120840050288
-0.197347024050882
-0.995106517380169
-1.85798465476323
-2.80981788504288
-3.83764091826914
-4.8054442069511
-5.50057361065598
-5.7855958059961
-5.72360639741353
-5.55601300884105
-5.49959836553627
-5.54583852525773
-5.51020633116747
-5.24040557843951
-4.67353904850194
-3.77106792418006
-2.59346751722953
-1.40000785974521
-0.459941103525849
0.249478126847891
1.00261084083142
1.98448885825281
3.09829026740671
4.06924883424058
4.63921911178049
4.73004821506485
4.5313289904919
4.37062223024344
4.40400517401109
4.48345239430798
4.36540233962258
3.95596384990279
3.32819469279951
2.62934248143362
2.02435803825568
1.62309201362916
1.39170683575661
1.17563622124852
0.844571518726578
0.410278309587906
0.00609368410294988
-0.243454335572655
-0.341090260418398
-0.419698639051156
-0.647728526053645
-1.1252910939818
-1.80949121696868
-2.50874794762429
-3.01816388691184
-3.29739452555513
-3.44361134179505
-3.49611779374485
-3.40876837777034
-3.21469218481241
-3.0278224760725
-2.85270275274522
-2.5774686757546
-2.17793471467608
-1.75639798707778
-1.37465683728647
-1.00372448569021
-0.606636068467453
-0.106105505700606
0.679647067867663
1.86391665050324
3.23795862912054
4.33544390476098
4.7802801357699
4.52008453295605
3.7842097084764
2.90937778200539
2.15897142282717
1.61859981257736
1.24620433435212
0.993116935464855
0.826612854843852
0.680317234303974
0.474519886671674
0.187367615971178
-0.13727440064984
-0.45125514549867
-0.7592746655038
-1.11141540156601
-1.5258776413016
-1.94141709008173
-2.28708550179268
-2.55645941278363
-2.75026930946841
-2.80989003828114
-2.68965069517937
-2.42596853161069
-2.06546568963512
-1.61401652126422
-1.11176132898618
-0.650126122350665
-0.26888574401034
0.0654947731485088
0.374167626829298
0.659079143115256
0.951515975510383
1.26375530127207
1.54042081030195
1.74790482712688
1.93795067539701
2.13349197306617
2.23859389234884
2.15198597740546
1.88533704951034
1.4973552826014
1.01485074600839
0.49771607659324
0.0844070584075823
-0.108733206540167
-0.0801621338522973
0.0877200770123371
0.28881813848867
0.422616683507077
0.436407839512104
0.355514190206407
0.231220960536254
0.0449045449260303
-0.304171946323901
-0.857896675109438
-1.42565104370596
-1.64456360229684
-1.32656819895624
-0.703324039119198
-0.216842243879294
-0.110125981724546
-0.31579469947662
-0.651711299532287
-0.980516287828991
-1.23198649877564
-1.38554430571884
-1.41329198270685
-1.23676101677579
-0.831292111225424
-0.347620866072726
0.00656144407523388
0.186438742338653
0.290984938216484
0.37774876614856
0.427580214758377
0.435560320820054
0.41193499699071
0.349863399156068
0.292629609844834
0.356933814856775
0.59938063936448
0.938129339962418
1.2618245835281
1.51116343847613
1.61424296801197
1.46973211951105
1.05448014648533
0.470719779782578
-0.131165196058349
-0.620571694418
-0.902164768101657
-0.935870960581321
-0.743945798024381
-0.375125979863285
0.121429695163655
0.673617176713824
1.15648121566289
1.41951154028614
1.39351872358701
1.18441163709412
0.995030530502775
0.919962362519958
0.895344329256151
0.869996239335915
0.887388057525915
0.940062307163296
0.887476363429901
0.600653383533166
0.0938628448399319
-0.504770466341167
-1.00665619040038
-1.22016126300412
-1.11259111627746
-0.914442012182662
-0.932657313179281
-1.24941383477202
-1.66760757906463
-1.90623487376492
-1.80115375161761
-1.41427527619737
-1.01887755069309
-0.879620343138981
-0.993095488683608
-1.15067251706314
-1.26702552750365
-1.48147188908478
-1.89170485404561
-2.34961827480359
-2.61021153971464
-2.59944783860379
-2.4618073341897
-2.36210836759843
-2.28548106875507
-2.06607166926614
-1.600538902984
-0.971896422833604
-0.360513124160687
0.0865023216093778
0.300400475894927
0.323519569006942
0.324988841513448
0.48279452368049
0.8118868927859
1.15688321395803
1.35170206528937
1.36384601166193
1.31325111641975
1.34378028712951
1.43415042609973
1.39867499939045
1.14995381699685
0.850937408463874
0.684602671642921
0.596801255426143
0.432479997036296
0.227534512509428
0.187682500359961
0.436160860312563
0.926823503823253
1.54992018347342
2.19264768626083
2.73431026585899
3.08309002929047
3.21680367701763
3.18609838535743
3.12032712497888
3.18084221355363
3.41956233964988
3.72828663364186
4.00049450189941
4.27269400171126
4.63058539604621
5.04820468106106
5.39974936980224
5.59854181453787
5.68859209097337
5.81700605458988
6.10876806407402
6.51877375185267
6.75535268792375
6.33878736392783
4.85986865440375
2.390699588218
-0.366883573470353
-2.60496638655656
-4.16993813068926
-5.58589861858818
-7.28166699593293
-9.07841164438094
-10.5238684105612
-11.4287927854458
-11.9092151262232
-12.1192786768426
-12.1288276318527
-11.9640166149988
-11.6399050130876
-11.1724166545996
-10.5840896147598
-9.87722923787789
-9.03827150756392
-8.106734563006
-7.16529840131288
-6.20593114420527
-5.09646487277818
-3.74707704164644
-2.23514536064064
-0.723463144982
0.674281767187723
1.92377009969195
3.02380863176923
3.94698813595792
4.61730460120189
4.97028675474019
5.03258622340345
4.9102031329508
4.71519642911626
4.52493957960889
4.37406816194584
4.27732886004119
4.30460314752027
4.59214132141044
5.18137015578045
5.8775525550682
6.3704161030868
6.48793088065845
6.30987917504983
6.10923576647654
6.17641200080616
6.55523556404358
6.92936852473999
6.89176611438695
6.31396158577043
5.35270468845094
4.19803955772405
2.98962861196944
1.89452179719853
1.05759377254353
0.477664768034718
0.0431944173684561
-0.352975890185377
-0.801313059997561
-1.3667259412533
-1.98937893520899
-2.48011850001539
-2.69783165155012
-2.67945981062473
-2.57591137761603
-2.52566183253724
-2.58632394147029
-2.7206540593094
-2.83582443928086
-2.84709149827647
-2.70469298405724
-2.41678119187508
-2.09511999505702
-1.90330698152343
-1.88899363658281
-1.933458403926
-1.90571265080465
-1.76938901194395
-1.51358497416135
-1.11159635969241
-0.603809459257335
-0.128267162212776
0.173957826886494
0.255841659412402
0.201024222629715
0.186821922493303
0.335579351053315
0.575906969901231
0.725485846941181
0.706409846690979
0.58840979782898
0.441447536037412
0.25266487434858
-0.0161282360989456
-0.363989336575034
-0.726121360004805
-0.978322740687136
-1.0333470426115
-0.965064718534201
-0.939097103371845
-0.999295558645739
-1.05740465653298
-1.10846133367333
-1.27541856572385
-1.58413816845781
-1.85328644214715
-1.88344405332306
-1.659917587873
-1.32833879858085
-1.04139364371816
-0.859534080003317
-0.757776660751573
-0.685876283259691
-0.607623693152086
-0.509868086536537
-0.417955740100835
-0.37922589551005
-0.377135561813863
-0.307189975331026
-0.106886675612577
0.167686970565386
0.483419635944738
0.936416374556335
1.58804246930173
2.29227416488107
2.81078196663453
3.02320821372682
2.94980227812285
2.66831714931187
2.27414292522993
1.83890877329308
1.38076761475571
0.940860545771957
0.642848906090462
0.559844756820608
0.573638187931826
0.508637627523269
0.368111794813382
0.295297861926867
0.322571193293594
0.285764085111158
-0.0012473790462461
-0.541395884390846
-1.12277193217929
-1.49744076189266
-1.61340016725364
-1.62323594227154
-1.64192826657948
-1.60230516087985
-1.4089287453651
-1.1158392903632
-0.86078208762023
-0.706689003046297
-0.627734548214824
-0.603632709718779
-0.665665201154674
-0.83978606493197
-1.05216076908361
-1.1401339678262
-1.01617535203496
-0.779203907952593
-0.589752436276179
-0.484135306579981
-0.379904167880384
-0.198306304249226
0.074028411162875
0.365134082773241
0.527653153654862
0.46621921727893
0.27666201293402
0.164093679215534
0.213067255956513
0.316439300740443
0.310324491067786
0.0944208983597673
-0.335158022190627
-0.837939194224775
-1.10389952977939
-0.79145868130309
0.232617918950747
1.77100187518588
3.39153416714185
4.67184139059223
5.42888827869928
5.74313857320037
5.77406402743354
5.61766934866895
5.34643482014287
5.06698036337482
4.8760512707592
4.82001027162999
4.89862871687219
5.0449840050982
5.15266117835525
5.21143859487472
5.33649316556567
5.53874480183458
5.52718416866339
4.88058499403928
3.44060183760448
1.49790363096808
-0.427650449762084
-2.02748306600825
-3.43866081405475
-4.98714044854327
-6.72899729236023
-8.3828235679814
-9.69668629908205
-10.6847636414481
-11.4714348041555
-12.0941491157109
-12.524622556161
-12.7381851108564
-12.6984687564723
-12.365486375103
-11.749650141124
-10.9078776210509
-9.9108568272472
-8.84649572309868
-7.76623992684659
-6.5743279646061
-5.08990224539782
-3.29996472951365
-1.44843488047912
0.198945665151746
1.60551845075231
2.94419227670239
4.38377577620512
5.89676555054483
7.22753746135501
8.04673193388063
8.16325464912393
7.6309651964915
6.74554307219157
5.96354377127165
5.67830701839024
5.94917469866015
6.49724039548197
6.99203277092383
7.24173286434786
7.12503790378694
6.55639658125544
5.62458430470582
4.64398022589298
3.96566644512133
3.73873208006318
3.82623757546581
3.91353903901797
3.7404952481836
3.27934319794601
2.696516611955
2.17822556015193
1.81139361698063
1.54591134422759
1.20731328098834
0.634375091716759
-0.120374583700862
-0.815168868412884
-1.30537292311875
-1.69066095034374
-2.10600479098711
-2.48845951068608
-2.63764481057826
-2.43596732722623
-1.98832319842388
-1.61311647663995
-1.65109679883775
-2.17136747649052
-2.88763425375345
-3.4285367459229
-3.64351767004783
-3.618742135965
-3.48865736509282
-3.28165342632091
-2.89108234124444
-2.17532649408957
-1.1252904454096
0.0527579006661508
1.01586600205391
1.46360821544396
1.34735198431697
0.968617602773164
0.748486669769283
0.796890866525435
0.822317668818376
0.537704469526882
-0.0117828142581174
-0.6119584421678
-1.18160445897669
-1.78928078325376
-2.50029012495284
-3.28239827641377
-3.9406324415635
-4.10927449869858
-3.47246813826155
-2.10647815972545
-0.551130785698948
0.529882072524278
0.803149694052131
0.455417388650358
-0.033804025126731
-0.352715058490854
-0.592438092751271
-0.992698335888954
-1.54681766964375
-1.98330121119029
-2.07207654015774
-1.81084778152324
-1.34250265524122
-0.789970259629834
-0.156879311146961
0.639985791962624
1.60041060723358
2.51153887450875
3.03938659433952
2.93531441512227
2.19175402538256
1.16081750531129
0.526021962243563
0.880750239131989
2.16013071476495
3.61942822973715
4.47553375402848
4.48740324890605
3.92795283555929
3.18725737860139
2.49216021301952
1.90131250116775
1.4394610500307
1.1621833483235
1.07446644547499
1.05508503686077
0.92980979446306
0.582793640433832
-0.0319089540039148
-0.879192688876044
-1.75790510393686
-2.34309909318252
-2.45764846189354
-2.26214337067212
-2.08853951749039
-2.12128684624429
-2.26212577350467
-2.22113578052945
-1.73223219751657
-0.805757458941815
0.170068881285515
0.636160172124632
0.235817586235682
-0.932538782776403
-2.32196057283128
-3.21438067768749
-3.16868012623422
-2.32725370202582
-1.28968707925422
-0.658490708217341
-0.638615547817011
-0.950433411957747
-1.08235676983331
-0.706288705477334
0.0974897135037558
1.01279062476221
1.80678902306265
2.43425619426217
2.94194137022932
3.36396587315738
3.63561248604618
3.58089487961426
3.10547906023763
2.40952741757244
1.85295137129714
1.58911969506745
1.46794203080234
1.28993805350766
1.00351633172538
0.657791738196835
0.311975588437429
0.00751762231366723
-0.272289043847909
-0.603648904777952
-1.01094362153795
-1.40639017065143
-1.71159684274029
-1.97110170453705
-2.27066061369654
-2.58875275200647
-2.7817523625888
-2.71031001344948
-2.3837470921249
-1.96842820384425
-1.60873496605189
-1.27408912528743
-0.867915820414147
-0.434653062226921
-0.130145839350352
-0.0188386737520127
-0.0233493538526742
-0.0630700700812396
-0.154544071971614
-0.358341640191645
-0.629877826614943
-0.738708359356173
-0.450705232656953
0.144733333962803
0.642395656283895
0.780386226717764
0.751489048988547
0.926646153182623
1.39791590329771
1.91830172157481
2.18597281104057
2.08149947777428
1.70144267244987
1.24832352081591
0.87377847677999
0.609566577512904
0.438023128543037
0.350363586012941
0.29359494756649
0.166157188180885
-0.0477350006018212
-0.225993129340875
-0.266645909897763
-0.217486572281813
-0.194863129994446
-0.250477523529529
-0.347205513062565
-0.397441085236643
-0.321637621655791
-0.131937503234651
0.0429219228107106
0.05240768240772
-0.150221478615044
-0.454284143133234
-0.644116198310922
-0.561447930056963
-0.257097747418327
0.0723989844874228
0.307169245694225
0.474066220064884
0.606205018620068
0.667037312663574
0.632069776897467
0.537463678298573
0.437720603531424
0.378083593395964
0.372053595531856
0.363490233361385
0.28038584144285
0.146648092712368
0.0444585030228191
-0.0324518543449162
-0.161592155204417
-0.331533501180856
-0.439613970267766
-0.456496681606804
-0.460360022739812
-0.492736667099285
-0.485567085115068
-0.345642728586583
-0.0636941958557477
0.234958722320087
0.347467811161043
0.183841977061892
-0.10927767409135
-0.31504801226297
-0.403134156434899
-0.511185399731131
-0.72461538455702
-0.993927832464153
-1.22903698796755
-1.3805153898112
-1.44771866587373
-1.44276455061626
-1.33081196167517
-1.04298814309527
-0.598228511968152
-0.148519634435053
0.162120650609763
0.322511465089144
0.403662240196572
0.467421158884258
0.545082603351072
0.617801530895755
0.611575333502784
0.478962805812736
0.263754310830903
0.046098016668878
-0.119399640782225
-0.202060779659325
-0.232876873363645
-0.353653998699718
-0.715501191522692
-1.30477261128671
-1.93312054983955
-2.36146142069431
-2.37169577095416
-1.83693658760297
-0.880050271076321
0.107035480240885
0.759047306627015
1.02522743740618
1.07755750731184
1.01390632910149
0.771058303724972
0.311196576214352
-0.180557140699558
-0.336210884069894
0.0897524305774347
0.935878217614451
1.73316430822349
2.11881397689586
2.09287242971259
1.90129455428158
1.79285460513248
1.88534239081996
2.1467152739559
2.46703754266496
2.76242264494195
2.97347506868716
2.9966940538941
2.75312228509575
2.34203357367434
2.00727601123992
1.92734239870176
2.09120136801194
2.32262637855201
2.36648436234525
2.05841008473994
1.5094019593424
1.05452509840387
0.958124917932097
1.22097326131457
1.66776568226284
2.11150931142339
2.41054450624162
2.46031173901289
2.1674952355565
1.41175681664802
0.0942228068100935
-1.69398232912499
-3.59562113532492
-5.16950335203691
-6.16309185759408
-6.62494959990315
-6.81875941596707
-7.01917159747618
-7.29442201586502
-7.44951305768382
-7.21890324027843
-6.53898802870849
-5.65028393053939
-4.94720428492003
-4.67350313420157
-4.70008338736611
-4.63392783185972
-4.18610132761332
-3.38878290498108
-2.46137319735983
-1.58107952702608
-0.795563006152442
-0.0356579453278148
0.795378254618796
1.65199047224242
2.31712979229666
2.64495905869288
2.75438243390034
2.89824977946042
3.24728734921443
3.84851411972373
4.62543779826787
5.33633767929692
5.6800291685227
5.53087093488164
4.99110073728869
4.2135607366256
3.29491788203872
2.34073618153677
1.49583263852264
0.863617720311521
0.446255203735852
0.150888036805594
-0.167154181774152
-0.591659977477857
-1.02839408983501
-1.26242934548349
-1.16640868967376
-0.825322859792087
-0.476666405378704
-0.348516783148994
-0.48986923723079
-0.71937809341276
-0.788745262776275
-0.596948730061624
-0.197810289899633
0.338833852971249
0.972721866341855
1.65032429530487
2.30597785262513
2.86617088182888
3.22179844102544
3.28418985127118
3.09796736432338
2.81962726736826
2.59025415358858
2.4839974503584
2.49136350965715
2.45612450240729
2.13955653691611
1.46988710411189
0.651013795657727
-0.044954657284399
-0.490643923783606
-0.668412557022949
-0.574467913592958
-0.25707879744829
0.140169382551114
0.460826307947062
0.64296892626733
0.744666467493874
0.892554647990558
1.17090001492948
1.53069393186369
1.83608173256696
1.95862302727328
1.74203244687711
0.973173135168913
-0.410256698883525
-2.09629928258189
-3.55746859368954
-4.47236672569345
-4.92861577909213
-5.24507001964374
-5.65701224189158
-6.13963506543781
-6.48824576646156
-6.55515094906545
-6.37378913673159
-6.07060209447151
-5.76891041212022
-5.5836074300204
-5.54742926125081
-5.49766717378014
-5.18347219492945
-4.52852310740363
-3.67744096381449
-2.79035512201583
-1.91239284399324
-1.03786779655553
-0.199293930828324
0.524976216081794
1.06121951105244
1.4053270533532
1.62402236097154
1.76397900093327
1.81097855514442
1.80008706280818
1.89922034052099
2.28290503535967
2.95699988191132
3.775653906561
4.57085002833054
5.20258625360785
5.56676074998126
5.64884039968948
5.54899384923452
5.42061736202115
5.3751309426122
5.38900491227387
5.2758612211508
4.83222366325358
4.05775600806954
3.1748754966698
2.43457737866091
1.96732774250519
1.75910202385975
1.65366078223428
1.43391465751582
1.01996389338661
0.545584417654376
0.177416574073747
-0.0589787578485065
-0.237270231314633
-0.424452753502302
-0.640268889533768
-0.827632296672541
-0.886357777754376
-0.829544520730854
-0.84475265968201
-1.10257756555351
-1.57797230551081
-2.13549439688309
-2.68340752135355
-3.15765747878405
-3.46684228989654
-3.55718178934487
-3.45016166076639
-3.13142026849938
-2.47767193341429
-1.39125710330418
-0.00653832578808885
1.26488628477872
1.92970370288163
1.74242629462129
0.908472414714449
-0.0539561646495468
-0.68139317037319
-0.837968056185416
-0.727818343012821
-0.690578683145603
-0.909391551348261
-1.26450169869601
-1.49669643350177
-1.47561066976072
-1.24820794826607
-0.922612278608542
-0.629214092166683
-0.507234748965523
-0.585603133182162
-0.729134758870466
-0.794398644807855
-0.774597733273095
-0.743775017476627
-0.751226453682179
-0.804675942849459
-0.870259182921711
-0.875556070707993
-0.773428825610814
-0.581764999157216
-0.329583537514335
-0.037287489932998
0.215109398754767
0.301777697819544
0.197599418668487
0.0432669863093452
0.0123460317323115
0.1404775633558
0.277479238711611
0.171341723295768
-0.339320588340344
-1.11946775677465
-1.7454803949018
-1.79317262890923
-1.13555178520034
-0.00119261863276613
1.174087133104
1.9966457266643
2.36070704278619
2.46275296043075
2.50977001207375
2.47755112452567
2.23603917975775
1.81015002812707
1.39353415103447
1.15865876867838
1.13722515622096
1.25022275864199
1.39893180044582
1.51690909536027
1.52939618124135
1.32050425703421
0.853334920098786
0.300660472118448
-0.0838347291787464
-0.222396114964357
-0.228410139455321
-0.210814831474175
-0.192433653503246
-0.173086999376184
-0.145241830597455
-0.0666404435098744
0.109886444464878
0.39753199774415
0.773317724241988
1.15990197011177
1.42956915772596
1.51310652925469
1.48508967077051
1.4480341615919
1.35642238454844
1.04945587350401
0.437752751247299
-0.409732911808107
-1.32383998068003
-2.12279279169331
-2.68657097861226
-2.99996874788557
-3.1165154029932
-3.06051973788813
-2.73357301709053
-1.90565948600892
-0.416718970204803
1.46713280552975
2.98336397654693
3.38054171827166
2.52547581752416
0.91398826128328
-0.826802685002773
-2.30030520841074
-3.33962552051126
-3.90594512036842
-4.03873517699175
-3.83063466244556
-3.43712012584729
-3.06307681248884
-2.82900342676981
-2.65922988900677
-2.39808634110639
-2.00785645257835
-1.56609742975117
-1.12395952330076
-0.672969678904986
-0.219458204876014
0.194571812387603
0.529403634733048
0.760277217184138
0.883007014338592
0.938202137418595
0.996693830425824
1.10761776393678
1.28570162114851
1.53043591602101
1.83120651218643
2.18407952748504
2.60152324789544
3.05057522272668
3.41366500558773
3.5975045642966
3.64638404568497
3.66892094745469
3.70427726938768
3.71903904917162
3.65274306350832
3.41292029510409
2.92091432612057
2.21435497043826
1.43432657753388
0.699470911572211
0.0484490329742383
-0.523894146856068
-1.02545194897619
-1.42173630803503
-1.6316574193401
-1.6554080936606
-1.67644627080961
-1.89777107803073
-2.28524309331826
-2.5904632364613
-2.60506024942638
-2.29982304953001
-1.76690373260451
-1.1359181221816
-0.538241482874925
-0.0929247907910926
0.0928323367649203
-0.0513394137390972
-0.483657547941798
-1.03403429744007
-1.51471718535196
-1.80425342104137
-1.81253153158785
-1.50622149253344
-1.04929234505899
-0.771897515559512
-0.875765017525788
-1.24743354664451
-1.6133116308015
-1.78512052167352
-1.73737160477858
-1.55507301884563
-1.3303644725694
-1.05227925354552
-0.619330385477495
0.00398468302249125
0.696624396960718
1.26891936078651
1.5899450069564
1.65158399821814
1.5851221450075
1.58058363374281
1.70527329762802
1.82995722093393
1.79006358007045
1.57855267859434
1.34475015078773
1.25078676787928
1.35170453101594
1.58022278006761
1.8321118583506
2.05787978768213
2.25340592092464
2.40707458112711
2.52426328600217
2.65071576730874
2.76952386421789
2.72556493156247
2.37985209508482
1.80089855440634
1.16575971484882
0.506754421084518
-0.287991068962808
-1.23297822229179
-2.1504332043069
-2.83721009618105
-3.23647247155644
-3.43180919003604
-3.5263477423834
-3.55487300285265
-3.52106988519201
-3.48795579238585
-3.54673766585512
-3.67933406293487
-3.73134827940167
-3.53918063317603
-3.04148521314638
-2.32860229662449
-1.66268276678346
-1.34067975180296
-1.39763388294343
-1.51822900366662
-1.35213423382115
-0.849218986966447
-0.231984868004873
0.255275022602674
0.537007557863998
0.765645266330406
1.20385080826507
1.94113776591073
2.74329502476643
3.27094339972159
3.39974784548342
3.25617220373615
3.03243396081443
2.86837417177583
2.83818247792204
2.93811950559227
3.09985958096112
3.25675129603013
3.37293164828925
3.41381879050325
3.34458969693706
3.15413212874597
2.84689929724115
2.44046021299271
1.97680109164858
1.46504191309177
0.815622780039612
-0.072419552528356
-1.1529919142364
-2.23354161292598
-3.1148288451082
-3.68945060004944
-3.97570762684861
-4.11308778767304
-4.25640317079003
-4.43128033184295
-4.54224952114725
-4.51763579564882
-4.3903836492074
-4.25850097064305
-4.19397885657322
-4.13397149057554
-3.86731382625824
-3.23847902566291
-2.36149310339976
-1.51259517656711
-0.826121328524979
-0.201604504426418
0.541538379381381
1.52685206071736
2.76103020356774
4.08295920694068
5.21714926246149
5.97046801087641
6.35121227847362
6.4739464214002
6.42794525624246
6.26676775023344
6.03524871113766
5.76365986546251
5.48327673659332
5.24007652743978
5.04783913006338
4.86810647111668
4.67243988991246
4.45529107000772
4.15955635006763
3.67927524304933
2.95249767181666
1.94790492660879
0.548620101701187
-1.41443615201059
-3.91834256530556
-6.57102869788612
-8.76299717743308
-10.0655826647166
-10.5007283249989
-10.4093797907061
-10.1077444492457
-9.74839539533528
-9.41839512162501
-9.1515693848898
-8.83279672443372
-8.2907672589504
-7.52937090321501
-6.72915620796441
-6.02213735469617
-5.38025759045183
-4.68072565887734
-3.77946708769786
-2.60012056412469
-1.25419919364895
0.00870752400454875
1.06357695963723
2.05601480311975
3.22352054014275
4.63152379164645
6.1076180285276
7.35225010566463
8.10370490317558
8.29167954633291
8.05884825509663
7.60058962868955
7.02931981185682
6.42841521918312
5.93127894986587
5.65109916549747
5.58015426393632
5.60934878255932
5.61571693948807
5.52956403896862
5.36282054605637
5.17602233182796
5.00685932172557
4.85167887253149
4.69797471346423
4.52540706747378
4.30806304648765
4.06710812310674
3.84360087626134
3.53634907791174
2.86703144526337
1.64170005472336
0.0111573967680841
-1.6133089011829
-2.88709044892324
-3.76293562189614
-4.44773824677426
-5.14888621302239
-5.86086370014839
-6.43336252901852
-6.81395002686743
-7.10630191954681
-7.38947302783706
-7.62113758211856
-7.74943768140301
-7.78555836102817
-7.71799511153345
-7.46063227544757
-6.92473462261757
-6.07993552730328
-4.9682502411846
-3.73851065367423
-2.62613355169244
-1.81091597334301
-1.30607433423484
-1.00414637134934
-0.784398222379055
-0.58160796411871
-0.40324093275177
-0.260760214600437
-0.0757029616802257
0.257973060675602
0.707808848848785
1.12706492843015
1.46503481121747
1.81942717092199
2.25915241422987
2.71228896571014
3.04642915389811
3.20053378716411
3.27100832064743
3.48051585664733
3.9532727280051
4.50592170432977
4.7942187668454
4.67285536212726
4.27890215124338
3.78996605871128
3.26292404994679
2.71323061943852
2.22704157894835
1.96566471221934
2.07540789547886
2.52683732050426
3.01827086371745
3.14633967853549
2.73783622060535
1.95261377017631
1.05718927721702
0.199352368609982
-0.590268356785732
-1.28606778888365
-1.79682549164056
-1.98621608629948
-1.79641064323443
-1.3555047640983
-0.895018852181411
-0.564211526325249
-0.38612740450827
-0.350187304892133
-0.460116364393679
-0.717842135145672
-1.10604309948716
-1.54700711585149
-1.88299489381666
-1.97873635256181
-1.84002494569497
-1.57348089505874
-1.28343534451287
-1.06503564291499
-0.997538393025209
-1.07505564941738
-1.25487907451105
-1.61188761062359
-2.28849902129545
-3.23818643931954
-4.16885903267044
-4.80624061153279
-5.12079529599376
-5.27322426872909
-5.41464511668258
-5.55142642077812
-5.55495765105893
-5.29572353672348
-4.77827445859299
-4.12861550958895
-3.45642746460769
-2.7655782698466
-1.98638941655104
-1.04892077911857
0.0580863332543578
1.25049314624277
2.38859624019035
3.3965389371612
4.33835476255059
5.37908561787393
6.68167663192664
8.27598843597336
9.96772372696372
11.4464834699258
12.5504336423027
13.3540730436539
13.9652339714702
14.3494983331718
14.3852515642201
13.9726372217198
13.0820443680887
11.8293702281315
10.4975062762735
9.32747183379491
8.23158960467472
6.77342262870676
4.48790363547379
1.29506803245555
-2.35484595681476
-5.82997011722365
-8.86162619688243
-11.6074467777473
-14.1324673005476
-16.0860940674636
-17.0714825355218
-17.1370690433907
-16.6962349182141
-16.0877906591471
-15.3873884498383
-14.5492931652287
-13.5636677754814
-12.4932358814655
-11.4253477217623
-10.3631182846109
-9.16222489465564
-7.63925764730881
-5.75392236334895
-3.67082520350011
-1.6883783496713
-0.109204259248305
0.921692180462082
1.50558620875571
1.88174267499989
2.2331488087248
2.61387363449238
2.98857650656784
3.28445740305287
3.47659013482275
3.66843814662851
4.01797972039779
4.56515254082371
5.19242290315931
5.7213523945107
5.98002203068278
5.8738854040246
5.52692920120016
5.29333587928109
5.49315053299856
6.11738440603266
6.81222303883113
7.14125229157845
6.91106345944129
6.30546174323542
5.67044729858051
5.14147024668849
4.55290759100648
3.72295336021971
2.69784819321204
1.66193932488194
0.730139140542712
-0.0883781132498955
-0.79875306396684
-1.35849095840761
-1.68039923739006
-1.70962952660479
-1.5339381691198
-1.35074977724409
-1.26269621575304
-1.18607341271022
-1.01550179528884
-0.773291004631421
-0.530896541588159
-0.27240763285197
0.104393042744941
0.682018601755862
1.40209322518471
2.02618998975864
2.29419570862535
2.16940680877392
1.85838079684991
1.58602967513127
1.45621083493656
1.51449004332293
1.79401001714921
2.26708466195803
2.84871664608153
3.4701201403974
4.11957297968363
4.83921669928974
5.6605642094655
6.42635699868612
6.660511282612
5.76315652336215
3.4558429490313
0.0467387308247244
-3.73629004698087
-7.15878521698267
-9.79189786207243
-11.5472001804899
-12.5113737864368
-12.8015248286879
-12.5720009420451
-12.0593560382538
-11.5027664118557
-11.0117057299489
-10.5513871571613
-10.0227719049864
-9.33213600017295
-8.45780178617223
-7.47941308720403
-6.46539431823392
-5.33557507733688
-3.93821187435725
-2.25360220273852
-0.428500793614496
1.35773189783115
2.97831120292665
4.36364025983307
5.49344990631701
6.34289825622173
6.81746519717778
6.79789220039268
6.23606625537394
5.17406659775102
3.77356616487884
2.40294033700987
1.54862236334514
1.48946709918965
2.10645133321766
3.05555855278766
4.03799189091633
4.89029128322571
5.53946226051376
5.93992560279395
6.0334446942165
5.77255782865824
5.16569925358267
4.22767463767886
2.90229206552084
1.1542070594422
-0.848379389692194
-2.76007340506631
-4.28642462055608
-5.29169876488259
-5.71140649499794
-5.51486202448067
-4.79497160838194
-3.80776934216968
-2.87376353501715
-2.20889374399816
-1.78474552679136
-1.36348713196019
-0.758870826784766
-0.0656792946387272
0.428962017419872
0.534545869599947
0.31970777914659
0.0532121133712745
0.0181575256994984
0.310947243914746
0.813362893139272
1.43102576105431
2.29523702735535
3.58469877490599
5.19043588187493
6.71850188374776
7.82117253186608
8.41797767466843
8.62466069531914
8.58767526951246
8.40741160099865
8.16498475720202
7.98501617076338
8.02498387976696
8.34021610515061
8.75227511742362
8.90746375908031
8.53801230530161
7.72891092726644
6.92077345167434
6.51917850905107
6.3861166948118
5.80794954460198
4.12805915587827
1.37883198991755
-1.80265027820525
-4.75419005221611
-7.14740703174027
-8.96568213587444
-10.4069459143565
-11.7861623501555
-13.3548861455418
-15.1519341331225
-16.9851287577167
-18.4738380103324
-19.182116756138
-18.914344479381
-17.9239733316143
-16.7040472389615
-15.538255141256
-14.3511020271588
-13.0036769918302
-11.5770977977973
-10.2134111831621
-8.74592976029483
-6.76534008813246
-4.21326600145966
-1.71039093430337
-0.0277939627326924
0.699875134846616
1.03904883310605
1.62857237975272
2.6734194348632
3.9466832113739
5.0496041319474
5.68517581729985
5.8567623821096
5.85133442561729
5.98353510514919
6.36540483780681
6.93518886302237
7.6432423857364
8.54712580730276
9.71666519406431
11.0387505009633
12.1385056678702
12.5896897452898
12.2533258749093
11.3497721405168
10.1895097906291
8.91943094420418
7.52501993736476
5.97293384064892
4.33807735458255
2.83603621602454
1.68054718164513
0.876232491367336
0.239969127368356
-0.363851679032397
-0.936621363285988
-1.47819319087742
-2.0257285919688
-2.54408393746819
-2.9395212023605
-3.20097057007605
-3.40415111781859
-3.57717073986604
-3.6506600294877
-3.52015654388778
-3.10627645785818
-2.39588860258132
-1.46040977738253
-0.41301503000974
0.632584640508399
1.53826847518075
2.15239873922387
2.409115466281
2.35164445463964
2.00483307333284
1.31431464641653
0.288714856534978
-0.872082563360172
-1.87816038910679
-2.56180935867852
-2.96580039298697
-3.23996258336265
-3.44092549076022
-3.43665480264788
-3.07517564862051
-2.4464474297345
-1.86056807542884
-1.52548761640598
-1.33459563766056
-1.00254838536791
-0.347322984207466
0.564897441979869
1.49298795751768
2.21110132144618
2.61617938824881
2.6634881990008
2.31410232094624
1.63711184504793
0.842588853581662
0.0625639946677544
-0.809884965766676
-1.91105771750188
-3.1079589594877
-4.03695800118993
-4.38938907110699
-4.0997307687602
-3.34543927417163
-2.4230528690073
-1.54739893438073
-0.720361441904879
0.192358420332183
1.30059977414369
2.63524806582326
4.14125652783089
5.62146443397174
6.77135285327415
7.39521992441741
7.56613477017742
7.51361424671923
7.38946419059593
7.15927313323655
6.65306916045162
5.7077618125815
4.33844974169292
2.81608137636376
1.55392211622084
0.83896679693816
0.525807203207624
-0.078140534687167
-1.84143076227483
-5.06007878779265
-9.03979968920577
-12.5311387760677
-14.6118817906361
-15.1912068737821
-14.8383927829304
-14.2407760529794
-13.7247620113276
-13.1691887213756
-12.3518160084716
-11.3200530069933
-10.3440808361715
-9.57173667742211
-8.83935763750738
-7.78119380200571
-6.06998994559791
-3.66230204558938
-0.920655542299015
1.56674721978959
3.39548558776869
4.60818684669983
5.5654889118611
6.56677354184975
7.56448699440509
8.22925225523776
8.31929382690865
7.97069840561867
7.57518132577504
7.41383461262311
7.48615061612217
7.62562383922158
7.66072083516644
7.51912499175937
7.28944380211265
7.1390370342156
7.1291253143738
7.2183573889301
7.46970806850217
8.07721797605635
9.09807991863093
10.2516589405969
11.0247770999453
10.9524824292084
9.89775857776997
8.18420158650845
6.39844006079458
4.93011575437226
3.67940404748417
2.23310745225301
0.325948629803862
-1.81935191190795
-3.55134241994054
-4.26350078635639
-3.95364697143371
-3.36302795607905
-3.50633267619296
-4.94651446851329
-7.37508310717774
-9.83100714934081
-11.4195875798413
-11.9196250448275
-11.7089833696604
-11.1867774244432
-10.4430885691521
-9.47817973440024
-8.47973005405943
-7.72110436652154
-7.30080122432768
-7.08604258470389
-6.81862422311864
-6.21546172951836
-5.09400856281816
-3.51914580183298
-1.80188323197419
-0.292823354459379
0.871612686140538
1.89721285840112
3.23698723647354
5.27203381192846
7.95433150849308
10.6877018389735
12.5566941035308
12.795482852171
11.2476738711506
8.47499758674968
5.37335057574335
2.67384676185287
0.819811073776707
0.103476780008732
0.57910329055659
1.79466573348583
2.88113049743228
3.12443562061627
2.48418697778613
1.56334211938662
1.0921703221502
1.39829208557864
2.30742927839001
3.48706963743124
4.77125709983013
6.07569046432388
7.10523411976318
7.35822449069697
6.51187651253533
4.746021151486
2.62917697733244
0.670678438423137
-1.06171234771425
-2.9356008433721
-5.35244889191695
-8.31682125038984
-11.4068043988366
-14.1392843549667
-16.2882090720149
-17.8475582439658
-18.7975087624973
-19.0349096087382
-18.5972375152656
-17.8895802658635
-17.4880762543691
-17.5804841377358
-17.6968380868648
-17.1232914277194
-15.5126607682914
-13.00574559354
-9.8995071346637
-6.38606960398636
-2.59113899521926
1.27916621118138
4.92619422651282
8.12805480800906
10.8730089052466
13.2233974914444
15.1062118855543
16.4422146950959
17.4526509220756
18.5368747590019
19.7500221091884
20.6355244623592
20.6925960762392
19.8662169648191
18.5446963288634
17.2589684921048
16.4249198119278
16.1520382114611
16.125450308129
15.7486038106901
14.5629567336433
12.5895424969442
10.2272541640422
7.79402711958759
5.23662557268154
2.37786490681473
-0.643101962465425
-3.39827058919549
-5.65026548634426
-7.57232771066812
-9.40082654295565
-11.0466723206041
-12.1725556353604
-12.5806231733081
-12.4552095010017
-12.2240456675885
-12.1676237031292
-12.1923501331772
-12.0412532253877
-11.6321444619976
-11.0459717130055
-10.2996927427233
-9.3625354003857
-8.33141045053049
-7.35488768403003
-6.40311448832025
-5.29420031894644
-3.94399081431905
-2.48788213903857
-1.18619494937151
-0.264561621448235
0.201551182262918
0.301348172384871
0.219591459268406
0.202904848339667
0.561759377730589
1.55928883075594
3.25366100720777
5.55690338188712
8.42280785358303
11.7635597607154
15.1506401122958
17.8608305740329
19.3689510417331
19.6559999348047
18.9549700823334
17.3486499543302
14.6946325111064
10.8092313294248
5.65716946396923
-0.510057575234321
-7.10226790719006
-13.3483038558249
-18.6323095195871
-22.7258176270158
-25.683444135834
-27.5529072467555
-28.2980954566471
-28.0180323511392
-27.0433646131215
-25.6583947631683
-23.8704333399014
-21.6425389754207
-19.2061467223273
-16.8720499590935
-14.5837560579996
-11.8992809161079
-8.43774478209476
-4.22228919402354
0.387491771909833
4.98605330284449
9.34213915119891
13.3956751524454
17.0857999867403
20.2405584448612
22.6627692665185
24.2703267672718
25.1268896599293
25.4100962022977
25.3823623347138
25.2945001977954
25.2422817490966
25.1552479607518
24.9279828233039
24.469243230845
23.6123493461888
22.1225069879638
19.9216356886683
17.2811411405805
14.6535196168207
12.2129615532039
9.66284712641743
6.72020014406785
3.77532848763158
1.7342506022094
1.01685465009591
0.948758958954931
0.379399971752258
-1.26201569706245
-3.74776667963451
-6.71196800663613
-10.132764237101
-13.9729640020792
-17.5333190468074
-19.6447324982517
-19.932001552851
-19.7637257223104
-21.324395663222
-25.4079329270616
-30.4455705075667
-34.0037073123789
-34.9956773681053
-34.2028531571676
-32.992517906276
-32.0001954311863
-30.9623574854774
-29.3480878656141
-26.9196008313398
-23.8250336141532
-20.3440687409505
-16.6030851816404
-12.5213833653444
-8.00848231856141
-3.17297060306863
1.71870413552367
6.4989625849787
11.2078629445467
15.8359347647392
20.064092319635
23.4838343212057
26.0638115960072
28.1726607964113
30.0990009390436
31.7305368993923
32.7575869607397
33.0592718824351
32.8289031166019
32.3594549465891
31.7204586249355
30.6862163374192
29.0482348018306
26.9170673720413
24.5533654063224
21.9604278105519
18.896744354446
15.3746049076414
11.9373991047644
9.16027475157395
6.76270541506844
3.43021916162362
-2.03762095636861
-9.1962597508464
-15.8489449101431
-19.7667442026419
-20.4408831695408
-19.0768367444236
-17.2154921434943
-15.6682499041317
-14.5304945230803
-13.718640162208
-13.3319697675297
-13.6222915768542
-14.6762655137088
-16.1514541233381
-17.429950317548
-18.0700992452357
-18.0288187810817
-17.4618485306863
-16.4542354069238
-14.9904751521516
-13.08781390247
-10.8934096932639
-8.67934095827135
-6.77250130843455
-5.44346898373068
-4.73612489743402
-4.31953521067953
-3.61861076558309
-2.28761817765258
-0.553440431667702
1.05795325082839
2.30662583051195
3.36872950942219
4.39102111856613
5.13457849629871
5.18688002407602
4.49181356231225
3.63561872754677
3.56460703431743
4.88222781568943
7.30824244212266
9.8422025104237
11.5012313297066
11.9201501825551
11.3482915742599
10.2778116821758
9.17028314933652
8.36321084880256
7.9332930088963
7.522659230804
6.46966232402085
4.36006637329341
1.48946214881466
-1.35456845206617
-3.58783108147454
-5.17842901170242
-6.34520532768451
-7.17868139612796
-7.65701411439521
-7.81506720565235
-7.74872894245574
-7.56129026778567
-7.36118079833431
-7.19745721483386
-6.97463865619408
-6.52505123439528
-5.74297642393297
-4.5745179295507
-2.96389649583461
-0.927091205422754
1.36769941020284
3.6474559708326
5.61014176020465
6.99638484038217
7.75595702307561
8.16757403743945
8.65410747987517
9.44402909342915
10.4801675585229
11.6076041402335
12.7291831526029
13.7842517033691
14.6846617703497
15.3552965648018
15.8555242137522
16.3682712168271
16.8822232676143
16.8372225029438
15.334111387002
11.9676292405833
7.40189247880477
2.91627951255954
-0.60317453217805
-3.09512143353454
-4.88762615713691
-6.1483943485543
-6.85059309550243
-7.05450681034868
-6.97290770432414
-6.7317093658816
-6.24093655866587
-5.43407982915237
-4.52693785800299
-3.85063286019959
-3.47503587634431
-3.2315351575853
-3.18659215236367
-3.92144221432335
-6.13719604481078
-9.89942242768043
-14.3224950399398
-18.1279981104193
-20.5902759623185
-21.910811935885
-22.7175687254901
-23.3740991711312
-23.7906416616358
-23.650245635002
-22.655922389125
-20.7164364928548
-18.0812461803056
-15.280386189408
-12.8664560790427
-11.1787874738993
-10.2249782640339
-9.6310488403515
-8.74335238523295
-6.95558811206928
-4.01950090019208
-0.0419511986424609
4.73788802697567
10.065135215788
15.5752987909865
20.649770340427
24.4426866178162
26.2366168811361
25.9840438824916
24.4965245568089
22.9148557858997
21.8656030386751
21.1047512490634
19.9452651253278
17.994750481005
15.4696306941253
12.8113456942487
10.1258659215078
7.19256500380516
3.99128506252301
0.936417016609395
-1.5198800409544
-3.29876126916824
-4.58416386026346
-5.47277985114942
-5.85733001124121
-5.55518395224139
-4.47934468669123
-2.75928760483746
-0.783054538597729
0.825781726703905
1.32036231602624
0.213419977742288
-2.14935104871169
-4.5375876701705
-5.74722877611895
-5.59434643209766
-4.75810706267626
-3.73276005932971
-2.32255391771526
-0.204454965874902
2.39547788980854
4.78588372410077
6.39191329909096
7.11363555028471
7.21059190135655
6.99439636564012
6.69501165307526
6.51386073755635
6.54109282117608
6.50269359333102
5.84198860965931
4.32818504497978
2.48175744287121
1.15213058406763
0.697241887796362
0.74358863487414
0.73252628324081
0.54054878706167
0.490259373577576
0.82771373622077
1.32930919447592
1.48866098688946
1.0030641461411
0.00228371549911546
-1.08007967286029
-1.75947569448885
-1.81825928846002
-1.59399057323906
-1.82379269312733
-2.94769520843303
-4.5768074993719
-5.7724811552272
-5.78740555979271
-4.48086359570243
-2.2825942950095
-0.167526218802034
0.279211225238545
-2.70990812633763
-9.86448994519941
-19.7611507483798
-29.231537911531
-35.3796724778492
-37.4080236240601
-36.5124813490784
-34.2577235339343
-31.3559493103821
-27.8515542587785
-23.9160482421594
-20.1052352788631
-16.959962738941
-14.6056796523258
-12.7927493544098
-11.1897451954593
-9.49897160228039
-7.3491427326771
-4.33220802084359
-0.276818654771249
4.66253065495936
10.2728761287492
16.4430191979838
22.9425271949514
29.2646096147758
34.8929265650817
39.6123557129255
43.4005053529967
46.088438058214
47.287936024448
46.718592444645
44.6212682535399
41.8470612749571
39.4584546652771
38.031894051286
37.0595539442328
34.9374029578594
29.9155846533173
21.6259161954717
11.7978265246376
3.13458840283593
-2.72779237636055
-6.12858508848353
-8.47648708025578
-10.8605741282945
-13.5569937180799
-16.3568715790226
-18.9404933104244
-21.030319517215
-22.4873119018449
-23.3851474533861
-23.9687471690524
-24.466654829465
-24.8232940147439
-24.590275941873
-23.2424499196194
-20.7342503040925
-17.6951575028374
-15.0031853196836
-13.1545856965814
-11.9840000750689
-10.9037424682426
-9.42687226338655
-7.52992194791645
-5.58416301053694
-4.08137909952113
-3.49448873776951
-4.14776978130081
-5.89337712434391
-7.96415583423922
-9.39440342543515
-9.60705308618938
-8.56204961214878
-6.57850197537
-4.21645478100847
-2.11617091349074
-0.616625263365669
0.515783007138115
1.87217615092165
3.89006100230108
6.51845725337702
9.25678773755972
11.458176736451
12.6937122451058
12.9628580667468
12.6289177139704
12.1651818483074
11.9024356201367
11.9089256901004
12.0446258999103
12.1198627971175
12.0024308778427
11.6290668873019
11.0210169293206
10.2902482001509
9.52771217172427
8.6946013600544
7.73469995776721
6.74580889244827
5.83612691761636
4.74603254680797
2.76510759105509
-0.803744091627148
-6.008407240629
-12.0249731855522
-17.5743370857012
-21.6498780008886
-23.970272781725
-24.8863006308753
-24.9994750928473
-24.8332747042625
-24.6152737096632
-24.2105622899522
-23.3649747453188
-22.0801253203242
-20.5925286401265
-18.9175732903302
-16.6452525733158
-13.369670947082
-9.17593953653042
-4.51708932734017
0.287035904632466
5.21991154169598
10.2688582342408
15.1716191820036
19.5729709591904
23.3447205516784
26.6055719281635
29.412044054809
31.5887277080528
32.9846340193461
33.7808221033977
34.3512340137017
34.822889334983
34.8974542032547
34.1291174281257
32.3515738113037
29.880894960148
27.325228020987
25.119818119675
23.1956606457507
21.129506545458
18.614194608056
15.7374924782234
12.823615438932
10.081696255239
7.44393284084778
4.73075038829695
1.93915708860762
-0.708275648839422
-3.09476237570071
-5.6110247033667
-9.14311531211697
-14.5080242811997
-21.7480202162425
-29.9413361008834
-37.8018477006351
-44.5292337155012
-50.031619846945
-54.3765163292608
-57.2863391353884
-58.3449693226001
-57.5393302115242
-55.3505756032247
-52.3275335203411
-48.7333072733974
-44.587294288816
-39.8743203218815
-34.6529495866071
-29.0411563843026
-23.1378164672051
-16.918946308705
-10.1806079248706
-2.63220764704954
5.82439162678284
14.8272924428151
23.6561546138366
31.7054645703853
38.7800969351073
44.8742182713885
49.8791837423712
53.6836007202488
56.3260011985273
57.7257038054031
57.3231613400699
54.2550920997823
47.9839049225481
38.7554219618744
27.5093029949557
15.4034126900725
3.45974581087978
-7.32907821958231
-15.8347215574821
-21.2374990417294
-23.7499736906423
-24.5209074194874
-24.6367995715342
-24.4309124432148
-23.751072894244
-22.4778196771824
-20.6132285922523
-18.1947860065022
-15.3635612255256
-12.3561010419949
-9.26953157210469
-5.93698455163692
-2.15729726862101
1.97073736901121
5.99542089316744
9.43876914249667
12.2063809299385
14.6029852524707
16.8711853216736
18.834059548529
20.1464688689619
20.8041408447305
21.1951635057813
21.6310018678667
21.9580107232618
21.6988440391224
20.5511760558937
18.6970072012348
16.6112171747845
14.6680303989195
13.0471898279453
11.9097231444457
11.4098528632659
11.5208608961007
12.0465573044204
12.7429355992873
13.0930814731159
11.9364822435291
7.79826725844032
0.0132670994830733
-10.4880438704633
-21.6588141865527
-31.5651934821355
-39.153427099874
-44.1457884794171
-46.6515546738992
-47.0453289669636
-45.9953739374808
-44.2766609938424
-42.3907232441142
-40.3564691221651
-37.8515327759644
-34.5223383091133
-30.2514601049041
-25.3091815440814
-20.2825262784932
-15.725907122402
-11.8067182417095
-8.30050128915047
-4.87694742778401
-1.35290218648391
2.20604911460472
5.49844976872143
8.15557162833012
10.0155712906697
11.2621050053401
12.3207054447835
13.6721402103918
15.7105370820447
18.6291318385455
22.3560705255572
26.5882593800566
30.8519829971804
34.5291266682047
36.9730707126148
37.8368555886237
37.4255948848496
36.6455154450734
36.3873611605469
36.838354660695
37.4493780091435
37.5438225940844
36.7266039556597
34.6497184570291
30.7912315224602
24.9070516112673
17.6537144413422
10.4388176686668
4.51058613937279
0.137560755773715
-3.54714574575135
-8.0272677888027
-14.4093992553702
-22.4892415341825
-30.7366876918417
-37.3951791302471
-41.6703496782134
-43.9186937862747
-44.9649533992975
-45.4464293279453
-45.6382728396491
-45.5548873478784
-45.0464124393758
-43.8546099298165
-41.7285317750444
-38.609571004811
-34.7097248251834
-30.3480248432749
-25.7120387760609
-20.8046071286047
-15.561082489191
-9.95818332240196
-4.06279155170478
1.97061557371961
7.97140072078255
13.7869027035143
19.1624081469056
23.6557263509583
26.8522550273134
28.709551158998
29.6112753484513
30.0963363827568
30.6107539021751
31.4507856155365
32.7430847298897
34.3611745399155
35.9109954374334
36.9226725490085
37.155931863773
36.7117012118354
35.7125348405795
33.8039578610823
30.1755104990084
24.3784940040382
17.1462111007121
10.1657345256817
4.88760756755827
1.57633245651264
-0.520233335378477
-2.27442933981185
-4.11322091146392
-6.23580535885379
-9.02798209183022
-12.9327494519218
-17.9104398728407
-23.2419191448928
-27.9528826810386
-31.3798189810544
-33.3880924525891
-34.2335279373352
-34.3014948803074
-33.9047781505315
-33.2147806090686
-32.2852073034801
-31.0882710039528
-29.5625256504031
-27.6615402753604
-25.3081604808952
-22.3032305550436
-18.4238845859376
-13.696305083944
-8.47157324455981
-3.16741352824841
1.96945359490543
6.8110134931575
11.1988638412957
14.9334149436192
17.8222840489329
19.678650187405
20.3918406668478
20.1609579461645
19.6672603298058
19.8434892234167
21.2290816491083
23.4228751150931
25.2713326533703
25.767046029278
24.7737212834613
22.8433308854155
20.5202905375952
18.0583150667131
15.6706722018643
13.6304871275775
11.9473001217472
10.1638264492396
7.70468817307537
4.40392710328855
0.578420285803892
-3.37026604634276
-7.25947838698613
-10.9973704455895
-14.3371854859635
-16.9413666144078
-18.6537461318921
-19.5871706479638
-19.9752368582532
-20.0287099227539
-19.8584243550747
-19.3980959604911
-18.4380612053591
-16.8508500385994
-14.7663135378088
-12.4566483894786
-10.0920839258992
-7.67011189015663
-5.13037013526891
-2.46519014650839
0.253551773848653
2.89625157320321
5.33736049887796
7.5397470360619
9.57572901879391
11.5284824959669
13.3440104143052
14.7854772089281
15.5839609556069
15.6720450738951
15.2276454685831
14.4488067026139
13.3529955976781
11.8598112933531
9.98812203244461
7.87925700252889
5.6871177622546
3.52088787106299
1.43011913580647
-0.620822422351948
-2.70606019010826
-4.82291339022266
-6.87154044442944
-8.74821871849984
-10.3819019403475
-11.678669205229
-12.5193695592242
-12.854555964814
-12.7743318070091
-12.4483811466663
-11.9568271378478
-11.1711781527184
-9.89618080844211
-8.23996555881806
-6.78670151290837
-6.2094534720656
-6.61582703182944
-7.34778820653014
-7.4967081009902
-6.60039119547349
-4.8628079696758
-2.82672064186357
-0.934725439547136
0.647260534940039
1.94759278419006
3.06621174763169
4.11724858231474
5.17248469880875
6.19637739071418
7.07524051117433
7.74166468235565
8.25415437409203
8.75889971421618
9.3819428790582
10.1204357305526
10.8227111893977
11.3161842958589
11.5502492980032
11.5600402032261
11.3265778130495
10.7660621590244
9.83978116880518
8.61561625122791
7.29671306447893
6.27856050983075
6.06814301661886
6.96201763678598
8.77206327277206
10.9244568896558
12.8326164498909
14.2035328819524
15.1106918957896
15.8739935677064
16.8320100542323
18.0942057525299
19.3671581155287
19.9365739747709
18.8540156497651
15.2851962358226
8.87107103188632
-0.027682175501433
-10.2626753246711
-20.1298118234809
-28.0085587706283
-33.1167718702399
-35.7544528508517
-36.8233712486911
-37.1476650847308
-37.1606173639127
-36.9612806172053
-36.4862595116907
-35.680747801739
-34.5961878604464
-33.340825258635
-31.9576604982656
-30.3483161064465
-28.2502276551891
-25.3048607563297
-21.300276095927
-16.4386982306127
-11.3070081146223
-6.51360421264706
-2.32675563006694
1.39010196755775
4.94812601996467
8.51904905224055
12.0084289064043
15.2580492088857
18.3803825108594
21.798891239766
25.8057764131676
29.9884249621684
33.1589933599745
34.0618731431351
32.3414477984349
28.8561559747185
25.0366807104803
21.9728665903059
20.0412773713765
19.1119956846888
18.850084397901
18.8604019332325
18.7657943137578
18.2925542665739
17.3323584306643
15.9574718200739
14.3597951994183
12.7021417640662
10.9989862645559
9.1566474993662
7.10128719450944
4.84470266472437
2.48654746562014
0.187279531200534
-1.93946050838137
-3.95434762271453
-6.04701696034846
-8.33822363277677
-10.7847073714112
-13.2613618687798
-15.6467546995144
-17.8400419367688
-19.7821251443312
-21.4594683627836
-22.8315547306487
-23.7607879660292
-24.0386354584747
-23.4953223882994
-22.163156572325
-20.393574359316
-18.6942371797864
-17.2880364848876
-15.8720409300869
-13.9371250567774
-11.2981867186127
-8.23494433293584
-5.17947628663187
-2.34989090170259
0.374639877739112
3.30558416556203
6.62736870910432
10.1435837110125
13.3436350453739
15.7638244395385
17.300863052007
18.1978698207452
18.7624886723732
19.0993985268721
19.0803761018822
18.5294791175098
17.4082221893106
15.8605204328517
14.1679109903939
12.6482245177459
11.4478182179709
10.3584448912016
8.94125877344807
6.92272416064934
4.44708107360861
1.94759864464869
-0.170981887233948
-1.77777113147712
-3.09515681626601
-4.58757907890149
-6.72339491623624
-9.78539981696361
-13.7788948476634
-18.3336596538211
-22.6951996776765
-26.0474338211
-28.0084537980542
-28.7706099827949
-28.7372833340298
-28.1156657524519
-26.8666938775834
-24.9030576763184
-22.2306616779819
-18.9347551736149
-15.1013281549249
-10.7751889584917
-5.99477296029928
-0.877073853647864
4.32330549215244
9.25387498253588
13.6128204863649
17.3085597854964
20.4568535621524
23.1643330111421
25.3257494358118
26.7006183176979
27.1821858241026
26.9172979858165
26.1608627902665
25.0931665928896
23.8234805719554
22.538195979276
21.5582971251023
21.1331092514478
21.1220647382274
20.9707252796591
20.1133268595565
18.3871054362675
16.0428782382956
13.4782234046894
11.0050022814974
8.63814621846775
5.87137375051433
1.77560218659587
-4.35670672124378
-12.2996244929538
-20.8625086258474
-28.6216040358196
-34.6859129679307
-38.8031047569164
-40.9402688424295
-41.0511138056407
-39.3206374518951
-36.3894799133534
-33.0644220131467
-29.7718418217964
-26.3779611281283
-22.5342465862423
-18.1360803473839
-13.4601002952597
-8.92371317164494
-4.76640544325018
-0.999509466926946
2.39008907277365
5.36382225478329
8.01232808048576
10.5676843769131
13.0073364794773
14.7941556908062
15.3056130268824
14.5536216209896
13.3442807262038
12.706487934548
13.1733919447775
14.5088007466913
16.0371781528172
17.2641884755584
18.1807852069333
18.9316411808391
19.2996351332364
18.7344342953821
16.9666497340842
14.4979706870942
12.3752584822476
11.4021095185714
11.5064927399407
11.8796255765808
11.7646322715788
11.0808526469263
10.2779193967324
9.73949884606706
9.50680882560045
9.55775903099832
10.1560775623151
11.6981069010962
14.0318678308257
15.9179695129175
15.4508867467785
11.3868197047732
4.15786039663298
-4.52543489259219
-13.018694520418
-20.5654869853309
-27.021936625519
-32.3095204602848
-36.3889117410003
-39.4818308577659
-41.9175306752246
-43.7029473365857
-44.4628714891054
-43.9317296109125
-42.3855783332633
-40.4359830637629
-38.439011164881
-36.2318629423031
-33.4191483328528
-29.7807282536318
-25.3782004356961
-20.3614855337518
-14.7559908939984
-8.50085569839869
-1.73610129857488
5.01649402388016
11.08568698717
16.1075500752857
20.2742982820246
24.2222808083312
28.641010237212
33.7369079844144
38.9503445029633
43.3764384355577
46.5427453215039
48.5364201410128
49.280928956349
48.0230253753665
43.8183036941374
36.4512878185127
26.8171779272176
16.539312329046
7.19763083769825
-0.34179737729708
-6.05707373065369
-10.3466589478779
-13.5923956209416
-16.0550298564727
-17.8283247893748
-18.7103231468969
-18.3765631645846
-16.9023668322867
-14.9416954204818
-13.1745963102461
-11.6665482484441
-9.93065030377566
-7.53962288228373
-4.49234192405578
-0.988496476911695
2.94885736645525
7.47185306048526
12.5782284056854
17.9053117059594
22.8793483482283
27.0636149568948
30.4483331938398
33.4679064106713
36.6132544431517
39.845173010073
42.3701148384576
43.0951000921608
41.3876902579215
37.4707929155887
32.1343693206698
25.9832335848091
18.8056434147591
9.65973600457669
-2.23709513787407
-16.4801009950684
-31.2251205752118
-44.0441193889548
-53.2835372465915
-58.853163844035
-61.8447184557847
-63.4301047603131
-64.0893448174741
-63.7198946374535
-62.201573387952
-59.7052393628578
-56.5857695507932
-53.1560588566096
-49.5366216142705
-45.6105414710269
-41.1374156412328
-35.9680860430873
-30.1364887130262
-23.7825491831886
-17.1121032259219
-10.444978930182
-4.16517220499507
1.45335871306732
6.34459396008705
10.5909329822821
14.30595672309
17.5269080134905
20.1647597258673
22.1023414679015
23.3875409528954
24.288898347899
25.1263758578218
26.0715980552297
27.0933514988835
27.9973808647914
28.4665958087297
28.1599926314123
26.9504549934308
25.1570335688766
23.4682618888451
22.4944847826267
22.3254341806698
22.5196034102533
22.4948765222075
21.9195079132345
20.8548836344269
19.7104966436327
19.0483396482506
19.1727385855285
19.7215624465541
19.7651819194643
18.5328260063054
16.1384353273287
13.576629313879
11.9792329196301
11.8039521144237
12.596398029895
13.4045822246613
13.4248725560565
12.4039894941061
10.62107909463
8.56512459538605
6.54691095280441
4.5256941122624
2.31889544381813
0.00173305635185242
-1.9470748492342
-2.92937676596153
-2.65497818423897
-1.35678922493218
0.322980008975693
1.71730750717733
2.56019009677615
3.06131206036131
3.49707188292228
3.78343576769417
3.59304064241209
2.89403393458933
2.19456043509543
2.07223344578313
2.40936313487836
2.17606718369304
0.124980667956148
-4.18596009087853
-10.1014762082087
-16.7322219603284
-24.0886418396911
-33.0673525835796
-44.0656609963351
-55.7495821198353
-65.5290404149457
-71.342532754152
-72.877800940437
-71.210716944538
-67.7102566717928
-63.4579074163967
-59.2402444767987
-55.4352790698169
-51.7566639930242
-47.4513132200501
-41.9808185054117
-35.4289553520956
-28.2126410710754
-20.5865183207595
-12.5536403428854
-4.14013684140766
4.41162681434817
12.7653656488243
20.7609643856712
28.4870685478382
36.02870827556
43.1865442670524
49.5354484212067
54.7380048577753
58.6925689728714
61.3658947202281
62.6001516972597
62.1762181638456
60.0704195368367
56.6626484702763
52.7475790001755
49.3017554257762
47.0132847588652
45.7937090801813
44.7433805275445
42.8152020839133
39.6731659669872
35.8553945023733
32.053313982344
28.3662784676128
24.3324855302487
19.4389792257607
13.3576347427446
5.92579112430955
-2.62864099182305
-11.4058243413063
-19.1640181915939
-25.144124625468
-29.4726694361066
-32.7299138778532
-35.2733999126197
-37.0329743319666
-37.8204156445721
-37.6772453769127
-36.8766116550053
-35.6557993786251
-34.0440570237993
-31.9574080109345
-29.3743086904726
-26.3767853443482
-23.0757256375426
-19.5533921442769
-15.8925381936844
-12.2638371776041
-8.95565152811262
-6.24557458613722
-4.19681823331772
-2.5777882453062
-0.960474805105081
1.10087381874708
3.8655190830469
7.21460623045524
10.6354387800889
13.4937827725943
15.3974671860971
16.3374996635937
16.5567249985949
16.3261439832639
15.772868542023
14.8472527270538
13.4815160675224
11.792893458841
10.0613870230612
8.48203910134173
6.9981528601546
5.39368185586936
3.49071359912806
1.21887439613732
-1.48303414884381
-4.74080006936686
-8.58524232356697
-12.6805948315344
-16.3549390961165
-19.0471632262565
-20.6989196525647
-21.6344345942924
-22.1015959771513
-22.0048693901144
-21.0648449418121
-19.1867080183531
-16.6653583551631
-14.0265344319259
-11.65996713305
-9.62355908439451
-7.77074685562766
-5.94545127077039
-4.00408119913325
-1.78731720284747
0.778457315815228
3.5782761054801
6.39673870195124
9.08723121057465
11.597462218301
13.8758167500097
15.8349788034247
17.4038329834678
18.570151398762
19.3589289416951
19.7636676147279
19.7031835520949
19.0785710974722
17.8680828625061
16.1193161947846
13.8859328365426
11.2847082750119
8.62202332737541
6.3536482094744
4.84692733261235
4.15487933471007
3.97191277159366
3.81651901297735
3.37618278932723
2.77034398273154
2.46517831584964
2.89200059211827
4.10415507355837
5.7014735418687
6.98579187083646
7.21512563265982
5.87476509783917
2.91610604150604
-1.15452922211307
-5.51068045807854
-9.50673381826047
-12.9969820983405
-16.1242477516721
-18.8746623972889
-20.9537546084485
-22.0195309863083
-21.8872053902391
-20.5670561285603
-18.2788669357504
-15.4283061714231
-12.4223635624633
-9.45347664419979
-6.49718407715402
-3.47814550818648
-0.365531163704674
2.83529203345721
6.05087369132416
9.0843822689754
11.7052060167103
13.8804559779514
15.8994277832599
18.1898988721123
20.9490689440416
23.9578902805806
26.7863184146172
29.1393846377713
30.8952108039921
31.7485823491559
30.8841741066694
27.1973823300537
20.152248838249
10.6600055220706
0.954972611927069
-6.85999567198668
-12.3727814416862
-16.8165610629435
-21.4475223829877
-26.2992479495328
-30.6531119478557
-34.243470345816
-37.4771200274866
-40.5680703035413
-42.9206410429204
-43.5647351840874
-42.0894335944881
-39.070835617827
-35.6059128230952
-32.4036900248293
-29.2667511942547
-25.4347117056536
-20.4242876980064
-14.5295742815895
-8.56806216946338
-3.24106490011892
1.26457431501033
5.19996340738968
8.91921257646573
12.5706215188527
15.9586673872682
18.6747597559776
20.4793842783374
21.5721937015982
22.3439716083754
22.8535809430317
22.7574916642142
21.8436292727501
20.4736778356934
19.4051802081799
19.2628537027073
20.1385126406903
21.4760044107356
22.3037391069805
21.8373650003239
20.0776687178057
17.8449606454138
16.2137937547583
15.8652380583434
16.7878240007645
18.3833191093826
19.8357927183147
20.5065845247851
20.1034627709278
18.5939198820656
16.0874120426099
12.8433717985119
9.27945701711136
5.79160066569607
2.47993754369355
-0.877013477149813
-4.45699865852293
-7.98328544186413
-10.7558055581993
-12.1482990806218
-12.0848754125706
-11.0732795951839
-9.84558459115552
-8.93396907758626
-8.42497054704987
-7.97346441732843
-7.06459775286101
-5.42230766608979
-3.35426748202703
-1.74997056572651
-1.57423813884669
-3.16261935987426
-6.01895748573858
-9.39641981206734
-12.9573773519059
-16.635404366103
-19.9571458980766
-22.0081592973081
-22.4508048183902
-22.3952370980006
-23.7358957071189
-27.3285071209424
-31.9839013326554
-35.5301012787873
-36.8214047701105
-36.4664991850645
-35.646941277396
-34.6412107587172
-32.7308416024769
-29.2554066054558
-24.351025944411
-18.6533389820796
-12.6066440782529
-6.27676215013501
0.277824123436273
6.70659173077328
12.5153927808125
17.3799755741253
21.2490573213858
24.3229748536834
27.1094444199449
30.3251683132612
34.3777348905747
38.8703765092128
42.8369139920671
45.5297159142677
46.8383889878548
46.9989792468941
46.1815333507614
44.4464975330744
41.9014151150475
38.7637022559461
35.3183792693661
31.8285247132632
28.3883801698423
24.7911497965309
20.5777436682463
15.3552496682592
9.26749302901203
3.24447026197469
-1.42769279840805
-4.1984092070375
-6.10342943695052
-9.26352219543457
-15.1397110428199
-23.1809194362857
-31.2944351506209
-37.5743843744942
-41.4148434385378
-43.1823229054539
-43.4155600920961
-42.6050836683436
-41.3211367307827
-40.023032865691
-38.7200657624697
-37.0814802278847
-34.9007975378995
-32.2782507062056
-29.36422764448
-26.1238148799418
-22.4134619334202
-18.1718445445079
-13.4744239322923
-8.4338849297593
-3.06049694249426
2.72553369298865
8.79445527716558
14.4901759561313
18.8381091003737
21.294565715509
22.2705598867511
22.788277030978
23.6015003389203
24.6937517961609
25.6056192167517
26.144555863957
26.6827403307413
27.7841702630662
29.6481366357935
31.8842521854421
33.5710444333314
33.412365781365
30.2121834765595
23.7608984097964
15.3922458647074
7.35621091247687
1.3671169857104
-2.32804394648769
-4.6256955171066
-6.56561572896142
-8.63681265769028
-10.7451604163854
-12.553253327775
-13.8063019213606
-14.4781005272781
-14.7324426815957
-14.7435880297189
-14.4987035155793
-13.7807361121161
-12.3913172516124
-10.387714089533
-8.06585510568388
-5.71588861265577
-3.41561551573358
-1.05420868020005
1.45308275158862
3.99735305294715
6.40191813231104
8.74531309417231
11.4045728759799
14.5984290385929
17.9431610970013
20.6377105774163
22.0732105295982
22.0938414535655
20.6454273414619
17.3495466104016
11.5724831881375
2.96543998128205
-7.9812383740084
-19.819589448406
-30.6284514355271
-38.8583022241942
-43.9816713798535
-46.4870567948967
-47.2411633257645
-46.7415338617493
-44.8907678668425
-41.4743369508146
-36.8035459980497
-31.7520821615554
-27.0760836789485
-22.7555954347191
-18.0889141663457
-12.4329296506404
-5.81074004280829
1.20055348420776
8.08948141773044
14.7644482622394
21.2190471403236
27.0155373580627
31.3772727036375
33.8248398937155
34.5153394063048
33.9159935668715
32.374548237706
30.1203389275253
27.4757233519715
24.828646965119
22.3929168839825
20.1080607004778
17.8216490624587
15.5563732387627
13.5862277359517
12.2380937922702
11.5989100821292
11.4212436704448
11.3464214356229
11.2091374907635
11.0461398799909
10.806889759343
10.2468422996706
9.27252875410312
8.25769830783363
7.75571085592262
7.88363059319202
8.14707887828452
7.87196261898212
6.72929044172321
4.94714325466295
3.1255687158279
1.6407749950673
-0.037943581180292
-3.27918603521412
-9.08861934263089
-16.8362958130443
-24.4482877033584
-30.0471919314854
-33.2974948402339
-35.1064700050748
-36.2915682357876
-36.8277290348759
-36.2987775936608
-34.6919442994924
-32.5077043183707
-30.2341356463258
-27.9823535179756
-25.6438383420085
-23.1688921029776
-20.5509104870653
-17.6360162702992
-14.1299603588678
-9.90443935804829
-5.28238517915132
-0.879259081808657
2.96340862601955
6.51610763844841
10.2712855188203
14.2426851754363
17.8644777957159
20.673464297224
22.9325458193062
25.4057340989981
28.5235779114104
31.8589634259426
34.4215785510778
35.3900826381836
34.5675308553852
32.2914989604958
29.0824460580538
25.3899156614575
21.5615065412294
17.9929439311331
15.2825082151748
14.0774799680457
14.5376821946052
15.9407694838925
17.0340371224429
16.873846990158
15.2130081786562
12.1231184722489
7.61062326095079
1.85501365987193
-4.39461915315095
-10.0474647653962
-14.4083265055283
-17.5823000172373
-20.1285746376137
-22.4432711736939
-24.5713111535814
-26.5258108192835
-28.5715864364505
-31.053303129084
-33.9769669224893
-36.8415853327128
-38.8872016417104
-39.5124577308832
-38.5520464397252
-36.2631146748575
-33.0604650132264
-29.224882463051
-24.831331212473
-19.9163193776403
-14.6806768202079
-9.52037383238346
-4.81573906192411
-0.626482264036282
3.36657125006879
7.513566926836
11.8110427870183
15.9743599305954
19.8508382250772
23.5726566167462
27.2425551177229
30.6135173306078
33.1858517769734
34.5602234809336
34.6464360602485
33.6493692162199
32.0267167732032
30.4488096507578
29.5479104931495
29.4428622202222
29.4987616191302
28.7584532506792
26.7468650168318
23.8152285351781
20.6557087089116
17.5077126352844
13.8216228040716
8.65069868990358
1.46753013457261
-7.1867470249252
-15.7825743611865
-22.7165923484345
-27.400849029465
-30.5164557155219
-33.1302165584689
-35.5926355731157
-37.4085268522399
-38.0949310850626
-37.841143634032
-37.1610680215572
-36.1403575484731
-34.338074318116
-31.3796708703064
-27.3920364016723
-22.8336040471012
-18.0898971161226
-13.2952124236179
-8.42898123502698
-3.50023106071564
1.36594104052689
6.01335925438133
10.3613982532987
14.3237786863923
17.660665258034
20.1245775685517
21.8602169816744
23.4766542870148
25.4810213221933
27.6419485062329
29.0880104479536
29.0999294327611
27.706670477283
25.4587354408596
22.779138768488
19.7533084890217
16.5472690038141
13.7745025831875
12.2029113788523
12.0199109953662
12.4006538527547
11.8871184042957
9.41095086009986
5.1640814640205
0.489530606492323
-3.17273318518664
-5.27649061790787
-6.23429554711696
-6.7774307042213
-7.39788579409137
-8.21172857818533
-9.07434907393109
-9.77747132389767
-10.2287581671711
-10.4722034110866
-10.5587031453436
-10.476142786128
-10.2117976982194
-9.78628042855965
-9.19058253529512
-8.37250298929739
-7.35608504769324
-6.34101459598948
-5.58905537826344
-5.16428708277652
-4.87034852830989
-4.58895005984562
-4.6472961731257
-5.58165598143138
-7.3797266306318
-9.19201263411375
-10.1017317138725
-10.0956524419294
-9.9854996675203
-10.4145286103711
-11.2546597399654
-12.0142344428239
-12.499040260915
-12.8497416180535
-13.1042096468875
-13.0186702129152
-12.3699527948854
-11.2454207366312
-9.90009453569963
-8.40188739625796
-6.52900853362178
-3.99118830629796
-0.716987897576667
2.96954708266309
6.36996457388417
8.7377129917023
9.79243222833125
9.97319342633295
10.1145857191886
10.786004816513
11.8755408108626
12.7849452968559
13.0364016214104
12.6723828030888
12.0546918879921
11.3970271601582
10.6661677833854
9.89547357619434
9.34978869244726
9.2732735366396
9.6117811471136
10.0936804577816
10.5103943634956
10.839151223489
11.150652622036
11.4953667460331
11.8952131561122
12.3721862805139
12.8837787074971
13.2161860809225
13.0675163733607
12.3480335213869
11.3431203719769
10.4933202309582
10.0673797292417
10.1000933492665
10.5082466686476
11.099415142696
11.5174156219955
11.3489431950383
10.3427208730526
8.49651268472435
5.97482174286022
3.0567160845951
0.199263571157989
-2.00419067330133
-3.20800315429336
-3.80315176405859
-4.86896034740057
-7.37984507384172
-11.3859412291811
-16.0222606494089
-20.2781329115462
-23.7028937197895
-26.4665018957954
-28.9043389813823
-31.0781068723176
-32.7641132219527
-33.7862000803816
-34.2221782999236
-34.2364293277615
-33.833839581661
-32.8789795921836
-31.2815706723049
-29.0836409843636
-26.4287369732598
-23.4860546594528
-20.3111461304959
-16.748281978123
-12.5866948910167
-7.87300996715472
-3.00568375179645
1.49154421075526
5.25869983587782
8.25859055709191
10.7862424293814
13.297280220772
16.0963318257788
19.1047332006542
21.8824144015222
23.8890864992175
24.8836392567271
25.2310330162997
25.7415681404704
26.9968046159484
28.7847432261399
30.2933449202337
30.8648397896862
30.4896749120877
29.5993233229786
28.5119755930706
27.1544885586804
25.2742737243999
22.8097097906787
19.9878216342743
17.1018552088668
14.2596189395644
11.3201951630639
8.00517731740121
4.0964142186751
-0.377767381012185
-5.11126598731596
-9.69939944654127
-13.8585486856657
-17.4712507723996
-20.4742389121306
-22.7816770004378
-24.3374020388896
-25.2086032489822
-25.5802907019831
-25.6053938054163
-25.2511224247447
-24.3542127364461
-22.8523142387371
-20.8826536035926
-18.6158674841476
-16.0883879039025
-13.259354890552
-10.1579462559951
-6.93146312117686
-3.811505385793
-1.03584006418202
1.28487877460574
3.23121838216306
4.93612672639727
6.39419028459304
7.477875509251
8.1380295779045
8.54881089214206
9.05912391761157
9.98646236320068
11.3925562721778
13.0269481717055
14.4923099646249
15.4454085360135
15.6662297095386
15.0840858032975
13.8721540087676
12.4708203503146
11.373965073187
10.8162628667569
10.6533523866486
10.5078368236138
9.99233056634125
8.81554551478698
6.77656852801618
3.8153891845883
0.173453330664811
-3.58301583994383
-6.89178273091768
-9.59209449369994
-11.8991626297488
-14.002279855093
-15.8248060146836
-17.1781909693827
-18.0088373224958
-18.4588108994092
-18.7598839781517
-19.0393984751341
-19.1181857649223
-18.5124787189704
-16.7831814990837
-13.9945257051128
-10.8096926101439
-8.02433107938476
-5.91440552373337
-4.06030757395398
-1.86157672478566
0.828922592753288
3.62880674517004
6.04167740422944
7.79219177645297
8.85751882470049
9.40799251888118
9.75008037895602
10.1680533640002
10.7284624758204
11.2616678875918
11.5474500811848
11.5071946983128
11.2309993449899
10.8431801006644
10.3624916254904
9.72698388442748
8.94928422105957
8.16151649350267
7.45531015007298
6.74718092667277
5.86372477362151
4.70447173494153
3.27550413264483
1.63554194452123
-0.115322935344708
-1.82032248888861
-3.30413040364117
-4.46400336444044
-5.33612228477434
-6.04131194692964
-6.62352950696677
-6.99006222977804
-7.09562578092826
-7.12205522212844
-7.317167400562
-7.65776017367692
-7.82163497960479
-7.52135823182619
-6.751498007935
-5.68963669299363
-4.47753964213155
-3.17054762464121
-1.8385386859122
-0.620060153574716
0.351996442889043
1.03019597251533
1.42104969379725
1.53959458406888
1.48388578994189
1.49505688449276
1.7896195367971
2.31514121950629
2.79520417638304
3.04968073190924
3.17516842681888
3.38475763966384
3.75949824592163
4.18867655709066
4.48899499289366
4.55725942588483
4.44251856449639
4.27630584306008
4.12276416877953
3.91454486778661
3.53401604428131
2.93791958029608
2.2381722822178
1.70025507820228
1.60036732531527
1.99771635462534
2.66081848844464
3.26060865613612
3.61214941430972
3.7139651206376
3.61598114133569
3.31613046664328
2.79868896073464
2.149200305191
1.56670571076118
1.19740400531167
0.978856430637288
0.696582613052171
0.137853916157162
-0.856763354487266
-2.35369940712656
-4.18572730920206
-5.93966874937019
-7.25616194275699
-8.13178299465115
-8.84679929357497
-9.65086680310903
-10.5809121937051
-11.4933155050479
-12.1757608007736
-12.47618899676
-12.3945239460328
-12.0456261683538
-11.552590967855
-11.0085932125827
-10.4555508288328
-9.79285852177947
-8.77836779715304
-7.24439597469472
-5.26923120242005
-3.04571375725113
-0.649824808456318
1.94896912767085
4.6755104101437
7.23909962483237
9.27038857383934
10.5696845615173
11.217558993669
11.438790568168
11.3981731032084
11.1718209683795
10.8516951184226
10.5646012256078
10.3847924657946
10.2749316529397
10.083488086072
9.60454272776667
8.76751093994626
7.80997672045073
7.10856805195037
6.74376002816489
6.34593724687371
5.46929122980827
4.05352174130205
2.45899918990581
1.10629760822321
0.141490497840644
-0.567442211566535
-1.17644799092082
-1.6896507051307
-2.06260138664762
-2.37237463843343
-2.73656539675096
-3.08171477939013
-3.15128350684305
-2.79997822766328
-2.18310031671809
-1.59103625236852
-1.13937209192172
-0.672179197175661
0.0117851785522839
0.828110117748234
1.31901266048724
0.93983959940742
-0.533427838788418
-2.83045697402267
-5.33977895930843
-7.44425852820547
-8.83795454300312
-9.61269070864205
-10.035162668771
-10.2598482774355
-10.2961802957913
-10.1710565511185
-9.9827408738935
-9.79572809515923
-9.57871492930755
-9.25900954288888
-8.79078298658359
-8.17170648455085
-7.41659032118198
-6.52071391033676
-5.46702157091744
-4.27209598572252
-2.97494123550139
-1.55634308500149
0.0738996199633876
1.9627840761817
4.00683552890533
5.97452573820486
7.63376676750773
8.90976397531982
9.97977795659283
11.1658924444021
12.6322541870209
14.1773132458289
15.3701627633296
15.881438991142
15.6775128590029
14.9800116342055
14.1090594154414
13.318450132705
12.703576986393
12.2467613951707
11.9324394599389
11.7652180955261
11.650565950951
11.3023751923791
10.3613746879881
8.69150839652047
6.55146681193326
4.36590050436542
2.27767040137606
0.0165636520555227
-2.72718372532637
-5.88498109824125
-9.04140114294773
-11.829494642494
-14.2245375122054
-16.4404616382066
-18.5501118490698
-20.2570175269838
-21.1334502737146
-21.0822693010359
-20.4433217074662
-19.6182559423052
-18.7233787411712
-17.6503888127178
-16.2969431307389
-14.6172771472337
-12.5678211188415
-10.1666585498042
-7.58814509483511
-5.09708716541275
-2.87483436541198
-0.938708309552799
0.793337366341151
2.40617259814671
3.95351326055289
5.46028165767957
6.88800014850783
8.10166681016533
8.96389766656201
9.50511888206652
9.91593415176932
10.3167399487174
10.6217230659954
10.6883917223775
10.5044807517178
10.1486782605805
9.6391220199224
8.89773045591051
7.84175079245254
6.49371427932359
5.02442227735263
3.6701817013392
2.58832031651228
1.8293888285022
1.42697409831271
1.39042870286564
1.57163210063291
1.65702687882693
1.38230481508837
0.736486575922509
-0.0592822771901812
-0.747448455775706
-1.21634013851997
-1.52942004215688
-1.80077465811096
-2.06072340557634
-2.24669277278348
-2.28514673091875
-2.15839384433043
-1.93926679761104
-1.78219342458239
-1.80687294040572
-1.9625118132478
-2.09595341593653
-2.17400023752185
-2.31514785462644
-2.56097033126901
-2.74714209504824
-2.67556616885534
-2.33198329074607
-1.87123041923986
-1.42509142493755
-0.957374626555059
-0.308714296958517
0.606814914654764
1.66365266930191
2.61488364571501
3.29778339294585
3.7164988058409
3.97822640135066
4.22319601370336
4.59005432969603
5.18302665733401
6.0484569153175
7.14127226855947
8.26735076240077
9.12725740677656
9.53379065383367
9.57444422058295
9.48991267083556
9.43574089547572
9.41038475353552
9.29623551242042
8.83865980426072
7.66684792554189
5.50492986000246
2.38742637962289
-1.37498675883224
-5.38938670450761
-9.302006401314
-12.8334944484396
-15.8141252465748
-18.1935917486092
-19.9987172324868
-21.299285150639
-22.2068690269412
-22.8547095849694
-23.3183671278451
-23.5041277201977
-23.1229571700529
-21.8746819220028
-19.7408339532135
-17.0600269481263
-14.2556569725309
-11.5150112114572
-8.76536999787357
-5.90573543408484
-2.98320248028523
-0.139315747885646
2.53940344665427
5.01180310441268
7.1016544391105
8.47735172225026
8.99399159881835
9.03095802632209
9.32122769827224
10.3989922257008
12.26839134441
14.5363404522324
16.706633680632
18.3513564211991
19.1783290196021
19.0849260447215
18.2006849414376
16.8743251508688
15.5391004349425
14.4658829745886
13.6117789485369
12.7564051761548
11.7623958985807
10.6432879447681
9.45857277946149
8.28252826402031
7.2414640575772
6.44653118304772
5.88260288348908
5.42207033447837
4.90838170078646
4.18571642820822
3.13523742774842
1.77949104348924
0.328668343789011
-0.941856132845333
-1.87825809138115
-2.5119416365434
-2.95926381802201
-3.31255180816355
-3.67814155412498
-4.25545337663241
-5.20785566694085
-6.42104709153587
-7.58547959835159
-8.63499087468195
-9.93022024992087
-11.8352239253578
-14.2076903944266
-16.4415848485471
-17.9509906603663
-18.5472908358426
-18.452514861994
-18.0494487815744
-17.5707410112687
-16.9588889619548
-16.0127537757637
-14.6276934738575
-12.8582747727091
-10.8324525849466
-8.69920516609758
-6.58878350412223
-4.50241044702633
-2.27344294508154
0.253590509000994
3.00070953510732
5.67409749094317
8.00637862369026
9.93926076486717
11.5569911536203
12.8802263648384
13.7691525056342
14.0179009409803
13.5043782135376
12.2875432284908
10.6592799441186
9.08069479060499
7.90427930991007
7.08663362994388
6.27305815128275
5.21578510853112
4.03204431405794
3.04368927577282
2.46867549502835
2.28708786118809
2.3110413861953
2.34397349040492
2.3037428166816
2.2030575731643
2.0381488589888
1.76195079090118
1.36193342431387
0.889807754974832
0.404893860568306
-0.0611860087553132
-0.491055763988312
-0.875726794510706
-1.20761756390349
-1.45496355025111
-1.57764297833286
-1.58719104232672
-1.54298891779301
-1.47351803238211
-1.35439032311572
-1.17278024724042
-0.964986942614679
-0.797190202199784
-0.748421609804868
-0.878250017946806
-1.16123286284255
-1.48178307465368
-1.72703661892501
-1.86428688518871
-1.93843629263248
-2.0446577369799
-2.2871923417584
-2.70062141081705
-3.20062742130237
-3.61535772296031
-3.73438730962898
-3.36772460405523
-2.48976281600328
-1.36665604385884
-0.431991089582748
0.0477531008826656
0.166479025131524
0.232985286713664
0.471171958473938
0.866159535256582
1.26169503861113
1.55733542622157
1.77400526088739
1.95714164405493
2.11497400053635
2.28510757051603
2.56220053302175
2.97607715530469
3.38554435551575
3.55604748180944
3.3361953028056
2.76175228376301
2.03090471269847
1.36264422039757
0.812546440304162
0.23606082782882
-0.512084234002364
-1.37081662802313
-2.11590873793678
-2.56725314068608
-2.71131065078561
-2.67930614539256
-2.65306771692834
-2.74249031871323
-2.91932969193712
-3.09628403733935
-3.25714910118697
-3.46432359308669
-3.76069697880828
-4.10576710196924
-4.38081522398902
-4.43121551706741
-4.14666418833809
-3.53665637076645
-2.72131517114179
-1.85134282636748
-1.02941080434776
-0.263917632417674
0.500593377638778
1.24928353129558
1.81143974761474
2.00459363688633
1.86704693346447
1.65347105977291
1.58451427221603
1.67297970451364
1.80417205751248
1.92073997540345
2.10307876461245
2.48426843281414
3.08087407726574
3.71324769793317
4.13007228695204
4.20951817916404
4.00830173775694
3.65681697299302
3.27331857598027
2.9371943059219
2.65570066349629
2.3614789083749
1.98843292471619
1.54203513756241
1.0971981422335
0.76830599504769
0.66311792918824
0.795643899113737
1.03484131133701
1.17077715934786
1.03026528394173
0.558293842816339
-0.124681709452165
-0.743226684754793
-1.06074547172956
-1.09989859698898
-1.09653823508312
-1.21719843798162
-1.40039669572795
-1.48929230289624
-1.43078180017421
-1.28563835731939
-1.08312839403884
-0.758449235697211
-0.295050341178309
0.12304681634119
0.223039727085503
-0.0721542664947492
-0.573465641816807
-1.06612064954261
-1.51011776396968
-1.95632960968376
-2.37735138311658
-2.66908367461535
-2.76381631069987
-2.68441097122434
-2.52693145600805
-2.41747018659686
-2.44289708633238
-2.59936110675028
-2.81660782442851
-3.01050289220311
-3.10066316410724
-3.02318535250125
-2.750103803225
-2.27220268556406
-1.58752380481508
-0.762485320123981
0.0341881317801795
0.644986115820472
1.06061615692022
1.38002404040181
1.64732940555747
1.79025996124539
1.74038422193261
1.59126287557678
1.58412944161972
1.87691250771085
2.34852001390732
2.71868927982386
2.84994914715324
2.82507765039704
2.74166447765077
2.57660787033952
2.29143851123331
1.96310342696992
1.75460266631672
1.78361754900471
2.00203080618447
2.17311474103963
2.02497976053268
1.49324406223697
0.787278500929521
0.189174390628924
-0.171746540656173
-0.337466334607742
-0.381397916234336
-0.28769541774857
0.025388606510911
0.527578557920916
0.939722108574947
0.896191288023171
0.301099131153108
-0.561420233693836
-1.30169739205926
-1.71608134551741
-1.80611790351131
-1.66212050281683
-1.40925338540713
-1.1905513112311
-1.12094633691657
-1.23957887218322
-1.49106041034446
-1.7530417759112
-1.92198094171323
-1.98583009970033
-1.99467677304044
-1.98005711191938
-1.92517130133559
-1.7808519955923
-1.50443791582117
-1.13410498511958
-0.805775291616387
-0.614630463405595
-0.485694323705396
-0.278290942321623
0.0116178928381777
0.259045217693355
0.398376793236202
0.510253345637595
0.731355197536763
1.13222347642524
1.64653897700184
2.08126786864156
2.26342605713129
2.22575979617683
2.18232641238616
2.28017783262116
2.43264113637446
2.41562087136915
2.07497089023519
1.45180262977237
0.771814683825611
0.294109339710141
0.0995232443043268
0.0283588038796297
-0.140355323894019
-0.466940629987583
-0.821028128866471
-1.03472349754352
-1.06113633984657
-0.993214974340742
-0.944670017968795
-0.955124970502016
-1.04767782740451
-1.3044543988853
-1.76063292400732
-2.24193773748688
-2.43801364756844
-2.17449461196395
-1.55587329269727
-0.839786688478673
-0.215009577514072
0.303442005387875
0.789938449986096
1.23163392847661
1.46455525655622
1.31360801084957
0.773094945074332
0.0310639180085511
-0.63565619739619
-0.958724982160209
-0.739623009527628
0.0860256973772049
1.38513367309349
2.79579306175789
3.80548667636921
4.03120805217844
3.54574813079739
2.84471379946643
2.38043734056975
2.18060896741817
1.97017906540309
1.54122473553204
0.904440534006145
0.171284164304174
-0.598096137190721
-1.4293369798483
-2.33113521583755
-3.16355771202086
-3.68652872473338
-3.80537047914921
-3.70943693831625
-3.70135736018369
-3.92681313080218
-4.29165752449214
-4.57397096494856
-4.58912068023525
-4.29634922416671
-3.76769255994979
-3.06904608297553
-2.23992973867515
-1.38935980423724
-0.682971809574693
-0.163340526309105
0.347646901035513
1.12273154491196
2.34099768712918
3.99399307551442
5.86814315204651
7.58244474721965
8.71060429132092
8.94941609059322
8.25078058261048
6.85601154765482
5.15693746282814
3.4119730613149
1.60777338510926
-0.30510883776474
-2.08721980153049
-3.26712647961801
-3.53551188967695
-3.00837289718875
-2.13214763486302
-1.39179089288309
-1.04697226832555
-1.05477227935196
-1.23080950311644
-1.47029805108768
-1.7864577689692
-2.20095633879431
-2.69141784356704
-3.21337529583772
-3.68382685955786
-3.9452368278554
-3.80250606611971
-3.14163300559484
-2.07335315831535
-0.976814901049076
-0.296526726174662
-0.195712800380463
-0.439810390787335
-0.657919094881561
-0.653337685040561
-0.418225145429504
0.0685474290982169
0.933921148711662
2.23386390109067
3.69192442933576
4.72542865440146
4.87815502905759
4.23763344873841
3.31816014383071
2.53705209613593
1.93695038772374
1.40859376463914
0.977152713028997
0.77037574116441
0.829699797360184
1.04823215092617
1.24699306562402
1.28854558315741
1.15639860492777
0.920005217462852
0.622721116379482
0.268432542448633
-0.0924847070630959
-0.386129532280241
-0.651186031194804
-1.0438737038605
-1.66555898659321
-2.44237733525756
-3.1787247483139
-3.68940215695
-3.9022571191665
-3.87153796477093
-3.69098796733457
-3.41107085169081
-3.05537309051093
-2.65273069678018
-2.19731309638022
-1.62920212937253
-0.904079085454595
-0.0517086731239201
0.834356229645455
1.61764086736629
2.15870694239172
2.40350471687153
2.40796499564616
2.23367178311454
1.89003194664509
1.43769853078476
1.04510726527664
0.834286836759585
0.74092623523071
0.624949150413511
0.465477265354807
0.374991274158538
0.466362847500695
0.738794307374531
1.04608243093869
1.1815298760559
1.05953898698438
0.80313884736641
0.602446509652339
0.519016501221554
0.471563647164825
0.36377472031878
0.173855114454433
-0.0533251161662731
-0.266854787547337
-0.460683157901246
-0.658179262632972
-0.862646779792011
-1.0728844517164
-1.33499789721196
-1.70208795314655
-2.13377090857615
-2.48576908491623
-2.58537011595262
-2.28979801046858
-1.53533010867392
-0.397381425765226
0.909332471354914
2.08942888461933
2.81506979191607
2.8293339990065
2.15861324396969
1.20142300527133
0.461820141387698
0.154416722523925
0.118238684631008
0.0817492666779596
-0.0638804450991701
-0.221512965243644
-0.238177272758032
-0.0944462107101961
0.0491635642359567
0.021281745420131
-0.180940720508775
-0.441931698792472
-0.690965003393684
-0.911819323989135
-1.04455537628406
-0.995770605598261
-0.734672248862553
-0.317241861269348
0.162538123074624
0.620171118527968
1.01200889111558
1.32247881504948
1.50678484304879
1.50129861526076
1.32625289664431
1.10420813238455
0.930077446484469
0.790622700818093
0.64346669797819
0.503990320940039
0.418338228841137
0.383393930778429
0.303985603371338
0.0451379010068465
-0.415639043591943
-0.8962645465153
-1.15776989392049
-1.15290332256162
-1.04846095588074
-1.00229559131648
-1.00209200120901
-0.929343142852044
-0.71799978482544
-0.456870218120469
-0.371109384033547
-0.637987592574198
-1.15200183547795
-1.54870698394809
-1.55695475895814
-1.27376021363509
-1.0126308933931
-0.940130205288501
-0.948144284455791
-0.847597513337262
-0.592678128690461
-0.279773419768905
0.0259502662375467
0.372730721546476
0.797373277014563
1.19946628879508
1.4213888428323
1.41457670174711
1.27264680904626
1.14943231118844
1.18086999300365
1.4133057095578
1.75213671154918
2.01835115518653
2.07617724833599
1.8912994932008
1.51282903618934
1.05596801139729
0.660380236802164
0.403214116376341
0.256030075655734
0.117065875176283
-0.1434327088578
-0.604668925430715
-1.16795560360559
-1.56012004716145
-1.58370198647232
-1.3473401975365
-1.15862660532558
-1.21346410787914
-1.4575686993391
-1.69922389265694
-1.78033894051058
-1.67840295396991
-1.48976982779462
-1.28364522718708
-1.00033858811992
-0.574595843912949
-0.102407156371264
0.239603228479639
0.393272737468239
0.417753844812117
0.3480409141271
0.181750017156582
-0.0269629058947304
-0.159518064076585
-0.111642379525393
0.151935499318047
0.58511532193589
1.0784135736143
1.51182512184833
1.80269313173026
1.92293882149376
1.91124712377681
1.85184817587277
1.78917006090232
1.68640589303087
1.50102989248991
1.23427038638494
0.871614202205796
0.382412754419963
-0.16271577395254
-0.58456500445536
-0.77778882437787
-0.823558331079119
-0.881765563719979
-1.04332493933984
-1.29275332835788
-1.52076535560966
-1.5678353981997
-1.35368746712963
-0.982494055101392
-0.658183134566976
-0.50281602254629
-0.498783937377845
-0.569185047647482
-0.662256744532297
-0.772607052390111
-0.898993169954853
-0.986949235398586
-0.950331697334467
-0.757117868606688
-0.444524650351048
-0.0615529649625767
0.335477665097604
0.662846291572226
0.870911320580052
0.99650667086733
1.09674734206508
1.18988382951818
1.29836880285141
1.45784293727048
1.65269463637509
1.83539858205376
2.00131410223871
2.13681500953284
2.13711648552773
1.90959753219035
1.52090372754911
1.12457937211759
0.781629767204845
0.438862627841721
0.0354783315599178
-0.440955986485429
-0.969356544528678
-1.51626642953794
-2.04340153621737
-2.48239455997
-2.70340878725132
-2.59770109511236
-2.25490313859506
-1.96105564461101
-1.91223735178297
-1.99987467015246
-1.97940763250166
-1.78148746300644
-1.55603736843822
-1.45885724420564
-1.48477512796016
-1.50730019897371
-1.43838868105463
-1.31282323293323
-1.18972328820668
-1.01383390664826
-0.653735090425658
-0.0543652664197056
0.730623281229982
1.62403421479249
2.55041248172663
3.40351449247129
4.06306300165935
4.43008475347517
4.44342211388248
4.1349258895745
3.66209636284423
3.19207520843292
2.76260708577686
2.32286254310428
1.84277960206574
1.30156675097929
0.664553820193302
-0.0317011802988747
-0.655288541709122
-1.11679780920705
-1.45689208677642
-1.75493328456153
-2.04130260871641
-2.33368643237577
-2.65350900564021
-2.94659311015879
-3.06417074179403
-2.89132141144487
-2.48386164478872
-2.06229792775236
-1.84798371299931
-1.85383080677044
-1.84536584803364
-1.57740982384574
-1.05827884217014
-0.51357212022532
-0.124016807952734
0.118651743484114
0.325319384191984
0.56238778035693
0.80271228739255
1.00165342304636
1.20214850424511
1.51278587838558
1.96480580878719
2.46358221555809
2.90388072534438
3.23569011716485
3.39800317473706
3.32322607006351
3.0526791368721
2.72563941001408
2.41383721350192
2.06095821778822
1.58864020414846
0.974576582134544
0.243228174863534
-0.544531564789012
-1.30772543976957
-1.98463103510047
-2.52446564598365
-2.84891217813891
-2.90006327634819
-2.73490539522349
-2.50307241830382
-2.33125213335895
-2.27926267630422
-2.35774351513255
-2.49829665834709
-2.55456925726686
-2.43803498492405
-2.23103903679106
-2.09300754113537
-2.07433644233116
-2.06539985668806
-1.91590936720982
-1.59074918351095
-1.20141091973466
-0.858206612833912
-0.516129965099905
-0.0325613778196658
0.652530825297016
1.47602190909043
2.34194359853103
3.14963814879814
3.77864119720952
4.14803969863499
4.27232343819426
4.22628849048804
4.10453589173302
3.99648098191423
3.90714246686564
3.72979499810504
3.37435105389144
2.85153587500947
2.1751220460378
1.32359624591199
0.373256140536396
-0.503042626373551
-1.26024817691793
-2.03046793996608
-2.85165347179993
-3.51024398086275
-3.76300351889379
-3.59809647590374
-3.19771435806083
-2.73935781971968
-2.28936871652959
-1.81986171890732
-1.29603705868718
-0.770723751932245
-0.366620632534156
-0.149911888025448
-0.0805217137387063
-0.0924853803460731
-0.143846068222682
-0.184443144528177
-0.158120075566335
-0.0565261452382997
0.0665088010310877
0.137764720402506
0.131330514289165
0.122323126967537
0.24578247335101
0.56386139946888
1.01151090968638
1.47427648470756
1.82439700173831
1.89435408624327
1.57935223599766
0.994303443908614
0.38906631461142
-0.0910723686032772
-0.434127091602444
-0.61203507924411
-0.572479978486745
-0.352963310001032
-0.0825753986874393
0.0993813126168549
0.0770423890337682
-0.194111672059178
-0.610969931867952
-0.983421905557729
-1.21526794355156
-1.34740927915812
-1.42422847767141
-1.43112149333563
-1.37034975835694
-1.29146486475329
-1.23425624601229
-1.20228088159094
-1.1707053942387
-1.08596359537912
-0.903208991416311
-0.636666287683146
-0.328935326326014
0.000675611505899942
0.326748269588413
0.593944153413095
0.779240035380059
0.926881730638479
1.09259419033312
1.29890050471764
1.53449325601313
1.75266642101608
1.91387266558181
2.06028785837058
2.26680288386135
2.50510890676496
2.67609755007804
2.7734530716397
2.85760480108437
2.87204211945983
2.65966196469781
2.16903254742778
1.50034075737829
0.763168587435701
0.0191586864635983
-0.66254869569792
-1.21569759943905
-1.63855861159323
-1.97561932140928
-2.24912154651686
-2.43397034487008
-2.4664911982555
-2.27964548517607
-1.89350253123944
-1.47104556602817
-1.21513255494834
-1.19886123950524
-1.32437227184179
-1.41761804036478
-1.34472623423817
-1.09473341091605
-0.77783193060218
-0.508850736594994
-0.303813266375496
-0.120820874806256
0.0468753438328404
0.158952741266997
0.159826309277449
0.0120233112264325
-0.239182948859264
-0.459495951809282
-0.571857896709797
-0.657360832628598
-0.790685278394433
-0.831587086550381
-0.533061501217685
0.149232277625092
0.971188405806449
1.64466419881954
2.10663548231167
2.50274937530224
2.90394775708097
3.11532171653627
2.86832766455187
2.15848061047166
1.24444352059506
0.337290995931793
-0.528216235911004
-1.31462493636433
-1.88380631396632
-2.14528708527975
-2.15843639279909
-2.04052452972942
-1.89289663143493
-1.82670049827964
-1.91520097404576
-2.08377239481056
-2.15293030182677
-2.01945934606649
-1.7361021048039
-1.41460528740434
-1.09593704150634
-0.728216718521222
-0.273196904095372
0.189364126798507
0.527146806090116
0.72175920661677
0.88550899171118
1.11471508869433
1.41594274161797
1.75816646541778
2.09899374728366
2.37844302235223
2.55774502071225
2.62757049349632
2.56071771023006
2.35765037523109
2.13890594265995
2.0362722343446
1.98005284799993
1.75860951519468
1.29923556539313
0.740063269430782
0.232846004530157
-0.180430762138283
-0.501676212600517
-0.714317879822437
-0.803601453320491
-0.77301675127523
-0.638361850877179
-0.43460357678971
-0.213598079025919
-0.0220328034859131
0.108531119271431
0.167866703807358
0.171591914262359
0.112367150600562
-0.0866109340120706
-0.475338063864471
-0.935318087885115
-1.25013009105731
-1.32325295176961
-1.23251235562103
-1.10654985872224
-1.04437151845146
-1.08431987762773
-1.13829927175717
-1.01836661326065
-0.622793056269507
-0.0600374967011003
0.440778021110824
0.700643198266188
0.70296854597147
0.604498785108226
0.588438427800786
0.652233668182418
0.613394869404036
0.356455717046114
-0.0351720309146355
-0.4151663990009
-0.713859160491961
-0.924106401318537
-1.07218440883615
-1.21995562575011
-1.40903388401083
-1.6155202075183
-1.81466294107397
-2.02615855511761
-2.23324417410941
-2.34662419540686
-2.33224726585268
-2.29375877251837
-2.33605366418503
-2.39594968356491
-2.27747084863145
-1.83840121426061
-1.12514334586016
-0.340838537062165
0.322385816403593
0.812534188499377
1.16368079630325
1.38589525741482
1.50387318774109
1.64057387036582
1.92493343366037
2.32606596929708
2.66708162628088
2.79538584017811
2.70836409985365
2.54771965805417
2.47370274360494
2.50532672819746
2.52258001912456
2.46595991964374
2.43464828626289
2.50764934799004
2.57765394527209
2.46548095756907
2.12241829239073
1.65377816834269
1.21401289507428
0.908483720145647
0.729390261803368
0.577771763266221
0.384454385260558
0.171789648841021
-0.0291627232301729
-0.246614457877893
-0.517752682144511
-0.840397218751109
-1.18645404982939
-1.48740420356476
-1.62368239412259
-1.5320254057661
-1.31152830248142
-1.12867677725748
-1.04478494568284
-1.02321718140873
-1.05189494302145
-1.15140117307964
-1.29305386569238
-1.39937150124975
-1.42659710446651
-1.40206281597997
-1.3623760824811
-1.26343275074377
-1.00678783097382
-0.613748472661715
-0.312476447829362
-0.334722542799688
-0.65158872663001
-1.01792623223289
-1.24491982851673
-1.32959290836393
-1.36436770040611
-1.41953497213559
-1.48505430209097
-1.48216395066872
-1.37511950034661
-1.25098005301247
-1.20053022422564
-1.17874061316496
-1.10808199525089
-1.03304751923404
-1.00204137529224
-0.866384616559362
-0.38807834579289
0.453409504796471
1.37627336387394
2.01334570555533
2.16755989019578
1.91644990480896
1.5368517126878
1.29082273231397
1.23765385126575
1.26292459580196
1.26324314512704
1.24132557697198
1.24232766795174
1.2715020998863
1.28428309225275
1.22932136801914
1.09981380745963
0.93690980558272
0.777969308119465
0.634774251183623
0.525171122651971
0.46621223515552
0.433838028930846
0.395812250772496
0.368204981107995
0.370626325952028
0.37140381947932
0.350868899026026
0.349620967748368
0.384610436013986
0.406668017801595
0.397055014595645
0.400237305162847
0.422467287042364
0.410095689280192
0.345251507125208
0.255398318706864
0.13714820139956
-0.0282070216677389
-0.207928880435935
-0.349487167339154
-0.442497889896816
-0.495057675874433
-0.51104580154778
-0.536842594642305
-0.651778302002628
-0.863424336089919
-1.0857237335603
-1.25579032344354
-1.39672933436547
-1.52960474577497
-1.57556921973952
-1.37984538801242
-0.850692149757312
-0.105198215706858
0.560716070868325
0.920916296681516
1.00431240313681
0.974606935084249
0.908388583765477
0.780727705256182
0.588642868646968
0.387537461142926
0.239130269711538
0.163356157977781
0.112113493413624
0.00628789601451921
-0.157901261996529
-0.279535703610691
-0.25880969865238
-0.0633392514554318
0.309774479445908
0.811978746662358
1.26744855872236
1.45370541871778
1.2966623207833
0.913150382371812
0.476600016860459
0.096327786199002
-0.231496146680425
-0.615727817656245
-1.14813832829624
-1.74379863447056
-2.17879633402361
-2.3307784207377
-2.3191434920282
-2.37228940755262
-2.57966587526496
-2.74635527331432
-2.47716401768675
-1.53207101212904
-0.195847142455667
0.839094407637982
1.10116436729106
0.762835075412748
0.349551167854223
0.165364223510323
0.121161851616325
0.002320789679862
-0.250393937382003
-0.509223228300839
-0.626786186464693
-0.593362840342381
-0.512985716282414
-0.468263387253543
-0.477821314316677
-0.542761492466966
-0.632944356375996
-0.658595125240816
-0.549725842971789
-0.332835776234266
-0.0734165877363109
0.190053521321826
0.413090398279961
0.534520337986381
0.537605381829494
0.456048570838983
0.32293716326825
0.178075765962038
0.0936060692608627
0.12787964385919
0.287998065708672
0.567118769853858
0.950207299423142
1.36110675178213
1.69985948302378
1.96500724567223
2.23802712004086
2.51141120865359
2.63739359612102
2.50113877155104
2.17838793186104
1.88604487040628
1.80723459328445
1.96247219995554
2.22827226408216
2.4809927654145
2.7041237930805
2.94558631148764
3.23657981485866
3.59151041265742
4.0013187747538
4.36710503297272
4.52371185658158
4.39582136633935
4.07729791144058
3.71045787517312
3.29674206874862
2.6181956564763
1.37579899377703
-0.492201431550554
-2.62488922433898
-4.4777508699656
-5.72366950626577
-6.30596919438816
-6.2177697499181
-5.4953729982062
-4.42443011936755
-3.51766169918574
-3.2052208851687
-3.60547433844975
-4.54179290902404
-5.6755734889072
-6.66839176608489
-7.32731116381512
-7.62544845305808
-7.61878568075462
-7.4193040821594
-7.192060218093
-6.99928709936541
-6.61909734429175
-5.6776416741851
-4.04530478828727
-2.04772989231204
-0.261342928327251
0.885687355423629
1.36988737991324
1.51573087278551
1.69290055165172
2.03589741135496
2.41840279392305
2.64569582442482
2.66586229222695
2.65251332991231
2.887744820693
3.49910172915518
4.30957927724862
5.00271634084057
5.41482227802981
5.61558998848991
5.75638199608171
5.90791530571754
6.00468490590453
5.90364394928877
5.52875645958569
4.95042625333658
4.28048628025215
3.55038702951984
2.77622533531021
2.07571611126737
1.60758892700632
1.41398700027306
1.3838025472657
1.34599900120538
1.17126301171345
0.830975151385779
0.397947923533369
-0.0194418431866954
-0.341999383866498
-0.53417131839377
-0.634981660785103
-0.795980696087988
-1.1738048701622
-1.72626638571267
-2.21229160170131
-2.43324583145702
-2.38069362426347
-2.15277931837914
-1.86328113167109
-1.64419081107058
-1.60373163604129
-1.73712523527309
-1.93429935187194
-2.07897879503771
-2.12468210525845
-2.11005078616178
-2.10605421881429
-2.11600786937538
-2.06082254808324
-1.90222642517436
-1.71248743202065
-1.56690304087137
-1.44105510525221
-1.26736608400094
-1.03108840771429
-0.782271612418706
-0.597478347735193
-0.51330922383888
-0.457363376740895
-0.298541152670889
-0.00864662025884313
0.296358542970955
0.510188360140023
0.644524352073223
0.753889227476273
0.855071725224316
0.964117243655135
1.11494474170473
1.28582120278746
1.37690429178766
1.30135217450181
1.0583075772165
0.71741184762364
0.38079003308067
0.153749689509537
0.105064986581825
0.229965479143835
0.434859865767981
0.569387466376877
0.541055361906225
0.42169145043757
0.367274816050709
0.413577920685496
0.437737191967786
0.324211047637728
0.0608700361897411
-0.315875969603141
-0.73740721757386
-1.07350311441647
-1.22131013892668
-1.22560024452673
-1.21770682327115
-1.26369568813445
-1.34401835825927
-1.42362709491874
-1.45992767757964
-1.36921670502297
-1.03445528885817
-0.36435393651574
0.605628729455066
1.64133214901866
2.40890630054965
2.71690286557108
2.63960628175076
2.38571651592899
2.1035584363954
1.8338418801599
1.57283142037374
1.32067852836346
1.08868479496629
0.881829192341846
0.680253000721241
0.466286482207931
0.263386157854877
0.0951237449642317
-0.0736232508243367
-0.28122552233321
-0.493134895371936
-0.663640136336639
-0.815883359595411
-0.978862117077385
-1.12382208839502
-1.2401928031982
-1.38585528869758
-1.60093524714805
-1.85395472541335
-2.08394650714434
-2.18991715841559
-2.00052711629365
-1.39895262803273
-0.499104124203065
0.376176781714944
0.885537451777613
0.837443577626187
0.275010297485262
-0.544508800866815
-1.3017635879936
-1.77525553613021
-1.87135856443515
-1.59391961032974
-1.04216875524715
-0.368461194993923
0.313063863883301
0.944459597276892
1.47564916681194
1.87452440852557
2.15747202221515
2.33014468257218
2.34139253165757
2.17859161260132
1.94373057616066
1.73944477552663
1.54567451907267
1.29231008086328
0.978375726507586
0.654208475141279
0.365713388266833
0.153735770609509
0.0276606028727989
-0.0678189840775799
-0.185473392105543
-0.299081175569496
-0.359931926215409
-0.384314970705708
-0.427766695674469
-0.513838691533349
-0.613774537873643
-0.663323837122744
-0.622024826729446
-0.548444601845965
-0.54453548471665
-0.584940458107337
-0.512642057262752
-0.259963180048566
0.0440017788610913
0.234052924896151
0.259437034823464
0.147268539081081
-0.0577611699877549
-0.280454404164253
-0.432532240112013
-0.467822860390624
-0.382604038438012
-0.195743735109363
0.0278375627777338
0.192633008126461
0.268164441394903
0.316086003542755
0.373008162364794
0.357750122757242
0.145544836314828
-0.280278336075369
-0.758585782711205
-1.03326104598177
-0.951016209839977
-0.601776090341514
-0.230375148737453
-0.0158423164684266
0.0211688488580555
-0.0603172159328519
-0.206523507298609
-0.390518480134838
-0.596963299904945
-0.767337520433472
-0.782137894263326
-0.590655283009879
-0.34300950577062
-0.26840434081861
-0.417356456325924
-0.629579177717043
-0.743296784893876
-0.738096262715503
-0.686897882735836
-0.633270031011155
-0.497313213542462
-0.105821558511913
0.599448499663904
1.38445447038748
1.86182434651423
1.83452649569662
1.44557779734405
1.00885075036907
0.757644207270857
0.724322281824283
0.780685203659263
0.788470076259045
0.738810270941009
0.732228098375981
0.831808756426125
0.990298764130571
1.11036831564197
1.10552410009176
0.913106418248982
0.526914858628293
0.0290809226895129
-0.448919929991259
-0.803639315172514
-1.0084983471637
-1.1132266973842
-1.18175079840936
-1.22098148531545
-1.21793584962663
-1.23869821959649
-1.38293500252209
-1.61230921640732
-1.7307251885548
-1.5849326086965
-1.22863476469399
-0.875776970782376
-0.716398290528143
-0.735629649383816
-0.689282004203309
-0.322201611754236
0.377643980864091
1.19821393765442
1.9161185336393
2.38380094687125
2.49823900838142
2.26409585081724
1.85989781826312
1.49594733974296
1.21707390020433
0.939285301924329
0.639975768991506
0.408409590678404
0.31784467201289
0.313888011181189
0.238328885450221
-0.0302947795564424
-0.422063732476373
-0.681877663103151
-0.588936274914342
-0.152888361459577
0.431525601292514
0.942790777991768
1.20266439522705
1.11088685213854
0.715520766586195
0.200112351353779
-0.250313845671192
-0.544292991607107
-0.667974566072658
-0.651063917018989
-0.560042380287377
-0.489769682504059
-0.538482443355825
-0.741193203025545
-0.995217752487542
-1.13101336725597
-1.12233187627637
-1.13172533595547
-1.27539474713681
-1.46380136253532
-1.56724409960958
-1.62270436992725
-1.7713993256278
-2.05087294240583
-2.304283473286
-2.28128613293111
-1.85954051272423
-1.19116331480852
-0.561417807641921
-0.0832013322155667
0.371017908581851
0.929275315633816
1.5550025457523
2.14941535695746
2.66780491818272
3.07718412274093
3.30656972690887
3.2759430352226
2.9163119260806
2.20350702602499
1.2504408750878
0.304299546828056
-0.417700362472823
-0.834097042653934
-0.942433319238231
-0.780609753994158
-0.459685691656852
-0.124737415434939
0.121262118937423
0.195774774744034
0.0179738835914543
-0.393526932462369
-0.877743373723823
-1.26587362087995
-1.49714762471822
-1.57463708420969
-1.50839465273555
-1.3450153751913
-1.17315566519543
-1.05226889403294
-0.956425021346064
-0.795439172979523
-0.499569455231775
-0.10643600823268
0.255565456992801
0.497603348760399
0.649884049203363
0.792968085266592
0.968354864342075
1.17519652939469
1.38363889355823
1.53465893845562
1.60181188305504
1.65236937469414
1.75017512429731
1.80330754492965
1.635241172144
1.23660183630396
0.844019293188366
0.726291702681128
0.929336762049851
1.21993756319866
1.25829048913711
0.876881124848143
0.21803823701352
-0.440238193000932
-0.96630356509207
-1.40874158005012
-1.80030467955476
-2.05296879197353
-2.05247974814222
-1.78708379320364
-1.38927521947344
-1.07557163968359
-1.00025186867233
-1.13339674171736
-1.29406004260874
-1.29316654534625
-1.05392092178872
-0.670380525525165
-0.364223572138864
-0.294900836778652
-0.393445008326167
-0.450473947067079
-0.339851281648564
-0.0799773525661581
0.260953959465724
0.614914567795652
0.913792582405368
1.12462920608301
1.25920161452425
1.31721817217731
1.27193778481368
1.12259538956978
0.895818341658677
0.610107449780114
0.320290530655709
0.14747166877791
0.139772264715206
0.14724027967374
-0.0225586450540828
-0.343030035838114
-0.574989811683074
-0.521344630100353
-0.206896136667294
0.169673194128354
0.419125469597862
0.512513691006591
0.55605876150299
0.617910893740515
0.628408319046251
0.464138341412034
0.0709983543808396
-0.488543056870407
-1.03177049884327
-1.3325260266125
-1.31295195480602
-1.13718394183414
-1.02641186551317
-1.02652243357983
-1.02446600167694
-0.907510194194496
-0.630718223662806
-0.213575597207999
0.255110488211961
0.659010838835647
0.934668879718682
1.08486954379638
1.13734309476917
1.13602157860636
1.13729904907677
1.16085741060747
1.16566462298853
1.10605591184525
0.988908823858364
0.864687528460021
0.782549851236326
0.734839837847766
0.624214185910092
0.34100875638498
-0.0914234967012105
-0.512496663937319
-0.78833648558005
-0.913692112536924
-0.967947088627809
-1.06181569022903
-1.28955505605337
-1.62640107114026
-1.90863549241138
-1.99243418236915
-1.87502309967981
-1.62435769100367
-1.30786035504591
-1.03750171513474
-0.950054420925482
-1.07811517238022
-1.33354628094225
-1.63132632678757
-1.92813706139363
-2.14264763203603
-2.14154477106741
-1.82934614931897
-1.23202261307166
-0.524057102946142
0.0327186870303402
0.261792193022084
0.21640359523715
0.111851536197126
0.120891074580211
0.274897000915324
0.527480406891775
0.837026156198242
1.18221784614131
1.54173704205635
1.87837424303339
2.15548412326152
2.38119806681081
2.60246310619935
2.82953508052951
3.02108275305563
3.17068351964189
3.32733133975936
3.50192703492524
3.64563622046501
3.7376166229176
3.79638470755628
3.80626599796905
3.73677334583432
3.6284615896469
3.57188486210704
3.6165779004878
3.75836768978047
3.97475744771448
4.21145576751542
4.34656192772119
4.19000458207465
3.54708001083795
2.36962956327716
0.872495693600089
-0.607051290395458
-1.91556960473619
-3.15789368092093
-4.45439432763135
-5.73738521921001
-6.78622882305705
-7.35402287909442
-7.29331207148107
-6.68850893540522
-5.85954947663012
-5.15792959128992
-4.77749977761381
-4.76407079705028
-5.07522792032989
-5.55252892817124
-5.94739053229929
-6.08319392985641
-5.96170515419446
-5.68778573673702
-5.34198065969416
-4.92291112049303
-4.36262936628756
-3.62621344574784
-2.83589696459938
-2.23053104302634
-1.93271656392964
-1.78717342305907
-1.47411379704768
-0.788781348034772
0.168755902862505
1.07088796343346
1.66823724740929
2.02076660545219
2.38411417221047
2.91712097110195
3.59510618536824
4.34929686992256
5.14423991228054
5.92452805382916
6.59025039218454
7.02898250193156
7.14690522765493
6.93437150972489
6.52489103625281
6.10295546672759
5.73122795478684
5.34016676178136
4.87210133825934
4.3461764673698
3.7978886047813
3.23805059019369
2.66159515892793
2.04540203138905
1.36794907643314
0.671567654260671
0.0652616411468351
-0.360897626422626
-0.584382955512028
-0.626910519822105
-0.559850702774364
-0.523024579150322
-0.653874431294464
-0.985067620910883
-1.43327066911822
-1.84853407494978
-2.07094107713957
-2.02764379664319
-1.80461606931535
-1.56474099562805
-1.40628736718275
-1.35604281433378
-1.44119691550257
-1.6766123816313
-2.01664446040294
-2.3808635178584
-2.70299821089606
-2.94975995666233
-3.13162091981519
-3.26236023509169
-3.27083607285454
-3.03809892449855
-2.57319254586484
-2.04050128620784
-1.55781536405709
-1.08794247456968
-0.582050973352934
-0.117491920319118
0.157079849191089
0.146072309034824
-0.128217262979566
-0.525172812727533
-0.858528668250754
-1.0046763273505
-0.924081605541681
-0.603340208939751
-0.0753914461804958
0.501119432321834
0.910225721872738
1.07353440111943
1.09910248158797
1.12675399106572
1.20047695134711
1.28413337615542
1.32825816374717
1.31856542177028
1.28288353738141
1.23326260394218
1.12557386773207
0.933627864480711
0.72480878942873
0.588168140674009
0.526056224535215
0.472278070728823
0.35915551108005
0.132721117961827
-0.205970668379063
-0.533972048691525
-0.673474021613123
-0.568944256395343
-0.343353684742505
-0.175451377607792
-0.154310439467467
-0.215464084198205
-0.194353293277003
-0.00203708552385779
0.24502842983701
0.345223371810616
0.253277821539203
0.122497521581416
0.128369908446153
0.326422644150503
0.646154750393062
0.938944733727704
1.06101869553173
0.990464004428983
0.857886809665451
0.824891548539626
0.945207404133968
1.13789397963227
1.24677848436904
1.14036016279994
0.821112164305089
0.438366387334687
0.161442049037959
0.0579489798836005
0.0888778886523734
0.154111010327734
0.142398140147752
0.00913314273851432
-0.195745020061475
-0.413788173787623
-0.640944347689899
-0.87408178065282
-1.09037718803022
-1.32560836746408
-1.66412140584582
-2.09440817314546
-2.46966930412653
-2.66077811691818
-2.67642213755959
-2.60411003452089
-2.49109498975199
-2.31275012062913
-2.03922434174217
-1.70267877489546
-1.35493534794688
-0.967839581566448
-0.47542226612435
0.0531171908987509
0.405945079602085
0.467822682279306
0.366207157259384
0.308077121804543
0.361253629264736
0.455096965269968
0.504070161619495
0.468830509570915
0.367525094047478
0.279546607912609
0.314667686681455
0.579649726675848
1.15275352005569
1.97531778387106
2.74297319844182
3.06683772165374
2.83777413260242
2.33223110097511
1.91129915163615
1.71216874141684
1.64141849527741
1.5418859037216
1.32590946039979
1.02508150280673
0.752696808410511
0.616744636331377
0.669590637107959
0.883048100906773
1.1114432845147
1.16407966352307
1.02544620153049
0.932440283780227
1.12240010706625
1.56605433628742
2.02965148277544
2.32718066592129
2.44582373479561
2.48797484066711
2.54005131410704
2.56673758552767
2.42490735622495
1.99684363608041
1.2859010677541
0.380077236794368
-0.614358053863811
-1.58679569430952
-2.43985430507489
-3.11285504858566
-3.55003439782352
-3.70713386032578
-3.68821592920859
-3.78710293547132
-4.22103763252917
-4.85011802831586
-5.28699771382396
-5.25751327808762
-4.79839027001374
-4.20121402671977
-3.82882814385278
-3.86738775214652
-4.16644700950314
-4.37565656708087
-4.26216590570933
-3.85770941261118
-3.34655240877392
-2.8911269359628
-2.53242157045687
-2.18873068199906
-1.74352865314839
-1.1310213704101
-0.346679386152436
0.542456992595521
1.37192560656312
1.97691418844642
2.36574524555276
2.70191540248992
3.09074212280403
3.48115035219253
3.78054598732074
3.9651490097253
4.07283554097097
4.16648754274947
4.30383088642589
4.49303805106766
4.69124016868457
4.86458746952998
4.99862433520015
5.0322268692934
4.85845441972499
4.4294858733699
3.81038313703813
3.11984309135724
2.4580584186437
1.86438648353159
1.30235207189867
0.732368355125963
0.223739282311767
-0.0858890290694593
-0.175253243696101
-0.21108559454074
-0.413924725081202
-0.893008546747436
-1.5778896853625
-2.25149009957571
-2.68643188434449
-2.79386916250094
-2.62169804267519
-2.25643203706079
-1.8280216949275
-1.55209843811866
-1.60082378079407
-1.92385666337679
-2.30006356112128
-2.5458341941312
-2.5990125718082
-2.45488407650131
-2.11804508994701
-1.62195709383309
-1.06729136013147
-0.62227455323982
-0.434083688087315
-0.503284727298115
-0.673712765866632
-0.756470498235093
-0.63008426891351
-0.263169749779023
0.24180583761118
0.632233852626102
0.686836418811891
0.473226352856755
0.319110569930062
0.475133424981549
0.875457225636546
1.24475233398114
1.36685843461276
1.23168963249529
0.973954266937329
0.714607641417786
0.493952722857476
0.344252147483212
0.32228206913235
0.407726430872182
0.467335862612961
0.408798987333075
0.294606408341849
0.228434636297544
0.198381701234324
0.0981414806273209
-0.137963299340439
-0.452349529357127
-0.704857348515392
-0.818403322278081
-0.879365645507319
-1.02373625107475
-1.24836111170446
-1.45971583501272
-1.68539701652831
-2.0601597624153
-2.56325416765197
-2.89294907859319
-2.64591425775299
-1.60040227622729
0.0840387608282722
1.84886353122223
3.01870170490096
3.26817662567091
2.82426101818141
2.18001633934947
1.68167982094033
1.40516864331375
1.27351960929173
1.17983451036269
1.05615865171522
0.890387329521982
0.677997256397765
0.394382578048968
0.050085971137745
-0.281089345034027
-0.533158458072278
-0.704613762347888
-0.823317947209934
-0.893291771309878
-0.884437197773584
-0.769341887218473
-0.600112085760358
-0.521691492023014
-0.611878937011532
-0.718330800943822
-0.580800269794311
-0.135994523114049
0.396082023131515
0.735005685834741
0.777172783553475
0.631640130003081
0.481800021152952
0.403324567066362
0.322077479979467
0.184983908935401
0.0982678348980159
0.17670275252202
0.308193548274003
0.226041513357547
-0.170920630588467
-0.671930079668305
-0.938525640158239
-0.78078095782401
-0.279612420270653
0.300786898564819
0.730337876774797
0.967290689502111
1.09594449775447
1.16847182460621
1.17639627957186
1.11797194091205
0.995971611162351
0.782838795600754
0.455038749236954
0.0301446167411667
-0.444905254849784
-0.880943605270314
-1.13943485666702
-1.13630366203794
-0.949037578924478
-0.744009461864636
-0.61826319606047
-0.567216199172614
-0.552562724200819
-0.532532440738883
-0.463615376638429
-0.323185988922358
-0.121592655193152
0.0976945326850051
0.250002875612647
0.250036944305107
0.0999423307747125
-0.106563832537636
-0.286121819939648
-0.425511979682631
-0.546895173783823
-0.659620273547508
-0.720672850247336
-0.622466917130763
-0.302527425973524
0.0969098401080433
0.291605099363629
0.149684197578148
-0.16040406009868
-0.354567474981435
-0.271835833098344
0.0718004942100857
0.526311439753276
0.878141537809236
0.999052103846172
0.951904364130518
0.88311470728286
0.83922696369474
0.750774471710432
0.550140049013979
0.254263408448768
-0.0357867448399706
-0.213726752691103
-0.287435615749104
-0.386009517232803
-0.594801055549024
-0.827832390662545
-0.909892040441478
-0.747936213388146
-0.417829644169571
-0.126248812446875
-0.0412772457669984
-0.0971683527191203
-0.0456284879437625
0.228852005989025
0.550398472323565
0.677744391372474
0.565233836465915
0.325877303989208
0.054086875008416
-0.234025203789351
-0.553110072981934
-0.883588800464518
-1.12058162863889
-1.10776626091735
-0.77704944247041
-0.238575485091451
0.298386738483143
0.662566508443294
0.780665204702983
0.685543165018741
0.498355969944143
0.347064193794153
0.291706887855177
0.349066541311395
0.513316358071077
0.686926566354436
0.695852388661134
0.480341444433726
0.19873281638051
0.0609223694662254
0.118420418136182
0.258813914619383
0.339632247025976
0.301459133608511
0.195278361260383
0.108017028725248
0.0687373555522009
0.0725790123069079
0.149148187974418
0.286895964218131
0.328032703378891
0.0964332675267393
-0.373032271006294
-0.852996101144093
-1.15334584870681
-1.25331318185379
-1.25285362280481
-1.23977458245917
-1.14227736699049
-0.730727038115789
0.0986994828712592
1.05065608442136
1.61428826929759
1.56305847179588
1.13922849854693
0.70891317074168
0.365909126732639
-0.0582738176742144
-0.679396424527881
-1.35206719857779
-1.80728471763112
-1.97581002144985
-2.08008096717148
-2.32092451183339
-2.53222228652764
-2.25882449943483
-1.18650055155501
0.517704418959151
2.24065517345458
3.31288278159405
3.47560805512606
3.00513071764543
2.37183024386615
1.85661035371303
1.5185740659308
1.33868166604173
1.23132254619836
1.01836084575812
0.548515449574732
-0.147432496494509
-0.825105517388905
-1.1382695718801
-0.893022333666213
-0.295701875494302
0.152060641466324
0.112387830445059
-0.322013724529963
-0.861110141419407
-1.34850621193263
-1.76801050754032
-2.07422038919736
-2.16255980521136
-1.98499448554341
-1.64014302180195
-1.31628222205208
-1.07546385801859
-0.686354437745005
0.184472568164304
1.51572164966018
2.77715356043486
3.35987213651779
3.12137810366051
2.44855172993296
1.84470796712967
1.51005447257693
1.2905376521962
0.971148453197833
0.54286238483505
0.142009784472384
-0.166874228110366
-0.408775974763047
-0.566258534981785
-0.594678651032216
-0.549323547310756
-0.575672114672809
-0.78510007574109
-1.18888826979451
-1.69191109861652
-2.13127231032109
-2.42087672506466
-2.66620582105514
-3.02820534358261
-3.47758555599007
-3.77261713360967
-3.65131164275561
-2.99118876118579
-1.86229490466416
-0.503201812752447
0.794668707998721
1.80486180151669
2.37097716241401
2.41886570028051
2.09365337039175
1.78712167841469
1.84058638496254
2.22184025116402
2.59209870092663
2.65020531446751
2.34465081632782
1.84215108545516
1.38617610449356
1.12471062455923
1.01572177719173
0.930288730020494
0.808988878680862
0.644637197837645
0.40755161630443
0.124193884835234
-0.0515009262207745
0.00087509258398722
0.169377969256727
0.182629881339105
-0.12099880284602
-0.641158074251212
-1.12964839250013
-1.44524195732584
-1.65568310754796
-1.82838660055464
-1.79255613662131
-1.28234684357837
-0.318616907025164
0.720655681419646
1.43915661216214
1.70509949952946
1.60851014643257
1.29181479935566
0.867364744442704
0.422546928958888
0.0486432856638968
-0.176860415823227
-0.27493785887186
-0.381020269274064
-0.595469408300936
-0.8594347604442
-1.05878085765425
-1.19030234647047
-1.33190593133733
-1.5171205909789
-1.73624661217148
-1.97755972129354
-2.15558693508603
-2.08221275557732
-1.64156918837055
-0.96500067241825
-0.349439312724667
-0.0091985110609038
0.068825840173734
0.0555386298428293
0.108899107200016
0.298698313346385
0.670542309919869
1.26533734066387
2.01108178581397
2.70808644142858
3.21368884970594
3.53703831774082
3.67549481168212
3.50044613916735
2.91788327343137
2.03310274241139
1.06207221960768
0.154305597244764
-0.652970621453439
-1.36220767663108
-1.89126197681209
-2.00600963637207
-1.50725196777789
-0.576960251490375
0.20903233540111
0.363829093407188
-0.0954094087873259
-0.797401986671658
-1.44753894358869
-1.98380192418741
-2.41480623837513
-2.67755305361197
-2.67568596952917
-2.39665642098557
-1.96835696617737
-1.58765052775355
-1.37467020672401
-1.30184007081677
-1.25653823875143
-1.14531190334337
-0.957718722054764
-0.76454178937254
-0.628374510919808
-0.502555957240595
-0.271276640929093
0.108948115724279
0.574101205179722
1.03613928726155
1.41995326744029
1.65738302722301
1.73926563861641
1.74247034420267
1.74135531195153
1.7357935836861
1.69450772175784
1.6075961726864
1.50221230521997
1.4731412127938
1.635256340727
1.94842243806305
2.17533505324804
2.11700422848992
1.79961600329623
1.36958956062001
0.957946715964892
0.722337088236722
0.835963154294167
1.28961127725636
1.79272751670276
1.96690836187976
1.61247024888963
0.79935727820624
-0.212343745750693
-1.12946560809865
-1.77499573146256
-2.11846403964553
-2.19829679220863
-2.09202095228769
-1.94206455849585
-1.88650120719628
-1.94005994453646
-2.01516330482745
-2.03689829330228
-1.9760590394231
-1.83075687929198
-1.63869413937307
-1.4432844254718
-1.21800270215779
-0.907743435990806
-0.553369210640674
-0.280352419123279
-0.156832087821364
-0.129938491340464
-0.0875715724635072
0.0519835031187153
0.266613188772823
0.435526958102194
0.479576348024027
0.473453589096498
0.538034414244344
0.666624273126662
0.744875298088533
0.691636881348421
0.516036774895467
0.300225034173826
0.163031394010579
0.163889376437423
0.227441058153963
0.238669227134018
0.195363201272566
0.177586852451552
0.197636541441087
0.183403455108539
0.0932690015635468
-0.0368438096643714
-0.150420349948309
-0.229108135883896
-0.313093024711783
-0.462508079561454
-0.662079664588732
-0.803488175957933
-0.814477214223568
-0.739353606945535
-0.639335256272891
-0.503503753333622
-0.308271801179003
-0.0710515875140387
0.18162495638742
0.406646389176084
