10.4396990357139
16.0798740532782
18.9512224921399
21.5399158760284
25.0603267334963
28.0321554596456
30.8105076585084
35.1265078466487
40.0754777120808
42.0488272908255
39.2516978420496
34.1387976896922
30.4412851277198
29.2278091919915
28.8099825270715
27.4330177803954
25.0143827306357
22.6444632939203
21.1181741771275
20.1298783589365
18.7991262921586
16.6973525843928
14.0543417661994
11.2020528059338
8.35396375753647
5.85137057709415
4.01224006775299
2.44349580322671
-0.211141813286219
-5.29188142147489
-12.5470875675339
-19.8668943519954
-25.2007102346712
-28.5091500013764
-31.0816240496883
-33.3645875548088
-34.7060087244259
-35.0194424176983
-35.2065406948295
-35.6867533141716
-35.59344990229
-33.7079639815494
-29.6263921189919
-24.052979248554
-18.2611893865316
-12.9818691774966
-7.743102906039
-1.88880581074548
3.79306391384636
7.43945685520482
8.3515843144299
7.91301152148869
7.91589726409389
8.8227233773961
10.0132326464619
10.9093556236072
11.4049397990829
11.7036599097559
12.0578368151985
12.4808012749757
12.6962180211971
12.4442895373725
11.7066851815237
10.6443190210533
9.50454925499062
8.52081275233789
7.6989448311055
6.68001704736209
4.82703992717262
1.5555469044583
-3.04738576937639
-7.87896989781413
-11.6390091562768
-14.1136515240169
-16.0417521607138
-17.7592879129162
-18.8724868402774
-19.2584297000767
-19.3496467465419
-19.2945890272056
-18.6627486511567
-17.0207173684187
-14.2348828247964
-10.421562858785
-6.05204264635877
-1.74402856350209
2.36156607378473
6.49510285606984
10.3258573512516
12.885472850657
13.7770497368784
13.7654268933448
13.8142845595198
14.1551786384684
14.5341760449818
14.7424986455688
14.6995202916071
14.4822078292211
14.3293253119211
14.3212123721097
14.1921843288262
13.6593540303574
12.7226550418699
11.5513780258685
10.3004313650992
9.04173433971209
7.70229676259309
6.08450697857347
3.95397641145682
1.08144257828886
-2.53907015493028
-6.36584903088651
-9.61145453929024
-12.0568224654797
-14.0826879512451
-15.8325546657846
-17.0244688598386
-17.6132493199616
-17.8605887292459
-17.7432204218509
-16.9860816915138
-15.5529884306224
-13.5244313266131
-10.800885223125
-7.44853473438808
-3.94540538005454
-0.673791028610139
2.3699940574347
5.07519310382156
7.02076244365226
8.08837103161936
8.69911696451744
9.19715916991419
9.54544708226924
9.73481471541536
9.90380138912286
10.0152574676552
9.93455962737193
9.76373274900811
9.68533557045459
9.62542066779043
9.36255856141124
8.80212620421015
7.99819032848429
7.04925688662837
5.9955436312913
4.75664602876208
3.23809443154827
1.42790641227418
-0.738092528876516
-3.34748649170954
-6.14108805909295
-8.56293119624867
-10.4087926397393
-11.9549779087431
-13.3168666694989
-14.2869722738024
-14.8451380161319
-15.1374571288519
-14.9998555850104
-14.1674283398557
-12.7659308809668
-11.010804258639
-8.78173413110784
-6.03485190951053
-3.18850911379923
-0.632228628243623
1.67738422895982
3.78913976013493
5.46776242020096
6.62818732520369
7.51605891196256
8.23960678902665
8.66160675232513
8.85068766686767
9.07637207077561
9.34357092171579
9.43695131384174
9.33731647363616
9.1815089011462
8.96734347615827
8.58836930556613
8.00465498524716
7.25655695877279
6.43139580256193
5.57408797049897
4.56266106199728
3.22994201014432
1.59184880442437
-0.250557692372458
-2.27602749365027
-4.36811117069814
-6.26032695759497
-7.8771325484297
-9.33781093731629
-10.5086264294574
-11.1024363654045
-11.2589706510749
-11.3786226792336
-11.4189279529681
-10.9957019523657
-10.0209710580926
-8.64936653352735
-6.87740374109518
-4.73915360388237
-2.57131835074125
-0.647767923038052
1.10620638028482
2.75608944007121
4.14038776864568
5.21226330362144
6.12521794996234
6.84906426865983
7.20771382233151
7.33341069267268
7.54344010101754
7.8109582301996
7.86504126338483
7.67751381686317
7.41755414963724
7.12424603257279
6.74686844573332
6.30533619460286
5.82601427920019
5.26267586639876
4.50679351391225
3.42835421616501
2.04008233277928
0.585999254893462
-0.750991274777418
-2.083289127074
-3.51989512211504
-4.92116088137464
-6.18688586123014
-7.37689583450514
-8.36594646228465
-8.89759806808614
-9.06639978636949
-9.16821912951845
-9.12273851601096
-8.64085983374915
-7.77195550072919
-6.72062175784785
-5.43889999918847
-3.9005208879734
-2.38224853983298
-1.06115077119182
0.235482167752
1.58535756381007
2.76194859776324
3.67816550194096
4.50963075595599
5.23815904261846
5.63538673227817
5.76712260662045
5.95219653354994
6.23341751544917
6.38529138674839
6.32764038248221
6.13156817110342
5.81142280961783
5.38774848939253
4.94640914836814
4.50880511534885
4.00849318663114
3.36101770140643
2.46957733710941
1.33643238755901
0.168907338083099
-0.867856457140787
-1.87752724607337
-2.9542597249513
-3.95920847808687
-4.82644315149744
-5.68190849437568
-6.46410752135329
-6.93293564443912
-7.13154184715372
-7.2627233717213
-7.18684915051919
-6.66821440466581
-5.90320589786202
-5.18349441287247
-4.35433698825475
-3.17814946969921
-1.86645122988451
-0.765425372425075
0.115200361933521
0.908163736189833
1.63043390226903
2.35993033998202
3.21696482985557
4.01624453469783
4.4299553165339
4.55116642568002
4.76727799574907
5.11230584173005
5.27088881368871
5.12437879367706
4.84134903717134
4.5540559453048
4.25052457168733
3.86594046769568
3.36394162337829
2.8139670264491
2.30819018961505
1.75912205041112
1.01367477253536
0.153000215771887
-0.634161599224716
-1.3629302401072
-2.0994233210487
-2.73975605949563
-3.27319578020565
-3.90198961048761
-4.61308274106364
-5.08268412746716
-5.18981916634713
-5.11590001653903
-4.90303077466917
-4.46426317669729
-3.93224077848554
-3.46680884417922
-2.92094769259291
-2.1471948196483
-1.34166546995473
-0.719451779021823
-0.181773866444016
0.427801343978852
1.08862353714825
1.78217801447386
2.51530769484354
3.09930091240743
3.33142035599242
3.37025698229351
3.50456253643697
3.69978212817959
3.77939244210183
3.78193913359013
3.77762511184836
3.66963562294567
3.42989074414551
3.17376920568564
2.89395018190753
2.46163375004351
1.86713422954225
1.19367386483991
0.497326608079544
-0.130982852477022
-0.620700548098815
-1.07654175289834
-1.61436105641527
-2.15313721815846
-2.62450520768412
-3.12546981691026
-3.6409855366995
-3.98320602733927
-4.13110390272127
-4.19447813382642
-4.07479955362836
-3.66139003835238
-3.1930418065749
-2.91294820120548
-2.63430122795417
-2.11123270215366
-1.49778797278921
-1.0354793099426
-0.646671792126246
-0.161041583319392
0.409490380019372
1.0367637838267
1.7355013405982
2.3393072510035
2.63318197564236
2.72980159692943
2.88951342126377
3.07368104332613
3.09836413196342
3.01138587884224
2.9375027900465
2.82967200887924
2.64335334984606
2.45644988947869
2.28449835138498
2.03987526868767
1.65834607913237
1.10021226884209
0.404576688220413
-0.191887177209069
-0.493447319458535
-0.672600435131607
-1.00926851032745
-1.45746345113489
-1.83161395212463
-2.15579136276387
-2.49541160817104
-2.77087683216411
-2.95534068619471
-3.08595152405907
-3.03804802749955
-2.70793531201198
-2.31062610921179
-2.0800903587422
-1.89904674387012
-1.5831586422501
-1.2156580293965
-0.907591974639913
-0.579341009144829
-0.191207799524729
0.178007346419842
0.597283465878916
1.21397476874491
1.87237011006408
2.25462547699246
2.38332438007939
2.52453818736814
2.70189437644857
2.75039168411087
2.66575469897106
2.53177115311861
2.3357133441603
2.08465158852338
1.84542298646366
1.60318797855044
1.32171602604219
1.04424505408677
0.744905801178794
0.319791699841658
-0.157794680564979
-0.493808836955608
-0.695237257220324
-0.893098771690106
-1.07341569791105
-1.21771756332583
-1.44969011000736
-1.76090717265353
-1.95250571875082
-2.01076971135716
-2.09133125866003
-2.12021184156896
-1.92733460031738
-1.6632715911722
-1.57081221295676
-1.55458080474816
-1.42180581162429
-1.25102563718612
-1.14770398412886
-0.972970965466663
-0.617931591801306
-0.207738231671219
0.17459614116756
0.608277352044866
1.06196420092064
1.37857520170301
1.54945575445285
1.64294221651134
1.5977340135749
1.43492056625212
1.39488459377025
1.55586235109471
1.67511990697989
1.60114399565912
1.43984081673212
1.25409031777504
0.994116476104412
0.674636253813857
0.331945743797072
-0.0212733968351275
-0.26350239773176
-0.289649639722866
-0.266949130483518
-0.396515217950852
-0.563096044212396
-0.602158974753964
-0.630807923134807
-0.763584348273314
-0.883558397694153
-0.93990063196341
-1.01523868451653
-1.01686803411743
-0.820723772204835
-0.646959171573662
-0.754937743034049
-0.95931111243471
-0.949310277890267
-0.812562926512733
-0.802328122434416
-0.88849675333879
-0.890471510741315
-0.744574320952889
-0.406379814682343
0.150577591566505
0.693605899401576
0.900624149652831
0.84065227761957
0.869698976057597
1.08926590531059
1.30382741946707
1.37275256013723
1.28071412231542
1.07375290634013
0.912764990610089
0.924666284999006
0.967802229878082
0.821977540246493
0.502635200946377
0.151767855048208
-0.151921533632528
-0.315459713204454
-0.27630335654434
-0.180462970206962
-0.189937611216594
-0.215187046073392
-0.163396538526689
-0.175694244143827
-0.293680077559013
-0.288662252075428
-0.100880990131347
0.00931364891625573
-0.0817642779387044
-0.222776349249438
-0.331934219083763
-0.438499771851205
-0.487386461850167
-0.478253349341253
-0.586846052749606
-0.852153431758816
-1.02533648705964
-0.948471851184326
-0.755876819424325
-0.554140515025884
-0.281479604999972
0.0229151939418772
0.218039269494188
0.346471119465451
0.517814182628491
0.620683147835193
0.54933009201313
0.485063614264188
0.59115043113649
0.720832070126757
0.679978007275989
0.474324166519031
0.205056753216128
-0.00181468534473443
-0.0384366353244815
0.002039108526078
-0.0899150575419196
-0.269061434288221
-0.29401011474616
-0.14620203265498
0.0169009988811088
0.188598219841607
0.381666681686423
0.445499769012309
0.376240021908792
0.405962688985043
0.526942145939394
0.456891965369743
0.214937302300653
0.114866654233251
0.146980087820986
-0.00719229830635546
-0.380357338082122
-0.694686826746027
-0.83871758594215
-0.926816207539305
-1.0096072489926
-1.04492029186743
-1.00869300219417
-0.849955898753568
-0.542334145118879
-0.250672259944372
-0.156109435840511
-0.130127574044976
0.0737443549111785
0.404920303291966
0.632437838689987
0.682207513156615
0.586026696849653
0.37465267789084
0.183047018422577
0.137613490654114
0.121852901296263
-0.0270046736991281
-0.234071769328573
-0.380465149156169
-0.490539045044549
-0.508087285878715
-0.280693807640793
0.087877810186566
0.299401670378294
0.313655047413198
0.326880968980835
0.393318893066635
0.445624742009865
0.50157295894112
0.56955266661566
0.599700950240814
0.640131417892278
0.733726806997809
0.726140856673607
0.514050315811854
0.277257034422215
0.149409377619872
-0.0293515126574414
-0.363204623239285
-0.674534329422691
-0.834588338784518
-0.923455223864469
-0.92420171352031
-0.694680004236108
-0.329212828643538
-0.0909613679691489
0.0260340042796906
0.2064199358674
0.385885470509487
0.370846981108296
0.205977983364588
0.0496522311689647
-0.0651695313241309
-0.116734431647261
-0.0588856031051704
0.00994392381218081
-0.0469131752197589
-0.186479167713598
-0.320632274831425
-0.45756947903443
-0.537652823191416
-0.437616155214246
-0.208796840736452
0.0250569472555405
0.312815738848128
0.665645754544092
0.866163420221352
0.844845546984805
0.864984542798627
1.03700233430819
1.11945194701782
0.994319682026448
0.820964629148018
0.64651609281493
0.377764819540263
0.0988457187492162
-0.0475898856835353
-0.171695619310893
-0.450241007743704
-0.811523424626529
-1.08504006012273
-1.22448712032424
-1.1903007150383
-0.928354813887675
-0.60632727716121
-0.504255522527464
-0.593457201931588
-0.597461117761444
-0.431942294205055
-0.224527681564995
-0.0607340788839196
-0.0154103753791745
-0.176980680055135
-0.439097052240995
-0.573710981049589
-0.560492411265868
-0.529843892120814
-0.493035038095569
-0.428876936983467
-0.407050654516207
-0.389320913625126
-0.20960543781677
0.126476115363931
0.459668384476826
0.768456562869522
1.08500680747666
1.27577185317234
1.2446943895702
1.12179473529786
1.02838189782239
0.971211671976566
1.02496640285975
1.21193149173798
1.27589752880128
1.00641644465807
0.605708516086734
0.346307460990116
0.143505559743911
-0.188002771345303
-0.568735111397448
-0.833896304822929
-0.971582101742347
-0.987457792219686
-0.852135201258888
-0.68262561577881
-0.625780220354191
-0.56984341209811
-0.356710208470218
-0.151483132011344
-0.189709389720753
-0.369776161909299
-0.457974285259671
-0.428909387385196
-0.365603779126189
-0.326375250120162
-0.391601943660243
-0.549649149303191
-0.623955230711985
-0.551943499517482
-0.48739985379886
-0.458096937637308
-0.288173400223128
0.0464793341674575
0.38506409149566
0.681039702543925
0.957391009248108
1.12408223799499
1.16182536419085
1.21073490492813
1.26955853242066
1.18818313818244
1.02113612602088
0.938109253462314
0.865572038142462
0.669754713771035
0.465160413321404
0.320836156749051
0.0121586565742174
-0.545583272081639
-1.01894288725424
-1.14859047794913
-1.10722081245481
-1.10233593347352
-1.05689889893248
-0.897561733300943
-0.736022077051987
-0.637847394856529
-0.590821620102375
-0.662153006417378
-0.828785341325659
-0.85231377924793
-0.637242270684694
-0.404345077753743
-0.303283171512974
-0.240716320705835
-0.171770120765417
-0.155422538029321
-0.156803834601038
-0.130436748089867
-0.13304694424326
-0.129776031299192
0.0228807422184626
0.294767886941507
0.537690394051166
0.782321954128075
1.09303240540471
1.31807417785609
1.37329115632833
1.46474259244835
1.69479148731416
1.84554134187513
1.78822652563679
1.65747505500907
1.4991549428729
1.19490430878475
0.759447285708765
0.334025561053956
-0.0496149202628747
-0.42253466258869
-0.743293793599844
-0.995491183475806
-1.21602297832335
-1.32277443142003
-1.1860719590761
-0.917224971962521
-0.761607947439885
-0.733149039387606
-0.711050615557368
-0.753700682846375
-0.926052486957498
-1.04965099984974
-0.977341583512213
-0.819952065629431
-0.677334915940933
-0.511987681126343
-0.37277689939029
-0.35429176805042
-0.383069858154904
-0.373476113750494
-0.390314284855856
-0.40987462699668
-0.259097349337462
0.0467058726511129
0.305279360627778
0.499607029934096
0.75584568829869
1.03968434873011
1.27674406877932
1.5311125366222
1.7633787321632
1.77132341630021
1.56132998737506
1.35744206286973
1.19211384775533
0.924495849361428
0.58130507955301
0.267207918791379
-0.092677199817503
-0.577028126243786
-1.05238648865326
-1.37446107603823
-1.55097926526256
-1.57499111341232
-1.41954590238955
-1.25157152104678
-1.2708783033869
-1.35673802713568
-1.2704063025893
-1.07015069652779
-0.931269537666604
-0.815459757798123
-0.671983189936645
-0.616481450063288
-0.655364510544782
-0.624784742466817
-0.509673146717113
-0.430802969295821
-0.370140372889864
-0.262363869927737
-0.163324481088883
-0.0581837077928159
0.189788848893312
0.544952930220693
0.836672447421736
1.10947918375054
1.5129428279043
1.94476583568879
2.20651310865124
2.30963531670401
2.322192711337
2.22463266224145
2.09807973117234
2.07209477150413
2.03627969036287
1.7907005706512
1.39128604098821
0.99498018920828
0.573455467799932
0.0847762158619253
-0.349940998507898
-0.681534171804223
-1.02373653495879
-1.33884114504068
-1.3991372898248
-1.18833352367752
-0.967267079276159
-0.898579555755361
-0.968243321502288
-1.17102941700107
-1.40017420956078
-1.38722707957007
-1.08777678082187
-0.810391541313691
-0.754572315853611
-0.813759309034571
-0.889175098147668
-0.95827897602428
-0.907027125190522
-0.700563229769
-0.530453413207118
-0.493603808026411
-0.429445770549784
-0.241550264985033
0.0104597596624803
0.360562234087321
0.836143731160704
1.21726444099507
1.32297345719378
1.31223945692891
1.35882774749542
1.37614744211308
1.30569958352628
1.25163475442691
1.19007064213972
0.967299187219714
0.608724844998131
0.263515749418443
-0.0702330780166629
-0.468461906163801
-0.885360857344104
-1.24738195747236
-1.54175224626542
-1.69049942670375
-1.6034442480968
-1.41183133419021
-1.32469949159367
-1.27231417897344
-1.06067944054799
-0.766253610841548
-0.590099072541722
-0.520399909777548
-0.472802763259268
-0.473674984018619
-0.472626860628043
-0.332622943217247
-0.113786167551448
-0.00117773704199275
0.00505457214125981
-0.00296577585784353
-0.0446812604274816
-0.0866658183147454
0.0229655605774001
0.273759659615242
0.502980650150697
0.726949988429161
1.06614189834277
1.42685149416837
1.64310975014267
1.75121043546417
1.84018509919213
1.91806312325647
2.05262964001978
2.25025096725945
2.22472266123402
1.75629812071328
1.14198255418226
0.822337765231962
0.781043589515857
0.726850536586984
0.576426707057913
0.379734151479515
0.0838615627411688
-0.299184023883388
-0.605624211905551
-0.830503046202486
-1.15684600601669
-1.53730419410196
-1.67735047202354
-1.5081565255472
-1.26809707285523
-1.14697325026682
-1.17106358267011
-1.26959799907558
-1.23940056465106
-0.924398099971293
-0.527705312961681
-0.422791848251224
-0.691192526652778
-1.13897737383708
-1.56210289988039
-1.72176865672939
-1.37940460913407
-0.602989616224557
0.261050328110173
0.983362566976816
1.5006974449301
1.72108413476569
1.6712426767315
1.59459222366179
1.55729259784784
1.28481347275776
0.633385395778199
-0.157138851527717
-0.793182756243532
-1.13715978618207
-1.143604696134
-0.951936168081286
-0.880967519358018
-1.02190967052247
-1.07834179429003
-0.846258340898117
-0.52960200958
-0.372432870538607
-0.334639178823317
-0.290089418000323
-0.168510814497315
0.157886394540694
0.703889165251136
1.13146163515015
1.11319635291811
0.778928881337364
0.425198967202029
0.074243192480322
-0.359132747847613
-0.804139309934211
-1.13185803889565
-1.19752099673128
-0.798573184730123
0.0877390175454613
1.17475294902336
2.20249597779097
3.09313994575428
3.63798426910484
3.49224213000253
2.62035849359921
1.36264215797169
0.0927472100721537
-0.864080666231537
-1.22216167339676
-1.00178553392993
-0.538187398098342
-0.0528559795339715
0.432165695018319
0.780154684576577
0.814695829157916
0.620726570903604
0.351224165583515
-0.0645693053996608
-0.66388118512859
-1.20089703619758
-1.47515748915712
-1.59289651902413
-1.67056146645093
-1.64468442585725
-1.53656252457218
-1.49504483400138
-1.49498870690877
-1.4179333615504
-1.37933093651407
-1.52883870840224
-1.69414914251291
-1.63086198974137
-1.3609868107096
-0.974223146566635
-0.461945144368786
0.0787576668254997
0.473747914526168
0.735618433940256
0.940070670284675
0.986373259969754
0.819008412559048
0.643482024281721
0.659977851893416
0.856474571795677
1.15934154029797
1.46511870769324
1.58189410342366
1.46436838012928
1.30818005934048
1.16462519634009
0.844661989501261
0.404286866955264
0.230742878115599
0.478725767892816
0.876448216592656
1.1387546975916
1.18211517339119
1.01993896057035
0.799669825884593
0.798823444441238
1.09766930967883
1.4140658078809
1.43015134720034
1.05932481164852
0.323691368634835
-0.689043843540912
-1.68797959443395
-2.34909799029396
-2.61148613833941
-2.54017141118211
-2.13501285242679
-1.55759393288158
-1.16651432847653
-1.06962218597828
-1.0561995597061
-1.06428395993811
-1.21046920822008
-1.36998311889831
-1.24472504250965
-0.789598356964807
-0.207721154258523
0.284402137836069
0.47871117542551
0.308340322332557
0.0771776150636381
0.181801078812146
0.62112224296537
1.12197077045077
1.54112798894126
1.80693602182524
1.78544109787584
1.48763466065141
1.07575150592679
0.568829062522844
-0.0667964100081215
-0.590033552928689
-0.676147495215469
-0.33198142643347
0.197970373384176
0.717330317747633
1.02332195234703
0.916090117039726
0.53135032157957
0.301784817001101
0.365157029861795
0.400075973998662
0.187292945113231
-0.114290720330046
-0.331153754729073
-0.490417145249467
-0.682330344009918
-1.01237241189942
-1.52219908053683
-1.98399006335127
-2.08706669268084
-1.87947311483182
-1.64229841348146
-1.4275198132644
-1.13787056308884
-0.846493001487918
-0.640267797358468
-0.419853293385995
-0.131652529812326
0.133173475394199
0.387593411734374
0.70951203221574
0.982241436684352
1.0684314453243
1.08808758127867
1.1862496628389
1.29309110545417
1.34434031848783
1.37685386828699
1.30173758617926
1.00038373543498
0.643623215604265
0.511249294092488
0.580490578213845
0.624003320125563
0.54615690699099
0.365511869325017
0.0980857328622219
-0.150538301355356
-0.253067668195429
-0.319152023466027
-0.546178534269922
-0.818801764357973
-0.877673062512354
-0.780858396533103
-0.730322184049571
-0.645987085053993
-0.379078040114532
-0.0796235494869463
0.0313254047834364
-0.0355264950959678
-0.16647133034227
-0.259348559407433
-0.196759128583762
-0.020951422914018
0.0241790966289439
-0.101896317207517
-0.107205266904184
0.138570540734847
0.403354688668663
0.532141445213207
0.622211499505154
0.704641213266494
0.695696832338747
0.623736889513013
0.56139702746791
0.49903027474996
0.489783260425708
0.625595262014242
0.789986154068724
0.790899933019682
0.687363491110924
0.618002938217298
0.481069179435287
0.155225513412466
-0.198132089827473
-0.393315884517535
-0.514420414372003
-0.666844714977321
-0.740358454009503
-0.656859049276805
-0.534328604530429
-0.463526464296868
-0.455461868775018
-0.595450998886969
-0.876143404134076
-1.0280066506109
-0.874523803092639
-0.595743751823126
-0.38323532114968
-0.216880774393474
-0.132120199032589
-0.249364084690296
-0.472403313552542
-0.575060426735967
-0.533168666807101
-0.451818042482889
-0.352261133177551
-0.23943381685457
-0.104064912479161
0.191361936161037
0.678921628352828
1.05424640205816
1.06376405347154
0.856825321032386
0.601591615341716
0.182024495113521
-0.399079655637074
-0.828230969542659
-0.9559302275475
-0.980920639568872
-1.04622328589249
-1.10358611013811
-1.16374745949047
-1.26472437701183
-1.27852887721259
-1.09344253081818
-0.838310188660009
-0.654238800621723
-0.45772083768359
-0.131796862584172
0.324061428188846
0.930479854890688
1.64517058871688
2.14360930736322
2.10842781523328
1.66094621822871
1.14324648796346
0.703462079445957
0.402495252615553
0.383146909499507
0.667653587795794
1.08862898655129
1.49710366540737
1.76558422937794
1.71554983086688
1.32569300727192
0.797112697036265
0.246774743057886
-0.336446983651159
-0.804198872054613
-0.965683636291602
-0.944809394001446
-0.973757523056555
-0.992603138937838
-0.850871702825787
-0.627589997986577
-0.43051263102359
-0.210309751097915
0.0479974636377946
0.291969263665543
0.550054551442933
0.772134865010474
0.708060690349162
0.298560623057018
-0.086769198131539
-0.122043004393211
0.0960618884116592
0.391930233133468
0.785442759733474
1.14863578431908
1.08361069176182
0.45891387082041
-0.334777166987683
-0.851787470597112
-0.977341132003612
-0.86768115209706
-0.837088420724052
-1.15332941265279
-1.69014459468374
-2.0224522675305
-1.96369371128597
-1.6710082104744
-1.2674044214404
-0.768816189182459
-0.264731460865608
0.181773726557285
0.610969732930328
0.930100516521901
0.935771870378568
0.690367817838826
0.486311794011126
0.432492721634607
0.448611801606778
0.518638543155708
0.621233570093119
0.686562418530751
0.82971216426339
1.21303759026781
1.60114049943354
1.57607298728948
1.17903674137905
0.795987068405576
0.513759068502082
0.124953668772647
-0.378774498746105
-0.813048893318683
-1.14481388256711
-1.43199178638656
-1.60934621459864
-1.63067234234631
-1.57951743452839
-1.46724351691267
-1.24794575725531
-1.07062712659876
-1.10557304962733
-1.1857328924774
-1.03798591770518
-0.715970455525279
-0.463768002945363
-0.382280167229818
-0.441378686950084
-0.546045942934982
-0.528668882022018
-0.339438443104107
-0.137345576620776
0.0222302873425781
0.309890880193302
0.757047696249215
1.1478156580404
1.38258206119446
1.55595099484333
1.70887789583862
1.88892064410065
2.24549336194472
2.68999925612223
2.8099269159827
2.44757974435762
1.94224125485918
1.58440179133394
1.29573708417337
0.949987015519214
0.558674148033016
0.131817484902862
-0.28210221151695
-0.530471345624814
-0.61774826750955
-0.811017328662832
-1.23859185347633
-1.66748805444158
-1.87225157441199
-1.88638147478686
-1.77458139636621
-1.55082251112929
-1.3529734702025
-1.30441414188169
-1.28829889713535
-1.18380157948637
-1.07210393994307
-0.955933414024016
-0.664990689036197
-0.222328794040325
0.111498164027544
0.206987566709545
0.0985867822062156
-0.203399417318278
-0.566163811176296
-0.672710009294905
-0.412420992174285
-0.00318014158379011
0.41513544474407
0.882734936786522
1.3151743839126
1.56509853553433
1.68057721958657
1.71332425792137
1.55186505756142
1.25875812666606
1.15917415706233
1.35710452292488
1.59758145755966
1.69558472956698
1.66188639890786
1.44734625221532
0.991517948953664
0.428095001975683
-0.0915229049689014
-0.595664732614535
-1.06418747171876
-1.30841547642131
-1.32829858887194
-1.43542342126644
-1.79542694229923
-2.19497023875308
-2.37783249985907
-2.2742238730306
-1.93666646410521
-1.57178320619309
-1.46222041299973
-1.60128247101093
-1.67355182151669
-1.50421077264774
-1.1425088587454
-0.521102935368989
0.481897207767821
1.67461270508075
2.6435708022892
3.11800391542792
3.02088208625981
2.41596841314884
1.54944442663528
0.653272708785035
-0.270540416260743
-1.15329303191176
-1.58756755257023
-1.2755106772078
-0.476985087538358
0.318285832938054
0.813134572829234
0.828749733551832
0.318460522103252
-0.382083059978761
-0.790169205641783
-0.856283133062464
-0.932998292576833
-1.18532943846056
-1.37203049847442
-1.16616644875154
-0.459477984250289
0.534347689074296
1.35365152064787
1.69341368063951
1.76694123967272
1.93006384529684
2.04338932256675
1.69772495261258
0.956252960194693
0.375633336041361
0.406345271777774
1.07832141220107
2.01597276833428
2.57909896553967
2.31828152104739
1.34764497948231
0.0192703826741814
-1.50396640028846
-3.00305647969653
-3.96233019386769
-4.02077862823
-3.31951637908005
-2.17574176593612
-0.86120278798799
0.222359361207558
0.716262670410881
0.736024104685095
0.711245853878636
0.864017087965669
1.11505055394556
1.25368587648953
1.02110019782967
0.357817437916485
-0.368063391395712
-0.720588332150132
-0.705181787446584
-0.589112747388726
-0.437037388514761
-0.208680034047671
-0.0697593543574873
-0.203354900698504
-0.504978670651481
-0.757783180668714
-0.888932757738225
-0.881505367984528
-0.725391363892577
-0.529758353838075
-0.386579535328406
-0.209015992669003
0.0111464245924961
0.0542429062687616
-0.139369038237634
-0.292586035479673
-0.209910606395195
0.00985769630830889
0.244416453427714
0.44977906206324
0.562968887032267
0.627055885767875
0.804734966222066
1.03755818915626
1.03737264584889
0.768231143316876
0.524663894090272
0.484774149413574
0.597448920795596
0.801951972696907
0.959108974300252
0.818434572092728
0.410853778251983
0.128705711993511
0.161968929901299
0.260986358238881
0.18881238704389
-0.0229651633699102
-0.29274887789534
-0.548892883827301
-0.631141987746869
-0.497281119175208
-0.398678283756079
-0.546270315026685
-0.807733529217313
-0.979245865915691
-1.06037055603121
-1.06249269697872
-0.901038473844802
-0.610767538987633
-0.329340728047827
-0.0809181622472201
0.121145897416176
0.14117740698862
-0.0427764380377235
-0.249960797506732
-0.397927062971947
-0.550780452947633
-0.657197303225686
-0.615570191059643
-0.496224070801224
-0.3709241891303
-0.137860487844033
0.257251172392297
0.746015558232204
1.36231101775407
2.10339769707562
2.60672744560081
2.48471056469288
1.88519641159527
1.26743891183385
0.835808809817841
0.543344946488804
0.321645183004515
0.0523827893762351
-0.343669684964058
-0.716343800513995
-0.92736256754454
-1.14395751572568
-1.50036253373493
-1.715483111058
-1.46796376393218
-0.877809965546272
-0.244424822714533
0.35325570908669
0.851146936242023
1.00491356309008
0.750770317791476
0.385138178402788
0.151286626244523
0.0104386445459169
-0.0986337019697387
-0.130153881803745
-0.0513209350635873
0.110206630530738
0.182161261872736
-0.183450567474629
-1.07491814508445
-1.92251662230419
-1.9907985724574
-1.17716010362087
0.000970784301304362
0.944748061894026
1.26335783287739
0.954097261546786
0.500943033541625
0.388458785750773
0.512800687108103
0.501633441730488
0.379604490716494
0.382963537212439
0.438771492720706
0.351484799484723
0.167954935251182
-0.0156906836390436
-0.219767358943604
-0.323157160944877
-0.0566668030122951
0.591001994896372
1.28240303473784
1.66254628379482
1.52571672065007
0.786045459127995
-0.411182467053582
-1.65377932423604
-2.54471466500031
-2.89175528947385
-2.61256538699689
-1.80059549792588
-0.88817774923819
-0.346194099594023
-0.251100344622759
-0.425071658092877
-0.742028272752527
-1.01432646745152
-0.95763297219769
-0.533812799041518
-0.0105645989372212
0.357079374078126
0.386316562939444
-0.0562464790019385
-0.711788200149715
-0.907513521123596
-0.323649804561754
0.575101455137826
1.19379661385493
1.46745214964591
1.66455765579941
1.98346935207166
2.43860328952386
2.76251625714258
2.50031203293674
1.53538199232571
0.336047430575993
-0.525179662534324
-0.816213085803204
-0.570069139280864
0.00198453620647217
0.466687241051509
0.426189952050764
-0.116258145088209
-0.829095562174481
-1.35565976100486
-1.39712496054733
-0.788791365182905
0.259943664818805
1.22030614213749
1.65710696905891
1.40626461103736
0.543788508026109
-0.425636673883281
-0.697922026493884
-0.0558007461125888
0.696494357985975
0.660464068223845
-0.174318946766531
-1.17443345232805
-1.77305926965131
-1.70982022969988
-1.07955263496496
-0.317076508139511
0.181699133200935
0.362996044666493
0.280036562334812
-0.0828551850741642
-0.564665521722308
-0.840831610971468
-0.815199643383848
-0.620667509778219
-0.300269764148516
0.127291986303807
0.502217141248391
0.765542316419132
1.05936640594063
1.36781031624017
1.44888388737247
1.23536620407432
0.90436176287609
0.552070569423527
0.175331328559243
-0.120919834127148
-0.244069323333472
-0.303134549679259
-0.413507047466653
-0.527884987442978
-0.660192564193807
-0.953085855314237
-1.3327024919388
-1.46506274021432
-1.20654585130135
-0.76709672733224
-0.41925084837989
-0.335638342916217
-0.551854014748056
-0.840651451578416
-0.885717804822283
-0.700447762968992
-0.527224189059614
-0.375056351820418
-0.10160904462751
0.205548725207912
0.384645107815448
0.503465732096658
0.643490846962372
0.7063523733405
0.685851115500661
0.734528520894229
0.833990204067623
0.824522627805368
0.747784581326405
0.752552285473611
0.813207890082916
0.886276257660615
1.07354199355424
1.36261574025594
1.51693109202326
1.36912869165283
0.940371185204722
0.304350061820791
-0.364049954531323
-0.744632673240729
-0.69704021243789
-0.493632472144226
-0.493380857130631
-0.766804030705069
-1.18997441304024
-1.62043170584218
-1.85595146700839
-1.753200163923
-1.45270019701518
-1.1799658065344
-0.933614937931111
-0.674292934821805
-0.522081619331324
-0.450574171110372
-0.188207314166716
0.322825507106585
0.802878578948774
1.05770280685388
1.05828537805158
0.700627019682303
0.0255503029888109
-0.493734284480981
-0.388544953748316
0.267725403209911
1.06421242683062
1.67251392309541
1.89287834586364
1.70004589594712
1.3403237996051
1.04339419954527
0.741422096523993
0.360294820520025
0.0916695433810407
0.0838360349425432
0.182660745415681
0.183140158700768
0.0651880607767251
-0.0761637353749583
-0.109203757049186
0.0553570764437099
0.287221914538747
0.290385488547271
-0.0563391022802624
-0.626653120172069
-1.30866440858943
-1.97618855326695
-2.25633102141351
-1.8468679991254
-1.03971938390279
-0.404551041324299
-0.0535685646717183
0.287546263707027
0.711933929924009
1.09888838752543
1.34151537684848
1.25370544947003
0.62065387883671
-0.405397044042559
-1.28642249842835
-1.5662451086971
-1.14831506855726
-0.292877884164589
0.446868941386603
0.60915150275536
0.324900042398438
0.0943910779490996
0.0728686471977563
0.0225382372911792
-0.148465446186306
-0.288017820299678
-0.277811383374991
-0.0425943451150304
0.453206026431584
0.988394495233462
1.20873070119057
1.06164934549131
0.749785569739101
0.334854789365722
-0.188948293118696
-0.580674870480025
-0.569808667222269
-0.276417431896129
-0.063941357064717
-0.122304118813181
-0.433220349536833
-0.8798899775397
-1.19217744298964
-1.11824842721928
-0.778867314231259
-0.50786128386093
-0.379187868850987
-0.263316187903719
-0.154385107074547
-0.0645509733536401
0.118066195881408
0.374556913417404
0.496332556181474
0.412657883169014
0.211599930144838
-0.104437500496112
-0.482313122521753
-0.640718281174207
-0.429253966128234
-0.0992947595790196
0.0719156802097784
0.0839772566721587
-0.00711226186160797
-0.185780969306154
-0.296923524884698
-0.176733692474606
0.0802350960461586
0.282294469358326
0.380176687780148
0.355379211946679
0.173550157017192
-0.0324435043457874
-0.0446083567480705
0.151407421970549
0.412472186203491
0.656564331377946
0.80926012369028
0.787261694044697
0.815257596165766
1.42543092529573
2.74039479343596
4.00945603029101
4.23489125772802
3.1011902873244
1.12606524833612
-0.841811195552772
-2.19174625480413
-2.8687131826653
-3.14160037887306
-3.05983398167099
-2.47855177135341
-1.57885831577889
-0.777649358265983
-0.128192203585356
0.566330042910331
1.12694775649189
1.13888708694646
0.610181035436761
-0.0651620884454561
-0.626424569556191
-0.996002008986171
-1.064824057759
-0.776376412772547
-0.233552126673393
0.386280101763165
0.834186252031806
0.849216570478546
0.469210447121411
0.0582828298306672
-0.146924413223788
-0.206301527074358
-0.141578132056183
0.142944008542269
0.556581590104292
0.819744158458223
0.784992962138162
0.497660442696267
0.0272628431788196
-0.530921332299393
-1.02608203999006
-1.39731919685996
-1.66720246043796
-1.73700865435898
-1.48997025794826
-1.07181393701803
-0.695299849592484
-0.310869040024281
0.118185857134235
0.308123163967627
0.0757698660031094
-0.282835149191188
-0.421262126223795
-0.375876193989772
-0.318505787610879
-0.263293266988944
-0.157573979016813
0.0371449309595623
0.335433062767553
0.625446822751806
0.783287747818627
0.937322940983968
1.23715889441322
1.42933092885262
1.1956019065684
0.780550381166397
0.699004687701796
0.993411168293086
1.29669811009244
1.38967279537849
1.28460434198873
1.02618390641968
0.688090303895469
0.346003851717108
-0.0127058297848591
-0.347037003027317
-0.461436867607144
-0.303317774404742
-0.157850951753061
-0.287573142867303
-0.618622009776005
-0.985503125960313
-1.34610928987132
-1.57867074852443
-1.4941535967549
-1.20104932400804
-1.01843730168532
-0.987846972883352
-0.906713820460911
-0.750202003786231
-0.654970319252026
-0.665557272375751
-0.77252402302825
-0.939229977924938
-0.990455984107528
-0.806626100180756
-0.557984464191258
-0.389514959490444
-0.110462044811441
0.434120604706754
1.01324812103323
1.34966025555375
1.4553494244795
1.45612408104284
1.4544665025012
1.56226196591991
1.69836793806349
1.53359114161032
0.98123541401487
0.434507420380572
0.252326328089258
0.393379451483304
0.689276059971454
1.01657949822774
1.14045363464896
0.850909336249754
0.281709920525031
-0.25494916509714
-0.652058997679201
-0.915589966023675
-0.903934902609432
-0.518779230965609
0.0360211592465731
0.454719587913385
0.560646149091331
0.225067717946973
-0.576824071871563
-1.54588716226589
-2.22801635270102
-2.38806892398746
-2.03755835045607
-1.35198629251828
-0.688818509228264
-0.287280593034321
0.0965134341148405
0.806210800288065
1.63753466088168
2.05965618338791
1.87123094046886
1.20107909260938
0.235936724407596
-0.616708278427177
-0.762466108182544
-0.0709995457237163
0.852408107923714
1.28937061223744
1.02185219322725
0.355120070933502
-0.1490796243824
-0.100606432847169
0.31460475524495
0.55999964371023
0.446893972850633
0.282612731513948
0.315271810675455
0.388352123977418
0.182370030219531
-0.409863653634676
-1.11139480114937
-1.40914938748055
-1.07925184245265
-0.577107065704941
-0.56091562300295
-1.02157457780031
-1.33341190161295
-1.16108106647929
-0.79452626757819
-0.599882968877751
-0.644886457482359
-0.813090168087017
-0.88448456101129
-0.639795786419022
-0.144848229477764
0.279423510860188
0.436279007712922
0.313699491727821
-0.100193131158921
-0.669576895558774
-0.991712564216314
-0.807547774146254
-0.300924329581631
0.213265609394016
0.551213716952677
0.578206923791704
0.34741762319141
0.266164787900195
0.630588952580259
1.15421924651266
1.3793485929577
1.26254728127858
1.01525201407152
0.747217478930209
0.515824382961281
0.348666902674961
0.11417613103256
-0.267624131928158
-0.540330500782159
-0.430591691020068
-0.124012132557719
-0.00996221366396813
-0.0959933902298943
-0.0647711842823844
0.239071324206405
0.693919792284456
1.10517030684437
1.35431727707917
1.52851630359298
1.82583093904688
2.06253659714075
1.60029202703244
0.197717708162478
-1.44419422812648
-2.41833432254838
-2.50994712575486
-2.07687954356741
-1.50309966151799
-1.01544085301338
-0.661331072430731
-0.336254884495837
-0.0277602252497076
0.110500814324628
0.0748195431240087
0.0757004991775799
0.168329747566317
0.209202596668274
0.203580880915668
0.274231104252014
0.354515483183128
0.300989092929347
0.165959481899783
0.0854248821947183
0.11903514615787
0.319917537215907
0.653570994663803
0.844465984636483
0.675497453581483
0.402641803108981
0.50409038078437
1.04996627261424
1.59800659645767
1.63357335562205
0.94468877635514
-0.221326863447102
-1.22747002812259
-1.56746501947489
-1.40587496966954
-1.29190837935537
-1.42932314924649
-1.62124039399206
-1.71092457321831
-1.63916291725977
-1.33766556606161
-0.913112291417459
-0.625806796113631
-0.511717141938619
-0.381221223286492
-0.16882449862498
0.117255003282979
0.592946272581888
1.2050511157532
1.53833307569458
1.32451966562355
0.811408898007806
0.370558304666733
0.157769889610436
0.275045609216466
0.772390493113039
1.4260402505079
1.89465950208989
2.01246677897522
1.71380744942727
0.984914153683586
0.0924774137455172
-0.494350521467613
-0.562427034038894
-0.301757051687348
-0.061620332112529
-0.183670010609578
-0.833127209388229
-1.69447491553133
-2.10442973641612
-1.78229679092119
-1.16292980052079
-0.821674168667454
-0.919026175057255
-1.29483654745495
-1.64258223139288
-1.53598409389415
-0.754734621693126
0.386052549226542
1.32351097204603
1.71353582381315
1.47998999248998
0.786987744032057
0.0787171333629453
-0.270162010762045
-0.362425563432325
-0.48604095474491
-0.613214985396887
-0.566309236095296
-0.380078915419489
-0.158899894782651
0.0984674964718192
0.341903556956846
0.509886871952026
0.744198669101894
1.16903739800642
1.60236972540422
1.85436689644749
2.00124342470875
2.04028917068196
1.70173428922037
0.889444020865369
-0.0972686103102572
-0.923915013271889
-1.41294000990828
-1.38948403091173
-0.789148337886439
0.065964519482459
0.653757980454868
0.696564698547141
0.227636492649553
-0.552046184159655
-1.25070784942353
-1.43680973870589
-1.06381112921941
-0.490663942101692
-0.041891722402245
0.135302403680788
-0.0656127590495798
-0.56789770102109
-1.0284507560515
-1.2316565186813
-1.29555555651914
-1.29964672750847
-1.09535618567305
-0.615083861892373
-0.0141691859803888
0.512614145986437
0.814374357678157
0.865089129085215
0.933461882406148
1.32582284742424
1.84056557216442
1.90918502889634
1.32421053930733
0.412404878278705
-0.394811019697728
-0.760233800799086
-0.485028692286878
0.246908721150961
0.948429403298495
1.37144698358144
1.62201081764602
1.69312287718325
1.36201731888007
0.608613471901188
-0.281734653197932
-1.04393899921703
-1.54007431041292
-1.65755928854094
-1.43201113554257
-1.11955166470955
-0.885897453824887
-0.651616210560469
-0.398508452618845
-0.27413079542005
-0.293705496726059
-0.314084262623245
-0.298350022206508
-0.276764105231424
-0.185108013412468
0.00103096947252942
0.198699010337107
0.392873646226071
0.563105628427565
0.486968564306065
0.0275160325945131
-0.512907757311978
-0.730581985959336
-0.621865375337587
-0.440536360795623
-0.33709544412724
-0.344956050827021
-0.390611369020944
-0.245015281500014
0.187032203001002
0.616322361226988
0.743075536606134
0.652890409924769
0.56091983257497
0.500268024078746
0.469407079495503
0.504929824979077
0.497024094376064
0.304036737038293
0.0435753152194058
-0.0851860472230442
-0.155145507603472
-0.327903597621462
-0.500526503557914
-0.50034773866523
-0.409355595193816
-0.363147332925336
-0.298248546353064
-0.161091871497068
-0.0541657477497726
-0.0230137823443829
-0.0210622831508635
-0.0774542886185562
-0.186553008054396
-0.198964357468677
-0.0957906664439734
-0.0753414894279743
-0.159781179822331
-0.0887858486319071
0.252135181180927
0.645114983757401
0.812429276199816
0.617498856371293
0.135650423405842
-0.277046034135732
-0.253718490755966
0.116190586750833
0.406875462913715
0.429089617980621
0.322247349270537
0.226894121829231
0.235415475207129
0.423889779900223
0.639829605726234
0.583780206232846
0.270375307494789
0.0148918030882877
-0.0855010333265145
-0.215363275709543
-0.412174567805453
-0.516280845214254
-0.488347080123475
-0.387501946177713
-0.16566830537192
0.154209647859738
0.301909873437035
0.103209337262935
-0.252365241469592
-0.523715264502957
-0.653300394174275
-0.574711577681156
-0.233551708959584
0.1436170247378
0.222376252407146
-0.019932496505258
-0.319943019653865
-0.395948199927594
-0.0635460258463469
0.579601763277035
1.03859632040982
0.876438342066525
0.253314169096853
-0.302386911478839
-0.470170423157911
-0.227755787691027
0.290786316428409
0.776407116859757
0.92020897933766
0.724684586666468
0.357241643931718
-0.159077213228974
-0.764232719636249
-1.17211228132302
-1.22686983435439
-1.11300916233984
-0.964503645716942
-0.664978229970918
-0.195112989072426
0.223595920201492
0.412623443335787
0.332747916089229
-0.0296365706801721
-0.521236861243923
-0.726355143372062
-0.390609161089605
0.230516193891249
0.717781252471867
0.880003761158884
0.617824514679002
-0.111250392707534
-0.972629035756966
-1.38171525773275
-1.11167097334686
-0.434171328542973
0.263709507172909
0.692873280715733
0.735089277681288
0.579326401546208
0.52441596977619
0.559873177845369
0.500042590678618
0.477490187643617
0.834514563530962
1.55609086085421
2.16717783965709
2.12114078799443
1.16497735983615
-0.394787936994747
-1.72925910173733
-2.15883201688004
-1.80203484068193
-1.28588587236222
-1.0151696460236
-0.999297870725804
-1.06648137599368
-0.957803647544515
-0.495862507783064
0.187087333213788
0.838332663922027
1.44344653950497
2.05986649493269
2.43548880749103
2.21633206953878
1.43807215391155
0.468754897979566
-0.364077695615087
-0.814871295425445
-0.718020315264071
-0.263310761517719
0.0307179213435102
-0.180905457549907
-0.839233346101354
-1.65253095564768
-2.142941835844
-1.80306240740296
-0.681056468052773
0.425244323230208
0.720941973032232
0.174038857413077
-0.573089208867325
-0.779827522314338
-0.164109693778831
0.796887732886036
1.25810996096279
0.910745435092134
0.241038289389704
-0.166586976047165
-0.147795047763463
0.185591181382062
0.556394201362191
0.553054432939892
0.0545618743475548
-0.513867978220713
-0.706892456658889
-0.558117345611517
-0.323576850032473
-0.135423815415137
-0.0809738150513791
-0.204570071436937
-0.323533895004203
-0.204417523779186
0.0753677706071532
0.262489588470369
0.313418899517868
0.325678009810004
0.276470465160113
0.143150113742587
0.0432432533523213
0.0225443188540711
0.012488693165245
0.0959135578360724
0.410998948091482
0.789029878740775
0.901242304866558
0.678122182140189
0.273397183614429
-0.150015026221108
-0.380931199583827
-0.253971125708633
0.0781803270564611
0.297323048406945
0.314412890758938
0.202535971807836
-0.0455214571234432
-0.369187546534071
-0.549232764307426
-0.511115423757906
-0.383802965155041
-0.193525222925901
0.0806658644837867
0.23529187812083
0.0931486380891948
-0.163724453287898
-0.318968609987197
-0.475267694579156
-0.747673544072244
-0.974236642015799
-0.99942188660285
-0.898196088548744
-0.76306084013887
-0.586629210561655
-0.404124901672108
-0.260343421662344
-0.0848795208363876
0.134969893468832
0.222856013678344
0.11009611038504
0.00347014555116691
0.0463042923539189
0.147468277060537
0.263763050774005
0.469648544581808
0.755998508335498
1.1277750901268
1.71859391640731
2.45552239082601
2.91171325133984
2.78614399646397
2.19543055611611
1.36145468130609
0.401977414979491
-0.569869445759584
-1.4998668243547
-2.38265569570572
-2.92281840995496
-2.61730017586152
-1.50420954391019
-0.373131179073842
0.0551353290218031
-0.226633405467272
-0.748968860755193
-1.02906998603273
-0.845188636984284
-0.395657655596564
-0.0815890269632197
-0.0107274529070172
0.0170433489630566
0.0726145217659231
0.0746628036459204
0.11597412822313
0.321840055952237
0.475659318283801
0.269454965499322
-0.171461096807518
-0.441813490192592
-0.38602105780974
-0.124217909089658
0.205472453216294
0.443808864130485
0.462246990256151
0.395414310362584
0.481207415367018
0.664923332120261
0.731997236209843
0.684408824131658
0.620299313782114
0.479385792241994
0.201066019815853
-0.117302093198339
-0.332701816390618
-0.261876163632445
0.301668360816774
1.22610627409818
1.92987234048598
1.97187681516307
1.47096499312859
0.755490467290457
0.0333802399152169
-0.482474151213049
-0.626895713506543
-0.525164487516883
-0.399693894848878
-0.266714641988964
-0.123379338020332
-0.122205775853254
-0.310034756945218
-0.562614035904348
-0.896091929258755
-1.41463979659056
-1.92388962862622
-2.05585063850337
-1.77830960373798
-1.38317890953997
-1.04699458220027
-0.768082340285915
-0.592625646191771
-0.562214626820855
-0.601224828269139
-0.660545790037563
-0.725412212688861
-0.632231740271342
-0.229988615843166
0.326046185068302
0.766083381189115
0.983832247037021
0.887153331197518
0.39466391684655
-0.193753041431251
-0.33054604971923
0.0985739072447334
0.696432854550667
1.16708951330495
1.52465488742696
1.77255034846968
1.80452429415324
1.52391448795406
0.864681931187171
-0.0405861115476615
-0.689267757449573
-0.648386933093544
-0.145265406109076
0.214430688842793
0.179613311782256
-0.0799834565282606
-0.362032094014801
-0.497678456579741
-0.299903118126078
0.234942316701284
0.840259455885169
1.21217965748975
1.19223129484742
0.797669118567383
0.269658979256854
-0.0721186869106274
-0.229040755659741
-0.514975305425321
-0.949866918490039
-1.06715897185928
-0.580917769928244
0.18661740310947
0.746860872199681
0.888277963639877
0.617652416715164
0.105647287774864
-0.324003140241896
-0.487664252625381
-0.5002712734539
-0.490895098574037
-0.459056733201976
-0.452940225027307
-0.510253527166143
-0.492628231918969
-0.34704758701371
-0.305484617719865
-0.469095393059848
-0.526301602105946
-0.189289979884226
0.441503111924259
1.07952545395133
1.42036870057937
1.17312264754386
0.391926942553988
-0.370536509877467
-0.630359583680788
-0.454322917546117
-0.163293576369937
0.0175220369810341
-0.142127428142938
-0.791572170512906
-1.61802708231729
-2.0041298995567
-1.70261396953529
-1.00340558616669
-0.250229484972681
0.42075707531118
0.930911036106814
1.22467348794087
1.31676315372124
1.17805073816696
0.791455639041463
0.383217917550699
0.23192435104037
0.253702271131241
0.161303917964639
-0.0728919432156768
-0.235217247644267
-0.13431028993432
0.343600709979909
1.09658628056837
1.64922720837664
1.55031469725431
0.907410611481676
0.15979651941137
-0.464357696077854
-0.903541270033805
-1.03906475521993
-0.886105040352303
-0.659319829812502
-0.439881773086335
-0.150679746268744
0.118585081535831
0.178211246000503
0.0385327850666029
-0.200043520542993
-0.534778124158624
-0.882746344261757
-1.02702295310286
-0.91864145522299
-0.721062199273163
-0.502205794002449
-0.213385351844648
0.0544016343842639
0.138647762400583
0.0704479080302445
-0.0291888427887005
-0.1767254018282
-0.370442675376206
-0.434762463239444
-0.280080560218211
-0.0574898023490043
0.0943686515626826
0.15146758938912
0.053202642667655
-0.204641957847708
-0.431844687590245
-0.48671972724589
-0.434127921687673
-0.292378022666915
0.0177657239073096
0.391717510838215
0.626519145720074
0.773813658006595
1.02078645473823
1.35569801915804
1.6501166290095
1.78841194499847
1.53530804144652
0.733343342606451
-0.255540696567169
-0.83690846660003
-0.928688602913762
-0.904213954074267
-0.928039168802989
-0.862512134385332
-0.640566973616229
-0.314454203074147
0.0486110528684114
0.284245995887751
0.239000989944904
0.0757165408283189
0.128016223069106
0.408073455240088
0.617581462232381
0.625536640164923
0.561705754461269
0.507826325841184
0.453059753493073
0.431535245558753
0.42608073492677
0.336916179809307
0.194379950704933
0.116673692086675
0.059975737637728
-0.0438910936064789
-0.0479686172215784
0.15455861938143
0.37865915175448
0.43900902164893
0.389124306057546
0.314927068000675
0.237954294300607
0.23180309386345
0.280936020648943
0.166413000615316
-0.176436423745051
-0.451885701476547
-0.423211171114139
-0.194854254765247
0.0724109103663716
0.334450830664
0.551541199357424
0.800025324767589
1.309131967615
1.96674682090462
2.10637973056601
1.25316923650485
-0.179458264331453
-1.28903935645166
-1.5737205952148
-1.25191891108965
-0.920087910874369
-0.99072146433908
-1.31393240310563
-1.38292887524689
-1.01622282622473
-0.624333261825925
-0.658358706622469
-1.12663376272785
-1.81189225862074
-2.53881382625541
-3.08203928700406
-3.25418296328612
-3.15052038346779
-2.93575692049692
-2.53945907317949
-1.92724365769368
-1.35772765535917
-1.01174942606412
-0.720868665062175
-0.296262139528918
0.250020841166101
0.860211313050317
1.39590258721786
1.5675126452218
1.32834324510424
1.10824366734213
1.26446573455156
1.60160759522341
1.73104692028252
1.56321816393344
1.25929416784488
1.00282347514464
0.86681836904466
0.720806058206541
0.425384366030815
0.201203185251388
0.450062841480098
1.14678120356115
1.82410955361383
2.17936659296846
2.28089595076559
2.22543146718417
2.02968915834037
1.80930122158415
1.68253229399285
1.58303518773766
1.43231856159139
1.26518772832846
0.991347640040581
0.428952399325049
-0.244589786597066
-0.513306741221566
-0.109626245542866
0.756577172610125
1.63329698858551
1.98908359235382
1.49166437585617
0.454199448882859
-0.399134596528464
-0.835465063652924
-1.32820292765467
-2.25378179346909
-3.31569012090884
-3.81339219722187
-3.22644340888909
-1.73535170235727
-0.340502266441784
-0.0618646055775019
-0.876406067065907
-1.88186418331626
-2.45192439057111
-2.65023089461701
-2.63571301142902
-2.32524515301763
-1.64563136551679
-0.706660811474623
0.23540146043855
0.851038779215082
0.989087510428659
0.910468270013077
1.01551778950575
1.35772878684358
1.68598621548823
1.84677197053784
1.82912698512569
1.59882381349089
1.27846433175687
1.3080888606639
2.03428552176195
3.24841297632129
4.30069678338864
4.48051716961703
3.35516467095357
1.15037176402536
-1.22592997386652
-2.85606405538954
-3.45341820300617
-3.31755141157239
-3.03161951627206
-3.18747133228355
-3.87371726295443
-4.42932325274704
-4.1822258197319
-3.31357738434832
-2.54848244936935
-2.22075711054098
-2.04384222175729
-1.5517233116646
-0.510993901101265
0.836467926430534
1.89778598466497
2.37523494652179
2.58413768445186
2.80762378830401
2.761530058892
2.15109120804381
1.33083795340266
0.920084533687043
1.03935285172895
1.27477201614476
1.19634301066227
0.699954929860413
0.00296113804640129
-0.569482778580391
-0.869216366359771
-0.962783273397211
-0.861549963944486
-0.489062030338692
-0.0229711301634901
0.124594036282094
-0.170773824491457
-0.607090064903959
-0.877627566766067
-0.878164541268123
-0.625828672439648
-0.329660352049273
-0.304586289405834
-0.53389353966698
-0.636090702674662
-0.413354825594932
-0.0470122643216883
0.253466265872037
0.380695071615203
0.250159483118912
-0.0082726964189449
-0.0383662940430865
0.244041352767214
0.522413753726885
0.662728959637835
0.933136717401368
1.4976513048526
2.18084976595533
2.78238614171455
3.21962487118683
3.43281563999691
3.43247132314506
3.26980092340796
2.84920114747519
2.07353096552174
1.18127449919893
0.529028638400166
0.0586628551161514
-0.564730355379075
-1.30753061853114
-1.73228567868366
-1.61945515140672
-1.24323273522725
-1.05247063742144
-1.30183760995277
-1.8318694012205
-2.11744113585186
-1.83289950119968
-1.33299447266237
-1.18830327494916
-1.41819004602926
-1.61520682208133
-1.56615460517381
-1.34707702476383
-1.09289440061485
-0.952687471296926
-0.994053743577071
-1.07417680551271
-1.06744109365066
-1.0522395513022
-0.998667578954141
-0.656502658789571
-0.0598566657517875
0.352919191284788
0.402643705132249
0.425328982375458
0.675480392748667
0.981000227717022
1.08737653363056
0.952549341556386
0.730586549726838
0.67939931845181
0.882622930832262
0.981045745859033
0.528136807011517
-0.355429573406796
-1.05614456880078
-1.16438828030777
-0.751498302563537
-0.103491977118128
0.430451963156194
0.518879860723915
0.156943661378808
-0.326927378182459
-0.797422002025812
-1.42327312747165
-2.08572690964473
-2.25514577427844
-1.68366944930029
-0.747634505613632
-0.0133813101853176
0.196141863950686
-0.0571752840120885
-0.33086991662222
-0.187926514502771
0.29625286042099
0.747251915052272
1.12442024904523
1.63599051464228
2.16952094340156
2.37008132168081
2.18495991557086
1.92896748876484
1.93499616235076
2.27522404113221
2.57042765582828
2.1662715243163
0.903269343820796
-0.493963890012978
-1.20826428134739
-1.18921405044692
-0.875064300041922
-0.529794744606939
-0.246481602716667
-0.177022964763331
-0.378079900413226
-0.672126349980434
-0.828600553774546
-0.690990797000481
-0.177436581116175
0.555437600966724
1.06907043510588
1.08182948400331
0.799002967032607
0.576631964149465
0.532100178769105
0.6342661307864
0.795246034493597
0.807205694234468
0.584645855671536
0.38589901304653
0.422980262880733
0.495370223734141
0.335425062083055
-0.0245984511195033
-0.429142541626219
-0.719402481319697
-0.644538565170839
-0.173867292565893
0.166573903252998
-0.19476647241933
-1.15150351137866
-2.13083115891405
-2.76587373187939
-3.00937793690961
-2.92154444057679
-2.63624022477927
-2.28127549491041
-1.8633747923146
-1.43889140366476
-1.21269175100087
-1.22157751532928
-1.20244651238955
-0.97991606609869
-0.659533732668507
-0.322955996596303
0.0772833232624709
0.433772418004632
0.501756619797092
0.282392100940381
0.0472066059176403
-0.00287740514459939
0.212403966157747
0.788121330044636
1.66909781672779
2.53010983098226
3.0603687782515
3.14705468162348
2.77382968759942
2.12185588819611
1.64661083137798
1.58245861108534
1.54930604872174
1.0629477499103
0.179082604799129
-0.673125037174956
-1.17514407271963
-1.2482750955028
-1.02381165512115
-0.744750774255218
-0.469516518306555
-0.0369739323331065
0.507351634577204
0.832533044896664
0.830357647213549
0.737960744844977
0.674742598439245
0.554194827225693
0.425754745744733
0.41290213171849
0.417515980838991
0.289407708987307
0.115555542578714
0.0578406272614091
0.123984612634263
0.256034507299411
0.380983478139684
0.305794575960546
-0.131160640512806
-0.765247599993854
-1.24538507897413
-1.4371070927393
-1.44267368043026
-1.3855936775365
-1.4118214836086
-1.62177939382092
-1.80219841417083
-1.59437836840973
-1.04465693522699
-0.586547092817939
-0.485706582138181
-0.677666870392189
-0.985125296905799
-1.15183420527642
-0.940409197271135
-0.472780246329195
-0.161117831363998
-0.171080704622297
-0.291890503748645
-0.312049783178784
-0.175277431214904
0.0888196792812924
0.293935338107034
0.215644919946157
-0.0299457368993234
-0.0864883234502953
0.106012503393811
0.322483536991343
0.552899812612519
1.00449270815861
1.67481518518388
2.30348741326339
2.6485299546825
2.62283117477962
2.35182968707171
2.15031849653605
2.18169891989167
2.17848054756099
1.78949798677042
1.07147704550028
0.306725360517227
-0.437975591202137
-1.15961198111217
-1.58831666439084
-1.45853526013982
-0.911851805087804
-0.347729050972755
-0.109882843525892
-0.375815461265584
-0.990944497250988
-1.45918522490575
-1.44409573939359
-1.10312947828969
-0.697501318820174
-0.263894927762013
0.131415147624024
0.315448201574372
0.34979103815397
0.476638520954585
0.69356908933102
0.819563390928787
0.870058544712514
0.962890795659843
1.05909256871727
1.12048628913202
1.27031887483754
1.59421302160973
2.00322671824077
2.28290389717504
2.083551996419
1.12685089035148
-0.305916977944444
-1.42312602133616
-1.72008034758157
-1.43683530707638
-1.12414166975177
-1.12125291672902
-1.50307002625215
-2.12486385359151
-2.65087455098275
-2.86833391345847
-2.94331095868371
-3.10274339772639
-3.27934941422225
-3.35619463177013
-3.41705047313825
-3.46905452481279
-3.31454032556387
-2.89748671604088
-2.37797061053101
-1.82546912966872
-1.22869246515054
-0.686980757991093
-0.235877882105508
0.288277560665364
0.952888417225606
1.60151148572655
2.13625443665601
2.57235865720724
2.84074044233678
2.91029967642517
2.9535142289003
3.05526414097455
3.02832136035289
2.77730667354896
2.48376652660491
2.2737156342948
2.10453172193662
2.01816386862155
2.12179512099843
2.38334039353271
2.70350390690723
2.95924549954492
2.83186987653447
2.01051065078672
0.732216930120086
-0.305844981751467
-0.691985146292654
-0.571266680601076
-0.206887541931257
0.225050982383085
0.447465913545025
0.246741463251194
-0.16269844786024
-0.353736214830895
-0.184852086431942
0.175981500353055
0.483352967566479
0.505431042705864
0.187847328537198
-0.232286496939154
-0.546555507105553
-0.84793276084218
-1.22949565772526
-1.53637242790875
-1.66605565157953
-1.74583373598257
-1.8456787612935
-1.87436627421342
-1.79806043492392
-1.6512088916484
-1.44356786044481
-1.28893214742613
-1.35956813002674
-1.56857793535059
-1.67202063795121
-1.70392619264055
-1.85599946449101
-2.03213931294219
-2.00650987708981
-1.83336506233697
-1.67869912399206
-1.51618940555702
-1.30981248263115
-1.16034134174601
-1.0421793990903
-0.758015932442881
-0.295298045266499
0.139258521390216
0.483080339278537
0.832651379315182
1.14901781366071
1.34418430836724
1.50597455923678
1.66176184586562
1.60630790098129
1.31731460312796
1.16903090111855
1.44466210971784
2.00106713490954
2.52266381807398
2.74136613918699
2.49477031116253
1.94936088246287
1.58482607850029
1.66271039170283
1.95311169247757
2.10553249107362
1.93470125359614
1.33500743468477
0.332956643587458
-0.788165621166076
-1.69892632372761
-2.22339493167021
-2.24649773109852
-1.81400559970859
-1.36889720811332
-1.39026995233817
-1.78724918819543
-2.09552572617587
-2.13277395844065
-2.0303227673066
-1.8418386502096
-1.50659749711641
-0.99114942582161
-0.244376501053912
0.727659015594111
1.63666926319248
2.0857741461017
2.03796599120061
1.81981379660018
1.70981056100993
1.82638662657415
2.22416090320179
2.71587916824084
2.82902580037349
2.27976120253471
1.25586916685949
0.104613181816176
-0.868661990392729
-1.27173672155021
-0.803645616083606
0.349717470604877
1.58883658030241
2.30915841118802
2.15257671392103
1.18131440808694
-0.0895218803076626
-1.1440156734906
-1.90464680951115
-2.43543046951447
-2.53098730548066
-2.06781949587223
-1.44571451237011
-1.22206924109803
-1.53703117294994
-2.10748415000301
-2.49098705953111
-2.33958863527245
-1.73653407216422
-1.16865568083217
-0.890798052898126
-0.624275375025525
-0.155066465565801
0.19650248800019
0.0372900989366536
-0.516362659759881
-0.982348043826726
-0.966631529894078
-0.357488461835558
0.624641121947682
1.49758417451388
1.87251203326782
1.69039341626404
1.01420725810753
-0.0455852133469378
-1.04681562303409
-1.38768167352599
-0.984460931546671
-0.335088980173633
0.122018686335294
0.272834038272437
0.11578053399922
-0.231820459734829
-0.49018332304795
-0.502931295145429
-0.340255384563817
-0.0351542313904067
0.404312389727293
0.752365614252495
0.76417560883109
0.512665923552682
0.194224296701969
-0.143099770071577
-0.430739614472688
-0.518973585059419
-0.437897543570779
-0.307850450012537
-0.00691516971265695
0.611955001351599
1.28434348960611
1.5392790819255
1.2023454417275
0.458457627994992
-0.320457967183256
-0.686988108481414
-0.434844380455654
0.0826759542835984
0.301867299794613
0.13793125017269
-0.033005848833891
0.00911691343195898
0.153766171740724
0.274450838194451
0.314256868292613
0.236678248961253
0.184556392623656
0.409024787295462
0.876982825108709
1.29962797217505
1.55573585318829
1.70565249443075
1.7497141476615
1.76488264894702
2.00928395342706
2.54753898637344
3.07854541241283
3.33558765252565
3.32324859667632
3.12615442244645
2.83955714745826
2.60263879746966
2.42097749853874
2.18065526206089
1.96870982276297
1.9471847483347
1.85864105712346
1.22516141427139
0.0599879831045458
-1.1556213813266
-2.11026783613068
-2.79025448603973
-3.17445263038699
-3.2704609949597
-3.2848025396483
-3.4275526205775
-3.70829001293899
-4.08243576775359
-4.55329736493803
-5.02954413204626
-5.35946847557229
-5.55022112392277
-5.68729160587197
-5.71472721654803
-5.57426790268029
-5.37941968081606
-5.20466986789226
-4.96896449498217
-4.66520537729422
-4.33546223002853
-3.77757457591895
-2.70173460566889
-1.18921721060439
0.312707610358348
1.36076198003044
1.7504312797874
1.65556793217923
1.59192694148896
1.93182072170374
2.53854599656961
3.16458382406907
3.86794398387076
4.65134363441762
5.16831644432289
5.26120995744122
5.34898998537184
5.86225794309359
6.61890810180791
6.9750580927354
6.37619882224286
4.82935925051816
3.04111345178715
1.85210817896136
1.38184226768396
1.08298558523719
0.679488781439113
0.493244857791354
0.715938015348714
0.955786092210812
0.754952598124405
0.110856213568488
-0.680107311289823
-1.31414984750678
-1.56114620037291
-1.39088064406108
-0.987154196685524
-0.45582574702144
0.243328003984046
0.959003273925099
1.30177290557275
1.01947301598392
0.148561715258296
-1.07310741435317
-2.18142423202364
-2.67830288008438
-2.52530673621842
-2.1455495263633
-1.83586507769127
-1.55655453347208
-1.25884139848327
-0.972537774110361
-0.664446118992216
-0.364130727886018
-0.214853870436952
-0.18355345373656
-0.0994567036757099
-0.0881748669066977
-0.465655343819098
-1.16436726209726
-1.76677187956067
-2.03393070013434
-1.95775537895571
-1.50953585908656
-0.781342918952259
-0.156899284873066
0.0150839449177726
-0.244211305454439
-0.67286542282629
-0.98423740544535
-0.937120907456148
-0.534686338818324
-0.13441073638377
-0.0218033233615547
-0.00721906373746158
0.218106213777788
0.586865824396644
0.843597306565207
0.90526123125254
0.812026904236402
0.668377876988237
0.672646751644301
0.836251860378441
0.829204154662649
0.468832362031823
0.0437486391727884
-0.166002429668553
-0.252796466698896
-0.325675628510025
-0.295478782965632
-0.172414059526324
-0.102763514958464
-0.0867205715912407
-0.0649117508180218
-0.145870821296705
-0.406678129917458
-0.69986924782206
-0.863831275218261
-0.833426322559265
-0.529908388578309
-0.0111388114493191
0.381407847545599
0.397046573329623
0.217008867916743
0.155461372193533
0.291886940424794
0.571847772684376
0.920155717390946
1.1195404808029
0.946570899163668
0.531619352284563
0.243192568622521
0.195533186136822
0.212037825469584
0.204756781966965
0.242026584209084
0.359277091772992
0.552755990299689
0.764946616075503
0.799062249944274
0.562400582464779
0.317513266425451
0.308117362730412
0.355379245933576
0.220677673761056
0.0335644448850062
0.00135868083909921
0.0880303449304052
0.23047450794735
0.440035635636392
0.57523210628795
0.458759869950656
0.204495008359827
0.0338879412887768
-0.0651178950182965
-0.180349224788282
-0.289898588758872
-0.458644698754903
-0.808607511686081
-1.1661981865489
-1.1775299742248
-0.812002793096178
-0.386269571576949
-0.174112251399384
-0.261942874926591
-0.583229420699473
-0.873989603129084
-0.830561038743722
-0.466761719672419
-0.0941426993547868
0.0966695496968429
0.196208437756941
0.382307092030759
0.827777316637722
1.60461055391484
2.37065938750597
2.45531841968706
1.59740796036796
0.294463432113938
-0.760665257962874
-1.20306876862891
-0.961477195873053
-0.22937509636705
0.532482422451105
0.960477379830246
1.03475135104022
0.781389842463672
0.130524667834209
-0.74657303231803
-1.43244717989991
-1.74160713117292
-1.80854161192922
-1.74169728104544
-1.5865687392834
-1.47298363967913
-1.449085348466
-1.38666654275739
-1.24245605384625
-1.09562242156422
-0.88706287586337
-0.51655115829735
-0.122980075234721
0.133650039727628
0.398619332280805
0.856817172803168
1.34037403331854
1.49819714581644
1.18445325166575
0.548535073899344
-0.0351011019055735
-0.127741636549419
0.347167656855539
0.872172843815629
0.891339685319992
0.495251621055963
0.216413199741915
0.383694271686435
0.996175242029204
1.85053228027268
2.46742192446694
2.31065884310261
1.37059923962973
0.236712124982112
-0.47989819911232
-0.564375528955948
-0.193417445092293
0.228785438300455
0.386748267824425
0.297215485258805
0.0732366595100202
-0.352751264840586
-0.94448017000128
-1.34227701743918
-1.34752855248613
-1.2492709255861
-1.31519438228605
-1.41539635402767
-1.41156854318402
-1.40142544319505
-1.40257750266856
-1.27595999623249
-1.01183903999075
-0.712544294599741
-0.411896741384483
-0.198471392440839
-0.239605581997139
-0.428194238439707
-0.350075801042094
0.164371853486999
0.789443497050498
1.16244376047936
1.24435282178944
1.13123142951797
0.874195385276577
0.542026007196217
0.167930141640695
-0.305726506010583
-0.832724726761356
-1.21959885113789
-1.37195267103249
-1.28524329341772
-0.853471967109686
-0.0777555766082374
0.70386896049012
1.17522860232537
1.36934769978138
1.38340270602336
1.1992768227679
0.979806906711029
1.01910338632594
1.25534735521008
1.32221686563736
1.09392156320646
0.749771139955289
0.44496880007282
0.279838011936002
0.337660848788208
0.512436846222279
0.623353564714339
0.742002287396221
0.991555764372751
1.14430149470128
0.908570673153761
0.438215012666041
0.111699684053789
0.0228248000133209
0.0437415798476627
0.122641591180105
0.210995367061205
0.160448244514282
-0.0509538875355623
-0.208430175587945
-0.111410394511518
0.275451669206361
0.896495412934268
1.56602234077574
1.9683093675747
1.92907793569776
1.50607160674162
0.741796844418802
-0.324187095587811
-1.42438145491207
-2.2814868215932
-2.95833009383783
-3.59951591031189
-4.06260979366124
-4.16403584732934
-3.99148280214712
-3.71798950798083
-3.4210554807868
-3.15763348108271
-2.87083339090542
-2.31945597709978
-1.44271722963212
-0.546812364271998
0.136325702312884
0.641659579206561
0.836778845335879
0.431008772064713
-0.350380410775173
-0.742513773876969
-0.340010511055437
0.45491280150282
1.00819615027596
1.1245067481074
1.10417036085473
1.35489264123515
1.94132148093158
2.47608378951522
2.57170527736898
2.30847563580105
1.98975854129237
1.6026619905776
0.947647176533804
0.140144843461696
-0.491151710152162
-0.82223755423901
-0.837853848105271
-0.414943655078565
0.411747712400571
1.27752994027595
1.84970874024806
2.09230664756327
2.11519035093035
2.03944354975388
1.94200761282449
1.7434766152785
1.34041454267864
0.877327755668878
0.532973051311063
0.128139560716295
-0.567605280919451
-1.2904357030623
-1.56626903125208
-1.35945185633304
-1.00238939093825
-0.726105924551155
-0.580438855706015
-0.537255893331467
-0.499586705617128
-0.451245757586057
-0.527740609686828
-0.694507934763851
-0.641662955406261
-0.281613158478193
0.039269395094863
0.115646851203687
0.249568994797073
0.759182047724423
1.49967417390224
2.09152508508993
2.28344032376786
1.99105389743869
1.3546444877816
0.779259872286856
0.54485836113409
0.446708406563053
0.126821043853437
-0.435260523325969
-0.981853722523635
-1.25163780593818
-1.12829194315713
-0.840736033840541
-0.896437605051679
-1.44541182210288
-1.96606859670542
-1.93893806992609
-1.47954006179634
-1.01271418599416
-0.745702569746907
-0.700317325295042
-0.86978670929232
-1.1992835502762
-1.66515616083659
-2.27720060157645
-2.80450556263176
-2.80308981403327
-2.12985529431564
-1.12405827356004
-0.221392471734321
0.288297888931929
0.256994618209319
-0.159749640442593
-0.494389546826277
-0.438563242342371
-0.132295832491403
0.169156780096872
0.390710132994085
0.475077171600332
0.313870257611009
0.00698175187833443
-0.123757462769899
0.126421170810386
0.741918785953077
1.62932155899356
2.56114600540497
3.18715029966387
3.40723409799397
3.44805692038805
3.38562414714412
3.02507300896831
2.36277266793905
1.67735715311986
1.13017169829581
0.691435993228388
0.332573983204734
-0.0482934770489036
-0.615676894199446
-1.25100129510708
-1.57033837810105
-1.43079360473282
-1.05272097162787
-0.672718618760696
-0.469452115522833
-0.653344109018728
-1.22817895272256
-1.88785892342496
-2.3930445627073
-2.714418153375
-2.73750376951116
-2.32731398465544
-1.72227166164348
-1.36747931412436
-1.33992079557054
-1.28928300109089
-0.860635607283117
0.0643297942577467
1.37022975341788
2.7734240436625
4.06623019515921
5.33229617418069
6.63686781049014
7.55103134523442
7.41217841853889
6.07770549114902
4.09232156426355
2.23239116219617
1.15165663716294
1.11591737933512
1.68803615639353
1.94908905120562
1.29735633068748
-0.136512729645648
-1.78305702617326
-3.0526088993036
-3.68677360129467
-4.00948167978796
-4.58777788031445
-5.51580686163976
-6.41600452761236
-7.11563111721344
-7.76309943011823
-8.32791296545127
-8.55341843735922
-8.32486485270639
-7.65666158850879
-6.53376190092057
-5.09353465625878
-3.67506323229837
-2.49083062027993
-1.50717946774703
-0.579220583816245
0.609925280628527
2.45914967427673
4.85993719669374
6.97098735738426
7.97655052829137
7.83237320898376
7.04008163604458
6.06621410822555
5.22337972860863
4.71450621856714
4.51889563511245
4.49662376201261
4.65061460385505
4.99386846368208
5.29754129620068
5.30985436999128
5.01869860814548
4.49486184326412
3.83125045216461
3.30906546571281
3.13678567021675
3.02517840917922
2.50418291492405
1.56166121663085
0.566559109054097
-0.231752653127084
-0.841972023034109
-1.46565291191207
-2.44090351055217
-3.91442390643772
-5.56798435311772
-6.96845331051146
-7.97546677671788
-8.53618450172289
-8.5280211981527
-8.13030906568
-7.84275633142131
-7.84284526840544
-7.78044655748095
-7.33819928848628
-6.56879611008115
-5.68725554422712
-4.89004022832186
-4.2544901880232
-3.53661657541701
-2.28804821159061
-0.416334192578063
1.58402264202283
3.07377196753307
3.68012893852352
3.31044241397368
2.21314098452722
1.04141682300101
0.421327386818193
0.451671969175075
0.881163598223299
1.53241943188427
2.30131257683563
3.07817462800585
3.86499918288302
4.6819193397982
5.4007809374022
5.98751871238344
6.66239120894021
7.46365605896274
7.99826386592684
7.96272934066168
7.57100884579513
7.27334311357767
7.37405302642444
7.87028928732456
8.24600711719609
7.62168542314333
5.61684369860413
2.92358732822373
0.717499868920028
-0.278115765797823
-0.0884481155443423
0.670119898231275
1.12400650551787
0.707206045124902
-0.510763137947582
-2.14219383369103
-3.87156582778375
-5.43884611368841
-6.66994725215313
-7.71212739585442
-8.83044402605804
-9.81627646237269
-10.0250730841285
-9.15814589147016
-7.65681935565553
-6.29369306103689
-5.67777327884576
-5.96782691441869
-6.68601334589935
-7.04333320269157
-6.69915772202157
-5.87744029679281
-4.75799890044768
-3.38573708848989
-2.14871285685948
-1.58865625069806
-1.65154003978508
-1.66011467449121
-1.01035256723657
0.419970454330257
2.33369133516127
4.22854896405605
5.77401199939322
7.06057358899053
8.27717739118546
9.28997430193996
9.77190186206192
9.48486936643058
8.30399180284595
6.39793700627604
4.44847847416709
3.15414061606244
2.49662256027372
2.00388965480725
1.61122331098743
1.6700844814445
2.16144561804663
2.43805107579761
1.86160490660636
0.456687675415376
-1.12121931107737
-2.20879943208754
-2.75413613265304
-3.23809992784999
-3.88913302199648
-4.27235318120321
-3.97024069838446
-3.32806745672465
-3.08109015431865
-3.50987768948343
-4.28605714574259
-4.84100983371561
-4.69727275357436
-3.77652695210116
-2.46741839265291
-1.19509771587905
-0.136469896071962
0.487029951702432
0.355467965938568
-0.427807881959944
-1.29922555779831
-1.96870368736801
-2.68073352737602
-3.60455557542632
-4.44065366701308
-4.67306972870048
-3.8358011631767
-1.64379855759653
1.76713311341581
5.74734546182491
9.35202031239378
11.6170979377179
11.9553315496561
10.6472463428496
8.6707076263388
6.75179204965377
4.91284558791357
3.08957061940661
1.59671661319541
0.675407650063817
0.108460478001184
-0.387817042378002
-0.813039303011413
-1.13498313575817
-1.46116128029607
-1.80258554870113
-2.00865884475926
-1.93046540554387
-1.40862426050337
-0.37402227732354
0.782565728920728
1.3481719087717
1.02688954354411
0.160759834803211
-0.812200503341377
-1.68711871461662
-2.3902822730886
-2.96613958017645
-3.49050040705786
-3.76099697913013
-3.4457343411098
-2.69673281438218
-2.12815474256906
-2.06064761838967
-2.22463459352869
-2.20106765948919
-1.79098883971328
-1.11986992771438
-0.658574261314157
-0.845528893575166
-1.50803881166627
-1.99517371290089
-1.89347096964035
-1.2508456611936
-0.272442398667324
0.751626586765802
1.39312216444987
1.37713167506774
0.85065769729329
0.203191337474204
-0.194006775158111
-0.063385221496651
0.588330696633697
1.3004345515111
1.55655246200184
1.36130349562111
1.0878110177341
0.914080383437951
0.78623137290456
0.683464849658238
0.560019764254641
0.301340962167553
-0.0445520803581888
-0.286019122500252
-0.35844066909362
-0.270853750703862
0.0490095089202785
0.551134918039722
0.98664540075808
1.25630924649158
1.45986222205841
1.51374033469742
1.22042162582954
0.741403386603837
0.484977493700196
0.561280238869957
0.739283409932216
0.706260328253644
0.0506021595933385
-1.54866196671476
-3.70819897472659
-5.33893654846928
-5.62815729132949
-4.77848005306205
-3.63459463020742
-2.7965219297078
-2.15426942963317
-1.1957822401591
0.21621168085177
1.47880117301816
1.89458527897856
1.57943089379613
1.37529405283598
1.94182982146523
3.31592299953822
5.18593954956336
7.05395527932383
8.25259443181693
8.33511810551128
7.3802381716055
5.67334468651487
3.45753480821988
1.19957640014335
-0.461424823217174
-1.32855473258992
-1.81157515329733
-2.37599373422883
-3.14087096137146
-3.89483199746558
-4.18115523595556
-3.5702890858655
-2.12839519267195
-0.462304382753731
0.746388141825561
1.06923687571661
0.431954475865441
-0.730132493171039
-1.65678407644452
-1.97038959268722
-2.01127080556511
-2.32811713081611
-3.11911435068551
-4.16557229474532
-4.97847584046377
-5.11222273955609
-4.62034597120777
-3.99191572611522
-3.44131383696189
-2.62511811918714
-1.27620078873709
0.291459328527879
1.54072470174088
2.20476568576595
2.27654530292267
1.89902261297317
1.36876329205999
0.922549258299441
0.571872637782148
0.406334534311945
0.753177710618751
1.69276437363621
2.74446693457463
3.29067688531255
3.04668802267662
2.16837601458018
1.28814340743157
1.20522191263509
2.04567673788606
2.99971290455121
3.3012425340329
3.1112240715984
3.11668851926839
3.68013391617287
4.62618734171661
5.46320367714879
5.66590974444889
5.03198996003583
3.77918801848325
2.22609824061311
0.659179634489812
-0.507124696007764
-0.972905418107901
-1.02114736426752
-1.2980352950798
-2.16391794236144
-3.56823562374081
-5.26736185679416
-6.77731478097514
-7.45507859707731
-7.0609840104402
-6.0295751958841
-4.96363869762777
-4.15685884877681
-3.69718092787761
-3.55947767537662
-3.45055432564188
-3.00032996540029
-2.20343499497315
-1.38988268396086
-0.883290396211758
-0.861581393104219
-1.17893656146963
-1.2076580745236
-0.432297612715544
0.682088016646953
1.06642701403189
0.437573107683147
-0.277242713228341
-0.0995609590265152
0.782302690373764
1.15295879571701
0.136784721062169
-1.58807781530112
-2.24802436911421
-0.910330557183541
1.42052902484242
2.99607991102124
3.12576180097036
2.37756575382618
1.54837105746859
0.970227647251154
0.506842954162719
-0.103034421136241
-0.76653049964838
-0.961260162359829
-0.346560908288422
0.788849247831136
1.91706752914222
2.76535693835329
3.20240926248972
3.07714772643886
2.49273212482703
1.90398524462219
1.69762740531369
1.9199016048803
2.41159854516928
2.85207047627387
2.82450335198683
2.30990210348893
1.92541728572091
2.23232040474732
3.01651943590142
3.54378116478231
3.29386055985193
2.37319974040177
1.49272930704663
1.44026936278921
2.28355477300048
3.30015884975792
3.86620145097365
4.03690165385355
4.14829024818665
4.33566347957314
4.52511847090844
4.46229417198893
3.78983949650221
2.44444978606368
0.779285644273764
-0.924370991173081
-2.66261900861022
-4.29230098767244
-5.4673981070069
-6.12055569620151
-6.5006328717901
-6.73170655481791
-6.79505730791985
-6.81642058458148
-6.92506053042424
-6.9946117219436
-6.8890887736953
-6.7532261160364
-6.7612003656473
-6.8222792874197
-6.75723987278872
-6.50737179302873
-6.08726079010031
-5.64779130737398
-5.52803207768245
-5.87090215545039
-6.32074588830224
-6.39452538717904
-5.8921507562948
-4.77351327676348
-3.05893395468045
-1.00240426980601
1.02142646515409
2.82447092850202
4.34040123100669
5.50111689112953
6.44348770844974
7.44404289693195
8.38972511285002
8.74929283619466
8.27409098655631
7.34700332558053
6.57199834786292
6.31281386902103
6.50882337950148
6.69315155853767
6.41166899579035
5.74070165715897
5.10599694534205
4.67590831337406
4.31594494583362
3.91767948136119
3.32781800294728
2.22996347768666
0.542823487655878
-1.29918442912937
-2.77283189363955
-3.7186542643216
-4.21890649444057
-4.42014100071646
-4.60865245718351
-4.99143914163497
-5.26044321064762
-4.81735447742827
-3.50789996252458
-1.78681476363719
-0.265419715740117
0.59572615685451
0.620888695411698
0.0883255549662042
-0.437914283488032
-0.599457336646939
-0.424959543605981
-0.164331479674133
-0.157279528351035
-0.575486069704872
-1.07242279407251
-1.0425806121067
-0.368336002782738
0.473962109505585
1.0405679347779
1.23000518844756
1.11637072085258
0.913271861458199
0.896076931055692
1.05184940535263
1.12033742577665
1.09673788223367
1.2071224671186
1.37827976314293
1.31183831632976
1.05379713820997
0.9691043799579
1.2516543351417
1.8611309271082
2.71173383207711
3.547885047995
3.92042054218593
3.64953536549951
3.04430320574174
2.40171315885954
1.61641306992475
0.500514740218717
-0.841159654628802
-2.09456403172843
-2.94949985479156
-3.26734059181384
-3.21747093189144
-3.07581097456959
-2.84629045388173
-2.39741671586817
-1.87342272515796
-1.52923044653739
-1.33088897946452
-1.16608548761876
-1.20942617704843
-1.70727406837412
-2.6859263023602
-4.0571375170212
-5.60435973414897
-6.82627847049782
-7.29929822974238
-7.1418783054848
-6.65260508368433
-5.73171123343401
-4.14796816874965
-2.06349158984522
0.106130910972517
2.01143447594358
3.34541574594413
3.93705076154999
3.99648384179849
3.8971926987777
3.72227168976101
3.33215304523099
2.74914566628699
2.18359525199315
1.82073039117109
1.75306454544495
1.90330533190009
1.95133708621151
1.68446081520812
1.42983406797472
1.72418558882004
2.6166039373188
3.70013958685358
4.61592114235266
5.13004930257384
5.06594074158703
4.55522681889175
4.01101482641001
3.61529817469663
3.17067199460429
2.48212226370507
1.51707061264123
0.30832121995716
-0.953961860440942
-1.93438232810349
-2.50103920015329
-2.81634809214484
-3.01935903389665
-3.14014571415348
-3.23938514678223
-3.2853257100418
-3.11034773177392
-2.77535150270451
-2.61201265295233
-2.70338894107036
-2.80582542248388
-2.89727938613603
-3.25452475480999
-3.92060674871746
-4.58402166631561
-4.97328684355891
-4.98856241799155
-4.57380009779501
-3.80543732643207
-2.94111939382256
-2.11286702960113
-1.19619456691666
-0.167997654471849
0.725736919958087
1.29799708476588
1.56335773610588
1.53784955596694
1.31380084266816
1.27080141156762
1.79609996408875
2.85476046580865
4.0329237157795
4.80974301602413
4.78986719949301
4.05264769865631
3.24518537218527
2.98745839819278
3.30865960062196
3.86852472058446
4.37979621380612
4.61988665696291
4.46703487389198
4.08584883853391
3.70227532743347
3.2472491395279
2.61187250235009
2.01162837731569
1.67295959728994
1.47702385984666
1.26117655411873
1.10195811309285
1.07818722011732
1.14417204602517
1.31371638513294
1.57069314160752
1.61059105886189
1.04265947844734
-0.159821843746497
-1.61107755786583
-2.79789811736369
-3.33216912770148
-3.1972651266118
-2.84133172251158
-2.72976669584103
-2.80719605539938
-2.74422531798944
-2.54618171168858
-2.45304590396565
-2.48528571852486
-2.58701982129525
-2.92398432822492
-3.57741126535162
-4.19802848240681
-4.26220418251345
-3.50784551943222
-2.16964110380912
-1.05310825536689
-1.12735172839061
-2.64951183444712
-4.86633913195629
-6.76310335476938
-7.81760241792752
-8.01058823418898
-7.58184044665879
-6.85381589006337
-5.94498437361836
-4.69136187511181
-3.00535285989963
-1.01619267675957
1.21879180183217
3.63201833013768
5.70421371501575
6.71423593496586
6.59204113277049
6.08944738326307
6.02227045481632
6.57413990781604
7.20192265992315
7.0196154945291
5.57722066343839
3.53708390382512
2.25290755909379
2.38505988796598
3.23002334165623
3.60293848784449
3.01673154056074
1.87969807870752
0.9345678597928
0.604545195274016
0.664585086545318
0.630358952466984
0.499911183708069
0.717295780831031
1.33395663607941
1.68235458224605
1.00460986067283
-0.856460155551914
-3.2608817112009
-5.05191072774679
-5.3615558147726
-4.37796507471359
-3.03462973108364
-1.96653995016719
-1.20716485991095
-0.7029606731239
-0.452643878392361
-0.23813647746087
0.204128301930811
0.808332277152708
1.28503392412526
1.42742870849272
1.23498992270798
1.01822051079426
1.26240754086851
2.00878132202748
2.63546253450491
2.70475257942532
2.64793336850592
3.02165685430162
3.44815704977077
3.00680159580768
1.50686596981989
-0.226526711307011
-1.25500902785089
-1.35091050395929
-1.04932165622836
-1.05505501616018
-1.47832951834776
-1.74723067099252
-1.41330476324617
-0.7131344919324
-0.164507289959824
-0.0500562388337409
-0.411010238203835
-1.05060352386227
-1.50447412777682
-1.47473813957425
-1.24954391959204
-1.35444545092116
-1.95461206872197
-2.78156553273871
-3.35059664947912
-3.22253305474349
-2.46511946827154
-1.76646607550169
-1.65115547457826
-1.82252861828009
-1.71841732954621
-1.32737746659213
-0.989167640336935
-0.79406712107167
-0.599585461214308
-0.335088010919611
-0.0463823376038649
0.145971104866815
0.105421272549233
-0.115336860897495
-0.237413924084683
-0.0787293582523433
0.274906899504035
0.704956196344598
1.16522016561089
1.51208386638443
1.65139384518486
1.87141379830945
2.50305037379055
3.23258787204751
3.30767646229695
2.46432635782405
1.25311425747058
0.51173717467739
0.697811746958247
1.48097909997703
1.93543203886024
1.49048609846609
0.612839165548874
0.191532779899102
0.51017601410654
1.17918292769523
1.65108866943383
1.42828648471702
0.278675527723625
-1.31666757410572
-2.29225085992456
-1.88967718792963
-0.329873386767158
1.28262906746473
1.61974862144879
0.132401377111579
-2.34396527774849
-4.35316053548465
-5.22753741003306
-5.28312530990264
-4.838118652579
-3.83876052596751
-2.44608926367191
-1.22254837865301
-0.505524468661593
-0.0108361112214369
0.770680650493632
1.93954483128296
2.9656104260875
3.09110587544141
2.10184765933561
0.638202388548677
-0.464093794655736
-0.938700229220381
-0.956088840943249
-0.656099329758954
-0.214079649729034
0.0476894548685989
-0.00727890796832371
-0.199828058773996
-0.322098821239085
-0.16274169715607
0.623110712589215
2.19305386640443
4.25991036172212
6.48632203505397
8.72002203327019
10.5426850701781
11.1528643111175
10.0498538763235
7.44867839029249
4.00730607764056
0.622942873755281
-1.72759421396033
-2.64242095368608
-2.72562874460482
-2.91600404327011
-3.52534990489447
-4.1771264132462
-4.43504862205968
-4.30181633154162
-4.22593175226574
-4.58787204070466
-5.12528692156665
-5.14700484833764
-4.4467830579722
-3.62925124991679
-3.33942006114103
-3.56671366363142
-3.90402611562602
-4.05232407067057
-3.85755912690487
-3.2646734546287
-2.40934998258907
-1.48834976456533
-0.610604768563494
0.0252286624693524
0.160302596402873
-0.0886971326559094
-0.2922968964286
-0.373806117745067
-0.696574196792259
-1.41465699407813
-2.21195107127915
-2.63559451551118
-2.34350272666113
-1.2841850862009
0.0888196308054195
1.15900662173557
1.8537394718373
2.54688493215503
3.2882173214753
3.74509030788452
3.85939783419385
3.96619819434476
4.2981016358562
4.74221596179669
4.91997544994936
4.35169577252791
2.90861791112414
1.2053785172821
0.140658158474915
-0.0106947347664907
0.264496776846555
0.383850314491605
0.14044936420851
-0.317654173822672
-0.60602682742807
-0.334041005854262
0.499858124709323
1.47373916593304
2.19375443306542
2.51750679617217
2.38471971494985
1.86233370189926
1.30648584192926
1.0813455955248
1.21086113485675
1.52935166023535
1.92020969795121
2.28658821848257
2.59583934074981
2.92031360907256
3.13460710022853
2.82860519185053
1.87503825745156
0.722262435130403
-0.200418235078158
-0.943215631138251
-1.67332949047711
-2.3327219276342
-2.81949729519773
-3.10768110117282
-3.19552571396163
-3.24839324740646
-3.56614680345699
-4.12866271595517
-4.52714968273223
-4.57200675164902
-4.57615270570153
-4.88136769962688
-5.44432656285099
-5.93927168781086
-6.01147755355328
-5.50209845592677
-4.63395591104297
-3.83276542605198
-3.21896200484144
-2.50931805406668
-1.52972809540789
-0.495590241770555
0.319298442174094
0.832542554705252
1.04828487015926
1.08095985222227
1.19707403022189
1.4762893939796
1.641312273864
1.51558868731678
1.31874283147011
1.28578292457602
1.3645843961993
1.40407426140812
1.29274599363844
0.928996376617751
0.349531351835678
-0.202938658307356
-0.434686640040393
0.0201032870130176
1.62601618699078
4.39150699100291
7.3819103681258
9.34852183573251
9.72389238383603
8.65767169106461
6.57821639342551
4.22260503207436
2.56486064177074
2.15636543339299
2.79089306101977
3.91461158108313
4.92701600237517
5.14941532078045
4.14764347305354
2.23898780098928
0.313142045070353
-0.896545043547721
-1.20852227269223
-0.90397881489436
-0.507914245394663
-0.423516023651001
-0.589796732600459
-0.74061754112143
-0.996716571274501
-1.81163264858035
-3.37505355711246
-5.4049460639223
-7.35072098839255
-8.57185649002482
-8.68742096143567
-7.96259472640904
-7.00298291004794
-6.08254376446227
-5.17480958880477
-4.40910828728267
-3.96080572780569
-3.71927705894793
-3.48477836969063
-3.21063194618817
-2.82926881653008
-2.27815684758715
-1.82379997326848
-1.84368422443607
-2.20322407768202
-2.28590216788213
-1.62328872610364
-0.216630136362553
1.55496753931528
3.11750540759188
4.0454932808706
4.35576679972723
4.30938608776934
4.09582381929444
3.98382353663004
4.46721320083007
5.79485937443539
7.49632727710568
8.69085490704725
8.72406071029196
7.3929104710776
4.94937186820794
2.10573385705036
-0.333395889309302
-2.01435311950014
-2.9922764435241
-3.35127428326548
-3.25930749126633
-3.10592713439571
-3.16912291711168
-3.39759764401772
-3.66645586967605
-3.82488580171456
-3.50725234133231
-2.46234045811755
-1.02887269505336
0.205964926809045
1.05158590938468
1.59972492215499
1.76145442866052
1.34612078417521
0.417156053109292
-0.632150974534741
-1.22337992195627
-0.943181278712871
-0.0194027213500207
0.788336012899237
1.02959724761424
0.974379448503053
1.02323159893205
1.16172754327481
1.20854114728514
1.22404886469741
1.46101976999434
2.04564310157296
2.7064979799237
2.80646394803883
1.92125377150865
0.507980179631092
-0.353472208311023
-0.07931476543939
0.865773721955969
1.60463344621466
1.61948466029475
0.890259707777748
-0.201321579329277
-1.04225190120566
-1.25125329862361
-0.953827148996559
-0.469887454433347
-0.03404842262088
0.133348558261506
-0.0344603224743214
-0.222734449982484
-0.128290473366011
0.0202356708963289
-0.21665623381956
-0.870060952625835
-1.65532919906584
-2.36742456435559
-2.87214115353768
-3.06786946582113
-3.05937231788168
-3.01296865448724
-2.81071493949251
-2.22766395965852
-1.37126588680524
-0.615429693595761
-0.246863722530262
-0.350075431520474
-0.77402151544748
-1.14390692973498
-1.22693315284984
-1.26044060374856
-1.593355106328
-2.1197903547938
-2.40302143445619
-2.20913961409582
-1.61427723320401
-0.783222450208369
0.0722988214585436
0.727662298791004
1.15636093452116
1.52816329767759
1.99417530424032
2.68684765244528
3.65584228073022
4.47233600600355
4.39752584775443
3.41787624021282
2.53631349254443
2.49557862867756
2.73930755643692
2.14922228054994
0.441835992110541
-1.51457985973246
-2.55233938001891
-2.23522445387236
-1.15216375062209
-0.203385920977743
0.268603376579044
0.412988614176234
0.271886056737268
-0.182469810531762
-0.638073372759942
-0.671544311893954
-0.247169264775878
0.392199779712213
1.06553521114363
1.65792436967302
2.16324708104288
2.83006079781916
3.83677281609478
4.80948541991512
5.09209772670133
4.46685122095888
3.27580441476271
1.96386839085807
0.790233548034232
-0.21082216985336
-1.2187301738309
-2.33878255997281
-3.25365776334099
-3.56401122442514
-3.45699683989945
-3.49202719334185
-3.78265203958755
-3.98126272002633
-3.97960375485512
-4.05413578711217
-4.35781142479637
-4.63054711397043
-4.3907008435666
-3.38499124550881
-2.00160517293342
-1.03389710904805
-0.755409877535343
-0.562893542322281
0.131538315660472
1.08248901680579
1.64957694084845
1.63131997374913
1.34357996857881
1.22123734192559
1.53231935020402
2.21438021160416
2.94120264979431
3.47061387205737
3.76607991111332
3.76847885111482
3.4247190283644
2.9668554040834
2.75221416096466
2.79273952063463
2.73630370251366
2.23567495017215
1.11966219643062
-0.566318445883068
-2.41926733732409
-3.82999834261442
-4.52288328654334
-4.69698276843086
-4.5414053440162
-4.02904724002615
-3.25277310041194
-2.47326177016367
-1.79178962387267
-1.18269036419197
-0.733126474066537
-0.503896416934827
-0.392068001944894
-0.373033434080851
-0.551925648991458
-0.866277540240866
-1.11671734097257
-1.28916516527347
-1.49277293810022
-1.69629867456841
-1.8054190936705
-1.7767033500936
-1.47330450107331
-0.711474879680907
0.455685452062289
1.76606215989823
2.96053477353804
3.75778531236655
3.98128519851255
3.9485886230993
4.21977406673299
4.74068169122535
4.82786477389612
4.1755438427362
3.28509159368096
2.77972453173934
2.79632664447392
3.04963338349617
3.04407203259774
2.32280278253445
0.951885327329837
-0.34392674753772
-0.857894694526303
-0.537632500574473
0.241097985335288
1.13865742036678
1.82622731128389
1.9013607135714
1.15738002201505
-0.180742462658757
-1.51925233144525
-2.17285640726925
-1.83460234169495
-0.852936800035641
0.185145261203519
1.01762177659684
1.56147306166303
1.57306101283177
0.961624162927761
0.130743891006696
-0.442360430154092
-0.696312033339683
-0.859109062394515
-1.26906515521061
-2.38209225168253
-4.37209376499434
-6.65564183087839
-8.31455936474047
-8.96567055080478
-8.87691145337976
-8.44980389333583
-7.88428531232943
-7.13616925149875
-6.09434448891671
-4.95866020612733
-4.18268116626046
-3.69239184431608
-2.5749387120716
-0.108018933424848
3.19211005844814
6.03705464885156
7.55709799001138
7.61182004378166
6.40445126078604
4.40797384720306
2.41496241280205
1.18061223609342
1.04824502925578
1.91021808296032
3.26676710679721
4.42223791443842
4.89373304023196
4.52519638628824
3.25527802838011
1.25763967581503
-0.69601304304235
-1.62606612553207
-1.23822092910192
-0.101946000344711
0.952095266809652
1.38113726254386
1.21646072338181
1.06210823477888
1.49171615739543
2.38024399168292
3.17847797218546
3.63799785612965
3.77023093310584
3.44672168184221
2.64921031284392
1.7790876548173
1.19256909466645
0.739429718703141
0.0987545265861756
-0.766522676073952
-1.68159750018827
-2.45406187545351
-2.9090788458897
-3.01096690078979
-2.95432587562321
-2.94533737048621
-3.00462695513287
-3.08593197755278
-3.10922510905729
-2.82196510535422
-2.06895143661251
-1.23512300317711
-0.899019042083282
-1.07185018697506
-1.29650704544511
-1.32840632656502
-1.18056262559817
-0.742600221797474
0.122643850328447
1.26420611843961
2.29438760839094
2.79700507728175
2.5254884121347
1.69109974088992
0.916894338199521
0.620528034520842
0.643249292157338
0.6387500927001
0.486163613467992
0.232925962249241
2.52250771999689e-05
-0.0785532651025753
-0.134214363251747
-0.560535191894971
-1.45005498217894
-2.39868118859297
-3.06722168705363
-3.44340118340928
-3.43777901083559
-2.83159693320376
-1.77395781141231
-0.822309561908001
-0.399615740268772
-0.545931655264931
-1.07041801040035
-1.57564004733939
-1.54783102487093
-0.829995646074352
0.164685775232638
0.940163881779661
1.3283499914963
1.34441065549499
1.1385114136268
1.18671625882645
2.00338855800921
3.51223006829247
4.94959641894785
5.32721893379142
3.98401598913356
1.14951578217338
-1.8738891537044
-3.52693342691226
-3.18623529577732
-1.43174744765811
0.603844222298065
1.90763330816156
2.07355275091754
1.55031055610593
1.13587606705805
1.07251084194055
0.987684199039352
0.654544512749391
0.294117006678536
0.202195489093826
0.506894946018399
1.13561313687695
1.75133783951006
2.00097789003107
1.94074610242245
1.85119608060338
1.69459284221022
1.25454496981233
0.707477323534206
0.495731991755366
0.684685466669842
0.912285261895082
0.892842397779169
0.603334961983385
0.146480631372185
-0.259345715547716
-0.393895992411404
-0.367197428897448
-0.578694535453937
-1.26339515058358
-2.32694776974348
-3.51628109304046
-4.5005415475908
-5.02640521046094
-5.18773836977493
-5.24872545340104
-5.19908957464407
-4.89615340377226
-4.50847735612796
-4.31222714312818
-4.21952702786097
-3.95486048602723
-3.46449273704152
-2.82254110331283
-2.03571558002541
-1.13311047192346
-0.118247205437693
1.16271300564613
2.72654598880517
4.19641657234001
5.23007257529285
5.93153504843043
6.50906449824322
6.87446331043847
6.83631935672207
6.35437949023135
5.48749868463424
4.40506848172935
3.42153028603226
2.70433523953449
2.06866931501355
1.34523998314788
0.6977765919831
0.246732536522124
-0.288982476671305
-1.16982847847289
-2.11991443155885
-2.55011562952386
-2.13926239249127
-1.18581640644497
-0.597711108728469
-1.2466847481758
-2.93261953584946
-4.3125130550119
-4.24230057461222
-2.88823430354823
-1.342514973815
-0.58213248238847
-0.899278619172357
-1.86203256955141
-2.68891473956095
-2.89757232791899
-2.53465920759207
-1.76265256422551
-0.647787339652604
0.561003013251799
1.47059337808426
1.98810276223532
2.32273262837683
2.58812434102373
2.74805718687071
2.75997083407216
2.50029696638889
1.85731472446896
1.06886086785668
0.56990649348817
0.401412953874156
0.173953768758202
-0.355745810786649
-1.05220286261022
-1.69027810617712
-2.10346032998431
-2.1111996145818
-1.59326967102425
-0.568802761774346
0.84252724925779
2.24780561412433
2.88933481704679
2.31466808145597
1.07212628361391
0.135746436962665
-0.207957798927222
-0.335231337431913
-0.46614350905795
-0.487589876241301
-0.330955271618006
-0.0427928984424266
0.326797282139702
0.658800267204237
0.77783469664322
0.608828810509339
0.220800392559366
-0.156056859384553
-0.130126806421172
0.511116412222014
1.43988480132311
2.1129205632776
2.34195008457227
2.1836484877208
1.58558871134737
0.612741568247294
-0.322975341756209
-0.902110381225644
-1.25905808595977
-1.65383628671421
-2.14233114482111
-2.69741001301337
-3.2817336674799
-3.73893176245973
-3.91593074652957
-3.8557670888982
-3.63884446323391
-3.21310650224586
-2.61150583366564
-2.05638512966196
-1.62793028077267
-1.18539020060981
-0.755338610051645
-0.506776187914693
-0.226708228700283
0.624887961336832
2.17184925428003
3.80000833277232
4.65162228513656
4.34707043455782
3.37688549243948
2.72674761252214
2.8269878894511
3.09292649684566
2.86454663982082
2.36505133205631
2.19971509966429
2.35935335042511
2.30127983987639
1.67873406447135
0.589461504141709
-0.585118509234612
-1.39638552681643
-1.68058149603822
-1.68205864600895
-1.60854861150452
-1.35297985285308
-0.901617635556838
-0.596492202075127
-0.725138170379425
-1.20719057456114
-1.79038378410683
-2.19602797163158
-2.11945939080175
-1.51139291640111
-0.79957927127544
-0.466085916158109
-0.524212046572821
-0.691804610033058
-0.810643394814738
-0.82398210955963
-0.72737599394508
-0.801034143725346
-1.43958087415631
-2.52917325322702
-3.39809604423546
-3.46755199366289
-2.64129801376585
-1.21526021162176
0.254485393497898
1.2188025473489
1.55582498222474
1.58378422482103
1.67559576160801
2.08832853529863
2.92023980506214
3.86669963608449
4.31929163392807
4.05233613301164
3.4726142306093
2.97938758202517
2.53832201289137
2.04567417477144
1.62122579274121
1.39352174493528
1.31993598611446
1.20530320262869
0.737055716792812
-0.256392802100033
-1.45947673002996
-2.30892096902243
-2.64055905026867
-2.75089558604065
-2.84062548886489
-2.79655321613943
-2.50176705718319
-1.97173910526124
-1.21678822107641
-0.346922796605114
0.244045371603916
0.198001650202473
-0.268539713348078
-0.39966609464667
0.395658071709813
1.77962006101205
2.48137627792635
1.49559649518869
-0.575654650788081
-1.96708661361775
-1.75390077919683
-0.747256473129513
-0.196332602684664
-0.372835875852554
-0.733383411289778
-0.811524776398578
-0.603152243702726
-0.408124295425572
-0.425839035350524
-0.433357978558148
-0.0618122992105457
0.605122581152478
1.1073535882141
1.24886054402631
1.20058565077159
1.07029173200201
0.831522907092856
0.537083435825527
0.255543288038565
-0.018462639569578
-0.229665414718763
-0.298428148351654
-0.297733859940937
-0.291612659251704
-0.121064054801601
0.300904978229685
0.670381287570427
0.643466672805124
0.306500715978784
-0.0210668149436636
-0.163365522790788
0.00175372807689779
0.56069474058293
1.1744027296837
1.16098303624261
0.295530544962843
-0.859128791069699
-1.5864704048423
-1.66383740984089
-1.38144397329795
-1.1725754542885
-1.16193761402809
-1.03393632317542
-0.528297371682967
0.100049889627093
0.444799850590497
0.499493006822524
0.472600523275753
0.412105156503045
0.362213219336667
0.456056071301523
0.559935471074312
0.296013347693862
-0.382190594489638
-1.08581374214474
-1.52163377557165
-1.72783354399916
-1.84785986030081
-1.97928149002626
-2.0899926540339
-1.91695131438828
-1.19828452080557
-0.0785677521942337
0.971787319154589
1.59900848190791
1.69440200116832
1.28249589089937
0.618595365184785
0.193738438977212
0.270014935653971
0.558650913816904
0.605541737918477
0.271106351650672
-0.283604261206066
-0.715849146283661
-0.577297600113995
0.265304087157049
1.30415569212433
1.8871385335425
1.89531155575154
1.63200340288931
1.35456636421164
1.16721911328857
1.0404916698331
0.838377373938809
0.661203783442731
1.02155415678374
2.2135709725424
3.67017348632508
4.39753940535628
3.96892329769533
2.90706121212737
2.22551866122979
2.48770263763078
3.0449796879327
2.53694662519358
0.552175108744812
-1.66432208474453
-2.61753441145416
-2.1689677049062
-1.30496455768222
-0.858811709155065
-0.983132950474204
-1.5079572821659
-2.28037365848425
-3.15872581227413
-3.90566433108403
-4.22285871505875
-4.01898281888642
-3.64074498112142
-3.58842070950149
-3.93607297022
-4.3101741718875
-4.40278176578157
-4.10067274555906
-3.26489215151121
-1.96705302462113
-0.787172270758754
-0.274817777441977
-0.256770422627357
-0.107872629667353
0.543002616198571
1.63485967373366
2.8058591337106
3.50487875543824
3.33469846745428
2.37722077694645
0.997325091158902
-0.456201566292649
-1.58822010836457
-2.04782163507397
-1.92679131074821
-1.65073840284373
-1.37919095879149
-0.96044359691236
-0.419345460149822
0.000381039932828512
0.169121354660204
0.0889115471795201
-0.164857458836974
-0.253663151272013
0.290751709003303
1.48391651856286
2.79875504275466
3.8406688038541
4.73920175757802
5.69656761184151
6.51237260155706
6.76499537903743
6.22177490944096
4.99546931104138
3.5448090411415
2.50626316320157
2.25951488215001
2.62927311718661
3.05686290392613
2.9748613335914
2.14252996591073
0.831036133814593
-0.46738913557297
-1.59614611241894
-2.69422445522136
-3.66516706511888
-4.22612547853024
-4.42966864400852
-4.55766960893586
-4.60459451391883
-4.40703747387633
-4.0874115824165
-3.89473448384418
-3.87366351089941
-4.0266714882156
-4.41460576209039
-4.83437394514384
-4.80746998833271
-4.0745319563278
-2.81668354189802
-1.41650044152942
-0.22944297286935
0.585584347521114
1.18595005246302
1.79681149461365
2.33080620368586
2.52554826910286
2.37183488767804
2.0834024103545
1.75736045902609
1.38322609169357
1.05317674324495
0.877618959874739
0.861688298493787
1.06152287326897
1.55808696375339
2.11075465488931
2.24897908775329
1.86730679394999
1.35847999278621
1.13363577787796
1.30983512854582
1.68911349425817
1.80154245089058
1.32861493831773
0.667996395220456
0.597767621851171
1.23801252778941
1.81327208876933
1.47964126765257
0.0171273170608583
-2.09387423749569
-3.88099438449609
-4.46491478752504
-3.81635351545245
-2.68965882597155
-1.72324793828701
-1.00423787970918
-0.416305067166308
0.163403768642544
0.929930679955529
1.88759303882756
2.60141531829339
2.56273900654889
1.70136632709153
0.414638282024846
-0.694371751223674
-1.10004264039408
-0.699492342526357
0.0612908725943977
0.610552870803507
0.751456463108256
0.59280089385817
0.225346249475724
-0.266942825150558
-0.724589702887072
-1.07490192735813
-1.3277623167656
-1.36382459083446
-1.08641632706298
-0.695235593212374
-0.400866763373766
-0.093495537757984
0.289437983883044
0.397015866490782
-0.120990131974576
-1.11093361671698
-2.05368699214741
-2.44591517620637
-2.05932745472815
-1.1581260034047
-0.349345342425655
0.058301313959789
0.306888371374614
0.630403135739118
0.873750891414148
0.860060568631752
0.692141777364729
0.541889657292244
0.50297301753807
0.662039109286649
1.01008444015673
1.34718632167727
1.45097522661042
1.21298852591397
0.608836674908588
-0.214017681357839
-0.882621481051968
-1.14611211892013
-1.19819112331453
-1.34504548049456
-1.48294048621998
-1.2455576435969
-0.533376007392404
0.40152101193003
1.20956207728339
1.5865437242443
1.48291846281631
1.31065529489567
1.57084803104187
2.2405101046782
2.88616041702934
3.2541829136121
3.39120380363868
3.40464852613095
3.38747860402257
3.31493416543086
2.90814038412758
1.95211683961509
0.725108732905518
-0.278410624376927
-0.925444588142775
-1.38750058736772
-1.74264277463692
-1.96014479532303
-2.04287062939739
-2.02369376710061
-2.07187994135999
-2.51261735667695
-3.3802096350779
-4.17605088023745
-4.44878645804939
-4.28824448738658
-3.91300096725992
-3.21547835070116
-2.1025227172339
-0.922122129452188
-0.208362958647232
-0.200661710545149
-0.729930093102224
-1.33894824794557
-1.49555156791028
-0.971636374893924
-0.0365737390449478
0.868961832115684
1.48914142933246
1.70111239199075
1.47838647600446
1.03591236354152
0.659841973522068
0.406016641687448
0.295300968933125
0.5604945754184
1.30147909762736
2.20426230287712
2.89695997024127
3.20409988647221
2.94944356111825
2.06056338074757
0.94073621853863
0.208509794416649
0.0595159701321676
0.234891440138614
0.387282452943942
0.187772831296155
-0.511383000896967
-1.32077938455764
-1.54168578488578
-0.969445411065686
-0.143323252396044
0.242263947828814
-0.0722367659246091
-0.769720025771091
-1.19596921164017
-0.934248791951934
-0.244805792808079
0.268250121151958
0.378243765335572
0.364286625692415
0.533755242884093
0.903414908966018
1.2361756633798
1.17623298039398
0.557337628611876
-0.252251205152167
-0.633942383608666
-0.462632943886481
-0.137928297840416
0.136834287072798
0.528346784587353
1.04178232561766
1.41752444846413
1.5328749649703
1.44768989815023
1.18735803382392
0.803727107627929
0.440111051273136
0.182499461319748
0.0876078179233286
0.269338163663525
0.613499346543185
0.646688037636582
0.105722176556208
-0.650576177581772
-1.17502454193328
-1.54722816735473
-2.13685931656317
-3.02845814339541
-3.85552720378222
-4.04389064269006
-3.31098878313208
-2.07937233817671
-1.16059697617354
-0.938188680846168
-1.15811420284042
-1.43747412292601
-1.52446061393349
-1.19754891919433
-0.474819215186903
0.153383786768713
0.218692561555721
-0.0849386563677687
-0.196790046063329
0.0630062613055336
0.481111791416344
0.922842202387742
1.37929011244675
1.78828797041274
2.09474684446028
2.25360595157281
2.1548016633857
1.85896823048974
1.71337178738215
1.85723766241438
1.92147684174159
1.58168090736466
1.06297856549287
0.821640794659137
1.04189713118178
1.5674083540176
2.06173553511392
2.25973451087476
2.21044664936974
2.08829713570818
1.80753540952715
1.27288785296501
0.877676568040193
1.07224511186984
1.5221153599193
1.38403249501431
0.344867981476514
-1.15582774334898
-2.55025641080915
-3.53869430930653
-4.08774269191269
-4.36961235568037
-4.52948867916113
-4.40812150436286
-3.74675104724623
-2.66048106350266
-1.59168449790237
-0.833126684951233
-0.400228573585275
-0.246116591734378
-0.268806723388145
-0.259051516197631
-0.111587496279663
0.0874729527012158
0.262645118505997
0.351063966420423
0.191621228795432
-0.203923367059313
-0.449575419698018
-0.201392176414261
0.493400730630736
1.44245767363965
2.44215608810079
3.07006782256735
2.93324249962125
2.21871412721015
1.48841116754796
0.969874490803738
0.492054704462164
-0.0645371232017393
-0.658097624520301
-1.2060100974056
-1.57468502304253
-1.70584346235937
-1.79001782084009
-2.01630250579765
-2.28176207626982
-2.42593980253003
-2.4545627217193
-2.28614201918177
-1.70138479799178
-0.79819770672527
-0.0951443617505839
0.022421382349846
-0.323968494391864
-0.69504756757133
-0.613023045874049
0.194651767377459
1.46962781852939
2.53400139016548
3.03571848183435
3.25818205399036
3.44375926695744
3.36523014560965
2.91822247593671
2.5697473636158
2.81305663799904
3.51243617806713
3.97459880743915
3.50872166491267
2.03250837349941
0.25219761515493
-0.997227963478744
-1.58719413237278
-1.94880546788554
-2.29546180876706
-2.48407448243641
-2.42847524347243
-2.16803068687853
-1.75568637424813
-1.38691252379163
-1.27935567169971
-1.25359575085867
-0.8987505655901
-0.201594901026349
0.484735783225157
0.997216018297972
1.38254613548596
1.55309386331167
1.39369336556237
1.03638075931962
0.717459844535373
0.534645113155474
0.46931436129289
0.419278892825137
0.179209880316054
-0.358096508757941
-0.991914548530063
-1.41238046563493
-1.51422598835759
-1.36841990935009
-1.11555440183169
-0.991667181032083
-1.11051123709383
-1.19965519865242
-0.999571787889089
-0.815298294867159
-1.11524458787706
-1.75147855401742
-2.14894411908681
-2.09826786590508
-1.91165814460985
-1.9555593612469
-2.25322888631294
-2.36546577193346
-1.71259095653387
-0.30316567447049
1.06399142344623
1.65538956511066
1.56580742978172
1.35799583902918
1.34885490626916
1.49081434037946
1.56167996107887
1.35076863174342
0.983946100366833
0.96353434265939
1.57109195146023
2.48053054006445
3.22289186144523
3.67334351861196
3.87260072828339
3.78270677618033
3.41474968208837
2.86836198848926
2.16796302594439
1.33450566898143
0.525372661964322
-0.220486182066324
-1.17313728560202
-2.47281037449816
-3.76627548673552
-4.63995106596684
-5.089071970515
-5.27821494102771
-5.22867882796798
-4.93771641211145
-4.44993094859069
-3.78276463973026
-3.0607042912781
-2.51489691168213
-2.08484605860247
-1.37621679008652
-0.261342880108883
0.856788607791661
1.53778835977675
1.73494483613194
1.75246760750634
2.07232558077014
3.03962005402631
4.40955552368533
5.41444716315743
5.46785487875479
4.60146819463259
3.29291706623514
2.21245829039366
1.91765401948779
2.34322096614753
2.77372713079294
2.61411296956015
1.93448390063317
1.15686371042448
0.614639048007374
0.445393845243538
0.433425039105707
-0.00849593035368615
-1.16418590116361
-2.39569965049971
-2.78133954020061
-2.28114161945552
-1.68232330280844
-1.51715870284845
-1.62287714176303
-1.67044540961089
-1.6453944543481
-1.80772464922905
-2.31294827732315
-2.81570365058514
-2.67245203216707
-1.78123289618786
-0.848780486194351
-0.519987287491074
-0.671955689675989
-0.800133542869066
-0.59955778611415
-0.00533008395305691
0.825384384491414
1.46970275130766
1.58215948982835
1.24943556626648
0.762955384276565
0.305829496547577
0.0466027512105392
0.107355256019189
0.232515049509399
-0.111545557179067
-1.14881296965677
-2.50987708115819
-3.46553918459604
-3.36895408339924
-2.20634768581034
-0.825711321898062
-0.20156275717696
-0.342362324248427
-0.324589012581837
0.51064639514627
1.79840215153753
2.64238653337042
2.5088747846021
1.63925338005647
0.8699505639129
0.921129577607051
1.64423762442326
2.23206073492134
2.26327691803222
2.07676908880277
2.08195421616949
2.293463337175
2.59363576199199
2.92635709378881
3.2238961259984
3.47433141690632
3.72804470916
3.88045414801467
3.71787359169664
3.20742063701514
2.41858051147956
1.26358262374948
-0.341580083964342
-2.22965542385462
-4.11995094535747
-5.7253447005213
-6.68087124264213
-6.83220066660247
-6.58060314506434
-6.46172317012839
-6.5218958742427
-6.52725569370314
-6.43376989072271
-6.19162867192301
-5.4904300648152
-4.14112554474153
-2.40087642976238
-0.675894602141351
0.782489885768647
1.82208932610262
2.43908207231135
2.92011084243797
3.55315525804074
4.22959721357487
4.65269160505228
4.75715051283438
4.6193784159893
4.26235452974925
3.82309277310543
3.53373083443059
3.33380342295368
2.87810208019112
2.02259771714921
1.01934168504021
0.309893910770861
0.278522675514241
0.888781930374516
1.4323849959605
1.06436407953833
-0.298381197340103
-1.94357584246228
-3.09737283115987
-3.33255114397853
-2.59569138706081
-1.33547822558336
-0.323797865518107
0.0255296000076885
-0.08256494085223
-0.283852597650207
-0.316973412151914
0.0934033117345335
1.01104966386277
1.95087466931189
2.22384471021082
1.59132941878657
0.37929075752799
-0.819371652854182
-1.41330080010871
-1.13503088864447
-0.301458530868269
0.455634093648492
0.75546942095321
0.596754179338845
0.138591266688402
-0.312333556600543
-0.355856882896919
0.0841932910427035
0.630799552043342
0.946987593291063
1.0186911406875
0.900705293575796
0.63117041160377
0.355215695723999
0.112035475415984
-0.327537481811329
-1.07008425565222
-1.83924836824089
-2.33536369721687
-2.49657394702745
-2.33729605570145
-1.95721870759161
-1.66846623699762
-1.71210479660791
-1.99476996957477
-2.36032894673986
-2.75928124972766
-2.96451688547888
-2.64219134863601
-1.88048867606825
-1.15421261927844
-0.703604109261964
-0.355855933536602
0.147045648980205
0.969996617654132
2.0740117683476
3.02304997224858
3.24767819189217
2.71514261875379
1.991523260184
1.52443785190428
1.25570018699851
1.01507051732553
0.861622468553704
0.91845878340807
1.18073013138627
1.5177706488219
1.70921025833099
1.63964509613075
1.5055410594769
1.50644944097931
1.40744960288365
0.867524649595509
0.0463593190229409
-0.599072666820764
-0.898365825395513
-0.961396429975592
-0.916318382618014
-0.91913412792554
-1.02668009279231
-0.949295011716981
-0.38114307715069
0.453306864352074
1.03234107135995
1.14996284854716
0.910040305765171
0.438188443150192
-0.0448037686746872
-0.245551032947319
-0.148350681410277
0.00676817407039944
0.116516947935145
0.195742778135813
0.112311065370119
-0.237261799852078
-0.659749166675729
-0.899690254158423
-0.95777961015484
-0.992942573692436
-1.11745059159056
-1.34613666791983
-1.51768695113649
-1.33487639117205
-0.770366538609772
-0.28324906512361
-0.315104829929134
-0.780757907090351
-1.320185064
-1.71281917199616
-1.81272103751134
-1.49544299667122
-0.855792073818398
-0.10456612682045
0.701740756604117
1.48649565638699
1.94992703152928
1.91948527584147
1.61767075402011
1.31411753476156
1.04277372591625
0.782219959839805
0.556522126681902
0.379268042568922
0.413100923094284
0.961217398906513
1.97010605680724
2.85504098057018
3.10419605746758
2.75685937129132
2.20209318063197
1.85230293870311
1.9156472436691
2.11006561773477
1.81023375614816
0.789622957515419
-0.49415363578752
-1.54971470794668
-2.35506245334786
-3.05937223302528
-3.66197292742117
-4.14404856679022
-4.50304829041432
-4.56769877170315
-4.15428739925385
-3.4160398671498
-2.70630314172549
-2.18659814411077
-1.83721132558012
-1.63228238083161
-1.48602926704598
-1.3053844597898
-1.17623461968889
-1.17899893864193
-1.12249031669902
-0.816866970070777
-0.369860002428921
0.111658444289173
0.750517186401366
1.55840107659609
2.28003533314758
2.74800618971031
2.98487179693275
2.94329249449942
2.58305693119864
2.1402064404772
1.94853520155053
2.11310907072703
2.54435598353398
3.05090621886494
3.33761119626272
3.25213264863951
2.9911941848602
2.76667426454366
2.4896957722534
2.06498272354531
1.66038659489465
1.43012254435813
1.31783983685263
1.27765050060471
1.31488954883405
1.25329623058782
0.859332001271288
0.197860568294552
-0.496649180050115
-1.16884604778378
-1.78532985569261
-2.11093322993191
-2.08751857005044
-2.11090617733953
-2.52625459783076
-3.18284819080355
-3.72066543506981
-3.90354167962115
-3.61843499753773
-3.00114655265757
-2.51392458182501
-2.50111048205874
-2.80592428576621
-3.06424364317047
-3.09081342930973
-2.84810251569172
-2.40499407637892
-1.97400275790548
-1.66101086044954
-1.27979283203768
-0.670546034041424
0.0697213947667092
0.855584510995015
1.69993167333685
2.4204079420958
2.72602265774237
2.62930474889152
2.36031618988723
1.98606790563899
1.47897471268884
0.946248740903695
0.493757279607764
0.103887242409527
-0.184749775351417
-0.265273961084545
-0.205082103462543
-0.191440287257998
-0.241648599155526
-0.274804224350527
-0.339300414198184
-0.421326813287782
-0.277614170441599
0.161445432266169
0.568850867059185
0.755909624160829
1.00163167240821
1.55371623302173
2.24320450867406
2.77594260965946
3.01567585486733
2.95405427732514
2.7120014905679
2.4625256354183
2.17721525106329
1.69218291891679
1.07154144214129
0.571404553379596
0.2966902732368
0.215704130391945
0.314176369039808
0.439468882526777
0.326242010515414
0.033246054017475
-0.0424103529171806
0.266569414016651
0.739965884990733
1.16706079455578
1.44635628166219
1.4195980191599
1.04880372370891
0.588247025167076
0.263267828198498
0.0184647486500545
-0.23210963223529
-0.449828918845951
-0.695074169839529
-1.10029882143129
-1.51426863859537
-1.60227952060804
-1.39154485971173
-1.31892056692401
-1.68916182510463
-2.37361985015608
-2.9654692971308
-3.07100231722921
-2.68217751106008
-2.31382692187936
-2.4636199938192
-3.04254622610373
-3.66246673388652
-4.16697746526999
-4.50240543834958
-4.49279035584789
-4.12085109523119
-3.62583854099978
-3.10903056936331
-2.4694601072795
-1.76176990188874
-1.14520676034806
-0.554379665024429
0.153136348728001
0.904398999730851
1.56901219530637
2.08665661274378
2.26177013898653
1.88917224689969
1.20365961725753
0.760786056566937
0.862338905181297
1.456675949178
2.42031807309253
3.5440470990831
4.44470489977772
4.84672425783033
4.8197313716595
4.57207696366145
4.22421039574371
3.87408733884997
3.59557823786145
3.28312983192667
2.74176509348211
1.92792262991417
0.941432474528794
-0.0249075511187778
-0.608777119223592
-0.537670399478021
-0.0983581592620508
0.0742102382762846
-0.254619439970911
-0.740951968587147
-0.936895461416731
-0.634110849417322
0.041227295663465
0.649099806157899
0.843332276305594
0.819638317721797
0.974653158780988
1.21851988369715
1.12544059620597
0.634136656799915
0.114529521214978
-0.137476727418105
-0.167697098063462
-0.320150118921683
-1.0083438890198
-2.22596693602157
-3.37377463304028
-3.91813053891049
-3.96723347163296
-3.86309962377733
-3.64550195440544
-3.31886899396845
-3.17599223704139
-3.40946991683251
-3.72444438807945
-3.63895457098991
-2.92993507456412
-1.70190386129712
-0.331902299123717
0.677068180754132
1.15839129718455
1.50454726330778
2.09191046288794
2.71840102990509
2.94064461375719
2.65741295818601
2.10241859295561
1.58616394395901
1.35083109886535
1.36174261988218
1.29218301118756
0.962720709247096
0.568625919910579
0.29149675530256
0.0458485711502851
-0.241785551394227
-0.440333704036467
-0.329569234237239
0.297942325872097
1.37789046113697
2.22715779292009
2.02078678346324
0.915087484578381
0.0481647643534558
0.116563563921496
0.593535646249779
0.588923171302007
-0.127271396464708
-1.13272561119736
-1.89568582643156
-2.16801328232705
-2.06854360740015
-1.81450286622955
-1.42291134970341
-0.885990393752604
-0.500430634631199
-0.608707124821614
-1.08000399898628
-1.47099325689376
-1.61447197853791
-1.64112472734462
-1.60585307116099
-1.52242397114121
-1.51901807448513
-1.59362972440144
-1.53426925169118
-1.30511632171204
-1.09926043405438
-0.918020141639685
-0.54630392818873
0.0751739706329741
0.829507462542686
1.61452746578928
2.29022925383366
2.72312464448118
3.02904101276314
3.41212308308311
3.75933030418734
3.80647035797143
3.59840562071778
3.38388966667792
3.25071723900679
3.17926823924377
3.17627981952306
3.17301656456855
3.12381619137897
3.19357620981585
3.43943927465562
3.47342192285621
2.91350497280705
1.9672480591747
1.15690874089083
0.701904197623646
0.485121129106626
0.341296411460397
0.104867630926869
-0.367897464024491
-1.04107720577814
-1.79283147201938
-2.66887879100438
-3.71007098569547
-4.61170467472581
-4.96801330735458
-4.79149149419147
-4.4978869902773
-4.51306771749496
-5.00425041361217
-5.72915388565028
-6.16041979620125
-6.05831767563801
-5.75994250229675
-5.62555484020169
-5.51960923074069
-5.11244103587775
-4.3335161984409
-3.34264204224667
-2.39501280413434
-1.73706583671836
-1.29282924409236
-0.631993362657048
0.413931016260373
1.43303783388624
2.03145003541241
2.31822344089391
2.56793818145301
2.89027959352237
3.37235396753737
4.08020954500768
4.87899333003061
5.58696840654339
6.16073233834338
6.49628892857448
6.39688119545051
5.9838579378018
5.7216038111966
5.77402215032379
5.73755501614585
5.2418713043439
4.43186198029609
3.67411519432269
3.13507112450318
2.7414529122383
2.26927322510802
1.51014551176935
0.537891341921448
-0.394698778347516
-1.29333541929916
-2.3737674282741
-3.56384761108339
-4.48904378114535
-4.91453917137268
-4.86802378906311
-4.51649757794448
-4.16804102578856
-4.07993136673889
-4.11400631126008
-3.94366009974483
-3.57406586844976
-3.21015644137885
-2.76955382937726
-2.04406735179496
-1.16502724544641
-0.470175886909286
-0.102110215139781
0.0237676516796537
0.123776060887936
0.463751831449593
1.03164378599576
1.38185737733786
1.1259088078882
0.365649809519691
-0.595656778024638
-1.58862434317097
-2.37342602770657
-2.55270813964622
-2.02193069526068
-1.20204171395613
-0.604466253910648
-0.383388616960165
-0.330769210205718
-0.0479814473953471
0.7478687022613
1.80088548584541
2.46018761793595
2.50235573969026
2.42471956846543
2.73198017980336
3.39365428129654
4.08203476764578
4.44920968479321
4.20809910356806
3.40412511174665
2.47981508263876
1.75693979726022
1.14049226714267
0.523338226209322
0.0384439206403966
-0.265745883151132
-0.586341052568576
-1.1125343454285
-1.88912597286792
-2.81129622914767
-3.54551677149821
-3.74244440129357
-3.47680653711657
-3.11552212339789
-2.72886577935419
-2.06563120188869
-1.0621832667533
0.0412779471862809
1.0073959238455
1.71821722701245
2.11143378382797
2.18321114041916
1.92799452486118
1.28707196512365
0.393347502945975
-0.257361484347948
-0.277944721539891
0.062309221901003
0.192789083875102
0.0172081766281658
-0.10650724104456
0.0204058681089935
0.270729443974243
0.454997471295155
0.467779812370717
0.368032123480789
0.369736497044651
0.497894925462772
0.416604811175231
-0.0753074097751664
-0.670464396649689
-0.995673304343271
-1.05850819511014
-1.00627641095049
-0.873830410595745
-0.75189617777206
-0.799001192319818
-1.01244335247657
-1.29096349354769
-1.60291460253627
-1.8557858973014
-1.88797787824146
-1.76759353049987
-1.73550665559311
-1.79852318594166
-1.77444148422018
-1.63358645028877
-1.37975065116416
-0.831816597351899
0.0468377638434678
0.88028797664413
1.30985798003561
1.40039178162097
1.35934776428778
1.21118009307713
0.984325059157212
0.870205530804659
1.01573622483288
1.42855568226343
2.06991172837748
2.75556953633346
3.15302146623318
3.1748951885239
3.09566229858818
3.08847259794741
3.04532266222065
2.9388148612355
2.88735429230829
2.83736493924105
2.58605551908053
2.05381295281597
1.29702719822908
0.463152299127106
-0.204434317275997
-0.675754905866599
-1.34911929964817
-2.46716389318257
-3.5153126318777
-3.74148804488271
-3.03358438147939
-1.84759046782971
-0.652223640389717
0.174293201589276
0.355493523368091
-0.0279904509176652
-0.629030267522781
-1.28297963879939
-2.05498078378833
-2.92794343286357
-3.76333104567311
-4.43372642843533
-4.77420114798454
-4.61132979250241
-3.98566138619759
-3.10897947354667
-2.06895567223403
-0.883477241517276
0.211417673861528
0.920469383378812
1.2460553907592
1.35520244632175
1.35000495192152
1.46738246663375
2.04907742317516
2.97190693611755
3.57719637918571
3.41986000456083
2.69125218092886
1.87888370009439
1.40379098238791
1.44219851253407
1.72166194274982
1.70249053946417
1.20358488757283
0.568146712554186
0.138387050322297
-0.0692088430091069
-0.211755230427213
-0.505798652376431
-1.09559766256929
-1.7379926472575
-1.9226136557783
-1.53174164197934
-1.00992423635892
-0.780520271552417
-0.891194333876062
-1.17677558552952
-1.35447988696803
-1.10784735764747
-0.442481928062995
0.231334026768416
0.593174038581854
0.713074167787821
0.749252752965786
0.739296324574535
0.797534002952646
1.09013503421262
1.5004377802515
1.69643967749105
1.56322363132378
1.25668393442793
0.94300858136655
0.751353628934205
0.758283539434907
0.852852170213347
0.909606591370293
1.06654284509629
1.43932573816525
