-1.83253282415161
-2.18869092226341
-2.35940616099507
-2.1626021054368
-1.58653802950102
-0.891027328186693
-0.469285894952426
-0.473864766894612
-0.665310855453654
-0.696407762439953
-0.434124683909867
0.0110179455678684
0.414135686777525
0.575326949223921
0.476721242884931
0.317255369112359
0.310779013353714
0.494200668467768
0.765007111458278
0.981771058089356
1.01345674039526
0.863514021849928
0.753782495875248
0.916573431393109
1.315642006427
1.69665523268387
1.84566285827839
1.69770782473554
1.29944066359432
0.774184584084718
0.258736975336831
-0.169824548296156
-0.465888520925355
-0.579491376733451
-0.54707918063166
-0.526749478314627
-0.621567751279392
-0.757904042519267
-0.819936791530374
-0.767251005791986
-0.562161595670247
-0.168467727819813
0.298483818879572
0.576712534745356
0.48356669358167
0.0730720134940627
-0.406323994511607
-0.667454215922014
-0.590148673710775
-0.334344569131403
-0.174894226189668
-0.212184127558585
-0.333366367958626
-0.416064986091296
-0.428700017614027
-0.368547140579931
-0.253350779356463
-0.150089482929735
-0.103482350576687
-0.0798956306953036
-0.0362689483524444
0.0335693060256635
0.132509738883911
0.247114180708817
0.328733939754491
0.368543332160046
0.42047306766179
0.488336579838139
0.498914291744464
0.435263099058062
0.373077354873636
0.352377341567338
0.334843465799651
0.29994705050208
0.273752937053385
0.275454923851462
0.318884815406885
0.415479370496398
0.519238828507709
0.556085031993282
0.528360768754466
0.472145500093742
0.330146211141033
0.0147159110972132
-0.427487778194665
-0.842652573673213
-1.13477134254811
-1.32597501414415
-1.48302156815117
-1.59572017056031
-1.49543731024846
-0.977983783840417
-0.111593865221914
0.674823701836754
0.95081143889595
0.663067112820598
0.077811341524691
-0.505587042369702
-0.879038330208667
-0.940041186336
-0.732735057242595
-0.396018813744175
-0.028365149974736
0.32444121114948
0.599811876333778
0.748966363587631
0.787341318846206
0.747698432878939
0.657498713140898
0.58352158832696
0.586293767478605
0.616863130916526
0.567388185370499
0.416075558336085
0.226084174920748
0.0425141383614692
-0.115725454882358
-0.220350422046315
-0.264825654570217
-0.268052537666074
-0.226273356836304
-0.145896990421221
-0.097004515479468
-0.136576906798631
-0.234866189653964
-0.344526088745511
-0.429017527592041
-0.374604643318522
-0.0496370341054211
0.46543297336564
0.863138274863248
0.909521915562946
0.659333679175209
0.345243906826697
0.147145533827133
0.0682359282891288
-0.0306678936033906
-0.245283549731906
-0.466875924687422
-0.504969538997499
-0.349411160971143
-0.163149185609893
-0.0583505108977049
-0.0414819965851051
-0.103759495521374
-0.195491840714834
-0.190736230393342
-0.0232562141575363
0.207632862086896
0.345012778712881
0.311490505885482
0.122865732683797
-0.122134771622784
-0.262030693943653
-0.197579554865032
0.0007802008414984
0.180783334090457
0.256144799638998
0.215255863996857
0.076547578166156
-0.104366609055006
-0.257111574711707
-0.341871455799088
-0.32591329005431
-0.183674691560862
0.0147953328683123
0.114249923008827
0.033060868067476
-0.183261526846361
-0.478191643810624
-0.83693177213301
-1.23082681792562
-1.6089197917231
-1.89063516446291
-1.88115170082662
-1.33385953586236
-0.257046827983415
0.951727712687321
1.82249254526871
2.17663530113384
2.1144820392245
1.80749679116905
1.40348326800805
1.01678621955863
0.714676486615637
0.521270004923259
0.415156842884428
0.323461054832282
0.191350788411744
0.052932276748405
-0.0480275435960647
-0.163472111879763
-0.349231265377892
-0.513044551674794
-0.486723027919359
-0.232315787145526
0.104831347171297
0.311301578925676
0.249892902586973
-0.0239811466491427
-0.293050445512719
-0.422932622180544
-0.518077170742181
-0.723086385115786
-0.975092345144801
-1.07354737902761
-0.879716368272246
-0.372971816302306
0.328620776188075
0.939080887649432
1.1702020066721
0.998276261972885
0.655465895183996
0.370279684387187
0.233736392548454
0.243884222155
0.320894101899004
0.334023890095921
0.229453433210371
0.0692435875972912
-0.090635143551454
-0.247655191364078
-0.389012728380021
-0.516934471257998
-0.694646113816048
-0.940868595647507
-1.15424023488656
-1.24603909569618
-1.24615734322968
-1.19496373546339
-1.0402099141817
-0.71238385467967
-0.233242937753068
0.260072718412064
0.559580921058
0.54377437082674
0.36130362792547
0.326259014465318
0.548727293260513
0.814128095502546
0.880432469508901
0.727676089611639
0.48716921693351
0.292197416271076
0.212368677047091
0.213819574460482
0.199606897674124
0.144071135494916
0.11641498466466
0.151350921610611
0.205135933984033
0.248612379336803
0.288001225964944
0.29550429997741
0.227510775160471
0.099468388511724
-0.0384824286309471
-0.162620564101865
-0.26065413521373
-0.318154021009975
-0.336770978222259
-0.295615691932415
-0.139118744950782
0.101623508269028
0.257897570125376
0.203428402591808
0.0104071345759054
-0.140309749924216
-0.123877148836892
0.0588007558635758
0.263751456887516
0.279581094518501
0.0461965930049417
-0.239415197707632
-0.346344871916726
-0.267428476769842
-0.156717739905134
-0.12011493818974
-0.161821975436153
-0.216137478415292
-0.168479337230157
0.029340208609167
0.250251993677381
0.322331674531854
0.233581826093857
0.0985115545730292
0.0017513827073396
-0.0295556301707629
0.0040501196096037
0.0599179596984793
0.0969024712018924
0.15241093501139
0.283428209927888
0.449939671622803
0.546914596273572
0.506856171725748
0.312454149495036
0.0084172800778243
-0.255673680381088
-0.342799026282975
-0.32877662131779
-0.428004833334279
-0.703206617563705
-0.991390848721679
-1.09298331035827
-0.919864283849345
-0.538624201137465
-0.177552029098802
-0.0851640938378737
-0.274000911908647
-0.48288287089886
-0.447201606375624
-0.132149243740097
0.298474209075914
0.639936237943562
0.779686393238062
0.764554672137442
0.727611685417579
0.721255856854719
0.6861626179464
0.577176538539552
0.412469533452282
0.227299541113312
0.0887158628704084
0.0786573101696796
0.14282962490382
0.0616808488769918
-0.301379340962509
-0.804776902669973
-1.15788898892037
-1.17343195102782
-0.887837410659449
-0.536812379668469
-0.394005257326048
-0.517045715403505
-0.664153528525125
-0.528563417722418
-0.0099801309010406
0.744283078761571
1.42881092455193
1.71728624371389
1.50208653985671
1.01865359140913
0.595410294933178
0.326044516427075
0.103059256496829
-0.147215171861045
-0.406601216974878
-0.626070903265942
-0.721961709719422
-0.605065134073343
-0.290702349142762
0.0917877943176881
0.4124303320683
0.59599050262254
0.61618908567469
0.527968465011063
0.442641780933446
0.401202556246533
0.35346270475681
0.283757257027899
0.235670690094419
0.211515017932708
0.170446642180544
0.10424996692818
0.0221345723976657
-0.083443016087217
-0.197493600187569
-0.292890246565113
-0.403053165780476
-0.577999913352091
-0.763032034138576
-0.824314500629208
-0.682123297741889
-0.35218213250969
0.0638733080689148
0.356342430556772
0.311545293542632
-0.0512100059653264
-0.456349389799492
-0.65913856469255
-0.661351641272873
-0.632473402750848
-0.721805630145924
-0.928579180668921
-1.07805474352995
-0.967213910426591
-0.560863753502617
0.0148115362125485
0.611629050565065
1.06903476784112
1.19296331147961
0.924632462787154
0.464130635853518
0.0646493247078693
-0.202738995053345
-0.357308011438043
-0.348792209809536
-0.142909139677105
0.175557374033388
0.493379844737915
0.741664051879146
0.854967150166453
0.79626742650787
0.619031556433703
0.413423468687473
0.243067697242245
0.166683659700545
0.196544079814285
0.211829236586067
0.063740163524417
-0.212516861727917
-0.42410389008517
-0.447038866840566
-0.304826123924626
-0.0753431956632069
0.147052467158934
0.256198024259608
0.217132100312149
0.0971009314871161
-0.0312131457052718
-0.147431915544899
-0.25577093028513
-0.376791696610611
-0.508898742253834
-0.547824953265355
-0.372792045703822
-0.061044917397161
0.147115728554932
0.141762260688778
0.0432471983888946
0.0048755193792806
0.0876913498338937
0.306562938319738
0.606065110554713
0.805808200411762
0.742060485760595
0.450906532958473
0.103673672719935
-0.176769984056318
-0.358013196497701
-0.446352827426914
-0.45476542240776
-0.372254340954406
-0.182004507458872
0.0503736786149681
0.192511328998099
0.202413691617492
0.175399022638364
0.204862911220159
0.293967710899418
0.397274221861076
0.43504519011038
0.291818815703981
-0.0734744156452215
-0.53155980995101
-0.888140396348234
-1.06037268608335
-1.11207691508842
-1.16816531064974
-1.27856658064881
-1.29323696943034
-0.959315150029906
-0.254160651213236
0.499550699883225
0.963187290834461
1.07786024201779
0.949675767351268
0.6551668131911
0.293190051212201
0.0461095855006825
0.0301985398625813
0.162150258123329
0.248726266741362
0.170048359775103
-0.0169339644657325
-0.117810101108106
0.0047291308890207
0.260874831679175
0.448963264315843
0.507036409887373
0.502357927817129
0.437422282250445
0.267407684103706
0.0587041653787686
-0.0593910514250716
-0.0639004435141072
-0.0322004167893207
-0.0240217808228607
-0.0486116842009916
-0.081381744459175
-0.0763674154921253
-0.033261588951582
-0.0462037552118128
-0.204684705848711
-0.469029007978938
-0.700894685422552
-0.762817308165557
-0.582482761148131
-0.251575014354403
-0.0541415779634357
-0.20095607852474
-0.516517588743446
-0.575979273903564
-0.178580714021225
0.443617341285114
0.876928262398493
0.895130025551346
0.611406938642933
0.32446703407912
0.204005273456467
0.150025443983449
-0.0041824128326137
-0.235727719379918
-0.361126170964246
-0.233154509278991
0.163532198648614
0.691966845400677
1.07393671385512
1.07815974664169
0.768829445812487
0.435753299474089
0.270357589856318
0.249661824728668
0.289912443523103
0.34274166925922
0.368854685036529
0.34407048586392
0.273745966811808
0.154721120487248
-0.0303696796330764
-0.277836534766166
-0.574122011501911
-0.898146789305719
-1.16187636024387
-1.25864764427657
-1.25143542910009
-1.36013702402426
-1.63640857479193
-1.7922059558068
-1.48791789169695
-0.712577014350297
0.178049627907216
0.733224738777951
0.735011131726776
0.34688348140464
-0.0677357949114208
-0.285077128200434
-0.327640767486883
-0.292297199039323
-0.219402223717422
-0.107348497505368
0.0805421178429316
0.387120320312764
0.723478293026252
0.846257519761503
0.616672188804857
0.208785388378019
-0.0556244180381441
-0.0092595893348529
0.274129619849984
0.587735372973334
0.755092953000707
0.771887436162902
0.772957920654591
0.822205285000265
0.836823741309215
0.758121144420494
0.648057622619752
0.565031682365241
0.492725134480147
0.432688290539553
0.427582085991923
0.466173803049889
0.480483741803399
0.435194280503636
0.34037420269531
0.230390096109977
0.185258469033071
0.26442818816181
0.375977910798939
0.344087562476043
0.129371507117855
-0.145107104684697
-0.372308637377782
-0.548938602064345
-0.723127914604397
-0.941305034010598
-1.19928515907881
-1.41593785077028
-1.53122128183873
-1.61378086074411
-1.75582934623921
-1.89058632694578
-1.84447194202685
-1.54366562345725
-1.07411634675429
-0.604199086347078
-0.310344587911563
-0.248496356285684
-0.231527264370848
0.0219099784844212
0.558889553818377
1.12286437309887
1.41155081410141
1.31209126977832
0.937481647640568
0.531140525461125
0.288906532817103
0.219167198180436
0.214784815044349
0.229853364306132
0.286747320527792
0.358327263486858
0.379517982014501
0.348909234962372
0.313332219432343
0.296456502527673
0.315930194972843
0.397184799529464
0.516654831134289
0.601678241782666
0.59783313091312
0.490975464212697
0.32325770379314
0.219617613667068
0.274918829212212
0.389016212149921
0.372722674637566
0.226697808935818
0.129899435001253
0.153538125003633
0.188018503220592
0.151287706066851
0.072501733378503
-0.0284710379216168
-0.172607300221615
-0.339311541472099
-0.468477331545565
-0.519275385143294
-0.492310206485816
-0.464730510228531
-0.562622076029857
-0.769288497081179
-0.840401373933211
-0.57285222437418
-0.0783707719437115
0.34843151761202
0.535216112783462
0.494597309574731
0.309804507008346
0.0848936105624016
-0.0758273942744782
-0.136527032920753
-0.148571625879807
-0.190251706852603
-0.323237026727861
-0.56564637839551
-0.859788989273838
-1.10818834549928
-1.23353637377332
-1.14201941931576
-0.727221415640853
-0.0555480995383264
0.55904098753157
0.838381281100569
0.819876715806646
0.737566398791488
0.736036465770595
0.802597172031864
0.86121396888699
0.825146313535867
0.630338444468502
0.290307029863833
-0.10272596508194
-0.424034771157427
-0.552097667773656
-0.440220455191114
-0.189249103150383
0.0468178325321811
0.2378430124934
0.445485889204279
0.647514749889652
0.739108047697664
0.669325458080653
0.458010355047832
0.148444464745487
-0.164966675497918
-0.356930970673683
-0.392360412908743
-0.348797448554378
-0.306505136783659
-0.305886535631102
-0.372537248635085
-0.464054384750052
-0.448333735869065
-0.257149239151555
0.0004294756509638
0.159969020214949
0.142415421425126
-0.0652081747737695
-0.430529118556741
-0.848863449707628
-1.21556987353386
-1.50022705423994
-1.64118611304641
-1.45380084436932
-0.798509876894673
0.179549047029153
1.06424718025671
1.44967109511561
1.26570464472229
0.868517339087959
0.716440243787519
0.890637843381969
1.05436885837399
0.9318330394903
0.628752461051224
0.394700135997343
0.295850198393929
0.247483420091211
0.184195889956191
0.0903691791804316
-0.0156664882230383
-0.083291409911483
-0.0865913773784446
-0.0548979016748815
-0.0114423954102781
0.0410218677544857
0.0638593903439312
0.022481687653903
-0.0242133254349933
-0.0004638655017217
0.03930034950773
-0.0295145147612386
-0.219952309354564
-0.424633655311967
-0.543020493757349
-0.529139421653926
-0.382820368625413
-0.160424611332092
0.0708471478423999
0.29849441353706
0.517752318575346
0.669164532221048
0.695915356983618
0.590095127552214
0.347873797535457
-0.0013842518264595
-0.308877750342183
-0.410063036509546
-0.340452212903912
-0.303070375529471
-0.414751779855185
-0.611711939716781
-0.771487759274334
-0.797784114866908
-0.645254506870069
-0.388581777405151
-0.205879356376541
-0.205924736627233
-0.334907311422842
-0.476152155432279
-0.557914123080658
-0.576434026431772
-0.584464934345531
-0.614148428888935
-0.58489861767858
-0.387974530950199
-0.0778760362689674
0.151121218255983
0.207057908078546
0.21367803146444
0.370177502664808
0.758574492281804
1.24806828831752
1.55172450650294
1.47678443883975
1.15281378376432
0.889137314590652
0.810113195003077
0.786384690681303
0.684883220721711
0.497659208548479
0.263496711050811
0.0282974381069228
-0.158215626985393
-0.308647753575489
-0.487976271374954
-0.685606827814573
-0.798999489562919
-0.764518020736223
-0.594775664596213
-0.307536538317938
0.0518204557321838
0.354672340398294
0.486043365350998
0.458929973935893
0.356687974032027
0.246976221891648
0.193601413354052
0.230141530912811
0.296272139907764
0.307107984770808
0.259640856596042
0.178921269976619
0.0356420306506643
-0.192463070616176
-0.459650640820963
-0.711866668819281
-0.932220850091703
-1.12195993960757
-1.31472748459094
-1.55327392105208
-1.74473653515181
-1.63747412826153
-1.09728856979559
-0.333746697525102
0.275980339582606
0.518129670435975
0.434810430881093
0.210351971563777
0.0377716612543671
0.0120397192295435
0.115874780717752
0.315571328472783
0.589368379615885
0.84417485991499
0.944574337409772
0.871644033120821
0.734974767298488
0.616705147887402
0.522296579825244
0.45845822193569
0.426613256752002
0.377239496386233
0.286742196269481
0.217035606644906
0.209833478599177
0.216021832053551
0.193000011253457
0.160802671852542
0.129757175358908
0.0819074967288257
0.0261984093820566
-0.0094923711067488
-0.0118410710488835
0.0279666503147891
0.090999130435684
0.102765022734291
0.0297674862444953
-0.0231314146900553
0.0715249450936339
0.286254989426355
0.477357442700565
0.537484709828033
0.428315471346903
0.165441537545731
-0.15195297091757
-0.411826155758352
-0.633878141823596
-0.923405413329167
-1.29228479823905
-1.65691120486428
-1.95238563422537
-2.10688589227445
-1.99246978974636
-1.55345550924448
-0.917817935127979
-0.272739179225152
0.306236266730333
0.828829465993214
1.263150456331
1.51125094258637
1.4949292761972
1.2442679463102
0.898650239522009
0.5961720431215
0.376108397571791
0.232753129331364
0.194195503784334
0.247022976340558
0.276204255947489
0.211275605931536
0.134648757185201
0.132629229667129
0.16685769659504
0.192753560613522
0.258113605303482
0.385683359178385
0.483085928633462
0.441844814279505
0.235776611428732
-0.0915994682236787
-0.448244311408754
-0.726562181346872
-0.893850485759777
-0.997175616659482
-1.03660562552265
-0.936582933957708
-0.661790100417959
-0.232604367119096
0.349001532518933
1.02347738226767
1.56099605469847
1.69595324243854
1.36364572258946
0.71679907623853
-0.0239658007497428
-0.667739312788854
-1.09750839155998
-1.29435750569967
-1.27240778112662
-0.998218406015857
-0.461372581330072
0.201757085605972
0.758632444151483
1.04237699585258
1.017654062833
0.756636087939022
0.39636133373548
0.0534314386640884
-0.231281744263529
-0.431146779708213
-0.506161620695887
-0.506235771520407
-0.578390075327236
-0.776014781715009
-0.957571910649556
-0.928604502000655
-0.601874963008614
-0.0390180858335418
0.540680399849365
0.839647350142514
0.730284522103339
0.404534657865606
0.171274827233864
0.16590228488609
0.320447875327451
0.485308158240951
0.506023356650877
0.315142768313569
0.0057398757517367
-0.27269419951422
-0.463646657120719
-0.573864249856015
-0.592309595582002
-0.525661259529183
-0.411713130680528
-0.246930042633509
-0.0129515589019433
0.219579691749024
0.346346809471812
0.370788208293414
0.362010757324471
0.322905846443343
0.224329448545469
0.0940316802906978
-0.0316737735547077
-0.149061060489674
-0.225239366961877
-0.222970228122128
-0.199827632423066
-0.235846821879298
-0.276913335585199
-0.189973879896946
0.0496136308593212
0.320387702505903
0.465605016911055
0.407775977780176
0.223142336287212
0.102615105908132
0.158540725445395
0.302537640303583
0.389085681490188
0.393851389753824
0.357574789923322
0.270227274763126
0.116010894798356
-0.0768871578521008
-0.295857473845274
-0.532409964257387
-0.692992930784766
-0.653504150077003
-0.407293054486486
-0.0783210601435852
0.169089620003503
0.209778661818602
0.0634722795321103
-0.0664565878790478
-0.0038723842381121
0.153870687450095
0.153762123388933
-0.0720705077366297
-0.3374932069359
-0.430807855812893
-0.270551927644973
0.0911294400390825
0.482591064043567
0.704769749547288
0.699258030025952
0.554313570573408
0.352693933395326
0.137569307649072
-0.0219283221189606
-0.0844587060424995
-0.112147883355222
-0.186758865593472
-0.310874076091869
-0.439399823516169
-0.517788363776265
-0.483611050146545
-0.344517986157987
-0.234577498848124
-0.275040779625785
-0.414900172590782
-0.494385777009672
-0.385842612745579
-0.0233680044312178
0.555646498551571
1.13871895892653
1.4608930849503
1.43820207979418
1.17336146305791
0.791672467575189
0.40486528159739
0.1371185765446
0.0286352398417054
-0.0277530028090757
-0.162668286970442
-0.401597446455658
-0.682652753062389
-0.912188318892108
-0.998152744058966
-0.918514312942181
-0.755478376507915
-0.619852928817225
-0.596787416497625
-0.773417910132172
-1.18255170727878
-1.67549452168073
-1.97037887279726
-1.85544131667044
-1.29804944179116
-0.447874230921191
0.393341860126896
0.950057490952999
1.21119282864653
1.36157686493458
1.46059998384356
1.3824299681343
1.08830056525957
0.734257281438177
0.464701477872714
0.281913157513355
0.144481656823728
0.0460308477113573
0.0003117182224826
0.0567050322811819
0.285348768694037
0.664134397175177
1.03772839215516
1.23146881125788
1.16557914278225
0.894492795510268
0.592330880416872
0.424316430446737
0.371041607311455
0.257031835852533
-0.0192385698517399
-0.36408632757935
-0.582365816626365
-0.515605498325998
-0.162063161859164
0.238550608922683
0.35034111812242
0.0953141937405811
-0.25117948426851
-0.410420551830111
-0.388859931124581
-0.338526562040394
-0.319484984714725
-0.303867749094443
-0.283893406766797
-0.305425737487522
-0.439449710512137
-0.69227578220611
-0.928560219066095
-0.986444416968812
-0.8901241516063
-0.823454409758976
-0.866260833733952
-0.863388262210641
-0.576171134633758
0.0806350131089997
0.898609815513513
1.44010064125804
1.36639548621517
0.762002328406866
0.0291809264464503
-0.519094509695741
-0.804898983124859
-0.812839898157939
-0.539086537666589
-0.109279814900487
0.263353993527937
0.462586856373322
0.519081720747016
0.519183060001579
0.523604875487396
0.513596769724083
0.389161079618903
0.0822463081855982
-0.34407451937544
-0.776086489293071
-1.16539268649847
-1.46923405157039
-1.54998013457756
-1.24519076630184
-0.513916120006885
0.48658388594431
1.38859536252893
1.75522406954277
1.42723452264724
0.728373913530071
0.20197105805136
0.158271931778628
0.510291029718032
0.932204433094224
1.11080003540606
0.949336150898328
0.592959408679617
0.224068572208998
-0.114350685628051
-0.428351765158424
-0.640275056668633
-0.696589251264147
-0.700231818575068
-0.779414528780687
-0.901186039917649
-0.916936865385976
-0.72210205991068
-0.343618325335192
0.0455216499958967
0.231229957826202
0.176268847246521
0.0750339779343134
0.117551127765051
0.292452907048252
0.476609201543573
0.591029046469313
0.605797885777623
0.513234173123811
0.362629661029849
0.247580109410552
0.239376950983422
0.367296434063373
0.598463918788775
0.790997267942334
0.779537613184756
0.562469813398193
0.299092835367944
0.117803777382548
0.0426375361830254
0.0608249602323273
0.128723664796489
0.165925417811943
0.145782795597789
0.127597197576762
0.150814421914888
0.185360673245331
0.197502137597908
0.165743747660322
0.0516473394596665
-0.146356085429349
-0.354764535034442
-0.52040745509526
-0.674665464869584
-0.864454462722221
-1.12764573683101
-1.52874883447285
-2.05919721116443
-2.52286133617804
-2.68858490913309
-2.53595903872642
-2.23751803706882
-1.95671562289474
-1.71943467106797
-1.37459940662252
-0.665262005062117
0.490788149678258
1.75183749208786
2.54715631589402
2.58542910378021
2.0881439425286
1.5326641930649
1.24842151069871
1.21799756349979
1.18616347447268
0.981427135557031
0.713927368961336
0.582181883390516
0.575296654819052
0.522397010705811
0.350038631599929
0.127359619516887
-0.0620244941829356
-0.163173786452582
-0.152202055299798
-0.0804195434242685
-0.0250865978386516
0.0327441613600845
0.16424423834345
0.32866340116605
0.393219029920232
0.311550786120727
0.155821549290689
0.000429364323517
-0.109606960911101
-0.118817663215375
0.005347077484337
0.214249182525949
0.384178739628737
0.380545281000978
0.187269121135829
0.001805225383796
0.0713894420930307
0.373594884687277
0.587130748569246
0.425019975914308
-0.109181230123667
-0.767385268151668
-1.21670138057281
-1.22070200554619
-0.84729405934693
-0.458809044586599
-0.362427680949771
-0.537275506748148
-0.77274220331376
-0.916479051156953
-0.908012830373028
-0.744795292152544
-0.493200667589036
-0.216418020410699
0.0925013870929807
0.399000290643656
0.549743518514645
0.451788680351237
0.240843211052311
0.15488623508847
0.307798021819115
0.631098452014432
0.944705013006118
1.07132826119358
0.976211269618828
0.782925729134393
0.594458203027326
0.389304441026955
0.15536684249002
-0.0265095393753119
-0.121570365490009
-0.212927937056244
-0.359096706631266
-0.50669762296051
-0.580358073114842
-0.561248459809315
-0.483576898429965
-0.416434734747317
-0.40244821889177
-0.384254398939911
-0.268137795937003
-0.0636824088271026
0.127563842989846
0.230546069287341
0.210935245186008
0.0500694245976133
-0.17761508570696
-0.295617618871243
-0.206099374948242
0.009792170693718
0.22324212008573
0.365057738395408
0.395643635099312
0.318093785045963
0.21152902858139
0.133308146088753
0.0412199461937842
-0.10274758087478
-0.249463313017674
-0.352372746357224
-0.433297579666948
-0.521940629009694
-0.638752940148154
-0.831220137056342
-1.09291424747003
-1.25602694412712
-1.09255588495853
-0.534772238075496
0.241484923092979
0.90358884009765
1.15347916126703
0.959742975228071
0.592636003056773
0.337127177871539
0.242320731575575
0.22328369904703
0.243588348186834
0.272740845192097
0.219283877083566
0.037463174592235
-0.200803804412191
-0.3981557269018
-0.491774606455043
-0.419525760045469
-0.157566000698637
0.210618922033044
0.566087846546439
0.855213436284822
1.04125075053943
1.05072023506611
0.864691987829076
0.592028124779602
0.391229282769042
0.349568261365607
0.416126734347419
0.42862168591697
0.283243385229973
0.0893556722466127
0.0414413310057519
0.14516057651089
0.215479980303933
0.135571617863058
-0.0332615840765696
-0.18417656883656
-0.267379343152109
-0.28207253690881
-0.272829609655643
-0.290168845654107
-0.296452709826102
-0.204571944013971
-0.0388310115878266
0.0726386484246952
0.0757360136953088
0.0331506564575771
0.0120052103100801
0.0346831733748214
0.0849384064361408
0.0879475421259597
-0.0344830384351429
-0.25018403623633
-0.451060732342476
-0.597565035734752
-0.727020399162325
-0.862021479049677
-1.02451888332221
-1.27053670526115
-1.59244660691361
-1.86249493069039
-1.95399245235795
-1.82010893492811
-1.43588701190694
-0.827872745962046
-0.169971043607488
0.329878694718985
0.642227657817806
0.877548164437443
1.07993116627747
1.18117998540904
1.10059103543743
0.802735708299036
0.330160487164361
-0.157398735347821
-0.442646342412034
-0.389088464788879
-0.00558061586612
0.561979900696862
1.06169434845097
1.28602554563785
1.27329875651531
1.24222192868709
1.29235672318682
1.32097261635201
1.23276120798781
1.05041590117657
0.829183642029393
0.618930543466896
0.476160090852843
0.398314017070221
0.306374792706287
0.16304328558124
0.0286914880452568
-0.024901832414953
0.0395671859114724
0.244397879811715
0.539016060625491
0.763619940453796
0.800110723958674
0.704714334848575
0.584604891831992
0.431168386168834
0.166054986870826
-0.244768526788268
-0.777561733594794
-1.35969952216705
-1.88660812081555
-2.30703779286251
-2.65051698955616
-2.9119731445319
-2.98421002559467
-2.74755231291639
-2.15372162067192
-1.23907581060448
-0.174679611770617
0.723883291468386
1.18640040709348
1.20404027447565
0.981122949713074
0.70689091174204
0.424434426102494
0.0634176956483492
-0.415310284931886
-0.85626925958171
-0.974342869455255
-0.697187079184014
-0.328579952278702
-0.223307613442969
-0.38927152592286
-0.511123164664778
-0.268363413072876
0.412811518907014
1.28063722295475
1.8864904857787
1.93140128692586
1.53607782516971
1.09715593672339
0.902071514809819
0.945255504194817
1.02540361357387
0.92793222076482
0.602138831943203
0.22726771081727
0.0269450966536984
0.0240166851942129
0.0749769361450189
0.0839373013190076
0.0623684911089066
0.0521638078286378
0.0932480855552775
0.191673684434653
0.264441135573337
0.208534048287375
0.0412957078218995
-0.128558850101646
-0.243205254283328
-0.298134410929646
-0.273535056363081
-0.193961013635684
-0.163785241952866
-0.217008793879505
-0.242661958843513
-0.161563198921513
-0.0536209282941814
-0.039923345659549
-0.148697452371741
-0.314334954991292
-0.420746076954526
-0.386911971132474
-0.277066779191134
-0.242723795743912
-0.313202536115615
-0.359792128392797
-0.293872946033961
-0.170316036556974
-0.0796128452638774
-0.0601243671659436
-0.111554757989362
-0.191563114853452
-0.230079413142441
-0.214852497724795
-0.196746586972609
-0.189637332210666
-0.171735202671774
-0.162330033235871
-0.160258678737412
-0.0642075942704926
0.195803789526663
0.514024328148386
0.717246041525348
0.739840417285913
0.617037064486379
0.410975606024158
0.202406654419547
0.0562880588383144
-0.0354912710607253
-0.104517080272659
-0.134984157321856
-0.124550569919183
-0.134285372484852
-0.184544876999513
-0.199416796327868
-0.134831729813072
-0.0642659558490964
-0.0920623762642863
-0.257851723384442
-0.50603350515028
-0.680507177849019
-0.625432034142689
-0.370226433517282
-0.139334854166133
-0.128004623750303
-0.331472930120945
-0.583274379247533
-0.673238602156917
-0.475328680513886
-0.0765800274425591
0.265975906899225
0.388561887418318
0.362566302693121
0.31708709743005
0.271352395662928
0.22132666069744
0.230047714174482
0.345885958429726
0.539349118544045
0.74001222479352
0.853477327286954
0.790623490063738
0.568047286087642
0.324085189424394
0.184363467890613
0.172688264112246
0.248674010648911
0.333536501088098
0.319384455265096
0.166608858102017
-0.0304689206085358
-0.160808694994241
-0.218988659063044
-0.244185613549067
-0.237896047653704
-0.199128133052263
-0.136042156586816
-0.028586370202219
0.114964985626725
0.205036081488214
0.184878943197491
0.127854368358233
0.128327930990554
0.185381661870872
0.260394471348498
0.342444990138688
0.403760990676337
0.39317312192429
0.311398504771434
0.211458343062987
0.119140107330553
0.0151212757751665
-0.137004644703784
-0.384643535033616
-0.733415882261091
-1.08457560051586
-1.3296082122472
-1.49055378108251
-1.63988560705304
-1.718040806316
-1.55324614008779
-1.02810030760269
-0.17428335704681
0.806187436757782
1.58685934377268
1.91457173852253
1.80251743588466
1.44409904575365
0.976461218586486
0.447829871377549
-0.0568278228571978
-0.428100942795092
-0.646974449570458
-0.786087614725362
-0.93433147067354
-1.13283608492435
-1.27163007865649
-1.07479139962173
-0.373902578913988
0.596193457187926
1.33185422895521
1.49804850178705
1.1495912703772
0.588664572500615
0.109849144036041
-0.166191399285858
-0.300165662045265
-0.391372904193149
-0.455978804725255
-0.476731837748457
-0.478578942771764
-0.462511145031051
-0.364371709841498
-0.185799509623997
-0.0629174061158211
-0.101417112765612
-0.221358598802974
-0.224041198397816
0.0301017759408947
0.477483083242529
0.832043017144466
0.799516496171877
0.383969760564193
-0.0973000078786886
-0.332259638080357
-0.261004298383452
-0.0322136828728699
0.151753512465318
0.155451799468322
-0.0042159463917294
-0.185096276947088
-0.266612313118613
-0.208534293030742
0.0189157767503436
0.39749707427859
0.74585130414925
0.836362839857794
0.650265358418354
0.365249961543092
0.127070121781847
-0.0216197292182769
-0.0646938987898556
-0.0124297984672014
0.0858519386600321
0.212886143516381
0.381779940174897
0.528359483898126
0.530318445866037
0.377611615158356
0.221975401673748
0.227537882699355
0.422847667905192
0.669649923457495
0.753235131899983
0.590658142348273
0.353834501399407
0.262262765856463
0.281622090049768
0.186906674987804
-0.113556361266467
-0.477739425188723
-0.720495850152834
-0.790310437092586
-0.800169249741774
-0.945757170791498
-1.33251057165245
-1.84913534756963
-2.24571594975189
-2.30423503802495
-1.925347196601
-1.20547107598784
-0.502542034715682
-0.210260231101482
-0.314254842352685
-0.348796868622478
0.071217785112468
0.824898068040855
1.46289296192693
1.65830829622514
1.44418974845259
1.12666215499671
0.97718387069036
0.962086064912581
0.824995069006385
0.432819997934298
-0.0816341636176331
-0.513514710197836
-0.773064765078576
-0.892450774235046
-0.996640250565422
-1.22574831650086
-1.51286411867253
-1.48505048346187
-0.785120423287115
0.476778591355101
1.68943997379809
2.19410898440743
1.80470944496459
0.93507727158736
0.201301055785843
-0.104308161562464
-0.103890682092277
-0.0113642185451
0.0760056725220628
0.120475525499743
0.133013978377673
0.228233068111165
0.481732534199369
0.740446276423106
0.767445994337595
0.554317294109712
0.315006758746243
0.199796715763591
0.159200403589174
0.0569707549160757
-0.173434519462929
-0.449816292249853
-0.604113689215693
-0.572539992692704
-0.46851205389989
-0.408981537707977
-0.375685971268184
-0.314453370904817
-0.241679716102485
-0.182240432525281
-0.11675927283844
-0.0380794111228477
0.031887867265516
0.0904559806601717
0.145340503128662
0.191049864214034
0.247354353916738
0.334711644809449
0.371598459192051
0.235291946309733
-0.0345362115216962
-0.2448425122147
-0.278221300656613
-0.171844613923027
-0.0069916591058473
0.130829968666201
0.14688129141561
0.0345210720075958
-0.0824270115802047
-0.09738735102896
-0.0382483027627959
0.012069863102675
0.0188805199567256
-0.0123668414172563
-0.0591940436585975
-0.0845565923030578
-0.079770873262819
-0.0808203616238092
-0.105925342200264
-0.147015080124886
-0.237284856882462
-0.418823259257904
-0.638810453436634
-0.785587601358681
-0.809317786509062
-0.729249868349616
-0.58989101253841
-0.473576156110822
-0.452100090361697
-0.463382225378527
-0.339674256308196
-0.006129236433421
0.431419998041723
0.805799388013163
1.02139360845382
1.0902597872737
1.09526143764326
1.07538071039028
0.941926908883465
0.611847785713453
0.201924404285838
-0.063665687492802
-0.116489355917078
-0.0713291488453879
-0.0441948415143668
-0.066164876720951
-0.0984520867970919
-0.0406103593736509
0.178392008823515
0.461881237054153
0.609494167939578
0.543685631279872
0.359069217258703
0.158798705703206
-0.0297995445065218
-0.202996750937517
-0.368033920195823
-0.547954895173711
-0.710570364178329
-0.756157472316957
-0.633634898565124
-0.396527605853664
-0.143097415639058
0.0097237917246293
-0.0542738547424298
-0.338971401621975
-0.687800416479079
-0.925596224650126
-1.00041272156961
-0.969956824105825
-0.929422775807388
-0.932588384941188
-0.881692190053056
-0.548100974788035
0.163276780834893
1.01826874881708
1.64377028206086
1.85333591355515
1.69800801584222
1.31211235761984
0.822517032454857
0.330678491862798
-0.081677669086914
-0.302814520891957
-0.217458792835646
0.130790790225814
0.500074288699812
0.668552950715962
0.611261548165469
0.434434709182371
0.265862057387773
0.221006816641587
0.327404592869661
0.469946717670107
0.523599699896795
0.498557441819132
0.454100163110778
0.372128921016034
0.232835635626452
0.0971771844710939
0.0107170760797253
-0.0611454848588069
-0.144946619989181
-0.217125194558606
-0.263871478211798
-0.291361764616114
-0.304371170420768
-0.339911331310661
-0.461437242679643
-0.679956802726581
-0.955346497996026
-1.27768231393136
-1.6509032100127
-2.01615171718636
-2.30193866048517
-2.52595525593782
-2.74834088137427
-2.93872007867857
-2.91371106534114
-2.36175494996123
-1.03144345754771
0.899216749150714
2.70455071815012
3.61729991069825
3.47164222727706
2.72069230415657
1.92441637367971
1.37679177306199
1.09426452057667
0.93919985713092
0.766313617772524
0.558914503628103
0.416750328241843
0.405890309859166
0.486929091467688
0.571091388299109
0.565969165238466
0.413052166357871
0.163977093405101
-0.0411162026784195
-0.128045681222112
-0.147638474830748
-0.16951139746492
-0.211306500542512
-0.258693880574203
-0.270589242395975
-0.203017973916978
-0.0815861854651938
0.0173440097131912
0.0809198711295206
0.162880070953268
0.269181442140161
0.342052818483191
0.344921198814937
0.273430070511735
0.134267591740098
0.0004183434573666
-0.0085692803916068
0.10174566076968
0.163318142717818
0.0655434570740011
-0.104251516816692
-0.192477445558733
-0.143101548855396
-0.0231014477149501
0.0186301608377897
-0.156399762428347
-0.548877601935988
-1.01738195267796
-1.41774547259868
-1.68624509926289
-1.81347485575525
-1.8365227668754
-1.82215269387636
-1.75232300802879
-1.47162161973895
-0.847722275531338
0.0523460143765562
0.979150806139449
1.61912626961007
1.73653865631789
1.36568295594285
0.846618606167863
0.520366055935496
0.425586540209799
0.394397429382372
0.326175104650165
0.240861449583233
0.179685992740156
0.171538208421839
0.220726766730362
0.27303922279414
0.264656783681125
0.208816083973068
0.165709471589365
0.16611446747629
0.228333995441649
0.366752884143839
0.514292194051156
0.533533671346026
0.357999937755236
0.0441123450278642
-0.297922954797311
-0.53726475643223
-0.570058120079719
-0.441048577876764
-0.319773144081707
-0.278072504012764
-0.213137745727405
-0.0389228737904046
0.191048409048306
0.390049694878332
0.527623551572675
0.58574700473773
0.544771220346983
0.428399096863388
0.287120659617229
0.15804094314778
0.075463241392582
0.0531500928663523
0.0492681332106396
0.0397506984820016
0.0905810731258529
0.25001051691811
0.43945159720306
0.554243977945668
0.576789714174744
0.514298959222857
0.35186136077241
0.128355412834897
-0.0729222506939792
-0.247254864962455
-0.460971758416035
-0.723764056951621
-0.990280894095602
-1.24785977628886
-1.47129763089867
-1.55306917526321
-1.40858105739192
-1.08757899805388
-0.695654233092842
-0.29200621384763
0.0866215105522176
0.398572473362902
0.6185248848141
0.724069583365582
0.695806173993869
0.576520154868764
0.458276480119951
0.380866176156459
0.322395548167282
0.27897384484131
0.2525386388052
0.19215086394091
0.0520244914897936
-0.138283345148687
-0.333986290462436
-0.508249223972151
-0.57203775209755
-0.420355805498328
-0.132364563535178
0.0360406339225042
-0.0723493776132477
-0.372486532049708
-0.679517410306163
-0.873483776527531
-0.928243960748041
-0.86877826275886
-0.707120498572921
-0.422993795347962
-0.0480835944159465
0.29067805765891
0.504876587976863
0.646321398792116
0.770197666603123
0.804955207456457
0.687863478762057
0.5147878455069
0.423369727606659
0.42744079670425
0.449927560235345
0.414159360986779
0.280415269709448
0.112997751664847
0.0875588282890503
0.307394763047545
0.656540188524339
0.928938213357258
1.03775662269437
1.04354426991635
1.06464590383603
1.18678227049759
1.37019298394377
1.45093155474699
1.31215701981744
0.999681016079111
0.598467201893438
0.11345098796377
-0.431442371378917
-0.906362145123048
-1.18370528418341
-1.23944582754036
-1.12836138246682
-0.960744803580183
-0.866366512022161
-0.875306865997636
-0.894313671269568
-0.866751165075399
-0.848549465287858
-0.878607035366518
-0.914571066106011
-0.945459468808748
-1.02226655687959
-1.11957335591067
-1.08344803629575
-0.775728345441528
-0.23664426185453
0.276794707672886
0.425844847082645
0.0859567549059113
-0.470187514419877
-0.806558982849354
-0.735889037254626
-0.401945745406127
-0.0430467357319355
0.183489833795916
0.235121972113842
0.189271774866101
0.170388816996059
0.21751731736034
0.290422105097678
0.393934633888724
0.577466677582009
0.821698087671994
1.03848974129152
1.16375992752219
1.16965290530967
1.04308105050325
0.823209144807639
0.595477775239511
0.420654250006861
0.335833676067466
0.37504883108483
0.483471638284214
0.494907871687647
0.310927235834838
0.015184514864392
-0.264879092320076
-0.491058722657804
-0.657462212788072
-0.736386004745333
-0.729017947490035
-0.6624295282169
-0.526446240435635
-0.305382018722796
-0.0414010577255784
0.213651212394012
0.44224570734141
0.598523061644744
0.608308945023037
0.476591822509293
0.285888755031047
0.092074844010002
-0.0666252418502545
-0.122872833915763
-0.0736817262295885
-0.0392474001491212
-0.117222339750911
-0.267324542550728
-0.410178738380633
-0.532561054548285
-0.648361432480647
-0.760475053927285
-0.880354279546987
-0.992966564235228
-1.01696496275291
-0.877393974201771
-0.575941098789693
-0.148964513045376
0.35040549524853
0.802235629451962
1.07006641402324
1.12199943606896
1.02147611734371
0.836747840016787
0.619806587589857
0.386415445659615
0.0772575183120865
-0.340433837048855
-0.719223241504774
-0.827771985595195
-0.611414046127426
-0.227062100580133
0.149772741685756
0.415253204643148
0.500829630123069
0.413267842570807
0.272389430135102
0.191877966078226
0.171706451963233
0.157247000241955
0.10855826986725
-0.0080008736674903
-0.191616675597411
-0.376673335143741
-0.498133848479164
-0.527792587827812
-0.419020040864188
-0.14612271152477
0.171765014685723
0.339083135957925
0.309798862633259
0.217656579455066
0.187852648259802
0.244749582313965
0.370723070433318
0.526370237114241
0.641923512431661
0.669288251639772
0.596778408074119
0.404873460666822
0.105493761254126
-0.204545384619996
-0.448712967487494
-0.663000590196478
-0.853331177255723
-0.851782413343882
-0.475057489012692
0.195733026061769
0.787039739939628
0.909040408203817
0.489309377673639
-0.139350512683748
-0.537921631777891
-0.579025366325866
-0.487970606995479
-0.479192679989478
-0.5307683915629
-0.543804709311689
-0.496011500459859
-0.367488991734243
-0.126498065638468
0.140527992294375
0.253182410075725
0.135198167395005
-0.108086086608128
-0.286765670997079
-0.251177241307527
-0.0080906876218221
0.24433593458404
0.289370413427588
0.110660202858216
-0.139106288429577
-0.328851472516541
-0.395400947775312
-0.288853291777507
-0.022783694570535
0.279281760461445
0.492410140235919
0.580392534137659
0.543466300448707
0.392295980781487
0.191533710525534
0.0188405809693548
-0.111301247147257
-0.22047612859901
-0.333377945046718
-0.501711002614729
-0.730207106389847
-0.853663350305849
-0.650642585928668
-0.124241070684285
0.463257417616695
0.852694039041548
0.974050695693493
0.903520273456263
0.764613300009591
0.648051080301211
0.543900370872108
0.389160794853233
0.193004490958257
0.0228144042666621
-0.106466130437263
-0.210410954513049
-0.261428868237624
-0.254693592972047
-0.263123802622877
-0.32647046562595
-0.381327494905012
-0.362743298964395
-0.267072602214816
-0.0967895304255311
0.127520993582775
0.309644639303179
0.368084605905528
0.351622711528776
0.344794071121783
0.335132872913017
0.292383883377431
0.273080433004724
0.329279696578307
0.40887025643345
0.4253093557691
0.34979718804741
0.210335521215366
0.0592718776085459
-0.0754868237680499
-0.23363500714156
-0.45679652956872
-0.680096888598998
-0.784057731135334
-0.743905875107363
-0.627337449636371
-0.481975819250042
-0.337402506751839
-0.261959754924201
-0.298154547973114
-0.396631917473083
-0.49306536337272
-0.567490934115638
-0.591561048375757
-0.533953431563804
-0.427764073764463
-0.321707863519087
-0.204294013853774
-0.078972377740254
-0.0284159620360415
-0.0981241939036961
-0.203591334386499
-0.2317331883677
-0.153271655494673
0.0002506833095495
0.1813967511445
0.337703796743163
0.456211188759091
0.579592524540448
0.724947495295465
0.85150543686022
0.94499509839386
1.02727202708925
1.06299790619914
0.98835051565313
0.833467157626275
0.691835115346939
0.598664388461251
0.535387000863553
0.477391474434708
0.362938619431494
0.126439846573568
-0.175199646398625
-0.384648813417849
-0.428428660819775
-0.367727098803283
-0.264296151769159
-0.119195250887363
0.0562679014273103
0.207153976865642
0.261885059299774
0.160372550128043
-0.0713709913566904
-0.273455783169028
-0.296450349253254
-0.177706854935976
-0.0592692428662922
0.0061578985449456
0.0464284841855219
0.0563179407443788
0.0128990684393808
-0.0651827561431403
-0.144065429245888
-0.194326966545826
-0.16991893355169
-0.0541303665802376
0.0731589873788535
0.0884385268817155
-0.0725911717848291
-0.400085440758601
-0.824026127212285
-1.21758373810958
-1.49426569842671
-1.70390156288015
-1.90384835437277
-1.98739407086921
-1.8204580069989
-1.47924013919946
-1.13538006986534
-0.751327818967222
-0.10760371793883
0.845160257566108
1.79061075226624
2.24423260999221
1.93893102912311
1.05223926290122
0.0572806283796508
-0.67186254152794
-1.06057209866218
-1.1549014153556
-0.943823150296407
-0.485090195890425
-0.0328346352570049
0.150845489290086
0.062314105268345
-0.0427630085012695
0.11088884081285
0.546753365517718
0.964020475878158
1.03034961756615
0.790499710550389
0.646102851081979
0.8803396578207
1.35442178959397
1.72100336317209
1.78089489909575
1.57734599175187
1.27839120642994
1.02418195232634
0.810625767655647
0.518070060006575
0.10625524173771
-0.26980228811961
-0.402370945823735
-0.25569718312608
-0.0125858913671629
0.114221990431276
0.142444269402168
0.323561894811226
0.764632784880065
1.14740749213495
1.05908771533334
0.55711370845603
0.152750851995616
0.232658702853102
0.688507948003231
1.07782765123971
0.973019796945612
0.244172347166762
-0.781767971285757
-1.49312158695414
-1.50127090494507
-0.964537899359806
-0.378438277935397
-0.167373054685095
-0.478096909967009
-1.14595267840551
-1.75212837466441
-1.84322039710879
-1.2424342674601
-0.218914582600595
0.632417644001254
0.779170929406613
0.163049825930199
-0.769089161141996
-1.49597441327648
-1.82392209663057
-1.84039998147358
-1.66475600310778
-1.40558119376933
-1.22845900906333
-1.27916743194683
-1.56840484597765
-1.97464611836959
-2.28276321474559
-2.25690465401241
-1.8286523149575
-1.19779855368321
-0.635527832512184
-0.234591184190579
0.0851941166279324
0.430671825655326
0.849802131400537
1.27720351849756
1.54223257686775
1.56053869493863
1.51623566242382
1.70707615777463
2.19739916749855
2.72503702360342
2.93072280940244
2.63114904997358
1.9558664353846
1.26136958273358
0.820203018816618
0.603735399341058
0.459570542646632
0.397443521067394
0.532365483051695
0.823876005048733
1.03972936546547
0.966794624203014
0.594297335120961
0.122692809304084
-0.192996927991506
-0.253056868390524
-0.164881558031658
-0.0845721351297179
-0.0881612425724697
-0.203372147525054
-0.412971981649176
-0.582516141095888
-0.551497788383116
-0.338854413042573
-0.107561508938601
0.0531859660676498
0.13568366715078
0.0702150327650889
-0.217927539422496
-0.64752450522531
-1.03342851725169
-1.25699565509124
-1.30151372586034
-1.20507240018737
-1.04627629464913
-0.896151510681012
-0.750309352809982
-0.569165523159906
-0.35725734387259
-0.139945679922619
0.0649867490452524
0.200271244417002
0.207144477545852
0.142623051306238
0.125182805087007
0.168860287588074
0.207531747187623
0.222537569542309
0.201955557691978
0.0735135226539933
-0.169630039444619
-0.369587793859482
-0.350480344428263
-0.0886646601607516
0.311959507465234
0.709542181413619
0.971144208487931
1.04922261908416
1.02558911529526
1.0056020876145
1.01089357115162
1.02094564029127
1.01549381154916
0.940049703627758
0.754687106082098
0.520421271326599
0.31627231442017
0.121738709618146
-0.102903960751925
-0.316768038563765
-0.485171156196883
-0.643863622980286
-0.783739401958013
-0.797821094779418
-0.62486309248488
-0.351348003485328
-0.135301524596185
-0.0994056368224524
-0.266544272389316
-0.51779052228093
-0.680888458954582
-0.734515043970048
-0.828705867796183
-1.05102738360462
-1.2925226448652
-1.38154795598082
-1.2499965094381
-0.977056302218288
-0.745516280625182
-0.695499018898272
-0.760892142918047
-0.733379323597299
-0.516382181062952
-0.206457135880627
0.0848990345452386
0.357818464613547
0.653829691358426
0.970165899057835
1.25724346085501
1.4370675893346
1.45719725147259
1.36240997141297
1.22946651153137
1.01163722759213
0.568735893472864
-0.127514313510217
-0.917908543923705
-1.57443700126121
-1.93713930185101
-2.00836110519205
-1.96077249332098
-1.95664671020298
-1.94700218751396
-1.77168938705677
-1.42927239854179
-1.0709026647497
-0.743985687392055
-0.34108688276587
0.179219391162517
0.687805551755986
1.03011429027326
1.17874311461555
1.25132235752941
1.42608504984811
1.79350142396334
2.26823125775961
2.68016542577292
2.91371016566279
2.93547747176476
2.78788388659582
2.58599765432772
2.40169982540192
2.14433018444031
1.68399302634766
1.05768711744334
0.397383015375783
-0.286405772904506
-1.05850928334081
-1.84033366234387
-2.41687603633263
-2.63704630627502
-2.49900062227732
-2.11041702439811
-1.63469370868747
-1.16437435256104
-0.600424639896697
0.230235493201101
1.32760937145421
2.48754637562806
3.48681953348262
4.2088146985427
4.62358287224615
4.71697217026278
4.44382198402051
3.77249060231475
2.79355594027952
1.69411332070175
0.569210523143093
-0.608134803322039
-1.74761951053774
-2.55124591485954
-2.80599881905514
-2.64013039216642
-2.3898311614023
-2.32514562468422
-2.53605230552209
-2.94302601699186
-3.38550974066051
-3.77858644429165
-4.1509779317901
-4.48893436330095
-4.65514213613008
-4.54146404163791
-4.21744711928377
-3.86856867983245
-3.62969106094331
-3.46170239199965
-3.13790002303312
-2.42728291935567
-1.37823758263015
-0.331140962580367
0.430145384779259
0.935040778232933
1.39556199060637
1.95856308737117
2.60454710455739
3.15085466023953
3.3742969954611
3.25865302770628
3.05888694422032
3.0006826663685
2.99559410676975
2.75299868104202
2.09857903520758
1.13162040641719
0.166083054888388
-0.455567311170537
-0.607902951282536
-0.491084801265176
-0.437242511383259
-0.602789595264733
-0.845597418369994
-0.820425843327794
-0.223748838439056
0.884782780721217
1.99905009991213
2.56739095760304
2.48048113767426
2.06357607635629
1.6776767700363
1.45779510656792
1.34251201463518
1.21530171085382
1.04808268346509
0.947342136244682
1.00261969228495
1.11908169749176
1.11800028480991
0.975531262569911
0.835817806303204
0.810189331404103
0.857028619343411
0.823852175360122
0.565515234530617
0.0886567500892085
-0.413604658771119
-0.742180350467086
-0.876367307683942
-0.9358481654211
-1.05596454181276
-1.33378291842588
-1.75138025156604
-2.10894704317143
-2.18125186625921
-1.9760195950486
-1.71734604426706
-1.58397124711259
-1.57694453797783
-1.58985959620678
-1.49319676603989
-1.22932622475487
-0.919202685328869
-0.770402202968903
-0.825120772404779
-0.928978635576808
-0.953265092579044
-0.891960444180845
-0.767910952598088
-0.608426088359248
-0.485523875638436
-0.456537097479774
-0.496191832300062
-0.538776112735759
-0.519285583047597
-0.366772373480673
-0.0630309834176844
0.295831573577235
0.601248209762192
0.866265341061226
1.1569105425999
1.44281793660274
1.60946298488134
1.56962701629297
1.33001391906778
1.02206789101651
0.840407618523427
0.841938328893053
0.854720296234142
0.680513725903969
0.306186127061785
-0.15107964708003
-0.580776923942881
-0.893469384002064
-1.03171180433588
-1.03902036019037
-1.02692401238755
-1.04377934802313
-1.04084786556132
-0.939321286970842
-0.667587072222206
-0.202709612882355
0.364581298495841
0.894126232771082
1.35480522262877
1.82103532035449
2.33645971575886
2.89951241437671
3.52012546906587
4.16044614087165
4.69283162204128
5.03168841544602
5.24465362625646
5.46205538128944
5.72525063135037
5.93371382871517
5.88899710646157
5.43392364645888
4.61262117517714
3.62413634008028
2.58475456738328
1.47383313928089
0.335105639471363
-0.697168168692467
-1.65885873413667
-2.83756835343456
-4.4880912395951
-6.56874386543693
-8.76065950971772
-10.654526874133
-11.9731803592524
-12.7129881216966
-13.0492908704151
-13.1076192946357
-12.9045649148731
-12.4603946598021
-11.8198237410802
-10.9785669074812
-9.92026493978412
-8.70442139273066
-7.42062459416371
-6.11025313193059
-4.80007847938455
-3.50950529092221
-2.16387514426354
-0.624448700647864
1.1320005984865
2.93939514012133
4.55770417883886
5.84091472224517
6.87075687160248
7.92648522579373
9.16874728909924
10.3472015038353
11.0224875989464
11.1101616851757
10.9963513520826
11.0498979955119
11.1844054536993
10.9666724191714
10.0653779047344
8.59538038008418
7.09820710261157
6.15557445487368
5.96622248029296
6.29349278903802
6.74023780901101
6.98886154206857
6.89706479163238
6.52626919568666
6.04438161583497
5.54531972495166
5.03513658892771
4.57905409855304
4.31858908759625
4.33745051298053
4.61228807004511
5.03968957032737
5.40125273712216
5.39458620152779
4.82675526815306
3.7054137827428
2.08287073214552
-0.0563530404611814
-2.69713178565952
-5.70110990369163
-8.81655365588526
-11.6864800976873
-13.9451679255236
-15.4756836815499
-16.5190321215989
-17.4065885508216
-18.2273436884365
-18.8145297528922
-18.989991457255
-18.7748769782458
-18.3917938948732
-18.0468677744981
-17.6868769081934
-17.0349049088407
-15.8807403551086
-14.2291310227482
-12.1767383134537
-9.83126988674115
-7.36033335965911
-4.91113999133287
-2.46504886057187
0.0546672955239686
2.57045103226757
4.92247269585108
7.09585980055454
9.21716080987565
11.3600518131972
13.4315864761707
15.1939438531382
16.3896840154726
16.9420823362141
17.0204078037457
16.823853471462
16.3682254355643
15.5776308054025
14.4767492142581
13.1732685755488
11.7287390341353
10.1201052447548
8.28890202729691
6.26623134929809
4.30667165899043
2.77700965762233
1.81188352108902
1.19475100307826
0.641218484997025
0.0718410663580839
-0.41343641998378
-0.680101460408159
-0.663173597384173
-0.441517188021035
-0.18583527908663
0.0387392674087463
0.31778220354404
0.659399949202796
0.872554456217238
0.765363525574548
0.312312731071516
-0.423873342358884
-1.34518206333544
-2.25708250456455
-2.95177801508694
-3.39653270267348
-3.71623590286758
-4.01606716173439
-4.32498520922093
-4.64715778820324
-4.96761994991334
-5.25957612271691
-5.53767948812829
-5.83782761850465
-6.12096983179132
-6.26460435885589
-6.15299718361827
-5.74216158056558
-5.10149691259975
-4.43538533115768
-3.96249206482856
-3.71906674203279
-3.55590771982868
-3.3132077050795
-2.90878046876136
-2.32979198563058
-1.65581657909151
-1.01450542383271
-0.437717520306094
0.134742815953859
0.674846238922022
1.0392371069844
1.16149677644985
1.13846648557563
1.11475701994085
1.19684695387429
1.43642680383967
1.75812651794788
1.94609213620149
1.8115367854865
1.33005245109549
0.595936598019896
-0.231013889916695
-0.923271583471625
-1.28379507050935
-1.27953768979282
-1.01118507913615
-0.605059525498337
-0.19506715814238
0.0833376700677771
0.160848636090387
0.0562537375709709
-0.161727558612721
-0.371199730422244
-0.413189920890466
-0.221999985559783
0.0876302508253145
0.328931958745613
0.396684390007135
0.323489107650139
0.308254291052129
0.66093019795909
1.53224417860006
2.69037993866452
3.70024841884662
4.28661347335302
4.43609462041082
4.2753244662329
3.98711097971791
3.75690507724603
3.69676006420783
3.8370644100155
4.14458957492779
4.46502948573911
4.55587714765093
4.333081262461
4.00685893557366
3.84767548073267
3.91646169554898
4.10675168553233
4.29948855109424
4.3977434865234
4.35699319307613
4.22796266748168
4.0644000675999
3.8215464004289
3.42983350831054
2.87923855081291
2.18300406101583
1.39203655366931
0.64096423028379
-0.0179629173632034
-0.811255452354108
-2.03901291907738
-3.66994250241501
-5.35251024333194
-6.80298041001718
-7.96574744457049
-8.81701911955322
-9.21739464566595
-8.99064933493125
-8.09701496730036
-6.78614580170225
-5.55862055487052
-4.81999715879746
-4.53749607027927
-4.31158444958972
-3.77519931098335
-2.95631645446566
-2.4015588744541
-2.89324874237789
-4.73522599923466
-7.21578581519901
-9.01925687954222
-9.32161551822587
-8.39853796522306
-7.17920852135608
-6.37514658674607
-6.02439593523388
-5.6588016284849
-4.78568563409193
-3.24347712628319
-1.21617129834407
0.896623879616816
2.56402325630414
3.35018354498053
3.29253323479284
2.89791024699906
2.57919398250248
2.27579097598384
1.81638594923667
1.4416639484479
1.65211054337411
2.54528130349663
3.53888520024382
3.93339618667251
3.77856235242033
4.03063536627105
5.63235741865962
8.44619635197001
11.3162980092763
13.1978663348363
14.0051696506472
14.3652509180716
14.8353075404109
15.4414342415254
15.7488992659923
15.2465659786869
13.7751117568035
11.7158522035547
9.77422950510834
8.46963040494935
7.66411828948551
6.54570536291991
4.27313114720438
0.824499165783051
-2.8726114045727
-5.7734728300466
-7.57943005559667
-8.73344242597544
-9.81604978006149
-11.1261610292023
-12.6563767312897
-14.2111972783414
-15.5101480156352
-16.2587946096396
-16.2356722149649
-15.4413812305253
-14.164340801406
-12.7979346782372
-11.6060917461336
-10.7043934581889
-10.0828387264201
-9.45237418300394
-8.23405132473633
-6.01111957262964
-3.02492650937543
-0.0868185633323883
2.02090896943704
3.0920903562273
3.61473665804475
4.37187464969523
5.76632130683038
7.50885625527873
9.02042600814962
10.001067054906
10.5110070765627
10.7269502704088
10.8103008731427
10.8492775384116
10.7740485558382
10.4433684182187
9.87443259980622
9.24899631054832
8.66575789218635
7.98753423984234
6.87143209309961
4.87537273289858
1.76158153121304
-2.08509595717139
-5.71556628804299
-8.32199229053407
-9.81496508100426
-10.6527331031322
-11.2956202053011
-11.9181033063626
-12.4793614555282
-12.9118801844951
-13.2188844654421
-13.4213113084649
-13.4850807100406
-13.3412683851393
-12.877062437409
-11.8538403231707
-10.0359150889418
-7.57605123754535
-5.09127956594418
-3.10715093369115
-1.5303413627988
0.102059054420151
1.92195495530806
3.49821227152619
4.33237543370321
4.47094839663479
4.54553298748695
5.21975420068804
6.70449092380905
8.84764711008841
11.4660277597496
14.3664161723125
17.2091753354986
19.63535863618
21.4590016745381
22.5503423435003
22.6899738231816
21.8000114982289
20.223476150967
18.5344195925376
17.0859177880125
15.8163795189281
14.3647898377354
12.3156943195481
9.52894005706872
6.33724133211383
3.29776394213836
0.701916852781017
-1.6049397775838
-3.97417403781936
-6.60785346019167
-9.38349505957937
-11.9564764426487
-14.106766572975
-15.976882166246
-17.8260712883532
-19.5521027897465
-20.6498004209942
-20.7279237574975
-19.9553876597842
-18.900117985101
-17.9401180719937
-16.9123110331082
-15.4453217684712
-13.5936830858764
-11.8981348897275
-10.7795427204897
-10.2090395672348
-10.0671196674657
-10.3615051218682
-10.8391774072677
-10.8446714650139
-9.9745081772055
-8.59778841284266
-7.36102811817233
-6.34807153966345
-5.02994334074643
-2.9361317222406
-0.110844278878739
3.08866356413986
6.4339962908778
9.89210948416111
13.2602447990782
15.9853488285689
17.5837521781251
18.1121858133057
17.975528305182
17.4002170087706
16.3892563230815
15.1046650610502
13.9756439007958
13.3734763292833
13.311938391339
13.4584192751559
13.3484792925842
12.6110634070249
11.0778394180669
8.78600694517999
6.00843659182064
3.25173910681716
0.948624480715526
-0.987314522615488
-3.06676246507359
-5.52244172279444
-7.92537734948072
-9.68095118036524
-10.7205290432629
-11.5216996917875
-12.5609899891112
-13.8878061454684
-15.1577762873064
-15.9173359303088
-15.8030735155382
-14.5867951705768
-12.2439454566946
-9.07310253095659
-5.60944224412288
-2.27266821025496
0.839050963927683
3.73610395657277
6.26713801863789
8.20623239959353
9.53555564286718
10.5532651153535
11.7116029730822
13.2652143338831
14.9722102709489
16.2406086027735
16.6698762229291
16.3339566646522
15.5168966537447
14.4197160254522
13.2067806276091
12.0617483247061
10.9981639910957
9.71923285215702
7.78819164816402
4.96611120524372
1.46356936425251
-2.10939776553106
-5.19017446719543
-7.72803278008385
-10.0820064005981
-12.4921747674161
-14.8430359099456
-16.8485319635691
-18.2051433299832
-18.6847345891126
-18.3974074763873
-17.8985005580125
-17.7602324405958
-18.039187520429
-18.2910088967547
-18.0415140745898
-17.1691693395985
-15.9215617066339
-14.6091999728948
-13.2218273867646
-11.3838908703953
-8.78151428274029
-5.57126992813269
-2.28316704889494
0.614698983845672
3.04145159407613
5.31439922973235
7.83365831518388
10.6727977213471
13.5640790264447
16.3193926903097
19.0183231040295
21.6778944564954
24.0552792703387
25.9614525640761
27.4546096982565
28.4876399894053
28.6552104310452
27.5860025090869
25.3842016657227
22.3773114527372
18.5252176951431
13.3913342729193
6.81706567501743
-0.494524247994196
-7.24038328470387
-12.4201609795681
-15.9172897776927
-18.2314968618966
-19.8538771740134
-20.9533555467954
-21.4525326280959
-21.3067092369533
-20.8266938522337
-20.6941657965213
-21.4436456816262
-22.8918038715937
-24.1977137599137
-24.4681129500184
-23.2738311527095
-20.7957658944355
-17.6684281460104
-14.5054563095641
-11.3341661249248
-7.59986761967627
-2.90671918480416
2.35118560803106
7.22570406069242
10.9704590427772
13.4639831567989
15.0012358133056
15.833125957035
15.9527462822922
15.2452316051721
13.7239171472103
11.6462149128812
9.57806553229853
8.31868628131966
8.38468610457035
9.35633307582565
10.072501182164
9.83606572688907
9.23203584228928
9.42820703119233
10.8280649214343
12.6721182637622
13.7371212476109
13.1294984774518
10.6495653198619
6.85988082243523
2.86655742424574
-0.246768261931923
-1.99220342028061
-2.57750749595997
-2.50961705908163
-2.15401986636465
-1.64384088647001
-1.06485308447839
-0.544931424493256
-0.114187610214835
0.387356163544208
1.14088951710125
2.12442153190986
3.09284217326477
3.70617715584169
3.69690498814558
3.09309997265988
2.33745376352968
2.03790662831517
2.49704417793735
3.48574461623657
4.42911848845496
4.77775096267549
4.30464577682385
3.17748206120647
1.76669120972438
0.327165722610084
-1.22004665099789
-3.26380873849648
-6.20045820608545
-10.0006413731616
-14.0666948465552
-17.6334658906554
-20.2572979024057
-21.7938277035092
-22.1308400932622
-21.3238269000564
-19.883520756812
-18.4826145441581
-17.322877117189
-16.0852065634462
-14.5104798386147
-12.7541944810051
-11.1362064362041
-9.77000771705202
-8.50629560957279
-7.09574005527248
-5.35728576074943
-3.28907746809954
-1.06779809605827
1.07963406428939
2.98623458017583
4.51306208257986
5.47074165875241
5.68485472492722
5.23621863276175
4.61165358717886
4.45114681246182
5.0713771388844
6.33669063727518
7.94773150868851
9.6228135458766
11.0568864509899
12.0559823605095
12.7343175924556
13.2704346812369
13.5238081812958
13.2763738402333
12.7878149286016
12.6359257264897
12.9784189337406
13.399150593844
13.5104820102105
13.3028861101736
12.8724420000037
12.2114775032594
11.4107978561668
10.8053179503263
10.7021171202569
10.9671260849145
10.963139095134
9.9746662470879
7.75718122355158
4.73702091891603
1.73729187518463
-0.562477504195802
-2.11571666605594
-3.5513978185047
-5.58065839581971
-8.3058019446464
-11.2667309928604
-14.0892348777341
-16.7050826569029
-18.927517321249
-20.3534386996518
-20.9169182789737
-21.1101940506546
-21.404922393647
-21.7760223526727
-21.9478541094334
-21.7446074256209
-20.9870819983026
-19.3430639287489
-16.5828238862058
-12.9291086803131
-8.99440388926465
-5.34842913896929
-2.1649265013102
0.778884670629287
3.87197473750771
7.43824442311037
11.5326624496097
15.7602936548591
19.3632773714291
21.707761892531
22.7363457911554
22.9301600759051
22.9843475698538
23.5388088955267
24.8747876965311
26.6623706260305
28.2222705369561
29.1165186491684
29.2096681490981
28.2055506995787
25.6860981518472
21.8024746198878
17.3823575119125
12.9261806000684
7.8180894435608
1.02960444064326
-7.4072684138209
-15.9522017513894
-22.7133517225532
-26.960260073233
-29.429662980005
-31.2723684989086
-32.9196038356252
-33.970636316897
-33.9024969100971
-32.7144587702061
-30.9905702913912
-29.4333779452134
-28.2863378345445
-27.1893725773782
-25.5880486434554
-23.168607497519
-19.8939511282109
-15.887448951885
-11.4489616844904
-6.97870216613102
-2.71271531522008
1.31203794679053
4.96125912313568
7.90285681726726
9.85543384736956
10.6905141446666
10.3060573798265
8.77418794280753
6.7428117191991
5.39017498873453
5.6809432371889
7.57611391846392
9.9812032485113
11.5475746809208
11.6626097865356
10.7563417552934
9.73958052568919
9.2975893728044
9.70514148419118
10.9587522133032
12.7843663793099
14.6794576758008
16.2322805188406
17.3666288424329
18.1880117621504
18.735203795161
18.9460677324553
18.6970215294557
17.8230833078491
16.2279190102172
13.9997659960329
11.4062505253883
8.90029349977597
7.10757909874103
6.44534148123607
6.53401860742394
6.27373313802144
4.82423815013428
2.39145353317481
-0.143357868128708
-2.18966760781016
-3.82567996777022
-5.39538481291185
-7.05676744193975
-8.7517145961574
-10.360465572599
-11.7181372828181
-12.6524667880436
-13.2789679676245
-14.1664005286488
-15.8234993688745
-17.9194971517649
-19.3002549717173
-18.9437254322575
-16.796791830184
-13.6932155138528
-10.6708116474532
-8.3720476466904
-6.79706343278747
-5.43416808915557
-3.74406339166508
-1.66394159475574
0.384294608389012
2.01569147529849
3.3243000965919
4.681575165739
6.07790101075798
6.84691714540347
6.31105302916665
4.74558729558315
3.44456861806847
3.56369015838908
4.85282622985113
5.66431850526876
4.40271351125394
1.08693627010971
-2.57623857670621
-4.77889668232391
-5.21917474040669
-5.04336355565049
-5.4136519301596
-6.49840112314473
-7.7727623974582
-8.7548829306879
-9.22700870894196
-9.11838578265539
-8.50071236762254
-7.61953721596184
-6.8083973167981
-6.36720484060626
-6.43075196888994
-6.82822444760724
-7.09881093771357
-6.75230881511932
-5.59502153140496
-3.85904748773249
-1.96959846477588
-0.0657407192373332
2.17590204401383
5.0136559303943
8.02414038976984
10.3876591258781
11.7892054872954
12.6291921869629
13.3073779322832
13.722371421816
13.5734271021456
12.8346086218629
11.8563839940401
11.1473299883198
10.9272829494764
10.7421333374932
9.7927761793018
7.91789854996316
6.01467068131909
5.17093476714934
5.50822941418153
6.12211025678934
6.09026275875037
5.37985521678052
4.77453085719851
4.94982397697196
5.65728390953396
5.93417656685802
5.10227094835508
3.3580519420005
1.40096299845027
-0.199756220251905
-1.18448204103687
-1.47705962250258
-1.14865417817921
-0.452689304076014
0.288280418483825
0.940205367942951
1.67811477528553
2.71589985649062
3.83284723706492
4.27197625181958
3.26400476924835
0.67381032851121
-2.8952304331947
-6.57314457114381
-9.77627741714841
-12.4025832550291
-14.5650476872926
-16.1704568354826
-16.8871437891054
-16.594724449795
-15.6925582277611
-14.8114093368768
-14.2956773959231
-14.005031043053
-13.52010468674
-12.5976516967824
-11.5734693084671
-11.1598146759525
-11.5775334241609
-12.0512204332833
-11.5033158168327
-9.62807891286137
-6.98361655335297
-4.23831217351251
-1.7209211547365
0.472884794503498
2.42440525827009
4.48565045378751
7.09638564062068
10.3049140673509
13.4637875697319
15.4978248808809
15.6841519808128
14.3013865646017
12.4030338388189
10.8654946251746
9.78221101088966
8.80660285839785
7.81339496185269
7.04828685017897
6.78439510746915
6.98107203662028
7.23117706851699
7.03095659201107
6.1800034866197
4.91675131324044
3.65214856757415
2.63701727308586
1.8631311904141
1.15718313466698
0.351323242496404
-0.565758462091943
-1.448368120188
-2.10620557427471
-2.34114253497426
-1.94450239113558
-0.85574198295149
0.604008803521518
1.74772401244337
1.8829762954844
0.774799044155543
-1.13739704174691
-3.00140878263936
-4.12249761667003
-4.24961629078103
-3.33164199538327
-1.37299860557508
1.15215705189041
3.09927818052652
3.46922487266966
2.42593040613989
1.12634782106689
0.531194495667028
0.588573949177253
0.47242095668151
-0.605221954717819
-2.74362865319032
-5.3331792218093
-7.68034312109238
-9.64596694222899
-11.5671459739241
-13.5954820094132
-15.2803261513103
-15.8198507764917
-14.6692886347463
-12.0353539345993
-8.93468516366235
-6.6762382615315
-6.03410312787745
-6.7219838779367
-7.591185749485
-7.44327373481869
-5.876333010798
-3.44121604600255
-0.943382181330619
1.32060292427105
3.53089846275783
5.76635286224584
7.82862173923608
9.66264363778445
11.6225654815831
14.1185298830395
17.0940491459017
20.0000011091913
22.3201463223066
24.0199700677385
25.3127164705256
26.0689243425337
25.8535252781343
24.6413679938962
23.0247215792516
21.4723691894398
19.8179021092874
17.7373390317163
15.2659092589478
12.4909513481846
9.13318150011224
4.89347500182227
0.0984882090708802
-4.25589672097743
-7.08885351480809
-7.94720532864573
-7.51619037596305
-7.58751952684526
-10.163682674185
-16.0682912966819
-24.1276329437411
-31.700476938131
-36.2843252288524
-37.0479912199727
-35.1371003449412
-32.5792902011524
-30.7769208437207
-29.7950837403281
-28.80405722071
-27.0263882375349
-24.2471465789702
-20.5882159848759
-16.1526723455486
-11.1649156340001
-6.28514268274978
-2.34450502698798
0.348239718117793
2.17142287527613
3.60152625135551
4.76639950562142
5.66186784489823
6.39695919689991
6.9471916704152
6.97706670036766
6.30927659271439
5.48803945817201
5.53432038527116
7.03823610574946
9.62680338007839
12.366863629911
14.5520877891492
16.0294076885766
16.9519431967994
17.4731194495425
17.6670723453934
17.5164295501641
16.9353847281118
16.0083624198301
15.230978609227
15.24033038495
16.1531508347288
17.3006108154534
17.7170710923333
16.8887906027082
15.1195145501765
13.2491680078538
11.9190869037863
11.0299845059193
9.94354442504552
8.11812502623138
5.42365697064938
2.05452290761501
-1.51665801960549
-4.60592915075001
-6.75869607698938
-8.20076306302409
-9.6094909292191
-11.4010098314269
-13.3589098208558
-14.8601175843648
-15.3230560934403
-14.553064572581
-12.7964532840744
-10.4578638623873
-7.85532002841181
-5.39395745308855
-3.81324206462839
-3.86792487604039
-5.5852612585029
-7.96361513886476
-9.58605856214738
-9.6364595471741
-8.3685825756468
-6.61356901302544
-4.87454511232202
-2.95997645452807
-0.47056055366977
2.50165416256331
5.23750663737162
6.87376028462321
6.96604846167022
5.63936302565043
3.2658063743417
0.089016110833213
-3.70996088676323
-7.63939039456561
-10.8889233763555
-12.8210376734675
-13.2621516235442
-12.242347339684
-9.78852320245609
-6.20680465392947
-2.30653499454708
0.972658312645638
3.11159250850321
4.11809947354632
4.29071668181082
4.02005271572074
3.6438837801802
3.28770102254893
2.84078990102865
2.12850866106537
1.07071131227924
-0.333051707095157
-2.03279196979849
-3.76196680296081
-4.90878716024202
-4.89361934974825
-3.83064998273858
-2.53139238857037
-1.60371736121706
-0.737962233808093
0.866990132640748
3.46538556053148
6.2975146370642
8.09385122630949
8.07611291869063
6.675033643194
5.23765298677704
4.79576359398742
5.22412980152788
5.87437278425074
6.72836888576595
8.30405379280667
10.4863875595068
12.1225095144007
12.0308330098693
10.0715611317004
7.04362629201265
3.8126173677141
0.818661871309359
-1.69132055348515
-3.37477978692733
-4.02217115427666
-3.91182924825255
-3.55618643613779
-3.04532233108949
-1.97055691200048
-0.105129820380861
2.16754416200803
4.26878422876012
5.97143451817307
7.33010763549904
8.29621246447293
8.62721625189283
8.07803448136966
6.54655492648341
4.12617698037114
1.19365814843843
-1.553723883122
-3.38298637855006
-4.11023793135411
-4.40143740713633
-5.23697214679724
-6.92749541309869
-8.78627103177183
-9.88717679400076
-10.0285616784248
-9.84136889923475
-10.0433377458605
-10.6832605429812
-11.0886234584191
-10.54167773257
-9.00578008314317
-7.13246732636883
-5.61713612303109
-4.70669453174085
-4.22005812886954
-3.7159589727265
-2.67009069332535
-0.900274616419525
1.05472014609594
2.28534035423988
2.38518230348642
1.75943859336594
0.973621910496441
0.0364137822091478
-1.51082871209192
-3.96866920008096
-7.18568095296876
-10.8217601737603
-14.4839791982937
-17.2926302730214
-17.6911144534589
-14.4467211982183
-7.97865508643917
-0.168736775443691
7.273460755333
13.8006834582078
19.3915261344844
23.6354557101638
25.8629222855998
25.8892925265292
24.3257150267489
22.1979169660952
20.265432955536
18.5904295123226
16.7838225847426
14.6843761741827
12.5771390510844
10.6313619208838
8.43633645384694
5.45345236300911
1.8625192933033
-1.38366687591011
-3.50203499759875
-4.69717774642262
-5.84259707552355
-7.483643332834
-9.45262612309606
-11.4092028596764
-13.3443299463246
-15.3972031252142
-17.4941100916624
-19.3898872606678
-20.8577680415545
-21.6645146412906
-21.5445994224724
-20.344849450534
-18.0705266366774
-14.793044599372
-10.7285861852037
-6.38944713973697
-2.42600981268857
0.717310203974561
2.98630810850085
4.78776849442443
6.89833707345821
9.84499817296362
13.1102788088754
15.314423716482
15.5191795913486
14.1380597955862
12.3353970183077
10.7744794757706
9.21359953367926
7.16204161607175
4.6821300454852
2.55134453017723
1.68408640314607
2.31915338555532
3.68732841411494
4.4383856152041
3.51513218855148
0.990575406036263
-1.6803718930554
-2.51760798322823
-0.632860909630932
2.90130664621464
5.99763900933257
7.37932657117609
7.34595284845809
6.8959517682922
6.49934970119641
5.911840620859
4.90168447458923
3.66790868645805
2.3865213375441
0.754879864699154
-1.53086013438592
-3.95769947791208
-5.35102853832014
-4.97118290228148
-3.22720518338501
-1.34550395159537
-0.596525422960647
-1.73910412914016
-4.75186694333553
-8.82590070514603
-12.7400327878924
-15.5350637329517
-17.0407020848434
-17.7912977977827
-18.3648367728055
-18.792759054853
-18.6444711936196
-17.5861731529934
-15.6983505310425
-13.3035591317148
-10.6690076135776
-7.8736218754951
-4.8712326377538
-1.73866352255361
1.16451325732533
3.5199246236587
5.51154250772425
7.58414755547228
9.70457594651584
11.33044043097
12.2658028559646
13.109812555715
14.6258264740258
16.9899268744661
19.8218025304912
22.5807834019655
24.6846567756117
25.5553354279975
24.90285903957
22.9205548303868
20.0641439675146
16.6871163567072
12.9260274431851
8.81175288561622
4.36320697128492
-0.376049680338883
-5.22112630970432
-9.74860231682303
-13.5411242114303
-16.6156428234885
-19.3212757729408
-21.6352564896366
-22.895602615389
-22.564009894937
-21.037977155589
-19.3819230596118
-18.3749792357954
-18.0018712585748
-17.6334315287539
-16.4738677980882
-14.0820616583064
-10.7335240346328
-7.13844923056407
-3.67623309254686
-0.119704397134545
3.74729239217071
7.49392663084923
10.3294841537228
11.9795007700532
12.9445830557872
13.7140860912705
14.0029822496368
13.143519195941
11.1127903915133
8.76969048814203
7.14503716191558
6.91961816260518
8.46328848741408
11.6890634840894
15.6582178842563
18.8351291444958
20.0413146451205
19.0283995597994
16.2456439345193
12.4541926869139
8.52354463764269
5.11838475617761
2.33004152487993
-0.291357578379363
-3.23492519193321
-6.47963232760077
-9.35088073449582
-10.9662019683672
-10.9464694728405
-9.66255287682103
-7.74077573331746
-5.52236878750307
-3.18134605441824
-1.14788366655051
-0.0527697325992539
-0.186549338146511
-1.12061039181176
-1.92671567017671
-1.91514428372162
-1.33057244193614
-1.25104679215313
-2.6341440191503
-5.51953030831556
-9.25564569401771
-13.3341761710536
-17.8106119220733
-22.9526125009691
-28.5352850993613
-33.4507633440941
-36.1695206758107
-35.8892754161492
-33.2643244150588
-29.8171298565345
-26.6087501156475
-23.5260153591377
-19.6987271791264
-14.4623484021795
-8.01646780605381
-1.27916137154968
4.8386684527471
9.94275400386918
14.0988596622615
17.6822049883846
21.3467911899779
25.6606449861843
30.4724695787006
34.8800488057896
37.9819166717149
39.4340300526857
39.2520243786357
37.520040743988
34.5891731537844
31.3102721325422
28.6693406855345
27.0062841974476
25.5926680313601
23.1490265023697
19.0196524564486
13.8598131256321
9.02993504796713
5.38922088126888
2.86641220745316
1.08898054326665
0.107843011733766
0.380273108858338
2.11039327319413
4.66608168688487
6.69414743365358
6.84903159273986
4.43204950522275
-0.464187837771178
-7.01700916056493
-13.798299240302
-19.3450419097863
-23.0674090799938
-25.562826648142
-27.9257683585231
-30.8093921754663
-34.0282503304633
-36.7527670205398
-38.0543115544884
-37.5133104940486
-35.4653028310927
-32.691135440919
-29.8482216506088
-27.0849958240835
-24.1124809595355
-20.6737275493544
-16.8604236970935
-12.7877494566736
-8.13322891237905
-2.48754805884234
3.77788079476842
9.48573483913387
13.7179263333329
16.6175160455623
19.0200416864245
21.5239729700904
23.9641370289612
25.6498075697811
26.1467394982258
25.7962385033931
25.2149257687576
24.3548699071042
22.5377976217145
19.4888412152058
15.8060049867817
12.1856769927415
8.65301695207363
4.9076940491504
1.1000748357881
-2.1936654572944
-4.71816556577646
-6.88842219850244
-9.19371236283601
-11.374082483019
-12.4666646847326
-11.7970091827937
-9.76184328001843
-7.4883798894284
-5.87272971002435
-5.06544510620001
-4.63221627569664
-3.94790749520789
-2.6120653289827
-0.801948464051448
0.816023120879108
1.74842859982511
2.22381145988296
2.89558516556671
4.02591130322468
5.17518727894723
5.77109739548377
5.8309215782804
5.92916601967842
6.42928726867012
6.9491473761707
6.78491977495637
5.79260919219071
4.63022115575651
4.06700134349533
4.1623489790677
4.23493931024129
3.65842909568822
2.55897382143693
1.57165184451571
1.03494029851331
0.756127420735054
0.551231708554999
0.57717894919554
0.959857066613639
1.44555078559446
1.63661273231855
1.32813291474227
0.49510206088466
-0.784631866461069
-2.31407928153897
-3.92241095144103
-5.6029143049709
-7.26224101451879
-8.46964720125835
-8.78434169708624
-8.2418267803952
-7.27146972355057
-6.28592661745143
-5.57710735672732
-5.40266095696085
-5.84014507026102
-6.58957055889108
-7.12743839958925
-7.08858039254408
-6.45952160494017
-5.45043220342814
-4.23790354349305
-2.86508266315338
-1.40292504414418
-0.0879747192440751
0.858938273088266
1.48499488753771
2.01463180022065
2.56163568184896
3.03873511372484
3.2331659813089
2.85418041627077
1.66255995588729
-0.254884016971328
-2.39552787281431
-4.17802276591303
-5.39789489556541
-6.31808532605947
-7.32733236775556
-8.51521220711538
-9.52345339289683
-9.74358801094156
-8.64092704297635
-6.00459966984845
-2.15802192557205
1.93317162363871
5.03258818638393
6.49753585831739
6.80449171420434
7.01343496761374
7.67460640309264
8.39574811601689
8.56980015523428
8.47126298878963
9.37772459780476
12.2495722767594
16.262123349694
19.1122751721006
19.1196078491279
16.7427028417415
13.7314347442382
11.2233641159404
9.23461163953906
7.64631568206682
6.73651253649456
6.47403496161568
5.93340315740644
4.02155058210875
0.735087246369049
-2.69955470681975
-5.07815254311263
-6.38742344480073
-7.54619357288252
-9.12106489447392
-10.5191591726011
-10.4641950302443
-8.18606807780461
-4.19078733276175
0.0270117633795753
3.04274630794817
4.40139142466563
4.59677452619077
4.28974464967646
3.65381189948658
2.44965858429725
0.549118115645457
-1.81479853378666
-4.40936108249838
-7.46706658100524
-11.3677108708312
-15.5989794357952
-18.4391329807131
-18.3294261152889
-15.591748203093
-12.2879043226132
-10.2414686292524
-9.53414934239342
-8.99041505906157
-7.68012109816385
-5.67488253365332
-3.62538520311046
-2.02863461355668
-1.01227178262939
-0.575433640184341
-0.667614831826125
-0.955675542655364
-0.869574903332172
-0.146431994149561
0.891087069135068
1.8145658837701
2.59185661204399
3.38129320561431
4.11807359090689
4.62198629698771
4.92314427183588
5.20330129393641
5.55116052265227
5.97242254356845
6.50054141581637
7.13738514503532
7.76517028977401
8.15044323106484
7.96695150299888
6.9564548343312
5.28108181114263
3.62458551569168
2.74103965855715
2.91867036832388
3.89190015511945
5.0547128196497
5.65560265579716
5.0701953348569
3.22630752851712
0.767527555186475
-1.43523745460144
-3.06804520637397
-4.58920859172822
-6.53908946180693
-8.70162290251373
-10.1642610648004
-10.2350710302872
-9.0718810494456
-7.35953472191637
-5.66288939981403
-4.19944867221656
-2.91015335456108
-1.56597951250827
-0.0874460379058508
1.06080579065458
1.09182622154106
-0.1903939615853
-1.84560862387929
-2.4912472298046
-1.60910464873838
0.0229756480028573
1.2876009777172
1.91438121171683
2.49265133369509
3.46704501452481
4.56598536041143
5.35444319626927
5.9683317987585
6.97869494555003
8.66247882542772
10.6176472560304
12.0605467839154
12.4620611123571
11.964721237899
11.1483834342005
10.3445483367042
9.33791504156125
7.82667409015393
5.90022659562881
3.79030622706163
1.33650082469776
-1.87286673724077
-5.68251022264675
-8.93757102572986
-10.1994515727917
-9.01674992243855
-6.36714769538477
-3.73719948959885
-1.90075506734395
-0.722425943964089
0.135491720218226
0.757053562001215
1.18051142073356
1.65409892930491
2.49185157946118
3.68472322314862
4.58747893489854
4.07099520558215
1.36636214417849
-3.03321942478337
-7.5311081691835
-10.6883066211653
-12.2812434360935
-13.1668268527978
-14.323531727756
-16.0049990735942
-17.5885360542191
-18.1972473415759
-17.5623792156296
-16.2132655444083
-14.7669715787846
-13.1922575604869
-10.8719777658787
-7.26419822285181
-2.42746956650638
2.991987759178
8.13229454158403
12.1711388657766
14.3316074930957
14.1081800085896
11.8916688222515
9.1388506445213
7.34548148268564
6.70046692906706
6.01553931388256
4.0227858810039
0.534734874326495
-3.61722787987425
-7.45402517026744
-10.4698737458773
-12.4818745878615
-13.1416688650731
-11.9411123026388
-8.79962254931143
-4.36152242922355
0.50571505663035
5.34652422396203
10.111258552514
14.7196456073924
18.8579042742014
22.1544269706888
24.3885526779885
25.5058574266316
25.5572018719882
24.7161026980194
23.2484367651463
21.2427345400997
18.3667039696514
14.1980572836822
8.96945273173723
3.70582580130316
-0.658917782241868
-4.13218741022361
-7.4351292353699
-11.1369117991546
-15.1698073222617
-18.9219918559835
-21.6055907947532
-22.7619101946619
-22.6045154463456
-21.767835532682
-20.6909202715004
-19.3809798622463
-17.7137401517943
-15.7432515916613
-13.7273414702013
-11.9819550596854
-10.6228387384593
-9.33627582989524
-7.52767081830393
-4.7767903735235
-1.04603428310816
3.45464513927901
8.27889498113203
12.5957613370021
15.3902047708465
16.1166790959916
15.2530916280729
14.1793356328591
14.2534991146662
15.6267058634795
16.9144739946859
16.3604402250862
13.5073938157323
9.6059652216225
6.38391964796608
4.60471143672707
3.78425044665863
3.02726267908479
2.02536933542071
1.31927816212247
1.60354151906287
2.77053601821013
3.71301057229555
3.12437106164928
0.534801426672315
-3.32512300567256
-7.07194964434683
-9.56172237121385
-10.337690024525
-9.49164815706894
-7.47815197887328
-5.10808483787135
-3.30028979764393
-2.51775053878826
-2.55660975961111
-2.96219017279653
-3.40422453347184
-3.57152068594587
-3.08396927655913
-1.83810046067058
-0.362291348632531
0.355207763538823
-0.506079799808227
-3.00974308579918
-6.41806102008596
-9.77069142965948
-12.4721157333628
-14.3061481559234
-15.2338111199545
-15.5553720489469
-15.9807528687923
-16.8812174076306
-17.4214207262924
-16.0100441173185
-11.869643169288
-5.82238449614066
0.654614285152699
6.74522074308895
12.2631431839132
16.5612399609148
18.2485223771351
16.5523819618521
12.7512989512153
9.60095565573327
9.06694165293541
10.8299315637574
13.0203020393214
14.052574316276
13.6656431585211
12.6194241972207
11.7685992998488
11.3819889273526
11.1191019713064
10.5070809410425
9.38967509121205
7.98428748184011
6.62430572028293
5.41219759440107
4.01358451716258
1.9105911380639
-0.950331965358552
-3.90421957962718
-6.19072843418978
-7.6694975395342
-8.66570440276459
-9.32701379470801
-9.55634283848107
-9.57030958092279
-10.099308050838
-11.6984362068622
-13.9054720635105
-15.4133499017161
-15.3186783083134
-14.0288721145576
-12.6268871328514
-11.5090688512128
-10.1311008435575
-8.00069701795366
-5.23630320097872
-1.99012123731599
1.98973623415488
6.76600804550219
11.5454393734644
15.0626441125197
16.6259027468017
16.6429228412108
16.1378670519939
15.8102310249511
15.5469766812186
14.7746269008187
13.1832308787264
11.0954443505687
9.25914119144632
8.33089164797103
8.39231609027318
8.81836113732128
8.65134648465833
7.13659968406805
3.92163249014685
-0.962384008190365
-6.92188945760784
-12.6869156061619
-16.8266465231834
-18.5930435069382
-18.2320724476734
-16.6132809009305
-14.7352291385993
-13.4007277382417
-12.9554451400648
-13.1127784831486
-13.0461050102471
-11.7956423801805
-8.86263535410462
-4.66431793148999
-0.383223262882174
2.81252503312478
4.41838556497469
4.46711374240654
3.05683421262081
0.358894646478195
-2.96682046740165
-5.72881842463566
-6.79749278203205
-5.77581624942047
-3.17817028551296
-0.112849754493627
2.25284634250624
3.27238245426103
3.2089326860837
2.9876606084753
3.26745412233702
3.70526330023874
3.33456065956697
1.70037942827513
-0.541244476352219
-2.098803356541
-1.90205333262654
0.367093003582749
4.11195357478403
7.98802364123659
10.4406509767755
10.316178314534
7.28195397118677
2.215509549146
-2.67338182117418
-4.81269263667389
-3.05614171407588
1.58304383662952
7.17946843668478
12.4452077652069
16.6906970859074
18.8880483789974
17.8278551953845
13.4753567945848
7.60592557165883
2.60612833715094
-0.297512062949942
-1.42545436629127
-1.5210388694347
-0.82219862952326
0.631280010786156
2.41659354776236
3.99764564673392
5.28929827303685
6.49461130332771
7.57222067069484
8.26885216271286
8.5606306535203
8.71399338509585
8.92433035394536
9.08918814199803
8.91686327062616
8.14275884898709
6.59288684179085
3.94609420017833
-0.547134083632502
-7.69872186338227
-17.3010064190972
-27.540888095156
-35.9536629413056
-41.1228783202367
-43.3460974816374
-43.7253066806779
-42.9332104701312
-41.0692839144418
-38.4361766235052
-35.7692468213919
-33.338430891817
-30.2649538672086
-25.2583204966318
-17.8162322908295
-8.35488289107577
2.33841120222947
13.1053869486974
22.2839270661143
28.5077784065204
31.7082720291995
32.8431617519232
32.7733544038065
31.8521398322774
30.3605913705303
28.6797946043245
26.877048866902
24.4618374726676
20.8813540468346
16.4111134463712
12.4625598465832
10.6845762236185
11.5634430959971
14.0117433943156
16.3668068561584
17.6008512958711
17.5748760077532
16.5274745691265
14.6762307779877
12.2873166633546
9.86659639211135
7.99875492814811
6.85601077552727
5.9872078020485
4.77628900745907
3.01847261644458
0.838760904062578
-1.85439872539452
-5.48524722133279
-10.1938592076888
-15.2068489963111
-19.0847104887896
-20.8333922815478
-20.7941663413868
-20.2675272908732
-20.232216848583
-20.6429209465904
-20.9876903925311
-21.1005196161547
-21.1272284797974
-21.0133610840399
-20.4863693333393
-19.5211727054438
-18.5203604293223
-17.877538927634
-17.3533643009235
-15.9988035012627
-12.9554867510378
-8.44121439201477
-3.76031271306981
-0.243565514053676
1.69596037002333
2.52936936939837
2.99457347143594
3.64756707397882
4.74063068688198
6.21060264158866
7.72775874036092
8.92524756425702
9.75836479409671
10.615329249651
11.8699543627637
13.2965563323004
14.2352851943142
14.4984281345201
14.772132795263
15.805275119083
17.4252325741037
18.6640037742455
18.702899812648
17.4244543720064
15.1562325122054
12.1941945931338
8.69353737856401
4.91134565037634
1.36738140949184
-1.37420125279943
-3.0695029834998
-3.86601428472842
-4.10927791686897
-4.22332425706754
-4.56473120216098
-5.00678989462693
-4.78711766625005
-3.28450388546321
-1.00989362810894
0.66405327183019
1.01185516747636
0.901827839296165
1.87572793561665
4.23375708264177
6.27079925225998
5.72053076397784
2.02561305528845
-3.05220256437681
-7.17014296289151
-9.45776993585575
-10.6832962246923
-11.8215208976416
-12.9601478298116
-13.4463910232646
-12.5942790404555
-10.2169396535747
-6.87340335870973
-3.75993245272314
-2.07231439216294
-2.09246991610525
-2.79526698906429
-2.58953900541079
-0.712848689119267
2.12228571999239
4.56010431395599
5.9123764779771
6.47244136643036
6.76150907332368
6.83482402401053
6.32511424907988
4.91895285406287
2.74264729104624
0.36546157361816
-1.64364129085146
-3.22458833045667
-4.75850242782915
-6.42984806267058
-7.84452003425849
-8.41504404177526
-8.00784499198975
-7.08077146258469
-6.23036369986076
-5.72183965539292
-5.45565568596433
-5.18711123353277
-4.59902864529812
-3.33986487281407
-1.33843963774851
0.984872393802437
3.21409097588837
5.60337066426716
8.69823162833842
12.1121375473561
14.1871776593154
13.2845443006572
9.29840898194429
3.81346742686814
-0.995259516919961
-3.58246671636661
-3.5627929360572
-1.48074215677686
1.67088159418165
4.65775992552482
6.13223303807719
5.24144725621395
2.40092538276774
-0.818203192348535
-2.8456415677289
-3.16251338247255
-2.33365682341614
-1.32533458743427
-0.840088661768432
-1.00310557383774
-1.44699554994565
-1.68431462080483
-1.47566318884477
-0.992200094674816
-0.716428037846724
-1.00250847406028
-1.57439638672277
-1.65852900799431
-0.740713505271692
1.06444783852369
3.38947500478229
5.80504553048878
7.47081418488732
7.30089535955809
5.04546909679144
1.86983136948749
-0.61986922491633
-1.73660524466637
-1.79882329191543
-1.19487964091394
0.0757561286058582
1.92802769877129
3.78898376482909
5.05036726470262
5.709739936499
6.07318957915234
5.82436306793501
3.99622104746453
0.232590541486961
-4.27077450145628
-7.50863539241152
-8.3264292146586
-7.25211868729489
-5.84399888483215
-5.30667409607541
-5.56231498359509
-5.51946068128282
-4.28288874079808
-2.10414268316405
-0.0431424353378059
1.32427745569821
2.72694135310383
5.52104057976512
10.0295746313964
14.6835536385686
17.2098019025085
16.7500997853648
14.3775657268699
11.4017834009742
7.81477236584208
2.92302149362746
-2.95723968973685
-8.29419839363134
-11.9983655122772
-14.7147087248107
-17.9444984399146
-22.0153343877881
-25.4904454090497
-26.8027126633688
-25.9758719245281
-24.259821684178
-22.4518152416935
-20.2766162399583
-17.2657319899489
-13.4807427676759
-9.26403601064634
-4.86201309175697
-0.44947638482048
3.89397051978118
8.35864984068994
13.2618873527212
18.6182982068506
23.9485486452567
28.4440847671819
31.2213232098627
31.6005594272238
29.4345763734422
25.2867321899179
20.2390872915588
15.3107792569267
10.7470968391469
5.86816732468648
-0.0009586428073302
-6.31621653267001
-11.3903185284773
-13.9068039872936
-14.1629171908225
-13.6807733525051
-13.7324552913773
-14.3480735581119
-14.6915709593279
-14.1878143382209
-12.9832798001471
-11.3197534955789
-9.04607484996889
-6.19898502787361
-3.59854696393868
-2.11561279131897
-1.44210490711559
-0.214325228845303
2.55936266039394
6.52257594600291
10.3415932985349
12.7535855136046
13.369584724512
12.7785439437641
11.9445217296285
11.4374973099314
11.2178510154972
11.0224791067253
10.7158831363063
10.2158717918339
9.31146428257709
7.80877782321723
5.8674823372139
4.0071848649169
2.68498681689489
1.9981037020264
1.89116667597198
2.39500093147786
3.32300541412296
3.87854111320608
3.05274628644629
0.535378164934753
-3.03832241464701
-6.74841889920949
-9.99814623131427
-12.492966430042
-14.0323945825023
-14.5680750234025
-14.3421583300262
-13.7498723810145
-12.9675748502677
-11.7728854024306
-9.87093641062396
-7.4429372723295
-5.27971623231246
-4.30659174488139
-4.90918071846366
-6.49133819324266
-7.5708469007602
-6.696969930802
-3.74685742948588
-0.18538301358553
2.3109372513415
3.3312436329036
3.6200639636493
3.91711886520177
4.35095769752593
4.64765809993384
4.41142262598842
3.3094283146635
1.3280553116162
-1.18307262613176
-3.79850852045846
-6.1500784132235
-7.75512181258718
-8.07461235608625
-6.92807084760182
-4.64647297757526
-1.72208100014261
1.49550595034907
4.68911789675606
7.38949170105729
9.13531596135205
9.84916352747432
9.91950879468833
9.81080921583814
9.71203107920206
9.67357781755639
9.79140830732637
9.86835609755041
9.09432179452007
6.64535120051424
2.76666995411806
-0.990211620350796
-2.70389054757923
-1.32713076448901
2.53129277808854
6.68915579585481
8.64931828375229
7.43256553583679
4.23637070425934
1.06816556314887
-1.13261712609412
-2.85217975416077
-4.84189534813583
-7.12033361500368
-9.18092632330545
-10.7509372063153
-11.9215399481245
-12.5894083312953
-12.2107902841183
-10.3070207214135
-6.97404458031563
-2.80967764457489
1.31859126539193
4.33545837247891
5.33158297185337
4.35669243068296
2.65412897530135
1.6972029720097
1.93272888366822
2.62529417999633
2.96599205520368
3.16546942943966
4.15373709871396
6.10638460521421
7.73818995742688
7.6080371532037
5.90872783568321
4.32744527780127
4.17317441534212
5.21640681025416
6.33438810005942
6.60213871775137
5.5701659708781
3.14359352724939
-0.288910466054435
-3.8537240316693
-6.75365517449897
-8.83729014140722
-10.393696035963
-11.4157296657715
-11.3915437021305
-10.0287509003601
-7.93483259604051
-6.19269611219637
-5.33336398521768
-5.09376014140438
-5.0936743298
-5.21019254131053
-5.17370819294527
-4.3701876872415
-2.50222829422986
-0.238039103616405
1.23134101494552
1.36355297850696
0.780764651207358
0.479350110079342
0.655039864051633
0.596603157717393
-0.208736994763701
-1.26124584092473
-1.65036756734003
-1.14756226271104
-0.234674925799268
0.764154052253737
2.03534891416137
3.72373165993202
5.44675726291129
6.5579283769853
6.72146252060078
6.06835193513516
4.88503224074592
3.39460397555603
1.92363893167018
1.00448393350987
0.977392537741639
1.58719000707503
2.30864749692592
2.9907555275228
3.81623387154765
4.75106829831403
5.51802150739996
6.06624789383082
6.5738135670334
6.94301556307514
6.69818564215671
5.50481157054076
3.59348532805992
1.61208072971619
0.115332105207558
-0.83439167092918
-1.57599943168802
-2.35586291306918
-3.09295767725253
-3.76929652207625
-4.78379660313481
-6.55564586431766
-8.87323645559109
-10.9432669448538
-12.0440373267205
-11.9385122556888
-10.783658764052
-8.97005779651604
-7.15666259192107
-6.22865330408403
-6.81672670820017
-8.61230073326359
-10.3237141713222
-10.6378179528842
-9.26388522596411
-6.90097132248396
-4.31985558338798
-1.74589609986018
0.950766904830804
3.81052013946947
6.62201453
9.03103052784916
10.7659267438856
11.8534413516713
12.6076109664827
13.314777273491
13.9028458971521
13.9926815474963
13.4162341778217
12.7301804260628
12.98550130464
14.7159450530637
17.2192762122777
19.019573562294
18.9233354483399
16.5134028268822
11.9993997210238
6.10385314909627
0.0384921121579869
-4.89390488904521
-7.95212868023765
-9.22026026148642
-9.25739662073758
-8.52505933062802
-7.14637118137217
-5.28489012569994
-3.69839499023319
-3.51275166194745
-5.16615756362931
-7.85861121450591
-10.3610294534285
-12.1914241802716
-13.7714401838933
-15.5763443892619
-17.3001822296368
-17.8551038209493
-16.3475294979418
-13.2717653302503
-10.5361884936615
-9.86921940984735
-11.1350657471358
-12.4355966401758
-11.8438812410641
-8.92859910678549
-4.82548730337671
-1.13538860393397
1.33357358702071
3.00403747628541
4.78471741267797
6.9104743816033
8.67848243231957
9.36735657198146
9.15740125274202
8.90194151127334
9.10326700315165
9.41413955515771
9.17696009471253
8.16713504412231
6.71486353252538
5.42078072728275
4.94235344907481
5.71218207243886
7.50490559742866
9.45081234684087
10.7509957026716
11.2319981675298
11.059699826769
10.2701102807845
8.91395435249007
7.38506282660392
6.16956265260454
5.28079577691842
4.19002389698441
2.38052556152842
-0.128714338488057
-2.87655839771493
-5.4882446288726
-7.87128076335581
-9.80746758074677
-10.7597420613987
-10.5784099363465
-10.2170225740435
-11.0741977344665
-13.4196243265757
-15.8440015017972
-16.4192603091043
-14.2365888937298
-9.95635580309511
-5.24050328482254
-1.6257626360042
0.400901766790769
1.37882387445575
1.97255768595173
2.29977233698919
2.27607244845251
2.31383995382261
3.17429361897824
4.97195988304746
6.65219598412734
6.85896260694518
5.3608434418577
3.34225246299813
2.1679145106959
2.1189529354406
2.5357524362792
2.90422141315423
3.3901579761485
4.35087362326507
5.63178918072453
6.45574465523158
5.99535134520536
4.1180212473784
1.58766277936674
-0.463533050213416
-1.14487508744449
0.0236819340023804
3.02534265188616
7.03817118956571
10.5064012247595
12.0308148793553
11.2896051763229
9.02646432025242
6.29321764361571
3.73650468846043
1.33783630495297
-1.28919682299076
-4.24176983254285
-7.06846364964797
-9.35725684644378
-11.3529097224942
-13.5971842434005
-16.0064896005135
-17.6287067494049
-17.418362039626
-15.1977058304541
-11.8335733026203
-8.40313924187811
-5.16230151966703
-1.53195335130033
2.81138071497517
7.21113557790574
10.7310262761673
13.2392652329454
15.2349770635525
16.6800187298633
16.5796470801681
13.980762918829
9.15157428760975
3.54660813787031
-1.29337655922718
-4.61493453268661
-6.40672795778931
-7.01494480422796
-7.08888512665808
-7.59537887889705
-9.37664222759104
-12.4606235252356
-15.812834338569
-17.8477641667131
-17.3848612426181
-14.3838411400948
-9.88801402388543
-5.22717286332477
-1.27022742739092
1.58058180234014
2.97862271723742
2.6927449549862
1.2601739382842
0.300849116016564
1.64152665434171
5.65436692092831
10.4466004926965
13.1860269878245
12.6123551016956
10.0736325500424
7.90671152658086
7.15768051445296
7.23468953494259
7.36772238782103
7.63694921652957
8.4172220680982
9.31490064550612
9.08765872658354
6.66336162604127
2.139761730997
-3.25234661695827
-8.09176397723576
-11.5785378224946
-13.545754209503
-14.0444682418027
-13.1613885331421
-11.1379950283991
-8.45243332512635
-5.70479905641319
-3.40045905790769
-1.73540924457647
-0.44463015435712
1.13756464210997
3.62010889526705
6.85108139064922
9.64158205424386
10.508334126125
9.00110062538547
6.3041626773878
4.40429518843141
4.60971848499502
6.68654031532361
9.07283011736014
9.92202559334954
8.43198855020111
5.48258307999
2.80788288171951
1.40094921341337
0.821982426766507
-0.0141241401981167
-1.63376753442262
-3.5489752278307
-4.72328797823607
-4.45189150285873
-2.96942417159756
-1.26250838329544
-0.25568239733904
-0.19333722311891
-0.709629558619093
-1.23281623148602
-1.25778318099299
-0.506892996345332
0.909314606162099
2.47946759154948
3.55006349220036
3.71786868424439
3.06504212374877
2.01245538478309
0.905001404372468
-0.24157172368485
-1.64763641390593
-3.65281849435699
-6.7544526372296
-11.3794905310002
-17.1427910462727
-22.361494791813
-24.83741594735
-23.5686167227715
-19.690196114698
-15.5011150098871
-12.4534350486262
-10.1345321221145
-7.19409510558385
-3.05366517338344
1.48897184697658
5.23458108706041
7.8862902237019
10.2933639886545
13.4375705816816
17.1419988125856
19.8364338225885
19.871597397818
17.1924006215343
13.4843670815887
10.5402156042411
8.72516381459983
7.15734982053657
5.06749066233929
2.73322333722442
1.20848077501111
1.23280308484773
2.35637322857961
3.25900561524113
3.04675067428102
2.02247828742351
1.04923260499599
0.477527626157025
-0.0427939402038312
-0.938777542437016
-2.19614172536012
-3.35249043239033
-3.81283545637827
-3.28852128142519
-2.18313189970432
-1.56500501544808
-2.45994446114879
-4.83403905191258
-7.2745276220608
-8.04915048316529
-6.77784235606521
-4.95301253025937
-4.622833670272
-6.60573295228906
-9.93817089060984
-12.6880620505166
-13.1532997603781
-10.7323434599153
-6.18864365233237
-1.1581867640248
2.83527732717304
5.16478534220894
6.2472923032988
7.12571563733202
8.70419139774593
11.0152744570865
13.1509707055018
14.0227338813973
13.1839005564505
10.9808764892508
8.20370375138772
5.66600366204241
3.75594693533773
2.12377655209735
-0.0137939961855798
-2.98694477356667
-6.03512326378454
-7.63100435602724
-6.55032745978834
-2.78777566874311
2.37655355688904
7.07019589876573
9.69472063739165
9.55902182058133
7.15991769802727
3.92089298915116
1.29414957666957
-0.211061368810303
-1.17467408379853
-2.48618082069261
-4.51190236698307
-6.91518858846714
-9.00960952621251
-10.212007290051
-10.3256422669363
-9.5441731498168
-8.27211813130921
-6.96602158889062
-5.96955783020903
-5.23430369979272
-4.22221568898187
-2.39021446289995
0.0602986853249281
2.04877594696281
2.40480655615472
0.857034319269411
-1.72517375260435
-4.06280504153804
-5.5086267414349
-6.40727172701782
-7.40689120362638
-8.47389947744934
-8.67251039640667
-6.90395810850709
-2.93358981651415
2.10127066040326
6.23137665830958
8.05119678016143
7.77248002692782
6.8138177910119
6.40195632110695
6.75058935210128
7.43033362112066
8.07230794306553
8.59180667895222
9.08246738151246
9.71818451269831
10.5598252178502
11.2747532893203
11.2215276044556
10.0781484930058
8.37274581615703
7.12264240692603
6.76489200091101
6.58726233974064
5.45281230350708
3.00343997629708
-0.114238930550344
-3.1239438801883
-5.81530104907799
-8.25694973029011
-10.1848843284876
-11.08145500702
-10.9309338439588
-10.6561369797692
-11.471398415445
-13.6212490709598
-15.8617972564571
-16.3896609122564
-14.3292698660671
-10.3491645496255
-6.08453437532354
-3.08813461492366
-1.92480766460118
-1.76477664592954
-0.922122179902802
1.75988406593569
5.82287067636904
9.50169342217302
11.1705833961593
10.6125420419669
9.0284062917935
7.85924853562429
7.61629545731559
7.84129316466689
7.90563511403833
7.43344577380858
6.09964650219891
3.69655968113806
0.628356587534485
-2.14563633354455
-3.95397698940572
-4.93650757970648
-5.57892563956619
-5.97614920385212
-5.74563539856414
-4.59813042587913
-2.85365916064088
-1.26425242978508
-0.300826563377137
0.199329853368318
0.56327461572762
0.719352960427534
0.375735403493571
-0.415968280571775
-1.21149043824343
-1.65182788394473
-1.75182704158704
-1.72729502078515
-1.70917448295873
-1.65463233478921
-1.48622259232889
-1.30299386143484
-1.38650296619092
-1.92507357762274
-2.76780694298189
-3.4614362379442
-3.46785247391238
-2.43434130864617
-0.448129748444637
1.97529072414359
4.26882162392454
6.11526815745574
7.34115728408259
7.80506311552727
7.64013177577278
7.37921584602825
7.52151079664756
8.05422712205814
8.55191223708835
8.59399419125767
7.98545078543716
6.78373721267531
5.26597338259044
3.78695010903468
2.61398452994758
1.88138045554905
1.56497779937827
1.42782121453282
1.11787922488861
0.382665795449441
-0.889788288786243
-2.78258773129039
-5.31006273578633
-8.24310870179039
-11.113087236672
-13.4723430187795
-15.1962960789025
-16.5669082938913
-17.9572509180161
-19.336038956719
-20.2466359465498
-20.3707769160207
-19.7824568588777
-18.4472793626257
-15.9112119510455
-11.8594837947015
-6.66784762774779
-1.10310621330504
4.20030206438565
8.76197170588829
12.2526485676246
14.8931567598323
17.5119075956007
20.7043359425918
24.0055289463192
26.1817099068889
26.2693173735621
24.1585454588076
20.3524289444772
15.5283831601695
10.4273233726788
5.89575662942206
2.65603156993967
0.846107645827576
-0.141012516535706
-1.22391527431276
-2.97882492123853
-5.33302590082263
-7.75613119357597
-9.68138175381166
-10.8036302056621
-11.0905694662517
-10.6797803540223
-9.92049754896457
-9.37360032376105
-9.3369119772934
-9.22986948497146
-7.88578765931455
-4.80440229398589
-0.82383493938946
2.83085330401991
5.97282798558329
9.49371695394773
13.9068681322947
18.1030009302333
19.8188868669975
17.4846737442027
11.6395470304451
4.55454555600545
-1.45782204815829
-5.45028144765523
-7.94314542579109
-9.89695359225481
-11.5108008008976
-11.9924206172937
-10.6288429339201
-7.89831812117504
-5.1077804558153
-3.03644257143509
-1.46735699514785
-0.0127845312828811
1.21608585449763
1.85815088847927
1.65774138902119
0.337647936571259
-2.48734971069081
-6.91310661702793
-12.3255451953559
-17.5800457012368
-21.6053977562176
-23.6905529344554
-23.2769651341254
-19.9368443434617
-13.8656540904365
-6.15996406004122
1.66948166402066
8.32019967318896
12.8605646962055
14.9466869056018
15.3400140857808
15.6517102681544
16.8732034764438
18.3737818437461
18.7910705986374
17.6169797177296
15.5350105187501
13.5499754423878
12.1725245727596
11.1872159610721
9.91575483291054
7.88265246393011
5.34981794221391
3.00572432522869
1.13460779182675
-0.605377310041901
-2.52329142824182
-4.28151510456563
-5.11885874289719
-4.72080620074383
-3.85778309430947
-3.95876402121154
-5.79113849723197
-8.64248122360662
-11.0308571041301
-12.0801915505141
-11.9621846588261
-11.2521129096796
-10.299517282018
-9.15515860538241
-7.70772225980281
-5.83700734092491
-3.68819216264806
-1.83508557182411
-0.965542088112963
-1.26531309149897
-2.08763896651721
-2.2767747470527
-0.982854098880582
1.67404231884877
4.69298900188501
6.89705271869512
7.5876291474861
6.816619139593
5.31659131662947
4.06194540598386
3.65240463125842
4.08214909053814
5.05055954033249
6.29376211761498
7.59697727694869
8.70228662628491
9.30529680407346
9.12272689775871
8.08701459377262
6.58473283018325
5.317207249937
4.70070336590543
4.48869577003972
4.14818341119546
3.5203968170898
2.94356701878601
2.73430241897996
2.68228617106923
2.1968582280001
0.985800698013481
-0.583250379798309
-1.94422783558067
-2.97841053053471
-3.98470108756111
-5.19867586806174
-6.64767556206486
-8.33185733499589
-10.1518454610902
-11.6572057113352
-12.2314089441305
-11.7008322417634
-10.6329095545658
-9.91672648141514
-10.0318026244488
-10.7114242867408
-11.3207627615614
-11.5323462481523
-11.5275345386997
-11.5843384311931
-11.7097504334984
-11.7142537626482
-11.4338033005237
-10.874864762327
-10.28514881069
-9.85907748028837
-9.05009444364963
-6.47251853810631
-1.11612584532614
6.27364597899458
13.4110004489198
18.1376379683743
19.7666971619982
19.1073989983831
17.6807404441444
16.8719918988809
17.3124086442633
18.6593575121655
19.905344398719
20.0609560908944
18.7415797337741
16.1831212628299
12.7586057776914
8.69711525213512
4.38581956864255
0.628620339423717
-1.79931152252689
-2.82269857556391
-3.05195876515172
-3.15072902109779
-3.37882226554765
-3.61364765539647
-3.60129388573355
-3.28258747542716
-3.00141685638184
-3.20912060152146
-3.81763180843712
-4.06176301515912
-3.22536010828951
-1.42370842233341
0.448771770264561
1.46723103588418
1.31295232208671
0.313589546164574
-0.968811197109229
-2.2087321189442
-3.54416074792536
-5.42055924651461
-8.13676588738194
-11.4525983054854
-14.6427803177057
-16.9487065947481
-17.9215703105512
-17.3513874933402
-15.1338790305652
-11.4935691240658
-7.27661774017693
-3.71579564576638
-1.68136624177454
-1.02432624226375
-0.548771403297017
1.24717373036017
5.06671360645238
10.2285623984675
15.1227624333042
18.187193613543
18.5944891444717
16.5261912109446
13.1395507843809
9.96063512491467
7.86496647063363
6.67807517908978
5.85124908534688
5.18968397361949
4.71881677130488
4.22857552800733
3.30675058421563
1.68363563720331
-0.575190792753581
-3.04728538525347
-5.12649315734917
-6.46320927634228
-7.25551393223243
-7.92176632426047
-8.52632727883138
-8.75885513480478
-8.51606818897618
-8.28719273308269
-8.7384375819048
-9.85538272138115
-10.6360696966575
-9.83531557770272
-7.05249686927673
-3.04690602420067
0.860507382895602
3.58277317318874
4.84918622937747
5.44569199156913
6.65016688975781
8.91960413645399
11.220597139901
12.0551884374502
11.044842313819
9.15468730174448
7.51551201101755
6.45876172108882
5.66393492648047
4.79595901027377
3.79609163823748
2.74733521202361
1.65023925149372
0.341469356482652
-1.36645942623168
-3.38772478800054
-5.19152217803628
-6.09744161978646
-5.94082658269657
-5.37660555547681
-5.28112527350007
-5.86989041061339
-6.61572670672304
-6.92390125793969
-6.59741525174638
-5.80869344410451
-5.02472230018571
-4.83209589589606
-5.36367177045956
-5.90981307323078
-5.48078830773361
-3.77953387567374
-1.38364593842317
0.938316411731839
2.82814472846673
4.34479087869712
5.62652682522266
6.57616355502881
6.82551477414003
6.04533034026664
4.28622811775309
2.00662654236301
-0.139556680550831
-1.5734259520133
-2.10198476292974
-2.0506237485087
-1.89800890526752
-1.72296521944132
-1.18521237911725
-0.0530443740001898
1.45641485535712
2.85970765743974
3.7326044072108
3.8780980296616
3.38223509181667
2.54709634024354
1.70051216963609
1.11868145488855
1.13473102361358
2.10188949903722
4.04485880471563
6.38590782548851
8.19207695981358
8.82204809561181
8.33742991111009
7.23256340555751
5.81827676142249
3.99841120126957
1.60223480127316
-1.2710894843718
-4.25240633178842
-6.83037962183879
-8.4625763754272
-8.86676182266663
-8.37071460851953
-7.77071651935643
-7.67847792742407
-8.09178294909186
-8.56621990783092
-8.56730298295655
-7.6900475591594
-5.88667787731988
-3.61398474007018
-1.54932607713426
-0.023385040524575
1.18431634067377
2.43056800496679
3.67620862399438
4.46251833826024
4.43641407233701
3.87539073757654
3.61273999944222
4.29511938360642
5.63819517334715
6.53339042910454
6.06305197481837
4.42470378145645
2.72185208679154
1.79500670658483
1.44211209208224
0.959242920839404
0.211289826876058
-0.275743305015151
-0.270126148390849
-0.399871410702987
-1.51228420706518
-3.63680700836523
-5.70815476968337
-6.30919107141038
-4.85902922558096
-2.2738865514621
-0.334064796311944
-0.197602741306129
-1.61463046613538
-3.58677313912362
-5.3685770695561
-6.60281651041107
-6.95720020752048
-6.18524411064568
-4.53873666536814
-2.84290479703768
-1.97502709382685
-2.10777476682511
-2.4368712089644
-1.8617873357931
-0.0278024681702077
2.47071972155127
4.87721977999523
6.89832100529717
8.46062175006768
9.23792216855933
8.74968435228176
6.9418272328025
4.62320270214257
3.18780608048233
3.52900839486195
5.02880450053459
5.90013359475019
4.79337426308601
1.97039758300335
-1.13023279625966
-3.22064716393393
-3.9478755385345
-3.62098872486878
-2.49509313146821
-0.519037278362453
2.1970330981496
4.88465712550007
6.40383211407603
6.16447691853104
4.69185380936415
3.18143955085092
2.43592373340975
2.20881594295778
1.65473904342092
0.480055072576062
-0.546592751332557
-0.486425424289353
0.520395932685096
1.30875696049267
1.00319810758371
-0.122066009769578
-1.2431573811565
-2.10406534899732
-3.18029018006551
-4.79737491414491
-6.48934950269378
-7.48952136319406
-7.65023351752471
-7.53682596656324
-7.68716484696956
-8.10295829928216
-8.41472895972714
-8.18887000967382
-7.10247042677823
-5.21221724839044
-3.07394554297245
-1.23042012431415
0.412732805645192
2.28256183837657
4.14877549731114
4.87465613091053
3.46152879694262
0.245991337644713
-3.13200457615058
-5.01722536109876
-4.99390456225642
-3.9021312565961
-2.75932778289339
-1.85001322136854
-0.85915145659789
0.417975263083626
1.79061152881272
2.96749761980069
3.7493131653834
3.82471783839873
2.76268695805119
0.68245478010808
-1.09699785103614
-0.701832354840488
2.4744895183138
6.82150817041734
9.87664360243669
10.5022463957681
9.33140105379622
7.46190262530992
5.48721088382603
3.69256388414744
2.34373759606205
1.4850468253295
0.911403411844419
0.564093413391236
0.65052175832062
1.21592519821857
1.84735856060868
2.01746139512889
1.65847047842233
1.23319741046742
1.17211130985889
1.36359550262068
1.38371228865623
1.12990776073614
0.895559687860518
0.795441883071387
0.477364697916985
-0.438908525155848
-1.84342466318893
-3.15852300370643
-3.75837020648293
-3.37325252354042
-2.25467709110597
-1.03692378168286
-0.420275367066813
-0.892940525814364
-2.49761345695892
-4.65261897983608
-6.39785660256342
-7.15512882957208
-7.19547166410206
-7.17209191345058
-7.37606315164569
-7.64755256644959
-7.7350408762311
-7.40883081248715
-6.38034699667178
-4.45445714259175
-1.82311823885408
0.928796427770063
3.21541812680405
4.8697565422513
6.08919011129832
6.90863401253499
6.95459047903036
6.01710643249677
4.69161141636847
3.97685807995484
4.20751830774979
4.77190567230551
4.9201056835202
4.51436122250484
3.97139766025358
3.784554789174
4.165953096569
4.9610822884802
5.84140282062124
6.59511905732309
7.1571541111985
7.32247899177299
6.52895369584985
4.04414906436121
-0.504593321830295
-6.63402704362237
-13.0028475568967
-18.0400978960781
-20.7374941400577
-20.991185020635
-19.4087604150906
-16.8754472212098
-14.0594475751805
-11.0686677783022
-7.57896167421274
-3.30732974757615
1.67377906680027
6.85648670332353
11.2860342504911
13.940338839615
14.6010416808941
14.2243687909514
14.042614688331
14.3552776687235
14.4471169998188
13.5292247761207
11.5215220768649
9.06930575657108
6.96691321140197
5.42605965530771
3.85476521017023
1.50970774919992
-1.70681442746916
-5.27762022783144
-8.6573685448164
-11.4859208408592
-13.4324116871195
-14.2898824153806
-14.2068590096458
-13.4805932486889
-12.1032099398894
-9.81593210644285
-6.67560180440633
-3.25260603779313
-0.0546653477430366
3.05183740848065
6.56524566105976
10.5138890639148
14.1042840869948
16.2460414572445
16.2780641068897
14.1481065042987
10.1436988006502
4.75161203507089
-1.20387224452551
-6.53852338716324
-10.1259832515729
-11.5395131741238
-11.2824985896234
-10.2663280963715
-9.09609638066283
-8.00733968641418
-7.28388796150216
-7.18589383885557
-7.33688164233225
-6.73877402741363
-4.83372860117491
-2.29012332137513
-0.337958545058948
0.563312072677922
1.10247113510158
2.23213406173254
4.16349596795407
6.30539709316615
8.04614307147046
9.34303252319959
10.4066888537917
11.0564377921337
10.7925786795919
9.46546261351209
7.48433820907403
5.36226699885671
3.46218837269649
2.2177198140397
2.08655755186925
2.99679520521896
4.12016480500501
4.48790276763078
3.78498195310208
2.45469175431879
1.12719970091919
0.0706773111001717
-0.830375390717238
-1.76659019155351
-2.88104214377186
-4.3528029401603
-6.26389555141059
-8.31136064017102
-9.94034180213931
-10.8882655877243
-11.3866115496302
-11.7168607758783
-11.7136193117822
-10.793560044932
-8.47879266462772
-5.02489174749113
-1.59171047937152
0.467176055795398
0.712639349138892
-0.0642123166290276
-0.646718043430435
-0.325704740368095
0.837781416644238
2.231448072782
3.11869515647646
3.22901819306391
3.0491731064339
3.3204646134906
4.23391982051389
5.31220233724848
6.04588587446252
6.39125887073745
6.57761031148781
6.64648406228243
6.38776252498116
5.69391641406836
4.79032053079325
4.0317563282915
3.58672589430518
3.41313698642479
3.39616370573137
3.34709461563681
2.99910465128683
2.20442085182628
1.06161407709884
-0.271335581607681
-1.76852955430331
-3.43371351022205
-5.11558100651597
-6.50580486481938
-7.29190613173435
-7.37764211426976
-7.02095376404245
-6.6060075268792
-6.14566095585394
-5.18147226247896
-3.38074058053157
-1.13823295784928
0.579439703970792
0.975970674287535
0.04506507055277
-1.38968922460342
-2.27947892171879
-2.21829892182014
-1.78348769694532
-1.9276643956879
-3.00292968235668
-4.3665359435079
-4.90306627804866
-4.00639467773783
-2.13740598406737
-0.330563866762155
0.886412936126709
1.89020563019408
3.24285058526394
4.90020943207084
6.32549987597369
7.13302784178681
7.38635031785031
7.38376972991206
7.29880487373697
7.01662475547533
6.35703753214317
5.46884976930169
4.80814218265549
4.6308459641779
4.708504726583
4.6125485191722
4.04917772382927
2.89130557804208
1.18580527183723
-0.765719514235912
-2.54728238612464
-3.94124557371807
-5.01482006313974
-5.94821181904311
-6.8718783403731
-7.72924031254736
-8.16021068659225
-7.70370718216944
-6.31514008070355
-4.56200558061739
-3.13423438823631
-2.20438142360386
-1.35747839167174
-0.157944422414245
1.23523327286168
2.10619414318755
1.92641090527573
0.977321201366017
0.127796046169419
0.0942938395173639
0.949369132882078
2.09533515741562
2.60325217001019
1.87902437198387
0.209370055760701
-1.51558083367223
-2.67875325304842
-3.31758231355592
-3.67791633118813
-3.75618080913123
-3.3632437990536
-2.38066940430204
-0.877645025985761
0.903353167475947
2.67822948314825
4.26190330201119
5.51252166303949
6.22531040361405
6.28283017027461
5.85965864675748
5.26628684189695
4.60572591246382
3.74351330039691
2.60957118667008
1.44901108625979
0.782494924782023
1.03356983698084
2.00699264892579
2.79735627916668
2.48671658477749
0.967777433748734
-1.06712128793314
-2.86190940559098
-4.15529889716049
-5.13732363774679
-6.05159035605835
-6.81482126840564
-6.99097701355487
-6.22794665012213
-4.70756873876548
-3.06646530455382
-1.94092675834312
-1.68246799685538
-2.31342836885017
-3.45404949171387
-4.32347619191814
-4.09532779243432
-2.42107197912007
0.34448476366936
3.3677294203605
5.80813113447989
7.21317426064025
7.58279088926625
7.18966055103689
6.45251283894132
5.82830212020183
5.50482501649676
5.16482330450371
4.26716971970068
2.56844849745482
0.226090152974465
-2.49458272902496
-5.37131284000459
-8.13808630093933
-10.4652427420059
-12.053125774401
-12.7235534874319
-12.5318209994875
-11.7647109238693
-10.6189842293468
-8.93225693302548
-6.50811528334842
-3.6181020335753
-0.77974665424497
1.98853489391742
5.28118518559151
9.44702320796802
13.7883306991891
16.846509377387
17.5384072287707
15.982559715216
13.2681510494187
10.5707363029418
8.52546561802501
7.19551629729842
6.31646961726801
5.55952940173076
4.78412682063831
4.08638326903741
3.50768235477783
2.80864158721354
1.70976153064577
0.230590464803879
-1.40797390819392
-3.08646886494322
-4.77676753469715
-6.31679730858662
-7.38946515318651
-7.73634142569718
-7.34771282794939
-6.47898037274741
-5.47767869331645
-4.53344214146506
-3.61207289922387
-2.66523148852965
-1.81656490634877
-1.2514865596316
-0.960016959609345
-0.66238846423516
-0.0877044297389205
0.547496298631977
0.467091431004035
-0.887747529029214
-3.02664121840659
-4.8155301597224
-5.74180442452793
-6.26961300939509
-6.9190058909355
-7.58963953449427
-7.91951287350007
-7.76437349127374
-7.10788837421152
-5.8790091449092
-4.08485571151278
-1.99271246977121
-0.118497502522039
0.992716217346398
1.19651713619201
1.06162263118884
1.51134731609462
2.95403459737381
4.82159493711555
6.01106053460283
5.77868112538043
4.32481930579702
2.61424985847974
1.57459328550486
1.42347943761545
1.75766335273561
2.12380732140785
2.33185421468793
2.357578267752
2.21633941855915
1.95562085883272
1.64530396483061
1.37137063593882
1.23155988320261
1.22735870026613
1.21363865318084
1.14929145387264
1.32209618866355
2.07685255688826
3.38676084851841
4.91332290208101
6.36543018656318
7.54903302588788
8.18347732514701
7.96738664586302
6.85213526581603
5.10553693780068
3.12405742284933
1.32963574106798
0.247020224644194
0.404057518568211
1.82408026102195
3.64333370983835
4.64418542033889
4.37426700760933
3.4325079324375
2.49768487691902
1.5516060186155
0.380346502930214
-0.673135445230722
-1.00841326676882
-0.563841514141922
0.145190428270313
0.662119543736721
0.93441465670515
1.0736426611177
0.992838647111141
0.331019841740895
-1.26760860396563
-3.7477592871297
-6.55196317595272
-9.0533590906721
-11.1034795621985
-13.1105303917407
-15.60135265241
-18.7168692965512
-22.0275847622406
-24.6860217179012
-25.6980477436676
-24.2613773792046
-20.3332669551153
-15.1099235589228
-10.5413170413797
-7.91008540068107
-6.96929144150997
-6.52352094140834
-5.3762346011341
-2.60963129442714
2.1588751823855
8.09494531709496
13.2735499931746
16.2666943371792
17.4287449389488
18.1507849799435
19.1025186796715
19.661776558738
18.9255564051887
16.8917276113012
14.5763597938204
13.07593606681
12.5864269906574
12.393923989444
11.7400666227691
10.5021210530708
9.07731602042486
7.90171521374866
7.17064710184116
6.81728836685812
6.63662726824108
6.47113901671743
6.24850984380994
5.82299231080277
4.97725160182727
3.73863036579724
2.53853501796104
1.85407500399197
1.7027966932534
1.54098877778725
0.641697916715585
-1.36845951507466
-4.23785465508291
-7.30084522016212
-9.91774432199761
-11.7573726713216
-12.9088275078864
-13.8838224576655
-15.2948940383039
-17.2880237918029
-19.3517159191543
-20.7185406116677
-20.7883460764529
-19.2681636056905
-16.3524815669694
-12.8381820919105
-9.59551373344673
-6.73677222671447
-3.64550006353477
0.0302684571962025
3.69633893792405
6.25748970325868
7.0945023136279
6.55270337797679
5.57434238185006
4.90826486988661
4.66060992143079
4.54369196410553
4.43425852256946
4.63068286011916
5.61307920791396
7.52381658201016
9.77695669305968
11.2410357541623
11.0144413478277
9.09507434511806
6.28192014633446
3.54886261893434
1.53908006887886
0.352786870404832
-0.400643958979919
-1.1602024507585
-1.90864384666596
-2.31738381664845
-2.36743454548863
-2.40674959186714
-2.46848281846313
-1.94353455955787
-0.24608356748157
2.30942945961448
4.49222596959861
5.07745496335263
3.83877074226537
1.66510964174668
-0.331533852457524
-1.76896730032322
-2.97266202557342
-4.19165284504172
-5.16692707657321
-5.44491693859611
-4.80166076061182
-3.32556320825711
-1.33690125361725
0.704462394514249
2.37170268000449
3.46162634927822
4.04846906328793
4.37488512537348
4.63703353675386
4.79971749972218
4.66558762034383
4.17804781863722
3.55285860360503
3.02983960854626
2.6175106241021
2.1839487758066
1.69183258867387
1.25237720167969
1.00274391845113
0.942298624429261
0.85061308714327
0.425632858088706
-0.444941576914812
-1.56492817267635
-2.4971767512311
-2.70865359065982
-1.94246827498654
-0.728973585771884
-0.27481410763747
-1.39262094191917
-3.56046841553364
-5.36992780791312
-5.9303107537039
-5.59727004411445
-5.33102673955651
-5.64774243645289
-6.39454349835321
-7.38924476478164
-8.89023214388906
-11.1584673555096
-13.6724676745369
-15.1387556955766
-14.4442483322432
-11.5391594345797
-7.45108460670212
-3.57808282132384
-0.836254372592822
0.800903579715902
2.03748920305115
3.49909973054473
5.20520492575475
6.66829508386181
7.41053929015471
7.56294889504031
8.1049684204891
10.1306737800266
13.4527093756266
16.2661803717237
16.7702672091307
14.952989821077
12.3397789788237
10.2750286021289
8.96599592236034
7.9541355050568
6.89289288180253
5.78573710801029
4.81012670948918
4.08746864090211
3.5866902542083
3.17605664645731
2.6814444410572
1.89040423019391
0.647500805584848
-0.966932861109536
-2.65859118615888
-4.17787837943092
-5.4474151509858
-6.41848392054589
-6.97109152581589
-7.0415086806117
-6.78578631501427
-6.58331299782477
-6.83512807140562
-7.63203830419576
-8.59548351888491
-9.16959633535997
-9.12063758322056
-8.70555803909908
-8.39123116650056
-8.46741627044993
-8.84234165621291
-9.09136078967087
-8.71940200377633
-7.44389767197593
-5.27519847132667
-2.46234595839405
0.517131267098288
3.06531742518879
4.81223757606494
5.84418657901979
6.48082837921652
6.93836871251318
7.3013566568251
7.6410310193278
7.99670586982635
8.30048774503943
8.37475616059239
7.99534570174618
7.05585734617595
5.74797082693618
4.4564733701899
3.39132376577588
2.46369170924908
1.57326346275333
0.795512618450191
0.195691177253701
-0.30252397483047
-0.732689234803048
-0.949110907893639
-0.783484595602416
-0.257805423953618
0.362022073230873
0.689636303305109
0.492400885721625
-0.105575463916601
-0.771770406306333
-1.28049290724672
-1.57632491597548
-1.65836907986323
-1.61550102651869
-1.67299771150811
-1.96602686523441
-2.33956483493943
-2.59397404287872
-2.85050947703732
-3.42131258992336
-4.30733886263601
-5.01438427907274
-4.97048391366959
-4.10976858775325
-2.97031640590793
-2.13570558254104
-1.64033910115411
-1.07611320760131
-0.223957552119136
0.646288943585616
1.09325769581987
0.909981516643861
0.224504527503766
-0.592137518679969
-1.10289993687001
-1.08658185890489
-0.73401670700295
-0.509244787935235
-0.77801143949679
-1.51755722707555
-2.30004609514594
-2.60536220480408
-2.27530646127498
-1.6154931880434
-0.975692952257594
