3.55163592877254
3.64516596917544
3.5696884795507
3.29254989443648
3.10882229039181
3.46717379430688
4.38836677068664
5.52916400942603
6.58517198145409
7.20442361739194
7.02935831481416
6.23846661278933
5.4042674108992
4.58759146256997
3.2835455714718
1.23151159273395
-1.43414262427304
-4.54162120407501
-7.73155090016057
-10.3907520872109
-12.2011600397489
-13.2893324334314
-13.7810851203411
-13.8407866783122
-13.9213476028096
-14.2883777400995
-14.7236125651051
-15.193233157204
-15.9920684384933
-16.7980464514291
-16.6521446760717
-15.2556560262615
-13.2657690114321
-11.2385460470692
-9.27465570140924
-7.46982534589523
-5.78499856398359
-3.88500632175845
-1.7707078688404
0.0965986014293518
1.77479015821774
4.07602080486665
7.36802179472119
10.9307450312639
13.7940027051686
15.4965666781163
16.0019567922502
15.6842159053893
15.3284556509669
15.4204317110792
15.6476161698285
15.57266733284
15.2681054660019
14.9316153676819
14.5255360121909
13.9686072193179
13.0995702957046
11.5942058838769
9.40792916779161
6.88328926122423
4.11548474292677
0.894607621351961
-2.57495927175176
-5.70402530652798
-8.23066675110054
-10.1401424219902
-11.2308216801787
-11.5620857691016
-11.8366030989431
-12.6649476945768
-13.9895874556982
-15.4966975040898
-16.8125624812879
-17.2953556928702
-16.5514335100172
-15.0446844403281
-13.4760239918746
-11.930142895973
-10.1624692984864
-8.16142268462781
-6.05237672313329
-4.03149233641201
-2.48357448671288
-1.45609541004213
-0.0905028852728937
2.58651007379075
6.3728654338933
10.1104194309472
12.9212356114584
14.5558556836555
15.0152533982814
14.5359885707607
13.5043934003346
12.0286835637786
10.142426124985
8.37260350943545
7.31669594381295
6.82850817185337
6.32854541237405
5.60418304069245
4.82149159172075
4.22756465548395
4.08826500779818
4.36862084190363
4.5064986045703
4.04199792364831
3.13243543979715
2.0077666278501
0.63644895271715
-0.686017701495283
-1.41412327216404
-1.71941200331321
-2.29675942804752
-3.13747061266009
-3.62104431344619
-3.67006410709923
-3.76601678995948
-4.17517825126781
-4.99294708050937
-6.33726113875853
-7.77641660135476
-8.29756543213341
-7.48374736594296
-6.0753713269147
-4.99300234451524
-4.48942674949799
-4.39759718937994
-4.40485961545909
-4.0271307208601
-3.03186757289881
-1.76571392494311
-0.563925407590271
0.705214069658263
2.12189941136405
3.39135883824503
4.28702023939332
4.78245571822063
4.74831879683037
4.08230101326251
2.93232576142779
1.44992262561038
-0.241689056754582
-1.75611370159986
-2.77551556746487
-3.5552171352352
-4.38224170357138
-4.89546691059605
-4.67695658937606
-3.97287984190889
-3.2031179603402
-2.4457496923653
-1.79268568330483
-1.38518363482353
-0.991740797777648
-0.449453759619693
-0.31201722982561
-1.10119360925341
-2.29793122172674
-2.94822173729333
-2.80186691335674
-2.19466357198597
-1.38770586356836
-0.541087512264481
0.239652672381813
1.14826964256058
2.38550962444732
3.57133621946857
4.14531978651031
4.2413248925352
4.44241873652504
4.93879659712019
5.56611555671037
6.23983763927051
6.876857239205
7.39573391290054
7.95751087168683
8.66678188133471
9.24933105050795
9.58533044676762
10.0397260262251
10.7526134062779
11.3208728238389
11.5476521670969
11.6649827334969
11.6294520358388
11.0573429618249
9.84236348484345
8.08642065439451
5.68024445646031
2.53528098923301
-1.23570533613296
-5.6685965984207
-10.7978753544412
-16.1168301332922
-20.9097229279016
-24.8218900330746
-27.4405274225064
-28.0838688160237
-26.8423982984062
-24.9829723711012
-23.5314522929953
-22.2383911195905
-20.4427990496464
-18.0159321485404
-15.0420897956402
-11.5519194614288
-7.91460668045696
-4.60583651563544
-1.46658155977678
2.00962923807337
5.82702531551171
9.61650635891884
13.1213492433243
15.9421657940044
17.4562349998052
17.4978544614568
16.5910713224521
15.403533099174
14.440385490771
13.9943311564318
13.9197770900734
13.8221137417689
13.6096507425029
13.2924117707476
12.4650778481303
10.8395539555679
8.92472579153911
7.34199062788915
6.03650252769905
4.82831121987024
3.85160085982811
2.90299354039644
1.43662675734984
-0.414496369256758
-1.90815818080513
-2.86604981961544
-3.6989354245909
-4.43279224764784
-4.75579441739007
-4.80581730139691
-5.07679318973385
-5.79807989323433
-6.91748792824986
-8.27766821547872
-9.45639814499079
-9.94641016204495
-9.73406506701287
-9.22042180433995
-8.60544715543481
-7.88554619945315
-7.17339539027031
-6.44145697651356
-5.35467563346572
-3.76979394830333
-1.88228621039684
0.229759960139186
2.53215572838275
4.61567074000788
6.02279608713949
6.71420219335861
6.75027740851871
6.05030833798843
4.76045698800482
3.2045515350534
1.4487821154056
-0.369962521410788
-1.61406029231165
-1.88082884579236
-1.6658970647371
-1.53931140691601
-1.33529247175415
-0.746407756573888
0.053216207579407
0.733070887796462
1.05261983145765
0.836290407539153
0.331075348827336
0.152877689342657
0.367077698925863
0.386771224535196
0.165954324536104
0.434623078542814
1.35277945999829
2.09184609771278
2.18577482501282
2.18750479528195
2.60363877737101
3.20994367031628
3.67885289397993
3.94598814769905
3.84888537382002
3.14096438625998
1.76926615005538
-0.255782213816063
-2.82405098580539
-5.38344514975397
-7.26772305437116
-8.36766967632383
-8.90730278163249
-8.8632489551086
-8.13961646107798
-6.85260941179937
-5.09337566550149
-2.95679773803834
-0.834365617982771
0.963598490229247
2.59374964905749
4.04678123354569
4.79680830822992
4.77350713349669
4.76447537840462
5.20089370658332
5.60724448323747
5.74736051083476
6.14050718009047
7.03570872016436
7.90478834077147
8.17956184285689
7.73863471878273
6.71587960419023
5.39157896126719
4.08716383814436
2.85925172493872
1.60953888591913
0.530128611141923
-0.105370809108976
-0.532865732889552
-1.25256418434971
-2.4067203550714
-4.03891914943443
-6.47663562175022
-9.6932601033906
-12.854042370652
-15.139646572459
-16.4335228741966
-16.9301903564207
-16.8616268341808
-16.668920202379
-16.6220843279154
-16.3661090138956
-15.4342804659026
-13.8121450567243
-11.6048446600353
-8.82359830413128
-5.78320294287908
-2.96736989737715
-0.36468967646123
2.45607463471149
5.76430046530412
9.56827086555765
13.5884470205135
17.1132490846205
19.6674067488707
21.7923430252149
24.1525284623224
26.1455691564513
26.5963673372982
25.4796855498582
23.8005238850218
22.1639139306469
20.4652974515649
18.5642557002288
16.3672502443009
13.5303987839905
9.71434384646765
4.99204442960211
-0.136880185809309
-4.80795114407265
-8.06592865173183
-9.69678013887741
-10.5397013072586
-11.4171481833565
-12.2295480885933
-12.5739413093943
-12.5369067633251
-12.3995515118058
-12.1845516955386
-11.7273211095737
-10.7667476589082
-9.19501312926026
-7.5824539012756
-6.84380899128727
-7.00769829962432
-7.04581440426985
-6.14292615284872
-4.37545419139126
-2.20776897992555
-0.196332932167974
1.02668596742928
1.31553081329409
1.28761157063221
1.54049685381743
2.0690387384919
2.60720659382756
2.84086916588202
2.36068525379625
1.12989440609733
-0.306308761093951
-1.6359738038084
-3.19686964426049
-5.17312766790757
-7.24120900164793
-9.34116077072427
-11.7781408634935
-14.2440562855815
-15.7895447428291
-16.0538492978147
-15.553409750548
-14.651394102732
-13.2170452580332
-11.2676026243754
-9.06614941307211
-6.73321371506765
-4.31560763827788
-1.82825570897564
0.988303949762792
4.26450867770982
7.39165649577301
9.61623311144435
10.9959317420842
12.0438223987045
12.9408050367627
13.7243912489733
14.5497382911371
15.2524599890057
15.3592227674548
14.758760570692
13.6957639975183
12.2697735953609
10.6594174363468
9.42504689982766
8.90780413160559
8.80669640671175
8.69848080776179
8.34370836678945
7.47842859339759
6.10121592057449
4.78649214180598
3.98677036730414
3.4179966661801
2.72830706701975
2.15666031311997
1.96580644582098
1.89483410686759
1.6780841205669
1.48151423914771
1.48337032365595
1.63660292413477
1.97678065718738
2.52389690748111
2.94198005677319
2.88082965363666
2.37568257128859
1.49824818687102
0.18548614674128
-1.30240864182032
-2.48085107568332
-3.32156229131535
-4.14671114737919
-5.0025368165742
-5.77662947031284
-6.55301273435735
-7.31209371537945
-7.77173543092234
-7.85772902672682
-7.82841586555963
-7.95006636028242
-8.56030099976893
-10.023558942759
-12.0492959608157
-13.7598059586131
-14.9112202684013
-16.0643467239498
-17.2211096706229
-17.5227468045925
-16.5772587765077
-14.9193416675816
-13.0725681620724
-11.1593952057036
-9.25840889037028
-7.26065320586127
-4.69120147982373
-1.38335364676569
2.08010985956633
5.06222450292831
7.39429695001888
8.86508947036412
9.00549674801805
7.77884304738146
5.8246090010899
3.906429739852
2.68167571756983
2.66663670053957
3.69578041267775
4.83070599265731
5.38042567535396
5.55410194716443
5.8692950588453
6.53345310023977
7.5041934955245
8.62308146259828
9.70834241268689
10.7101566787969
11.4788232658097
11.5551876700791
10.9078316842948
10.5762286370399
11.6453532906169
13.8947151655879
16.2206375472843
17.7514957130792
17.8721817919447
16.1157283055987
12.7836658446715
8.86108486597711
4.97422266514722
1.24376281432671
-1.96175567985843
-4.17471290780325
-5.60284998102908
-6.92669233163369
-8.56067170544274
-10.6269301512704
-13.1131664937373
-15.5586467037234
-17.2087362399866
-17.9052692036513
-18.2018910921407
-18.3938368733187
-18.1705867085751
-17.2968261596363
-15.9029546528285
-14.1937035336827
-12.4778658581349
-11.1773358966365
-10.304042711216
-9.26537275267792
-7.40495838118356
-4.43043646977824
-0.523870125857532
3.54924069068814
6.85895624109975
9.21601409514954
11.1738054758996
13.0528092813205
14.6586665494079
15.8406657435431
16.5303059071848
16.5233288143774
15.9418789379006
15.3582829557958
14.8891956032826
13.9998081477675
12.6121511994259
11.3467582639225
10.3715593326577
9.08925792031376
7.09862912736963
4.53162492378975
1.56519760127179
-1.54835307711512
-4.21856473478314
-6.02113568853076
-7.23358611532431
-8.4547711259016
-10.1052133279
-12.4955930573297
-15.6608500094127
-18.8623254818233
-20.9795169257564
-21.5684308179181
-20.9412165683942
-19.3528241644765
-16.7462025041593
-13.1020854804772
-8.67462697523452
-4.16305028059351
-0.571919103729515
1.62166420210467
2.86547002076451
3.62490262952277
3.7350258906782
3.14764644213447
2.46182491083956
2.24976949195214
2.66659224098537
3.81184324746384
5.50759058523555
6.86071667967934
7.04969941874968
6.29868678232109
5.39532642246154
4.8718541428561
5.12268495562462
6.37483132486666
8.14425339648811
9.60554318002723
10.5537189291294
11.1704900502174
11.1824268566195
10.2056297583819
8.53995877658691
6.78988206509964
5.13194232201186
3.59922009198651
2.51572919716562
2.05516628002718
1.92437286064656
1.89052995330428
2.06876325138543
2.53721740674808
3.19580332843233
3.8442412322697
3.9332099838766
2.72840021180948
0.163815002644869
-3.04280279490507
-6.28118651816833
-9.33876738329837
-11.9005001115462
-13.5856107806324
-14.3603112014641
-14.3895152041572
-13.8678662902128
-13.2600432227119
-13.0256092595041
-12.9535865653409
-12.4461184546029
-11.2943830682442
-9.52780662539489
-7.0783820298451
-4.30852271580624
-2.07450148698204
-0.626452812027513
0.714284652905494
2.47869289237237
4.59707670728917
7.00149109948249
9.64296830756119
12.0678181098547
13.8846135296617
15.3408614694175
16.7445452175732
17.8613220141312
18.4875284918536
18.9224736994432
19.3248972416601
19.3364556146912
18.6879108188769
17.3083291161505
14.6848099262587
10.1730435659542
4.13154496004196
-2.07919089421843
-7.21218836701025
-10.7456071350939
-12.8095757470643
-14.0161333826911
-15.017109015331
-16.0430666530679
-17.1151126568289
-18.3616807389143
-19.6954846423422
-20.6796708624208
-21.1266184911303
-21.3339141409377
-21.5979733202037
-22.037510772776
-22.6587645568323
-22.9237076953972
-21.7333120087178
-18.5468754993303
-14.0203148493693
-9.2123327081121
-4.88316321030333
-1.49182788365726
1.17215731840259
4.15211227415748
8.09864086708521
12.2665004252923
15.5351094527046
17.711871370595
19.0857504194444
19.6183874290737
19.3836398980335
18.9661467316678
18.7624332203158
18.659563527324
18.7665753009559
19.5457752976522
20.9528423912616
22.269474007076
22.8139372283808
22.1858576089878
20.2149413610697
17.3290568217923
14.4499335508929
12.0196254600921
9.6297722733926
6.76274417390407
3.35044447595886
-0.30285233661886
-3.67947396402298
-6.41539432863094
-8.75826835356611
-11.1856996908194
-13.6191670964878
-15.7050716863668
-17.5530341859726
-19.3326545083489
-20.6262524699483
-21.0169419221809
-20.657048993553
-19.6230476228552
-17.6405722274616
-14.9447030531918
-12.376339285428
-10.2990079769353
-8.35368812980695
-6.23899572103872
-3.7475590518502
-0.305114462625593
4.4142188322972
9.58844052986202
13.902066043185
16.9329176758764
19.1576772885653
20.782530473581
21.1134016167145
18.9869011286121
13.8110520525823
6.56616327133061
-0.398278386855047
-5.03818522706702
-6.95213224024021
-7.10684808291986
-6.99756932167892
-8.05848547566776
-10.8366319247297
-14.4829510920998
-17.6652745461605
-19.8407336422158
-21.1853899347246
-21.8450388790599
-21.8436753532903
-21.2387619257134
-20.006556606094
-18.1503033787784
-15.7894630965435
-12.6928716234991
-8.29801117655145
-2.78668583326198
2.63542359234898
7.03598505492841
10.4129570121635
12.8873101994718
14.533110302305
16.1608570166473
18.8909687571441
22.6890343812211
26.3113182859935
28.6846250284393
29.5764362185119
29.1808397115244
27.7231673917632
25.1636223416323
20.9637600059891
14.7785390644747
7.57171800443757
1.15884207561005
-3.52961272757946
-6.9041209351797
-9.61430925038103
-11.9609659736972
-14.1193471290491
-16.0145859249222
-17.1875199833018
-17.2872265429704
-16.3628972393729
-14.6047106533736
-12.3342536052507
-10.071418521683
-8.05087702281133
-6.02008146799067
-3.84170123384849
-1.57705219548306
1.25703221467105
5.483222560527
10.9652379251892
16.3561935767551
20.2552422816146
21.9955564361789
21.6537649181463
20.0015462963087
18.051996595373
16.1806869076672
14.059078402441
11.3670815382948
7.93087014509588
3.53334144812678
-1.58059192304421
-6.44838225799669
-10.3929223786989
-13.7165974809664
-16.7609939660678
-19.0759559253535
-20.2418839014758
-20.6873788328564
-20.9847291388966
-21.0964606720922
-20.8127195118204
-20.1739983470885
-19.2125132961909
-17.9831648227151
-16.8265248503146
-15.9863139022675
-15.1628242643341
-13.7850426587157
-11.3049324385412
-7.15722640955534
-1.12319618085856
6.12228778660591
13.238691505164
18.9086394291299
22.2811444292388
23.4061990512321
23.3621027809694
23.2000219795378
22.7745777124325
21.3439286533354
18.919162069116
16.1029227682474
13.1532316524918
10.1154543773006
7.21287365949701
4.34466078192167
0.91678775318731
-3.30582455309249
-7.85979153465574
-12.2444613440605
-16.1855313567238
-19.3340553012734
-21.4825053563992
-22.9104801142232
-23.8530978992501
-23.9292550791731
-22.6454577654505
-20.022384354889
-16.3254134229164
-11.8187964826824
-7.08482811180046
-2.82531747639877
0.877188553854721
4.47833247406238
8.25495025383992
12.2489529866678
16.6046269132739
21.413082910643
26.4156151934625
30.9532995217785
33.9950625182037
34.6846301311001
33.3641938157267
31.4399466636389
29.7708161806321
27.9592666312244
25.4505295716272
22.1920250763373
17.9816778342198
12.4124822379764
5.71016512071251
-1.370122243055
-8.42942329452224
-15.4071744766887
-22.0400076571664
-27.9843580606834
-33.0117151149459
-36.7975492583862
-39.1703040731711
-40.5697693049838
-41.4376576157706
-41.2888933919972
-39.2867157222096
-35.6061659792001
-31.3859395930719
-27.4098820127099
-23.4582353585845
-18.8042396532298
-12.9043717037524
-5.75925101930776
2.25507123059348
10.9858411883311
20.4242844949737
29.6273562228306
36.5866682566123
39.9579641572332
40.2915923087328
39.0961278971278
37.3994217893343
35.3925876202501
32.6857990316958
28.8617025692113
24.2880900123065
20.0091013816649
16.4452508296074
12.8996636615007
8.63049380185643
3.5413503962994
-2.25595713890423
-8.51057210119183
-14.4781564587475
-19.4050013675469
-23.0893389190054
-25.332503541752
-25.6489597991117
-24.2210287909875
-22.1841776623253
-20.3437791036241
-18.4984875903884
-16.3642109844352
-14.251541482167
-12.6146363428875
-11.6367495741076
-11.2003623526199
-10.6931256238621
-9.23229391207446
-6.69172037830857
-3.92515068803773
-1.36799300761576
1.78947963282901
6.31259082826541
11.4962703164023
15.6608789371109
17.6895202146325
17.8645148907053
17.3850242921605
16.8771884331783
15.4132178213877
11.6395816659761
5.78295883189047
-0.311366975060697
-4.97127060971729
-7.69148103394602
-8.72713879674642
-8.65135644908123
-8.10438344182652
-7.40993046515753
-6.63047510043557
-5.89125374173231
-5.00896186933018
-3.20080061486427
-0.0931158004184476
3.47349711576106
6.50579520864368
9.02110704167251
11.4476919527468
13.8019528520125
16.0971424026802
18.6350749807601
21.394081751838
23.8664370440209
25.6752647485811
26.7230457671571
26.8719850965136
26.0982833781221
24.6054229284717
22.1626975794855
17.8648603763237
11.1875751298092
2.68809074565432
-6.80589563566374
-16.8885108927731
-26.9853059511987
-35.8524903348525
-42.1728002056605
-45.3972576769805
-46.0421824246895
-45.296179873362
-44.0036164942778
-42.0248208112742
-38.9527354285158
-35.0430781462879
-30.8288602082775
-26.3906949983753
-21.6797150417866
-16.9098661442583
-12.0586623830423
-6.69661057468215
-0.729227494705727
5.33788168356565
10.9385196840171
15.653301825498
19.2510667219626
22.1477899399635
25.1244984435757
27.9614142865882
29.1998684885986
27.7849252143583
24.1406240771286
19.4615197286728
14.9140144895122
11.5514626262023
9.89099927205138
9.31879784868014
8.64508551080808
7.35596483726567
5.90296328831557
5.00763566298334
5.08724214492521
6.00217080244462
7.09821615914171
7.88099274120383
8.5403496537704
9.26600958847591
9.52959266294275
8.86678305189386
7.84289811500207
7.42360958709343
7.83401446432861
8.56027041013175
9.01486189654342
8.93764222085651
8.48169269490023
7.84682944783388
6.72818883289196
4.67757443280183
2.04196960469877
-0.350177065194816
-2.38769564439171
-4.45342637568032
-6.18265815392955
-6.72457666509695
-6.07831118285616
-5.04232708202322
-4.10665093606911
-3.2348228926882
-2.29251433374777
-1.161025919718
-0.0516753560233638
0.0122637179332228
-2.2357213207796
-7.0497418580964
-13.4795711920667
-20.2219665092039
-26.0819951646788
-30.0381902679373
-31.7313170071582
-31.7866605483084
-31.1976069585196
-30.6532113753143
-30.5430761807937
-30.8670852012996
-30.9202292138094
-29.7329039603776
-26.925295255843
-22.7898630482353
-17.9476314586952
-13.2277948519111
-9.14655913223802
-5.21148170547449
-0.51721570330299
4.94017997961047
10.3962036094061
15.5229638410325
20.5495499817895
25.5023061458976
30.1600203221651
34.3782844742412
37.922454178281
40.5108712598204
42.2398074782734
43.3016910711736
43.3533677697722
41.8627599844206
38.7917680409384
34.4055447597424
29.0058753043321
23.2842390078827
18.1677672709354
13.9182851324959
10.0102011890079
6.02543936686742
2.10986962789448
-1.3205091680819
-3.75302731079757
-4.75845892451891
-4.61139652407311
-4.42147058288106
-5.17436010023309
-6.99697415799113
-9.48569371230728
-12.0552050657891
-13.9826617545655
-15.0423579170162
-16.0763392753544
-18.1350555039915
-21.2577365572007
-24.657558204563
-27.5784091773995
-29.5076847065782
-30.2002053097687
-29.8599145802536
-28.8337478415147
-27.17774601179
-24.917434367686
-22.248891826288
-19.0385706854321
-14.8230563147247
-9.68580645051027
-4.39239424693865
0.426167595283581
4.39498832660765
6.97803625324924
7.93862056726106
7.88323966264316
7.60397121272283
7.46568960882012
7.90782289205135
9.60473555785067
12.5971786956514
16.0294100040391
18.9703031935934
20.8066364124961
20.9866887395587
19.3155385007583
16.45944529288
13.3926411227329
10.4724461723794
7.59703307586329
4.86355986082284
2.53976830879943
0.806672795858398
-0.206096233851308
-0.603327957579822
-0.875228874907793
-1.32801228302518
-1.65768728287647
-1.52676308135589
-1.05220857312314
-0.452745380724246
0.124561790043841
0.371594607622043
0.156681396906871
-0.0546532760736834
0.162030086855335
0.462555283272987
0.243915883278377
-0.60939148353087
-1.86946692488161
-3.19319136062725
-4.02563431559138
-3.98090132957503
-3.27087118301308
-2.21424120460606
-0.837064186336016
0.495244447695378
0.885622195358946
-0.0453752650774473
-1.67476748046195
-3.24654519602758
-4.43080329699575
-5.00722951155583
-4.95540911461142
-4.8889671678591
-5.51714081690003
-6.62954876879413
-7.23900411427698
-6.56128297473881
-4.38132805053512
-0.94494397847424
2.92511441929062
6.06672679676606
7.78985757115253
8.19426026910619
7.8016283077129
7.33518987090751
7.47694339425676
8.27712773442214
9.14961267838757
9.62605308932013
9.51418074588329
8.44456964039183
6.18598415728002
3.29505497217357
0.660406501980888
-1.30119769040142
-2.48220512729581
-2.86863877065496
-3.00631989591393
-3.79980606389001
-5.46859377927212
-7.53614944134633
-9.78254155684997
-12.1694673752498
-14.0375514228539
-14.3946616115385
-12.8757317338765
-10.0015032597584
-6.98111291259599
-5.27675186821982
-5.36829113752989
-5.78234722940393
-4.26660911407841
-0.118691766683366
5.20010098902581
9.52918205064956
11.5227521350568
11.2853240654743
10.3439062269416
10.5579679880575
12.4080830838196
14.7738398401787
16.5385736104549
17.5274796866762
17.76570265521
16.8852792015005
14.5518002033511
10.8642163164809
6.33242620012807
1.69513386083678
-2.61290583640571
-6.86837218204931
-11.4707714867358
-16.2227825464697
-20.752819501472
-25.0734040719765
-29.0618196604347
-32.0538734206785
-33.462166228183
-33.0725431573366
-30.629219186089
-26.1747179455252
-20.7719332467934
-15.7940767293304
-11.6488395268943
-8.03766194908681
-4.87726080696129
-2.04586504424489
1.1323623350385
5.22905073855406
9.84431130883413
13.833794332687
16.2065207645581
16.9055806873511
17.1076415653376
18.4255679479712
21.2340836983705
24.1135835750001
25.4136782366738
24.829391151753
23.0763277377697
20.8845818407189
18.8165794281414
17.2581644281253
16.1439861135161
15.1848723348289
14.2993926843299
13.3556432993814
11.9114879890831
9.69639452813179
6.89289183403012
3.76112951178298
0.587589825182511
-2.06426656150211
-3.75199798807877
-4.64595278568141
-5.17828391475289
-5.68192678168984
-6.61400748335937
-8.27854065973263
-10.1100443970968
-11.136042400869
-11.1568378442794
-10.6462433006872
-9.89616767861603
-9.14999271298969
-8.95453173783134
-9.49436828773017
-10.1463829667525
-10.2369632033415
-9.63481287535389
-8.45462843264652
-7.00053157443288
-6.02696026008698
-6.14571723064561
-6.92977342146839
-7.33970999054121
-6.86830336306764
-5.59422702142333
-3.55727299489058
-0.912877628434032
1.64535428872194
3.2734596390056
3.60858399691438
2.93331880689232
2.07259303796806
1.87797568982614
2.37562152564931
2.86353533289023
3.15713865975385
4.01984557921957
6.01530880804141
8.56063684796437
10.2602464340269
9.74924886752228
6.55593167036048
1.69796364286673
-3.03499411864735
-6.8210720417875
-10.285368426881
-14.1758399716597
-18.3917024453031
-22.2201624638869
-24.6101231407628
-24.5140423526144
-21.9020711699098
-18.1024825067787
-14.5323961770402
-11.6307699473627
-9.22828613174612
-6.90733165615499
-3.65872189679266
1.69309673919888
9.1069031545748
16.9228569894121
23.0713334019166
26.3785741314209
27.0215855040426
26.2892125780527
25.5638498522368
25.0833029912826
24.0795134028431
22.1133682854165
19.4253866003299
16.1426030437173
12.3205349809938
8.68840186456187
6.2516156924746
5.16407381429748
4.62520870938832
3.64201061921541
1.65763334166074
-0.972420607165893
-2.95657079987239
-3.06304405519452
-1.14662709964705
1.99704431310001
5.16971499703233
6.90575441052114
6.07680823867057
2.88485264900431
-1.4337535456764
-5.93829925464778
-10.308979260112
-14.2821793062046
-17.6929439332054
-20.5882728610776
-22.5825714664271
-22.8322308936488
-21.2551480678295
-18.9905778477209
-17.2259847972441
-16.2927290660187
-15.9868075241573
-15.8295654067829
-14.9115761918521
-12.3828949328293
-8.2548551313205
-3.21450028484485
2.09597399842792
7.23175664059821
12.0197577435689
16.8712011915482
22.2448111530621
27.5266971823852
31.2569925804545
32.650237937402
32.3301485234717
31.6613647999336
31.6238951101031
31.860869859117
30.6638286457132
26.4371314768018
19.0449246670307
9.22267977415525
-2.54148248238988
-15.4977348974327
-27.7507405400769
-37.1223331877683
-42.6888894325163
-45.0200486557815
-45.4062215980458
-44.9421761099477
-43.7233459033875
-41.0714934482409
-36.9395348558954
-32.3527871043722
-28.0181577238132
-23.5494059570733
-18.4962052605947
-12.9820060619875
-7.06140974861914
-0.7287690996072
5.24660216764269
9.78645946705684
12.9424507233296
15.7096198151866
18.4696678297616
20.7468205922043
22.2659403193383
23.1119789235419
23.0788162579781
21.8127390880829
19.4928339742214
16.9739733572844
15.4258342526541
15.5867688444864
16.8485489290273
17.4741410413148
16.2696579824202
13.6494912697551
10.8623597198493
8.82619658538187
7.79366298062567
7.45949713263714
7.37232260501658
7.57555954294144
8.39838577853613
9.45964632891548
9.83860337530041
9.46447995309698
9.22305064009608
9.53006903933426
9.90607674326738
9.89851176943127
9.35733298808973
8.05115056891578
5.93867281183805
3.47313619894393
1.03197070711408
-1.45615342043066
-4.01461319115643
-6.41259738923192
-8.59550629912974
-10.6395359406969
-12.3395296031205
-13.5956462619996
-15.0166532649677
-17.3150940373709
-20.283799842602
-22.959590130287
-24.3739619708868
-23.7755051406784
-20.9455918225693
-16.7876775893829
-12.9042726134868
-10.324588111238
-9.10109032358006
-8.85585943885497
-9.11081016305259
-9.47057081672828
-9.94533026959911
-10.6727268105879
-11.1759104315404
-10.4538710449436
-7.86734609437031
-3.65610936564325
1.06480200750331
4.67469565319252
6.15160188837759
5.97812677800231
5.27584125489537
4.37474724974927
3.20378760515827
2.45096421275461
3.03006061555633
4.85409240484691
7.08486200096498
8.95114391600951
9.71462101730172
8.84440934053184
6.91128355681175
5.46403635926287
5.59824109659194
7.34579215825569
10.3605620409674
14.0943230670051
17.3200557960544
18.6014663337197
17.3567790535956
13.8780802196028
8.75019297649105
2.87963297028788
-2.5204066080337
-6.5962257815737
-9.1711773603784
-10.4264272716614
-10.8022417057695
-10.894726388666
-10.8211619736024
-10.0393656238424
-8.18154626482091
-5.59519788162427
-2.93662112979149
-0.783423914793599
0.489045721051795
1.04487935187685
1.54390846650077
2.44972129882774
3.96935537033708
6.61607047911022
10.5769949589809
14.4421736347143
15.9680605501566
14.2911370557161
10.4000137476357
5.80455266846466
1.77421966766099
-0.786264961324993
-1.87501947474598
-2.40170662021516
-3.01883833710897
-3.45270065281739
-3.17556928492502
-1.8965534210814
0.680186976869008
4.50384639363354
8.41225016304636
10.7196310203132
10.7573909883034
9.20486197533863
7.15184988308743
5.44047883242863
4.40116977424869
3.52919522092526
1.73367944094299
-1.72882066184016
-6.67325610677307
-12.1020971315504
-16.6749103921983
-19.5085155849098
-20.7098476699819
-20.7903756068549
-19.9341798290883
-18.4813222005144
-17.3950917691562
-17.2109744359219
-17.1358076742895
-16.0701210263696
-13.8402472850589
-10.821038466316
-7.22414782855954
-3.21543513502335
1.05387197418529
5.59900688266807
10.0975154950902
13.6651443641939
15.832273895481
17.0083929522919
17.3841374201229
16.4298877416612
14.1668877762771
11.8369647941714
10.4658959108786
9.46272763076049
7.22497271751264
2.71013961714424
-3.64897077889068
-9.99570937535388
-14.1370226847808
-15.2337917484343
-14.314624894976
-12.8986686630389
-11.6500962114884
-10.4353684564754
-8.80137770087865
-6.29646599665134
-3.14544334879329
-0.560954530145968
0.27029531362278
-0.633288738047754
-2.08463712227713
-2.43787850922446
-0.364465768453339
4.11685792665228
9.26741359793232
12.9810804144089
14.4776053251906
14.4178069986574
14.027155067876
14.4005444279809
15.6807527401127
16.55039240042
15.461927941039
12.5012083015066
9.18091880926199
6.64551619552861
5.00911428240463
4.00695680660999
3.27649603740918
2.28164953798915
0.66976656104406
-1.50905565922296
-4.09432200101257
-6.70769464246927
-8.29489310813521
-7.7176884679502
-5.11342514850315
-1.91774978675448
0.656119602398977
2.53904728850045
4.19998691706853
5.66751288287301
6.24947655050504
5.22276189274103
2.94207517832235
0.799780339427607
-0.350485844921131
-1.01238815473322
-1.79831507160897
-2.39793263143604
-2.47178652953026
-2.58236662330284
-3.56965148526714
-5.66971003707658
-8.44642567975493
-10.9705566277999
-12.2454739409195
-12.0786651834508
-11.2287942165986
-10.4175911337375
-9.80631358354619
-9.36258988995472
-8.75275980651346
-7.15945657382395
-4.4166260072919
-1.90866843080567
-1.08118837677891
-1.49479759429479
-1.43127845918777
0.0573100751328506
2.49793468074967
4.73382288470637
5.59377665364628
4.45446100200894
1.80407948443207
-1.08071035281793
-3.22535429198046
-4.41687939299208
-4.92193989717797
-5.40545521475679
-6.64317009852883
-8.53537399148516
-9.89431345899322
-9.81320187860594
-8.67709327908208
-7.41263298165387
-6.30176114902207
-4.8098305477896
-2.31987996681388
0.968900636448297
4.03715834590769
6.32754302251091
8.4656137739413
10.8994316315719
12.7297272426096
13.1670635288272
13.2079908612192
14.3789536076252
16.6316929462661
18.7958076399302
20.2755747055605
21.1734538158243
21.4818229360798
21.0069956434805
19.6755612659679
17.6893292835875
15.6525802373952
14.129415526146
12.6657445495104
9.87796355933846
4.89312703479074
-1.91189362330175
-9.63107224045842
-17.3587754374637
-23.9820349738549
-28.5244800166781
-30.8788751280341
-31.4114094881796
-30.038195853208
-26.6212360570849
-21.992477559633
-17.6757247183821
-14.7797122365366
-13.5429119305486
-13.3961944868701
-13.23299322413
-12.2307483619869
-10.44568193776
-8.23752481749705
-5.63463215997424
-2.71291985628099
0.172889324325791
3.02019687474749
6.31715967252298
10.2660497533398
14.4532432456654
18.2070430157526
20.7915693700266
21.7465956465912
21.5724590309413
21.463805413402
22.0768330758153
23.3063022943449
25.1105658452636
27.3764176446417
29.1876076558018
29.55041794632
28.7525165813287
27.9437543205465
27.4766061891662
26.3682170022761
23.1978854506951
17.1409335532229
8.51751098389472
-1.3032484009867
-10.7871887457171
-19.1168270221792
-26.0558905855939
-31.3876390198195
-34.9929896328775
-37.0278031457027
-37.5895795054649
-36.7954149227966
-35.4051475060809
-34.5080287837287
-34.3939445794078
-34.4839525332912
-34.2355642630456
-33.3164845749271
-31.1957849334954
-27.3592855814223
-21.7638477758213
-14.8174922013807
-7.36434045595402
-0.699839826811053
4.05744521995363
6.62761140538498
7.27248288884732
6.32672494712923
4.40679794589746
2.35101680937284
0.535632636959626
-1.08050450367961
-2.15886039598156
-2.04562442996032
-0.591000416752189
1.74323024483912
4.32490862204618
6.57369651053456
8.49532661303472
11.2922710587953
16.3558103987473
23.1701600176705
29.2907850490977
32.9460888367211
34.7264864348174
36.2949199315432
38.388903486781
40.488300546948
41.6223641944525
41.1626816473222
39.2901886478741
36.7195925763733
33.8341456569489
30.4498456715118
26.3638046136629
21.5362430263464
15.9440005549539
9.87449336890471
3.9642747542857
-1.59900151565068
-7.36214002207649
-13.6795511308479
-20.0603254221212
-25.5825608703496
-29.4488661258584
-31.4175055981737
-32.293623058469
-33.4717313393598
-35.4616545168187
-37.5992103747281
-39.4321486387534
-41.1672564919541
-42.5125444380171
-42.5142517291826
-40.9323860856761
-38.6601934342098
-36.5779176339111
-34.7568984845098
-32.6758996404951
-29.6210461673145
-25.0509902463428
-18.8553699511131
-11.093500992628
-1.8254248077748
8.09517069100205
16.5178415038027
21.4583544755262
23.0012484776828
22.9191345571989
22.7645832534668
23.1300243071181
24.1605823941122
25.8176883138738
27.940502384907
30.5189197913101
33.5706956030155
36.6865627007421
39.0293067443813
39.5637044647707
37.245835479349
31.8149235789531
24.6048968804318
17.6749255874996
12.0244993264331
7.44620394613508
3.74533196807307
0.933168976398151
-1.47532594553357
-4.17967788086683
-7.14959876205652
-9.54945663364181
-10.434784290735
-9.47812880621442
-7.41392010234475
-5.46082639430545
-3.87756667211434
-1.86565921268675
0.585478546586041
1.9911159086576
1.40712877414057
-0.024276327160986
-0.796088858549638
-1.59952503590759
-5.00187767436239
-12.6438336580145
-23.2211945631526
-33.1339977675674
-39.1379664427135
-40.7085095313131
-39.7882631556729
-38.3184409162001
-36.7446473961398
-34.7929438488199
-32.2137187869142
-28.3780181007588
-22.6057065947998
-15.5146627235663
-9.02025148557047
-4.57313594656081
-1.96897451374578
0.177191977356875
3.30684422021083
8.06113012591561
14.1208015054205
20.8213005589108
27.6085046201227
33.7382174012669
38.3828935152609
41.573477108588
44.0726349995324
45.742931481348
45.1408980348314
41.2973015729222
34.8521867275041
27.0898494351999
18.9384258260826
11.1892589311249
4.75468946856432
0.316826103326534
-2.08178515484223
-3.29510661221764
-4.88391592444885
-7.93407766279623
-11.8696701170217
-15.0895360097198
-16.7822435962977
-17.3971210683783
-17.5711278644598
-17.5486054706718
-17.4477129869587
-17.1950122016593
-16.3682273426235
-14.6832795824088
-12.4222359479528
-10.2644539847007
-8.9540446692752
-8.60312123078956
-7.78838771034821
-4.3158892395686
2.18412183911137
9.24615661599841
13.8739080246532
15.0791103990165
13.8465376662602
11.6700309064173
9.52899415530887
7.58760157018152
5.74352047597854
4.62256502094552
5.31294394161585
7.76736181040386
10.4436579483971
11.9266958532569
11.9702642384479
10.7831955771408
8.34680245312889
4.67210388773714
0.0132511109405296
-5.2317227133963
-10.4545971383515
-14.92689037822
-18.2430353109764
-20.3535443605565
-21.1367276620583
-20.5766486112707
-19.4304161290431
-18.9099322292223
-19.4659886785686
-20.4813478665684
-21.1409717959339
-20.973413418614
-19.6922382433313
-17.1562905056709
-13.4870029377039
-9.00655315341323
-4.12392613391176
0.921656886915806
6.34945047585125
12.3507700648893
18.2390425302838
22.9428947893925
26.3323171125443
28.9196292383954
30.4084913502578
30.0459102829834
28.3617580136844
26.9131932890747
26.0370947531093
24.1033708547893
19.310512456173
11.6191872602528
2.95370960207495
-4.28777561006931
-9.17978496927172
-12.5751915621084
-15.2160581484028
-16.4919154069155
-15.9681576903485
-15.0428782355135
-15.5790952862737
-17.4031872606912
-18.4775786345614
-17.3574753668377
-14.4698906212131
-11.0163007480862
-7.42075558460521
-3.19816285320764
1.75627472096331
6.08631974722358
7.88707130116826
6.92279375591013
5.08798487963796
4.28226861770947
4.70867766561755
5.44412062623369
5.50725851028478
4.12310656386686
1.11754166076363
-2.54426322446752
-5.27208141417826
-6.05619878551163
-4.99526777002173
-2.94553096264312
-0.734671503615157
1.55535308193283
4.2086213492553
6.58483717666008
7.25620559025596
6.04953542649083
4.71680676754916
4.78569667197286
5.92637805512513
7.01765491997823
7.53085198824027
7.39867739081132
6.72404132087129
5.94936673863062
5.42830733169852
4.79012345781172
3.29546933906913
0.545847906854964
-3.40752608551586
-7.89084474557653
-11.2357578117778
-11.6280299199612
-8.94613325557295
-5.01522527811249
-1.68384780648131
0.637928034945739
2.49072573427097
4.31332605128969
5.98787267251443
6.89177114364439
6.52196559611113
5.25476131492844
4.03897494506706
3.34305480760393
2.98728755651145
2.82043421160091
2.95211642005121
3.5449479355475
4.65691930054373
5.8137305554662
5.74916003783766
3.35202417721604
-1.16255273407315
-6.65657904003911
-12.2219509226655
-17.2886079238417
-21.3128458271935
-24.0970843969064
-25.777426113295
-26.1491723780342
-24.8205092351634
-22.0988639981782
-18.8439260172075
-15.5879128338842
-12.4860412493986
-9.55637924333301
-6.25501868429298
-1.57150390651883
4.73939837910935
11.6641833818784
17.9986139380688
23.0808477242488
26.4134124810783
27.7864087692167
27.9873435428585
28.2409562663492
28.8321233809495
29.1698983686124
28.7819879126864
27.1997373321805
23.5189384632634
17.2743120795028
9.38671965234801
1.55831625787003
-4.94523010569805
-9.89726199850261
-14.1935810992636
-19.2168295736131
-25.3813862106024
-31.3869979855096
-35.3229390021799
-36.2978331280536
-34.8668397424809
-32.2012007454149
-28.8580951873384
-24.3415622388728
-18.3306068422864
-12.0715980202001
-7.34221524328989
-4.14047302943156
-0.9418358303831
2.76577722173331
5.87904707209572
7.71663732555728
9.11713085743261
11.2258048475568
14.2095483991948
17.2824838825193
19.3896427173479
20.049634538416
19.9490017720752
20.322405100352
21.4989088386147
22.7040325388651
23.4506101558841
24.1604529441265
25.0443227712137
25.214590402575
23.3712809629505
19.0653681683221
13.2946055424009
7.95906734445981
4.33634794624999
1.92707302939454
-0.931241325090597
-5.4113385858693
-11.2695621813346
-17.0908298256069
-21.3798435604146
-24.0178426747727
-26.4135296214578
-29.3437633230081
-31.1969248430103
-29.7045160728064
-25.010041356448
-19.6549164284386
-15.7938161456122
-13.4315115295953
-10.9912926087849
-6.89573029360037
-1.03503328857711
4.98317590896383
9.39779342256526
11.8618744783679
13.0775801666464
13.7444233293041
14.6158683749777
16.6082648261849
19.8214400292582
23.0554600619791
24.9764969433786
25.1433429855503
23.4604527703784
19.4220799072583
12.4562352979002
2.65244302458675
-8.82454850536616
-19.6544240517259
-27.2555821311254
-30.5400726867729
-30.4932984302033
-28.8031275423275
-26.5717477716134
-24.303258878621
-22.1174256464466
-19.8384476189884
-17.4096947761812
-14.8166775180446
-11.2885480799836
-5.70912973825455
1.48888032565761
7.95159722775155
11.6591009033859
12.8035735515181
13.2513645837766
14.93684716246
18.5191459067523
22.6529643693005
24.8809609623303
23.9298691085994
20.7069206753674
16.9154143935551
13.6590747137159
11.4702118946845
10.4855980386111
10.2357653411212
9.95550010210199
9.16050977360574
7.58179397134168
4.98949935721655
1.56585912741969
-2.03156035449027
-5.37797293073742
-8.56507041472086
-11.646015172824
-14.5090341929976
-17.3487474618411
-20.4319413210887
-23.2953462725607
-24.751693931061
-23.6815654733658
-19.7689128261799
-14.0183686107415
-8.51819135824393
-4.92135001071205
-3.24657441759115
-2.72477788711754
-3.12417224369074
-4.3453011721542
-5.47886978184504
-5.32677051551235
-3.50153531591919
-0.613604504340157
2.09288992082799
3.40882480076177
3.38688234321895
3.68076277858518
5.72741067919232
8.94372945300875
11.5163714261063
12.5159982811959
12.7030633959719
13.757412176748
16.8687708509452
21.4906634129662
25.5785540913457
27.5530419505813
27.5897616633713
26.5136305005426
24.2301243458444
20.0170322364614
13.7563121187948
6.25297885227341
-1.12564811006705
-6.83550259269664
-9.98777311511775
-11.1416695912625
-11.6951257760881
-12.5314707378095
-13.7576793713206
-15.2450861373532
-16.6892198257404
-17.51592670672
-17.0919437945075
-14.6675545370895
-9.47796971413174
-1.90535675837415
5.72958475867246
10.6521409431971
11.9895811885905
11.2126338993498
10.5016059585801
10.7875877372512
10.9001770419524
8.74810550686711
3.81382858860136
-2.08324608441477
-7.0588950645724
-11.2448237744681
-15.9103281881572
-21.5896872825831
-27.7723723015819
-33.4488292762069
-37.4582558844287
-39.1143032081721
-38.6988732953515
-36.8346775649562
-33.7443713505424
-29.6676781358559
-25.2374565307036
-20.6617719252013
-15.2563103932351
-8.50082322807546
-0.902388485764253
6.62062284133067
13.5113249537524
19.65401535188
25.4592814354636
31.5906937721186
37.8187474665105
42.7738412549917
45.5655557136803
46.7222615601744
46.8761104504775
45.5979465086818
42.1580485670752
36.5823665091989
29.6253517965766
22.2681718245512
15.1301936925192
8.00114112296037
0.445595288875532
-6.94282621371869
-12.712585299334
-16.136213381097
-17.8818736828925
-19.2815550286336
-21.5506111949952
-24.9960205277922
-28.1692892269395
-28.6725666419952
-25.6096089175456
-20.4772510590109
-15.2773761701977
-10.7376258210679
-6.60133846945894
-2.56577663607793
1.43781206331871
5.16633389835353
8.01999721044477
9.43099139665411
9.28975544488242
7.96836322163916
6.35090770362249
5.67997470529984
6.43483351424451
7.34844402985254
6.5241059382468
3.5110935989933
-0.528181282609423
-4.28119182640453
-6.95473309377327
-7.96329295693653
-6.94505604296039
-4.00426828449471
0.390907445186095
5.52458616312363
10.4936092680389
14.5169243410776
17.1290210414233
18.126268844022
17.8541110037351
17.3253963781278
17.0722333154007
16.0087808640672
12.5105115142093
6.55140645037428
-0.0785817872690831
-5.45226347065857
-8.91075027368183
-11.4100522563579
-14.8335654771162
-20.2494946382093
-26.703049078918
-32.3281959486979
-36.2953165117012
-38.8927034433525
-40.2601882108364
-39.971395890795
-37.4389651525117
-32.1370031654479
-24.1869764178398
-15.3863058499649
-8.66221752891888
-5.43660671917732
-4.02108334670806
-1.30927888484278
4.26206921541482
11.5070240029609
17.5652334485055
20.1018274781028
18.9830544209814
16.0003940871298
13.2726931732313
12.3632749718658
14.1883683512478
18.4096475500949
23.1213149754227
26.2685770886182
27.2235728791223
26.4004380329632
24.1689355076632
21.0377515973346
18.1918323384165
16.9841589885399
18.0672075072203
20.9768402192813
24.0861997304779
25.3347052011101
23.657034167462
19.4818655851885
13.8390363084474
7.78876735239392
2.54969264308803
-1.11629859778473
-3.80715338996407
-6.81017790028556
-10.6007532655985
-14.779319370385
-19.057830384259
-23.3137703346883
-26.9880276646753
-29.356624780911
-30.2490339534574
-29.9924824865755
-29.002515559532
-27.6306925814981
-25.7372835388068
-22.303258479797
-16.3226769773106
-8.29974313139004
-0.323299292574039
5.32016763588549
7.34095611878447
5.73028226248768
1.50674206788241
-3.62083667998602
-7.43120780255806
-7.76252176656103
-4.13888275406254
1.08460716377819
4.4565358317266
4.673516599264
3.22282597141846
1.99475057877128
1.4897916652228
1.21755484970557
0.707520757741276
0.244772259954639
1.11900669447983
4.3737657903918
8.92174222429369
12.0378904618789
12.0886722462128
9.70473930983419
6.29927443536528
2.76733952016011
-0.338915740418183
-2.63155473804361
-4.09720028576984
-4.7587819200718
-4.26217533618293
-2.34339759165357
0.700525469902723
4.46681465264371
8.7456413321022
12.9024842263724
15.6409385443247
15.9265456463238
13.9627019036697
11.2677128002214
9.78571349091517
10.2745428386881
11.3386235322612
10.683486087008
7.37462967684487
2.32833710265654
-2.93348315109055
-7.1205796417228
-9.29176755594856
-9.16023295053647
-7.18623609038985
-4.12023785039431
-0.913376287184402
1.11436570079129
1.01217376658679
-0.913414098581376
-3.64310127145668
-6.37893632546689
-8.21812725970912
-7.86382205147202
-4.8585069750903
-0.610887191651079
2.6217575126371
3.50989297669384
2.2680315411546
0.119210121377693
-1.63672959405302
-2.44738410640908
-2.64632209904565
-2.90128912854672
-3.79587007296261
-5.70481438846685
-8.35232889044811
-10.5753795100554
-11.3533893033345
-11.0144481848696
-10.7127407747801
-11.1367774156375
-12.5309938074486
-15.135869896754
-18.3781934731427
-20.2967102083359
-18.9608010983842
-14.1791215765502
-7.36690246062761
-0.351706535383606
5.44501321726091
9.39722721084823
11.6156082725915
12.3458195554798
11.6615788167719
9.78957428680597
7.1254479191861
3.98089770868775
1.04976039673841
-0.309485871616946
0.639061862275181
2.88188168914245
4.84339173993175
6.08632356350487
6.98428487620183
7.58980666734498
7.70876317473004
7.38964803853322
6.78123236029844
6.10309877868059
5.92672250185273
6.84840812818401
8.89202238214972
11.7863751548549
15.5528319788942
20.1488995314232
24.822517335998
28.4095382080746
29.9892735548331
29.083399898141
25.9994514652128
22.2282658928696
19.5551815317723
18.3096905352324
16.9644226441932
13.6029081643246
7.66751224003024
0.548946874226785
-5.62722253980937
-10.3499275718387
-15.553470973232
-23.2770761521256
-32.8179091334251
-41.031786439459
-45.104118509753
-44.4389098545114
-40.4929286918887
-35.5130865100926
-31.0188116510002
-27.0024915679248
-22.6645956819607
-17.7156517756058
-12.7307439836597
-8.67180290858861
-6.17188798038216
-4.76287749742649
-3.19919799769323
-1.41086110267783
-1.30955882442181
-4.25841066128714
-8.56509385487097
-11.1756126463853
-11.2363637650784
-10.2817856156527
-9.39298383457139
-7.92978906520016
-4.94733563236934
-0.429317899869117
4.95997162264516
10.4405163724559
15.3842209626617
19.3957442934289
22.1557093640171
23.5279978281858
24.1198394938101
24.9326968898848
25.7458437925398
24.6377169363708
20.0051511828505
12.7194380313959
5.8671566293723
2.50743383985218
3.40848433381218
6.49067982634634
8.72598993351469
8.82097143664713
7.70665944134862
6.79726818821973
6.83392331541048
8.03989376235319
9.9547604003562
11.2598405855107
10.9614835115501
9.47916409502033
7.80431393102875
6.37277168484589
5.51059548547109
5.96690092938378
8.07160456982152
10.9478833290871
13.0704835591229
13.2707938841212
11.3050210459638
7.99702055453543
4.55777906294135
1.18983459660932
-3.22114039556896
-9.56769338609538
-17.3566703283059
-25.4237071040141
-32.7610850274047
-38.2414165202233
-40.8001564561588
-40.6177120515014
-39.3638263444542
-38.8199050876331
-39.4611645916551
-40.0536108120535
-38.2767789954241
-32.3127099972228
-22.4061333288276
-10.7338964326357
0.300153615117169
9.50504307282289
17.0577620970112
23.6320603887374
29.1343407451647
32.3107569859694
32.1118716408349
29.20610529494
25.411914310333
21.9719274520546
19.055588924086
16.3076892576828
13.1414594032947
9.22954709842123
5.34418498537305
2.94976220727191
2.49820184225043
2.79879021053581
2.2558129592911
0.15305211318523
-3.05330350938231
-5.93930317597879
-6.9394480330632
-5.81176225615697
-3.95356839144159
-2.63551792236517
-1.58726183559066
-0.007501163594021
1.87430068991136
3.06085970700413
3.03207343916933
2.2165403130705
1.60769766893566
2.05052432991679
3.64289261308846
5.82415085638435
7.81927629962055
8.59392235811663
6.95630984448252
2.65258731766479
-2.99960617805005
-8.30520215756007
-12.4590397987508
-15.1480074629685
-16.0094417859377
-15.3265646880601
-14.3577370380985
-14.2278150607352
-14.9712489913713
-15.6954895138543
-15.0482961126282
-11.8605589131724
-6.16839175220553
0.523170828179657
6.28505176688282
9.79263837568717
10.6984603478734
10.0080901991178
9.89990599214437
11.9612178093711
15.4213743607471
17.9149677411567
17.9900556669518
16.2681694097383
14.3994388949952
13.4988163041316
13.2897845324523
12.3065245192403
9.32468030117999
4.82119213661754
0.582439702856676
-2.01049741511825
-2.78717883277274
-2.34052494354486
-1.47735725823463
-0.760990305776727
-0.196564962802654
0.278385332782749
0.095443035482657
-1.49252362131562
-4.46719284999205
-8.15082780849798
-11.8657765972741
-15.0855979318856
-17.5747510454628
-19.5845320600369
-21.1182710179599
-21.2184671858953
-19.1595983968821
-15.9558866570256
-13.2653559833596
-11.1571974953878
-8.243873656235
-3.58088980738389
2.59654427018242
9.44357057486208
15.9454119110781
21.2888503593557
25.3084658855681
28.0734360980019
28.9196675047569
26.6736463284473
21.0337477439078
13.1125975096408
4.66272870764381
-2.60205043955625
-7.22597853178085
-8.50392317678846
-6.99516210374475
-4.40926065630788
-2.9509518253069
-4.13003642854569
-7.4333840727613
-10.5886792297511
-11.8418445356524
-11.5776738930144
-11.4004002097368
-12.3504736579189
-14.2161415444603
-15.8057534392315
-15.8564839408885
-14.3486379038247
-12.6838888534897
-11.9858884814728
-11.6884846410582
-10.2510704637731
-6.66742950653668
-1.0391130991423
5.59782399214304
11.8407198321528
16.7503034116488
19.8358127847221
20.1273141434338
16.5353807550799
9.85909490365203
3.21147852759755
-0.547370585061166
-1.13922899053169
-0.265788610965979
0.399204770000986
0.260673268590942
-0.222458023201629
-0.0904238279256266
1.13556737257521
2.92900393327268
4.59255066327927
6.32357983302387
8.87428975661671
12.3674070240144
15.8400474497965
17.8550280894417
17.6665190167764
16.0226431250083
14.3971371271251
13.2021953459585
11.5071974722228
8.71699842644431
5.51869150931656
2.90916957673537
1.21655110286763
0.187166543106903
-0.744787058139727
-2.12165738302722
-3.75751747957931
-4.76922550007407
-4.78879568095116
-4.60459337159034
-5.41302668314105
-8.10221327758334
-13.023784043982
-19.3978987030991
-25.1091276434621
-28.037896471288
-27.4818265723221
-23.9822416442252
-18.6245116800177
-13.027641149593
-9.01215788990298
-7.36394068168753
-7.18237863221067
-6.73132651189622
-4.76233375022387
-1.26999962832476
2.50884411974899
5.01822375592792
5.73409277511318
5.35986614179682
4.63283601989411
3.75072153176916
3.13195911854609
3.5764013107411
5.11113315562154
6.44917423886387
6.04634132335701
3.44126376401627
-0.322524539213399
-3.34727577293404
-4.2172380528119
-2.83061173807918
0.138520040129183
4.00851528644923
7.85994356522156
10.3736237388481
10.7379151427255
9.27697994541945
6.93168999335521
4.88640592224678
4.58797942687519
6.82251952649209
10.6245882401841
14.0657896995446
15.9130943973739
15.7955277083035
13.6054692082894
9.84791210105871
5.92135957350519
3.08369160582725
1.44525448845613
0.259001881796102
-1.36655704962586
-4.09200772115552
-7.89025886891019
-11.7708412630274
-14.4823749670055
-15.4947433001161
-15.0019921671604
-13.4132634027088
-11.2899107401734
-9.24906194315599
-7.49897398292035
-5.85317453883069
-4.19039607929716
-2.43579661368538
-0.461606952212847
1.4861236908921
2.88838441556845
3.89424009051933
5.31983487204447
7.38237802286952
9.28280837848021
10.1445936138432
9.60903402787603
7.7953572067786
5.48976879548605
3.89515949404096
3.45989355884956
3.48570867989804
3.22193364656876
2.48426129118498
1.0506326995341
-1.48309128120288
-5.06521387763471
-9.14186682329326
-13.0717810669828
-16.1177173179602
-17.6487538532042
-17.825619776055
-17.3948216666962
-16.5249339189748
-14.6161724625827
-11.3732618050549
-7.23212066104307
-2.71167539110563
1.79515999160176
5.60024142515801
7.85722636622336
8.12758957816388
6.53573237978032
3.86281778206055
1.6364100173839
1.2361147203895
2.66946795858514
4.95677308274001
7.51286145453972
10.2528621033442
12.7298390465691
14.1800420361816
14.2709739842962
13.306150826949
11.9539199374442
10.8546005351647
10.1004490609032
9.26991207609485
8.2178192359509
7.18922944530227
5.9083831543619
3.56575515379506
0.0523529169797692
-3.79905825840781
-7.31492515821895
-10.2646894552892
-12.1770719415026
-12.5098499865483
-11.4341370268237
-9.7238166507709
-8.12912633929941
-7.14421038233458
-6.72706252608459
-6.03819051593866
-4.23301673644343
-1.69312783323224
0.181127872157202
0.391313626863321
-0.982287373080608
-3.15599578979212
-4.99455280616221
-5.4592316729754
-4.4710812210835
-2.95598924750983
-1.66049292797968
-0.587178806376623
0.259124203923735
0.577580079274167
0.513066250886547
0.912859033534648
2.60113551688705
5.580842792595
8.59362544004692
9.4672890788824
6.82477468788575
1.77612290664168
-2.75633257266626
-4.48173612172739
-3.09972909985747
0.15549590881056
3.40316369984766
5.03049998861113
4.72350818481781
3.60873145937458
3.14395404900187
4.02392498248852
5.86721961147653
7.48587667803056
7.86093685843567
7.2668016219523
6.91548022342929
7.36316338440204
8.07130511830025
8.50067464953588
8.55074226665267
7.91128657625026
6.16488458401663
3.68165705445991
1.41663285552422
-0.237901016252067
-1.57763433836914
-2.78559517460669
-3.8528522436858
-5.00375427316093
-6.50137112037978
-8.35206852659923
-10.5355298350992
-13.0342946359304
-15.5570529122153
-17.7554149501518
-19.5730969377444
-21.006857352733
-21.9368913418178
-22.4027516982888
-22.4396247412664
-21.6439710038288
-19.6462247248558
-16.836674818196
-13.8661320582979
-10.7381574796317
-6.97234883133044
-2.19146187755996
3.6433208788924
9.73659160768635
14.3176510991533
16.2666979326496
16.7770070159003
18.1442620750856
21.100320027931
24.322126157728
26.0329896155074
25.1958938370087
21.8488179317495
17.1805072824849
12.8278585803121
9.63797900291569
7.53869719447388
6.48260177107167
6.5596776017556
7.21498412424202
7.3903961930177
6.53024326746987
4.790454715895
2.54313637220196
0.225958723100517
-1.84207000154067
-3.9015754887185
-6.4267788790019
-9.28014696797163
-11.8409683877243
-13.7507505007275
-14.8619571965465
-14.868359099538
-13.6092230767645
-11.3653618601293
-8.61486124328103
-5.92886758792726
-3.88151829164781
-2.4426263805482
-0.977151044927686
0.507355270988069
0.95687345963739
-0.16294636510327
-1.78869086605386
-2.29401734735506
-0.784799907388421
2.62667501468003
6.68959271931261
9.26569190514114
8.8735762156044
6.00206137384291
2.39334960698479
-0.419843743910527
-1.5234057282454
-0.636728482890507
1.52624385342096
3.58240705979057
4.68599939139138
5.01077321659669
5.0982513752752
5.38402032056325
6.08746710958189
6.76838375196924
6.36302519590922
4.40419635551658
1.78020731510688
-0.195288611765432
-0.93311663041933
-0.646648818941917
-0.0048613376900902
0.203315102592871
-0.419528389670997
-1.75966828361645
-3.67669322429047
-6.10503578081615
-8.68150117592879
-10.9401513603967
-12.7755921381993
-14.1561712880601
-14.8233098190388
-14.8387609800086
-14.7341640654115
-14.5768067054644
-13.7004860722732
-11.7722733188677
-9.29715473179013
-6.8847412438761
-4.75257515059718
-2.77562551929355
-0.335155842580456
3.37162050670854
8.09199121948259
12.093947524625
13.6777931978264
12.7845241409502
10.7883300370255
9.13821557652733
8.35521717695812
7.83315895731389
6.49001271327429
4.0082776312875
1.34261980250698
-0.269979293451328
-0.367092520692394
0.872237092739145
2.99366329210926
5.15877448489337
6.47593423925716
6.697136420001
6.0184026077416
4.42140302305467
1.95017064898272
-0.623362817934755
-2.0306383569495
-1.31135522966656
1.54443500338319
5.2387375970008
7.75239829762472
8.09822083412981
7.23088721488491
6.59621787198052
6.33789873532305
5.55030787621834
3.62497053166798
0.815451673744435
-1.9713179334234
-3.82325691986376
-4.81224512786115
-6.02434515790169
-8.02683268375164
-9.94269120874573
-10.6286743488772
-9.9484496901075
-8.35058051239868
-6.14216932666438
-3.77084295339621
-1.98228159995521
-1.13014292067752
-0.883192084600177
-0.823607423831118
-0.783071789149201
-0.648208842018652
-0.430255952540886
-0.337079776830855
-0.352853355920612
-0.168839369198925
0.268463938556464
0.810695389737598
1.69867552922333
3.23657770455987
4.95623606614895
5.89336626609149
5.52235843881007
3.91620838633854
1.41556198698147
-1.47183878399912
-4.26019723491006
-6.67337942983585
-8.35966984250977
-8.8950882435175
-8.52932089928794
-8.16003307943631
-8.0504551905443
-7.46555796261728
-5.88412606352372
-3.43417781065273
0.00074505537856
4.71159716516661
9.96330690217166
14.0720513107403
15.9538066528343
15.9167912973086
15.0170033407361
14.1472716787634
13.5705097716134
13.0695854318189
12.7199930335281
13.2254280253019
14.7610915814732
15.751620626612
13.8929902934975
8.46624658057596
0.827862947747347
-7.22511082562542
-14.7253180571635
-21.373110482351
-26.9277744305274
-30.9539601123248
-33.1123495133497
-33.6515793832827
-33.1430664942527
-31.6111441417308
-28.6617478460646
-24.514043508242
-19.8789924026387
-14.8149171095369
-8.85795849278325
-2.28501675389173
3.74914778205691
8.26538206100882
11.2100986153708
13.7570737505013
17.9069786667002
24.4313839958299
31.000901082827
33.8050233833728
31.2140024545674
24.7627000702229
17.0922609155064
10.3158352897337
5.6330331301266
2.86608286695701
0.624619367005244
-2.09542589561602
-4.89095961911354
-6.99862772140528
-8.48554451991729
-9.76781349468314
-10.694119557776
-10.6700192032721
-9.21795908255517
-6.27769599827115
-2.42029058883982
1.44259056032306
5.01123640781838
8.73512497347993
12.5596858513954
15.2698621696971
15.6096974174786
13.592541066868
10.5432508796304
8.16574290502382
7.30710380378391
7.28666782195329
6.7639251349856
5.29190310190952
3.47449632829464
1.90784834888316
0.890581129138992
0.856276258176399
2.03325251254241
3.83951333943764
5.34358681994911
6.03824886657435
5.8477185600589
5.03755507236708
4.31043074720996
4.19776197116595
4.23438782025522
3.31472144044484
0.685978223783506
-3.76944987893125
-9.64708502793579
-16.0361548047103
-22.1037506311852
-27.9098046088687
-33.8728207289826
-39.3364720933802
-42.6423991934934
-42.8094876529428
-40.2638949584135
-35.8948189122761
-30.3209500066813
-24.0554343927644
-17.5579571980185
-11.1265226972037
-5.09890400296233
0.186687432643782
4.80350905791983
9.1929147437491
13.7941386942032
18.9711773224103
24.6696443980661
29.7655960452191
32.6746068366929
33.0871643312389
32.2016444617628
30.9818170256835
29.2056296546128
26.3823279320794
22.5873968877331
18.2671794832848
13.9279033997383
9.91913674024598
6.1628221590269
2.47646232590338
-0.792200098839098
-3.06128068909419
-4.24941448570788
-4.57696219425605
-4.10811522256445
-3.12379329686675
-2.30177900594082
-1.94210459326837
-1.67016530889434
-1.28222414305711
-1.14706595936206
-1.53522770308355
-2.33237121344934
-3.50389681081364
-4.98992818021365
-6.19297835500622
-6.54760187892137
-6.58542264974643
-7.59782094659664
-10.2340363146218
-13.7931470136152
-16.589555223204
-16.9920335791676
-14.7603330722245
-11.2972054283049
-7.96784670108979
-4.58444239599848
-0.285720041420235
4.669766066653
8.85473599255477
11.0408876699033
11.0722798766304
9.72553754778274
7.96219854192419
6.10616260856376
3.91344608847362
1.5134002010086
-0.466865108864359
-1.92218267999936
-3.4288562458768
-5.13521430849846
-6.45145944698862
-6.93022975184568
-6.6189837006218
-5.73659663257257
-4.7176949504414
-4.11625097280302
-3.84173342014289
-3.0838345809043
-1.44346886786451
0.615566238813959
2.77073739753373
5.34609340188127
8.38671633938572
11.076833566895
12.4616597244959
12.2049084246391
10.7219819942407
9.12834912693676
8.648363620182
9.47107089853812
10.6236950989541
11.2441917521801
11.3210792512237
11.1077045268582
10.6023134708405
9.70762994287016
8.40676174966781
6.85413795277175
5.40680321169212
4.18712041407445
2.77379366944288
0.923751241041011
-0.828016566732256
-2.0789261910206
-3.47419120308547
-5.82689605041658
-8.91757587087337
-11.8957780956006
-14.3252705708886
-16.5256680255856
-19.4870952308974
-24.2104584591861
-30.1961726762973
-34.9649494067817
-36.1099673257206
-33.5417868872546
-29.0433556416372
-24.2194207987639
-19.5904685159837
-15.0755251973629
-10.5752792879604
-6.30880635208195
-2.79949637095541
-0.111870646600299
2.79126532690332
7.22688766166262
13.4275245310624
20.4806464992402
27.0932579316508
31.9268956888632
34.0678050023719
33.8680103813612
32.6332473827117
31.0706354210889
28.6604742225233
24.6625778617274
19.182801528467
13.2988412278771
8.41964516866671
5.20087259570878
2.97587451140836
0.645267978394647
-2.0843222876489
-4.82312352635054
-7.26905241943252
-9.15869938584323
-10.0891144215072
-10.0161803572043
-9.33029213062029
-8.25504239754092
-7.00785337674145
-6.3813722938315
-7.01900893795352
-8.32239855300353
-9.1469267494428
-9.22302216036614
-8.9607379599339
-8.42081651385724
-7.45242056141629
-6.37366528692137
-5.7067783214809
-5.56747136447049
-5.67765967920701
-5.49006858313593
-4.28909025751073
-1.96423656470183
0.391799489888816
1.5263673923504
1.55058519667716
1.716323983409
2.89513565388371
4.746424221069
6.12203443819523
6.12261308272485
5.00575497415176
3.90531316210484
3.50578053531223
3.50124917541047
3.45049949749747
3.36619423369536
3.3380372052521
3.39165180675445
3.72746608612426
4.38679147619393
4.95274414838845
5.20763380042129
5.50982529223669
5.97295649075207
6.08829997805298
5.612278757218
4.94457755635062
4.40165721348997
3.98855493263315
3.81494351668563
3.84370838757603
3.4519415669781
2.04862950031288
-0.133874628680197
-2.42683080629007
-4.48970705314171
-6.24322785615727
-7.55940993719524
-8.47811956571309
-9.34310068889975
-10.4617067881463
-11.886680694466
-13.3901560096293
-14.3482727697387
-14.0853682841855
-12.6071053167591
-10.3887524820769
-7.45993800398321
-3.69351720138329
0.0730075678360563
2.38286325855213
2.69694606086991
1.78637997481627
0.815061259640495
0.640268002088038
1.55218202619578
3.10825382855615
4.51440090609278
5.33471138179952
5.53339267693882
5.11734474228827
4.22001209313336
3.09845234663923
1.66745959518489
-0.337352792204617
-2.53598946459286
-4.04825286801228
-4.53986999975712
-4.39428550996651
-4.04336260795678
-3.76975333860266
-3.69216058363353
-3.36669565476141
-2.02552806424015
0.371362667617852
3.07974766231825
5.77099942511993
8.7607094053565
11.8271427634993
13.9692653143446
14.6331945706509
14.1570218053872
12.9480669526557
11.2439101126804
9.56313371461246
8.41898737134262
7.71886136254331
7.04817848883451
6.25935100809557
5.51288930844603
5.08891675223248
5.08048792902881
4.93440720641944
3.69264188311059
0.985623262661355
-2.76138263779788
-7.11387043389277
-11.731255811633
-15.7769449673864
-18.3255061223096
-19.3747415108564
-19.6252083582687
-19.5046863120943
-19.0329906576975
-18.0312163489061
-15.8509226182447
-11.6455119773508
-5.53312569169704
0.975874943559041
5.93995994444283
8.1395788876065
7.69651659772029
6.09315042712248
5.1578465169369
5.52188645451807
6.37523435107444
6.79061050670353
6.55506850809227
5.66163238153545
4.04414340821418
2.10412301798029
0.59767522478695
-0.176406565115743
-0.391858022872724
-0.129389977392433
0.50861450685118
1.12419582984276
1.40443068681544
1.30577608554737
0.725653910837358
-0.295877581008116
-1.1278221971229
-1.1161289553039
-0.448297549216336
0.173722663228523
0.391187816329228
0.309226143890606
0.258664335995629
0.647426196408434
1.50768102640281
2.24708475419846
2.35128218684839
1.94927818887806
1.2941360045543
0.477454706233377
0.0007682007456194
0.52894964766335
1.70838420099519
2.31745997624034
1.80299484668346
0.708075878598695
-0.34155227071674
-1.13079275547609
-1.55041150199884
-1.65867881762153
-1.8015272414029
-2.01293225853357
-1.66792264847673
-0.297516559805015
1.64008341037112
3.19452905381454
3.78855756846203
3.59300303518742
3.37160534932158
3.62332412451682
3.56060705088607
1.67545306708108
-2.25816196966697
-6.56530525419208
-9.35721747608421
-10.0876481589024
-9.47547652084975
-8.71601043227567
-8.60390656969407
-8.75252831941831
-7.95155178775755
-5.65010965852609
-2.61512919030171
-0.086705886772915
1.07856491051923
0.732617152869757
-0.224682492007291
-0.243671342646241
1.31101595272982
3.43215320456442
4.71081688818664
4.58243009315502
3.33435262115867
2.03188575908653
2.37009586287043
5.2497280981324
9.38916933604512
12.3587606100207
12.9678224644337
11.9579570595686
10.7224279929848
10.0891765053267
10.0309054673347
9.94676104982724
9.40858507665951
8.73534844076592
8.35372630626721
7.77055529794397
6.00222717966511
2.90523823164728
-0.620274966928143
-3.5238702479378
-5.29128025469785
-6.24274925765432
-7.41027201657112
-9.55942557746713
-12.2846495366241
-14.5220502824929
-15.6437178952724
-15.6655163375701
-15.0311715393571
-14.5945069303698
-15.03753205985
-15.9671494402801
-16.3045658937889
-15.6316955469146
-14.441680938795
-13.276709387748
-12.3513761888504
-11.6736004195763
-10.8832236728001
-9.26666195622005
-6.23428869629544
-1.55419861622828
4.60640879399606
11.3703494871662
17.3158008749282
21.4932049066552
23.8825181982827
24.647735464668
23.6921582030603
21.2175118960301
17.9210257276432
14.3668186419182
10.8628097107717
7.9420645812064
6.05564030952864
4.85538809626012
3.68684310894494
2.58732088647226
1.99783439329732
1.89711805722799
1.88996624092548
1.64837158830971
0.891285089070723
-0.434882110407301
-1.81427840550396
-2.62639776069946
-2.86658020968251
-2.93554665690135
-3.08832244018091
-3.42209424446953
-3.82869717133986
-3.78937349550453
-2.8863848695632
-1.45757308915938
-0.08391948030817
1.16888893709661
2.30568900467548
2.86776871769604
2.54419370261148
1.61559500442741
0.356139028296804
-1.22021726289629
-2.88487348274473
-4.33662762083763
-5.76433372894251
-7.47591313375802
-9.2155795609584
-10.5302057766599
-11.3937639164944
-11.8957484399268
-11.8924151404937
-11.487852662323
-11.1957721458535
-11.1735334518481
-10.931904389808
-10.037257999532
-8.50819344765896
-6.59470412130793
-4.72290548139935
-3.30093753471412
-2.12273296245701
-0.537677697672903
1.50585171182051
3.3172005751445
4.48824686092012
5.32519697359137
6.28752643995462
7.59075576375956
9.14677201981232
10.5036428218708
11.2202327442593
11.411991920667
11.3912136659458
10.9639556858145
9.78642996358078
8.02835956134735
6.01266036760772
3.83375738748247
1.89614608299743
0.951441670486941
1.10709352129838
1.68699766742072
2.30664438020807
3.1539335698043
4.16205488594462
4.83585201502017
4.94092803904582
4.71537151370092
4.50938421615508
4.57991208428025
4.83648679785174
4.5507839134229
3.00484010661036
0.666808827435033
-1.07002465507976
-1.47768428326012
-1.07697524851929
-0.767691981379743
-1.17280206201242
-2.55405151336144
-4.63792610070562
-6.72064240358929
-8.14429174511795
-8.32696861432888
-6.78701029710705
-4.02922751381587
-1.85698738644288
-1.72087698902747
-3.15710259722257
-4.5695349948127
-4.89226459074657
-3.9631189079176
-2.14863105200625
-0.154401846302027
1.40810962131815
2.43753551191564
2.96439093719041
2.83627748344769
2.29687862036286
2.18270876645958
2.95525691533941
4.03136670705765
4.31867074896082
3.13213012744848
0.946843729845433
-0.403281272463526
0.861038603805102
4.14365118094481
6.41592786634896
5.3213136824728
1.70193038785524
-1.57826512611456
-2.63734110337038
-1.98578938147788
-1.77175380056421
-3.9698837039864
-8.55910770908949
-13.3595557725396
-16.2217252734192
-17.04488278942
-17.1597469025016
-17.5320569984361
-18.2681995040211
-19.1237511164634
-19.784965966621
-19.9474856847862
-19.2564967353028
-17.0710220930597
-12.8502491658776
-7.09089383904478
-1.13466690873733
4.20466708805078
8.96266790944087
13.0089136568043
15.9136916480043
17.9265353378525
20.0539496552173
23.0398342737634
26.6613917201754
29.576563627146
29.7568019114405
26.1100861454013
19.9594762722677
13.9852970411758
9.64035724539317
6.42774486714381
3.42281269857521
0.474114663372108
-1.93051225033848
-3.14016604697776
-2.819353093535
-1.4692994492505
-0.157086925136947
0.550763601287361
0.858854321042163
0.912189311723541
0.51085137363873
-0.319458148217935
-1.24298232756028
-2.00516357218852
-2.38009392880882
-2.13432540396018
-1.45563913503861
-0.892766573728273
-0.668638379581826
-0.591752110786354
-0.543986893721969
-0.478324742276118
-0.231903766499196
0.148241369123427
0.308820731138299
0.112309000814745
-0.295310396803973
-0.959142141959124
-1.94553951167085
-2.86888702484038
-3.31854982990345
-3.40542752675193
-3.32359640502472
-3.03834540991933
-2.87704822941593
-3.5542451097158
-5.15701824968867
-6.85086679542685
-7.81115875421823
-7.8696251993653
-7.36206694445022
-6.89911684162933
-7.00714625517689
-7.51359852268373
-7.67860507528743
-7.25462754484116
-6.79780439011868
-6.67503468022735
-6.56612158284377
-6.16915415205594
-5.55569322845445
-4.74477304124416
-3.69842712303224
-2.5853526895912
-1.4215822803556
0.105487075155897
1.96190178273952
3.54720359002036
4.48219918717856
4.97059586096601
5.3112354058352
5.67765028736663
6.20297686979914
6.74450579409667
6.91815892601836
6.67611697558814
6.29464366899086
5.7595510927512
4.94219565109223
4.20256926845498
3.93067324747024
3.82611111720498
3.42907450677629
2.85186735052287
2.40304370656604
2.18889259902561
2.43014153172204
3.31510503604291
4.32343014678914
4.51083609642209
3.55447659813431
1.91394652936925
0.167143673342355
-1.25476161315299
-2.09438947706613
-2.60468134337053
-3.37109937692734
-4.37001066012987
-4.84297257163528
-4.39860400460464
-3.49955220684815
-2.7369602605759
-2.35869773424912
-2.40536365367442
-2.6400941436837
-2.60603979685057
-2.18135528259932
-1.65199533714172
-1.13349488844518
-0.534409749790354
0.0399910034992245
0.517218710697874
1.16024341454587
2.04000741562078
2.70623815394704
2.8548375782679
2.74566396339526
2.73763887761451
3.02938224848076
3.75037687641178
4.65814817132079
5.16692014142013
5.27154175708858
5.720016322125
6.75600134242348
7.59363507619271
7.53987522760278
6.74377113434592
5.64671931058034
4.51061075042932
3.48769868054166
2.50643436498597
1.31146574304854
0.0963647544882942
-0.42814677234823
-0.103669284991729
0.179012319610542
-0.473877926910838
-2.08789213355792
-4.26845525412743
-6.70793858586509
-9.07361915089545
-11.144172623154
-13.060457545946
-14.93582963684
-16.5392406679548
-17.6211185836011
-17.9309358849401
-16.9343052760008
-14.4401858102309
-11.3636040604384
-8.86723809198887
-6.99955252067245
-5.03331956520112
-2.66240970991819
-0.105875261324103
2.40038336315839
4.68073186205028
6.74731772035817
8.93898526661088
11.2324517212925
12.6235541333983
11.9741786287026
9.22861111211624
5.37673238255228
1.75709672649854
-0.50245858622748
-1.27761782355306
-1.77472228129325
-3.09057672173223
-4.39800241824418
-3.52098975504898
0.537728084330798
6.29227550386327
11.0064316692075
12.8456017821661
12.0942926986181
10.6432316548147
10.0361244667599
10.0182494128124
9.43907690117638
8.09761814566519
6.74845793847967
5.79608458290803
5.08187918246182
4.51332725596717
3.98553264530782
3.13674305242969
1.80290050377957
0.278336061500573
-1.09901042917137
-2.17521415273362
-2.91627751871138
-3.53179282364446
-4.30301128363546
-5.05263695951779
-5.39242101821379
-5.50508511146808
-5.84433246237001
-6.25342994193911
-6.31495706308814
-6.1555454816025
-5.99923284760042
-5.56860841552129
-4.71910268834133
-3.89494656434953
-3.40306215523296
-3.04846494162762
-2.73074220382964
-2.58847983748286
-2.59436976065343
-2.75827222783123
-3.40257710041666
-4.48839169504294
-5.19624852027869
-4.93713054031024
-4.1451007078561
-3.37892078249179
-2.41534017687025
-0.866751625505116
1.08734565746075
3.01716773238927
4.57961598108522
5.46154349275973
5.65319019205066
5.59294379624831
5.55319185608597
5.29679976868791
4.58661990206172
3.467382584816
2.06094889067578
0.692852415025125
-0.0783271122691818
-0.142815016693872
-0.0254910697307725
0.0326697602585445
0.388812080331749
1.09553674483791
1.58608714639479
1.37265513949682
0.249083845101359
-1.88242299872994
-4.54562722300178
-6.62982512878701
-7.50177308272866
-7.4697740209336
-6.84112668444823
-5.54566044024778
-3.82007076088993
-2.14645782006304
-0.519997561622864
1.20884539363308
2.53420595170627
2.87259387689028
2.56553835116967
2.33042300224414
2.19195643712231
1.84603456980462
1.5060128301501
1.63388383394368
2.40715055103045
3.84102403309797
5.74573958962215
7.46431910383885
8.34820011527929
8.3833566912088
7.91480285743159
7.21633703637683
6.57967400548813
6.160172491498
5.66825363917577
4.85486211047448
4.02811898519198
3.47291222575984
2.93732297364382
2.23772272937824
1.57103219756397
0.851654524179693
-0.279992498860594
-1.61291933608849
-2.55504361784001
-3.05469493261148
-3.36419445824869
-3.3455518563259
-2.93386789225601
-2.64338178147189
-2.87069502508464
-3.39259493391127
-3.94413085980558
-4.51138255517293
-4.96435629375566
-5.24510939595734
-5.80105043384856
-6.97604880215255
-8.24498379864999
-8.89062220154939
-9.04351034310058
-9.29559212738099
-9.82975544240421
-10.5512197418364
-11.384504769943
-11.9809177989714
-11.8227655798434
-10.7554247099617
-8.81590739448312
-5.87808647161291
-2.12342053054487
1.70500498063357
5.05751213715937
7.92838841290003
10.2157963427192
11.5467020961689
11.8493842187782
11.4165248727767
10.5236899015736
9.43805640629149
8.36649317327056
7.13334857245388
5.54496920381252
4.03372227353626
3.12441653500642
2.58981710548384
2.02105859699529
1.63646778404608
1.67836055182
1.80388382311372
1.77387173402318
1.86327323589771
2.13563668704846
2.22253144292495
2.03083896048056
1.79426747758281
1.45775211954611
0.87145070673317
0.400239017869018
0.521784002591067
1.12027325447136
1.82778970437959
2.53882829242741
3.08496151347357
3.14579781245789
2.85367431683382
2.70016064393365
2.74658601717603
2.6751141840678
2.39035804764661
1.90582777335844
1.10643546614312
0.105503270037401
-0.76758822044541
-1.54514012372454
-2.54845618187861
-3.85289095215615
-5.41036411736286
-7.22450051707842
-8.86913651917659
-9.60983923698063
-9.47438013145585
-9.29335697085987
-9.41101266957131
-9.32513927349339
-8.60657405826694
-7.24622274884941
-5.36558073247562
-3.34463226579001
-1.71274888495432
-0.443104553180108
0.897495134106732
2.17809453052234
2.88332078145054
3.18961635531191
3.73329385846936
4.44856638203771
4.74651134646421
4.63445938608712
4.61735944225054
4.79959259393953
5.01153735386276
5.36008760080299
5.84848166875658
6.03510155447964
5.67216808349815
5.05924207470279
4.48500019582402
3.9542414983778
3.44173468681873
2.87473600481384
2.13095832869265
1.3637035174494
0.849513810473326
0.466463797355142
-0.081512061149085
-0.748728141475016
-1.45500275837489
-2.40174456101946
-3.54429900464746
-4.45542856092994
-5.05719842194417
-5.62491231300019
-6.04518393804066
-6.10263467476199
-6.18632623807576
-6.57217245085443
-6.60060151681338
-5.68747191166528
-4.3775838851356
-3.4660454903933
-2.97059544141121
-2.62678150690323
-2.41173957352995
-2.1385566264576
-1.49896049487139
-0.753345425045429
-0.499193991572536
-0.731633904883473
-0.954717799088625
-1.01496541804946
-0.994410859613266
-0.618355232744262
0.475023740112463
2.22367348207377
4.27527217656987
6.12745430505825
7.15798590317179
7.20619279298101
6.88321921466481
6.70340875269029
6.43592316322656
5.78356208230305
4.96838428710943
4.31568208167949
3.96096452900969
3.96466884569221
4.05512563572455
3.61451314823087
2.5279416682594
1.45272410103932
0.861383360938776
0.669007214624046
0.90484189849098
1.62283619238814
2.21889586509102
2.00544286714591
1.1994859659774
0.365930715852574
-0.544446002102234
-1.80823122330378
-3.33146638967598
-4.95105909687428
-6.48369486669802
-7.28221820760305
-6.74272437769884
-5.32811158000664
-4.12682563039744
-3.48560478791159
-2.98001192773507
-2.40173124040344
-1.81367031517642
-1.08136004711618
-0.237950153719099
0.246391576748576
0.233335370133384
0.283314464272439
0.852106716538317
1.80299797990935
2.79576461387269
3.54176854937168
3.86796037605536
3.9667161992637
4.1889071542414
4.44270095704088
4.35314434157399
3.86530587054722
3.05191954287664
1.74150662885718
-0.0422890151900071
-1.87889482616096
-3.60944104175225
-5.38397041451055
-6.92367277952403
-7.78906008902926
-8.32052091276224
-9.26670066740417
-10.8004297762361
-12.6925816312421
-14.5912933776873
-15.369125019176
-13.4639883794338
-8.83421411529025
-3.51707113014553
0.466913940275892
2.83292489674095
4.35017157829116
5.61438346277966
6.93536754757216
8.46975111422782
10.0308776347086
11.2979756033326
12.1963505442808
12.7002523033646
12.6810289713996
12.2508809024274
11.6592136879271
10.7769754707142
9.37977881620764
7.74816439838113
6.29912645733476
5.02582973379705
3.80255662372193
2.62022735416087
1.25630421908155
-0.498827360241201
-2.24448416013149
-3.41738531746928
-4.14808940526992
-4.94923181237769
-5.98631017559222
-7.20051399057792
-8.47819008671667
-9.38027869657976
-9.53992064341167
-9.33727535261245
-9.25005751553714
-8.86992573006106
-7.55365305048619
-5.51540979339904
-3.41608315480171
-1.54727752604053
-0.030669006579486
0.975983981210751
1.68176221925177
2.49505689713992
3.31632316820572
3.77083553375444
4.01975834157843
4.48930823757843
5.06769860540719
5.39954533460639
5.51384382433504
5.42124482004061
4.78541528620091
3.62651382075171
2.54238800015855
1.84653959550565
1.32012182120608
0.852347029998461
0.486184851834655
0.0499252898512346
-0.557765449045964
-1.10731440115014
-1.45831670439494
-1.69948123681944
-1.81745109021654
-1.86078373236134
-2.16058524262717
-2.74225673425995
-3.07429332893401
-2.95498516192786
-2.845637413694
-2.9439732975466
-2.91423622306539
-2.69346406819075
-2.51636301811999
-2.26199724623804
-1.77150721033575
-1.39688011070217
-1.35840210233916
-1.19070257669256
-0.52224146209665
0.33515539475703
1.03199430777255
1.61093475095567
2.04693711150987
2.19815807119456
2.29365740371723
2.62674414068283
2.84977043981737
2.40162954750566
1.390999158059
0.331156209226807
-0.558663550564051
-1.21579847603852
-1.48650906997801
-1.37932790280332
-1.02580473146882
-0.445966218030322
0.119069366414545
0.102304939074272
-0.604745648967596
-1.3666003507256
-1.65851209496882
-1.51598578242359
-1.09634502972003
-0.593997062029228
-0.397695817494297
-0.570567002449451
-0.580309783836649
-0.114901695623561
0.489973211752503
0.953852272894297
1.30132318005734
1.35627144265284
0.987221386678851
0.672549020764763
0.888910161193936
1.38528025463525
1.79548931580587
2.22201066347211
2.63937274246597
2.64639031301698
2.27066319967558
2.10018764747714
2.31992781225258
2.46329583042085
2.20163997334779
1.57828870807826
0.620217877326767
-0.459068986192944
-1.01979378598307
-0.740371790243327
-0.112394668581661
0.354770552101118
0.696406514807224
0.942762039559724
0.914541019652091
0.740836573013604
0.77555818359594
1.05851474347523
1.40352463517666
1.6301480909396
1.39909504134864
0.475729606389902
-0.702252748878587
-1.41734753511628
-1.51245686735973
-1.22419842429633
-0.663078456581729
-0.059134243008454
0.166606530491522
0.0333517228168634
-0.0640655208274848
-0.127274065432171
-0.345553855403821
-0.412165125123626
-0.0930073090189416
0.0551375876476643
-0.463245079492019
-1.19315146055109
-1.50517898645462
-1.48489478263096
-1.4831550618366
-1.63275311307554
-2.18125487933322
-3.42572174751174
-5.0900674105939
-6.57274379371104
-7.79033414719622
-8.97431680503347
-9.89700578591921
-10.1058460840206
-9.5216284153173
-8.21333207119011
-6.23716555578838
-4.09342490680833
-2.50856278141446
-1.49455592454285
-0.334075830772113
1.50561816783305
3.92091546249235
6.26918850888259
7.61598422658707
7.45849134387654
6.34151801755377
5.25647962649606
4.69948783700293
4.76527535944867
5.39891808690257
5.98625077523415
5.66439104971167
4.55369161091403
3.71314095384755
3.73376312027958
4.45772901244218
5.84710784062537
7.85592933228314
9.72838865016944
10.4888084123914
9.78950007975195
7.7392202954715
4.63532602878935
1.24430618624034
-1.52340763873701
-3.470541912806
-4.8805768803318
-5.58189654287706
-5.2340667719076
-4.27834384934215
-3.49472597491119
-2.90759623910946
-2.12880922622342
-1.3123245791644
-0.87548557472589
-0.831950261566581
-1.02219699712873
-1.38711675203269
-1.74236303344382
-1.91231697852634
-2.04379275710399
-2.2885001700596
-2.54183368679192
-2.81153423090331
-3.22041395925281
-3.52458758035459
-3.38584149915971
-3.02779620319458
-2.87446972891229
-2.88707916080145
-2.90244544075109
-3.00154924915261
-3.03485358678637
-2.60620169737118
-1.83707068622476
-1.27049036485763
-1.03239544479592
-0.935530366220116
-1.00667788369544
-1.10337717180743
-0.723066382900585
0.0867827228978504
0.519762132674925
0.274236608628489
0.0352059311273371
0.28896843479995
0.708386308542086
1.02398668558419
1.4736701012634
2.16967867211176
2.89001641950689
3.46840163470755
3.71021457708584
3.33844418055949
2.60811812421675
2.29408168294634
2.64931613590145
3.15086125778991
3.36194405424743
3.19131875542494
2.52159293841646
1.44972570809927
0.544934790044175
0.23025642915825
0.352519858421899
0.590965562146654
0.659026530301587
0.207129001054899
-0.718208005764161
-1.4438282139619
-1.56643122149649
-1.49325101705286
-1.59909166460679
-1.69951026682502
-1.67708661022248
-1.6480141923905
-1.428186013933
-0.800063617140921
-0.0972081617512951
0.312505905823205
0.605249077443835
0.896367424105225
0.834411814920111
0.346332538827474
-0.0762104856200014
-0.212018374008758
-0.319286282163109
-0.313654701698889
0.257731155095066
1.30409601087273
2.23373728887677
2.87316306385682
3.4317184284963
3.77388766660746
3.52838543226871
2.61240230815856
1.19120733352211
-0.425005537847151
-1.77864446529906
-2.757248322841
-3.8544042350035
-5.36241112253792
-6.80347793364355
-7.63036140291631
-7.82841533226301
-7.56746798522191
-7.02005424790727
-6.54138745750969
-6.26387349923055
-5.73116627540805
-4.55383156426374
-2.92513081631704
-1.11329024212324
0.709488220645548
1.98746186223416
2.25749387683689
2.08709064477297
2.39588319791379
3.13737156152167
3.72697210290962
4.18788040322107
4.83460196960645
5.49850178563608
5.94839354248162
6.41126397374232
7.03440747863564
7.482844212275
7.46168632270631
7.00336628776187
6.15660420351941
5.10981020118987
4.43883527797575
4.41687922316354
4.41224451198084
3.68105622742454
2.23260001454229
0.424830994529819
-1.52801855968826
-3.28667671995828
-4.3907314889818
-4.70809776718097
-4.39243346312397
-3.64604818618407
-2.87264326233775
-2.51047168513914
-2.48866899001929
-2.46094841160683
-2.46447620444556
-2.63112000465856
-2.66988286889165
-2.42232999431176
-2.31168253947755
-2.56178290241295
-2.77306971250703
-2.72580179624272
-2.64619085612477
-2.50242275574152
-2.05926469196832
-1.51266346978032
-1.10777029043668
-0.540169286363833
0.414079467539604
1.29371346519544
1.66434455805115
1.69415474961143
1.53269148582097
0.996445160415067
0.27070387898674
-0.0045220263378837
0.325794237595261
0.744352176370797
0.885000982160466
0.752113308165636
0.348419827908102
-0.164411545623811
-0.384922051566655
-0.325921062802465
-0.518616014829144
-1.15020781421637
-1.83015803781148
-2.25774246702306
-2.41129970286797
-2.2786699557481
-1.97001691014297
-1.7082237204195
-1.40259681267178
-0.791363078552491
-0.0334670660803114
0.481084598302371
0.660109200246543
0.482057839900969
-0.131232871554135
-0.697934174937512
-0.344723246989358
0.981524225021072
2.44391998410161
3.52886867015527
4.24984234329757
4.4226473922347
3.91225285776164
3.17896245485289
2.60679358641741
1.92483743651326
1.02912754017872
0.49774605543819
0.633590416806912
0.907130192523711
0.84717418286361
0.565697593277551
0.112453341819443
-0.71095493254784
-1.74995018752705
-2.58574114160348
-3.09531775410311
-3.22702714407957
-2.73437832067407
-1.73997549024922
-0.86358809601771
-0.397339466761415
-0.0921167051417225
0.190492108536093
0.380362363451421
0.561306419148768
0.808913515768249
1.03252644264814
1.30240659221743
1.77577477817958
2.26372599275522
2.5264357190635
2.72510759257368
2.92230003209727
2.7301755889711
2.0718698393281
1.46467637935451
1.10857360056831
0.696801510109683
0.28919648029814
0.228914201125242
0.275772699704231
-0.0411543508303632
-0.49544284575421
-0.568481285312717
-0.32972757265382
-0.169780395958238
-0.238516998103172
-0.640568390655696
-1.4708570285615
-2.34557710647083
-2.70908111140316
-2.74353941032749
-3.09913712978339
-3.79601366740724
-4.31910169682106
-4.51144487148193
-4.45631421220207
-3.91963349211039
-2.69883078609256
-1.07345479315389
0.470488674104976
1.44351142404594
1.37159228338554
0.300971576995957
-0.968700619773324
-1.66059277029287
-1.57790185671171
-0.756617429677992
0.576455043155924
1.66307236803941
1.8211250439147
1.36761022232055
1.16508410315444
1.61270589155808
2.66501259431632
4.06787238327848
5.04558854917519
4.70267327461699
3.10531651809738
1.09402463835925
-0.864403060506017
-2.67884625435711
-3.96573725078903
-4.45137739526348
-4.53596111454356
-4.60403217135935
-4.39855085639657
-3.70945919538131
-2.90232831544641
-2.24564218940825
-1.53842977071469
-0.74178410121233
-0.0903521169787582
0.560602761432613
1.56745125342594
2.73057535939421
3.53324987775955
3.87301714331812
3.92051031284515
3.74495537176486
3.48036091115657
3.29182735095721
3.09580374391451
2.83882830266277
2.72641923858534
2.68005451441566
2.2108997338834
1.30378455615615
0.705224568806233
1.05164702378761
2.37496803562178
4.33306576377058
6.16225331775051
6.79891463097534
5.83444841358373
3.92485263780319
1.89891458279455
0.20342056044652
-0.788428983184903
-1.06003904873117
-1.4516410578391
-2.74476413486761
-4.49210339453087
-5.68190908972152
-6.02390219623413
-5.76634386559357
-4.99532457551776
-3.92528686255909
-3.15768493751497
-2.97145749027023
-2.99591190342312
-2.94320430097538
-2.91056136975939
-2.83658677023035
-2.51601613385396
-2.12188077485719
-1.96732645114204
-2.03077016203788
-2.24462974223982
-2.66684243289932
-3.02136247999633
-2.81416879964608
-2.05555063063769
-1.17610080111034
-0.368531142325883
0.402688864552077
1.11506921046494
1.80138570375472
2.42958748291082
2.61341112682729
2.13345666084041
1.51876338643545
1.351288562524
1.48370168060747
1.62793092753245
1.90343669062372
2.19938252772602
2.01426954143164
1.38511315316336
0.947443245239283
0.944041670537763
1.15233976667956
1.52319773784354
1.92257147920893
1.77722654999898
0.903112972760362
0.0675626786243521
-0.0088946459771033
0.483443851807322
1.06744869126373
1.60064714231111
1.90870501437949
1.76231640912975
1.46774929367413
1.54563226298243
1.8061050513897
1.61392060597744
0.855361512738727
-0.0557918757574172
-0.708532262924618
-0.809122337797939
-0.351905492670291
0.185016467176869
0.376935570751742
0.342966579420448
0.219026712404021
-0.21449136748643
-0.918598991436796
-1.44019645098218
-1.68714134568761
-1.97902367589569
-2.28992022103172
-2.34950292076824
-2.26328639070501
-2.20344283791839
-1.98639538825568
-1.60503660639879
-1.43266783946057
-1.4865244684808
-1.37317219569227
-1.08518543428947
-0.943972764091767
-0.9196839297
-0.825919182692878
-0.783540843392812
-0.853753933684051
-0.808156779356039
-0.694283320304888
-0.863273693325723
-1.15770311037884
-0.958724803396749
-0.209431439367661
0.519194604022311
0.95268913024096
1.18734754688491
1.14628752198017
0.891097071689564
0.950111743546338
1.51120744195416
1.9846967574118
1.95707728669647
1.74608345886262
1.69147058366307
1.77631536765313
2.04483849050906
2.62249351642207
3.39026908604337
4.08145616787757
4.38215745189562
3.86425205350626
2.46358055014856
0.90152020509512
-0.116316553305703
-0.756969978440089
-1.40364257153992
-1.8365721140955
-1.79883009767595
-1.55984276079061
-1.35547449894693
-1.10931173374569
-0.916651323512003
-0.922586676030928
-0.841318038755494
-0.447879241212237
-0.160671999364781
-0.38085330103492
-0.826504141934422
-1.14388243579842
-1.45928705719507
-1.80626535786787
-1.81798689705326
-1.42346722324745
-1.05368412734914
-0.944418642541411
-1.02002459456589
-1.3418204007836
-1.82856631374768
-1.92118257522224
-1.3261632810411
-0.548100646446981
-0.125588849910608
-0.0304863890950241
-0.0924582001707483
-0.249758579928129
-0.349161653919658
-0.355003462740477
-0.516922535889735
-0.864198222293504
-1.02645689237188
-0.836481829830663
-0.506210348742333
-0.179809533921621
0.0791944315836092
0.163959903067321
0.338370006047428
1.10350144270371
2.18973988630438
2.66078065767251
2.36258409859446
2.12805707977801
2.39625056063476
2.80378645541845
3.06764979099274
3.16520416129187
2.89225972134158
2.1702898944205
1.38843244555783
0.742222179883824
-0.179803694398612
-1.58313899917375
-2.94016439112462
-3.73622040143248
-4.02017036523445
-3.95957413312936
-3.62521547404171
-3.25926847736571
-3.01900099292691
-2.66140690756772
-2.05867448910321
-1.52061915939952
-1.20153941078515
-0.861268087332533
-0.379988342125469
0.182822402677422
0.897889007214391
1.70637031069141
2.28065046174983
2.61968797345182
3.11157669816451
3.72979579661344
4.02075188556359
3.94792547694935
3.81100778423606
3.52212882798894
2.93080912755959
2.4785018674806
2.66570918092305
3.36349550821304
4.15899034724849
4.69089987791752
4.53183329797134
3.64310778266169
2.78654066527999
2.55537098648504
2.4284074676856
1.67325923827076
0.521771003487
-0.430509825135441
-1.23634494534152
-2.18852340966117
-3.16651508193755
-4.05953749919766
-5.06253372203939
-6.11119580051386
-6.83457679330447
-7.23770334847098
-7.62026037251415
-7.9147446207502
-7.80336167964586
-7.17293233228765
-6.0462249686024
-4.6313912528529
-3.53894127032454
-3.19476471533184
-3.1721778741072
-2.84783132254687
-2.3241125836898
-2.03902520753766
-2.03907024943749
-2.13873170607205
-2.14435075611012
-1.6989678541824
-0.612779027955934
0.722287874454118
1.87980930136243
2.90069544084507
3.71107181486855
3.89880665124032
3.58676702758453
3.5158712760599
3.90638360729667
4.25621135496393
4.32618675958518
4.30107516390983
4.14536646554044
3.77539548854541
3.59281848093646
4.03134608167007
4.91689532315302
5.81986854618777
6.49724489305169
6.62910578586132
5.89602589933846
4.61150856453756
3.474343910535
2.64277549170748
1.85297589118816
1.16191196335498
0.728000825545973
0.322085691208999
-0.234111847273429
-0.679602464195772
-0.768691774654735
-0.571908438286426
-0.297204596455635
-0.298633861082428
-0.90456008809971
-1.81637149470951
-2.29483621082896
-2.18611359056642
-1.95639115179903
-1.74045520181313
-1.36351439187249
-1.08290679531338
-1.26657424475061
-1.73377490748703
-2.25700795190417
-3.00884044240894
-3.87876290416868
-4.33716261023754
-4.43634820202954
-4.86226343232913
-5.74406877512652
-6.43093635480302
-6.4504883872952
-5.81364766748456
-4.63459100943168
-3.23738293142383
-2.22924625333134
-1.79817670073958
-1.42974060494411
-0.762627967922381
-0.0205320175497491
0.708908949514641
1.74319096708441
3.11113371549963
4.38968221579494
5.24864396328134
5.53965539232408
5.15792055614767
4.2975405022978
3.38046610552818
2.53999815275039
1.70524810581796
0.999249943439342
0.442772449790626
-0.25907549401652
-1.08461059525725
-1.56294000601559
-1.6580156797139
-1.85623518732492
-2.15631457867203
-2.01301851163322
-1.31314078449707
-0.410075654477683
0.548226204458968
1.43203346238387
1.8433703794065
1.77384925230761
1.80273620073528
2.16147964871577
2.47593306021894
2.60670972640017
2.78136960542531
2.91873410845326
2.71807939383789
2.23617015623251
1.65116223654824
0.849577351098943
-0.107689359183777
-0.653743974110518
-0.47131665407524
-0.0379419581065669
0.0221838698181519
-0.431985680040293
-1.23188059036667
-2.07165825112867
-2.57021455316053
-2.68622371199286
-2.75297960361777
-2.81972132073558
-2.59786903661134
-2.14831430096339
-1.79908368646213
-1.4677132989628
-0.873449813510838
-0.121476499573608
0.590586592237009
1.31020111289978
1.89765271004964
1.98728264491369
1.65421000078389
1.33471235362543
1.1219239860755
0.936387898671376
0.999056142505754
1.33724511062621
1.46125496597342
1.1693687615622
0.848165194390256
0.636564492126848
0.304339374481065
0.0254619986469921
0.156053699118887
0.355863120188453
0.0101143013857547
-0.700207567880609
-1.09072462644886
-1.00095062358231
-0.736537566247854
-0.432162607439308
-0.159993715111791
-0.175204346011985
-0.53026335155594
-0.9488107946294
-1.29510740643195
-1.61427742286588
-1.82121442712612
-1.90156989232992
-2.0291094311107
-2.08300336535433
-1.71489345605823
-1.10523579326261
-0.817001705508624
-0.880870774081177
-0.859835304386015
-0.618153762252283
-0.31417935084816
-0.0385115043696043
0.0634506581281743
-0.086899319341858
-0.0861631254637495
0.45759039018126
1.15657360666631
1.4614868938791
1.58141365930359
1.85949106799278
1.99280227166358
1.77487002854154
1.69418877148907
2.04442449801748
2.37295563560407
2.2791465205006
1.88553001444381
1.36592150634654
0.800504409902169
0.421690571414433
0.341894598414701
0.278434278932947
0.0324156588995803
-0.195415244584824
-0.315426580706575
-0.535428549574394
-0.77792321170688
-0.689327497234029
-0.367131804349878
-0.26116570434358
-0.415337683717372
-0.575789800747424
-0.756456508455011
-1.04193531797867
-1.26136659570237
-1.27698455174676
-1.14182680861971
-0.938508574265823
-0.928966236817677
-1.49255477993733
-2.41286723864321
-2.84176956933788
-2.37750320767554
-1.42188719719104
-0.346912543165232
0.710255054041359
1.32695131882009
1.20391538118549
0.880848408093098
1.06139891824093
1.66658602031439
2.26183880548681
2.65798297667165
2.61260681972022
1.90214166409965
0.955156282943624
0.447760841959433
0.295505733958838
-0.035523986726574
-0.522317520377906
-0.805883419239021
-0.982500463757722
-1.3184278779253
-1.65505705771463
-1.78360761964323
-1.82717468353261
-1.77843067414279
-1.4066461141354
-0.897341857729125
-0.73352019606648
-0.875539959248565
-0.86523739199944
-0.560149222511316
-0.117492052108745
0.338027147806613
0.635583045186052
0.715818648319038
0.939897961486658
1.58480582368694
2.25373445545021
2.43580837442848
2.21022240840876
1.92141060585991
1.81795466497557
2.21816268590928
3.11881228963458
3.6498386436119
2.95764980882997
1.4222858325223
0.052142064416715
-0.787711273356192
-1.20926429005194
-1.21551868201121
-1.04778029948814
-1.24831538780915
-1.86903632195243
-2.40314726951622
-2.61216345299928
-2.62049290357218
-2.33750454768616
-1.59863905469592
-0.676683873030341
-0.0016930970318337
0.320138776765849
0.269550490826285
-0.249124362314858
-0.95075290748673
-1.21974414934258
-0.905394268894952
-0.444193488432443
-0.204213180541142
-0.302967059976442
-0.744103303160328
-1.2005411950749
-1.2025244663436
-0.872797921554388
-0.785343892702974
-1.03490946998461
-1.22109534789821
-1.16068822628493
-0.868429398204955
-0.254031104009097
0.537225426065302
1.08223860173437
1.37530722803833
1.81695577951942
2.39177172167993
2.72099997713832
2.79541237781987
2.80275409271454
2.62304628056245
2.21664156646167
1.88555355397336
1.66925793936084
1.29987833939473
0.949393480069058
1.05224765946144
1.39595945847366
1.3702946869303
0.960765830876909
0.589682001652718
0.249129178867247
-0.377112301139949
-1.23548252808265
-2.00980294024029
-2.54230863459884
-2.73493119921046
-2.5488631858183
-2.28487529585491
-2.23137364302413
-2.12261362906393
-1.62857047008565
-1.0147090328639
-0.66474386053521
-0.512390013128436
-0.420553181524425
-0.422469683925
-0.357300638998631
-0.0052080791749466
0.460187534714966
0.80891339820834
1.17758705814376
1.59979132943674
1.71653248923058
1.36474615719064
0.762132164139892
0.0095589673592998
-0.805203984398923
-1.26364322289782
-1.23968513765163
-1.34848528656829
-1.989447788042
-2.68226268296615
-2.93489446889707
-2.84441421603799
-2.48691924164018
-1.73074612274055
-0.817321980441505
-0.190981959763679
0.182032155790546
0.53304718458074
0.690478015804159
0.534692771147831
0.526218200567021
1.02164565905216
1.6517009126457
1.98700803621151
2.1412080604237
2.35193519906454
2.74241720141576
3.53701950545416
4.6374414228405
5.21020943848763
4.53726467126062
2.89666959057362
1.05469214185131
-0.484802622967741
-1.4326877124207
-1.68811082956762
-1.49120319218444
-1.04631335865546
-0.30011813558225
0.470248704491673
0.592128307651576
-0.0155089356911573
-0.645692275088312
-0.870837944993461
-0.911773930343083
-0.973939948146657
-1.12729515451263
-1.53265740421176
-2.00670290595324
-1.98561913408294
-1.49635526521837
-1.25524354366788
-1.41853434383134
-1.31669430988978
-0.683885366295574
-0.0739780065451176
0.101451817726827
0.027095311433122
-0.0325763504864233
0.0427587305780758
0.360705212552924
0.786499219101321
0.944035587320943
0.880174891026155
1.13526756967778
1.82767591548775
2.38921286015386
2.38652040605358
1.92171304886976
1.30938711575881
0.935136507530672
1.08280194807083
1.49989662035594
1.64451377929373
1.45433985789106
1.20816957785551
0.823382505208552
0.052687613987828
-0.968469530123745
-1.99611022580008
-2.97896897641584
-3.73970128515495
-4.11110943546887
-4.46524324579102
-5.16953377835589
-5.71701653697329
-5.4332810831626
-4.59524422272384
-3.83425495706049
-3.10184397593482
-2.13500099455644
-1.16370116466863
-0.444276676247672
0.160295638033496
0.74866855058475
1.23279698965571
1.67364530486256
2.08210674468114
2.0905907948797
1.52207472644022
0.937848345766015
0.950160440007085
1.43086090506269
1.92331447458281
2.23117775778993
2.24300354624345
1.92219579849771
1.64379223631234
1.80123889421966
2.19524877575111
2.46080008679864
2.6609114995562
2.91028964703261
3.03228660242824
2.9492565483029
2.76835402468476
2.44628244719509
2.00416060218532
1.77128396416715
1.81521769590177
1.6814038834974
1.16201400750248
0.572726562941232
0.0099874763876908
-0.752241676247392
-1.55207367536214
-1.94633670337006
-1.9057997431872
-1.68290112952513
-1.40622160875678
-1.2868107924263
-1.52092820381146
-1.72773347088173
-1.35017459807832
-0.644561918520663
-0.336622526323623
-0.455086909213569
-0.452987689174136
-0.213187240406266
-0.0381474162874889
0.0088103199093021
-0.0287968496982354
-0.325179352721672
-0.831689499493402
-1.12278794437215
-1.13843726484511
-1.34277321403842
-1.88535002674957
-2.35937391018994
-2.41659849985385
-2.01047504961436
-1.31376543373127
-0.794953945032383
-0.803293752085111
-0.921884554133419
-0.518713532828656
0.143364931639148
0.254896790417279
-0.328526552225025
-1.07990161066162
-1.61888733934068
-1.83940700143917
-1.69123342928877
-1.2678205738898
-0.66264892917995
0.207900050379534
1.09501604316518
1.26275355663042
0.576898982597018
0.0349807466731938
0.51887690173079
1.77278187628509
3.01265460245396
3.69747010825963
3.57825970155458
2.87921322275037
2.37543160216894
2.51838717020482
2.77573421466571
2.51389802896747
1.99022375165871
1.76627697880604
1.7972208676825
1.7746089996898
1.66250645705079
1.39872151378326
0.839432368371697
0.221180352966277
-0.142690523559467
-0.513669699517622
-1.23481870812307
-1.96573747936414
-2.1987539190372
-2.06303469075027
-2.06548206918306
-2.52005174309861
-3.3984973897319
-4.22956825519654
-4.34655096664068
-3.74568807354689
-3.21795105950081
-3.23285424297103
-3.42028155350271
-3.37941363381858
-3.06413833476679
-2.3056194434776
-0.948937178173789
0.632815157702273
1.95939798868031
2.95859153356088
3.51998176462679
3.35353582995675
2.72217538597155
2.34398161128187
2.30996788516164
2.07546231037954
1.54759645106854
1.20355892183091
1.24459456817656
1.50130187596434
1.89001412548828
2.21416322528318
2.02677507634653
1.37285189435047
0.979607384954624
1.14516473337109
1.25469228631756
0.78519353012943
-0.0596361447403614
-0.870472570188649
-1.43296191105861
-1.70417158433578
-1.91409630836624
-2.34601347724065
-2.7909432153
-2.78005291663135
-2.29768797522312
-1.59481619671016
-0.62837716556843
0.622712700067814
1.81235545917343
2.75654040887079
3.60521785696649
4.18437082339844
4.08123621803775
3.47681855800252
2.9230161891524
2.47512302117445
1.96032867347324
1.59661367472309
1.48953052100903
1.19248493334656
0.419335328904774
-0.53676543863939
-1.39681037178591
-2.11035585092171
-2.50795006388506
-2.6172400907771
-3.07642818975683
-4.3007578150606
-5.59867216064568
-6.02190786049545
-5.63621845965241
-5.15538370296888
-4.91292153777331
-4.8368265595007
-4.73720893893061
-4.21260700977529
-3.00881496566601
-1.54604668757038
-0.381900790626795
0.558664300793711
1.55435525699899
2.43755790713701
2.95235996723402
3.17360574304609
3.23087959382567
3.15573960052178
3.0354173892675
2.9021324397078
2.76660829161868
2.97058541220094
3.81665554387445
4.7723163882015
4.97522256057199
4.42040755911474
3.62892229936486
2.57632827579781
1.07734560806872
-0.396648967586699
-1.33058410924833
-1.8570560948186
-2.11225656529229
-1.84657709895245
-1.18193240946938
-0.768471862971041
-0.88734504488285
-1.26183737618424
-1.71151477023355
-2.11302718904038
-2.00203723486067
-1.14744928246498
-0.131899063243349
0.459222540793039
0.85660723224885
1.44940346077775
2.07304288636717
2.46669768600546
2.62662933657637
2.43924437845012
1.730496874879
0.692308488409892
-0.306565355807016
-1.07393725039286
-1.48206199018416
-1.54080026960923
-1.6393381979273
-2.09032687078704
-2.64532161205375
-3.05534985149367
-3.57678291621979
-4.34177749165748
-4.92850604424124
-4.96327977751224
-4.36339411842855
-2.96152703529584
-0.897963147116534
0.840534720848465
1.35738628504305
0.956669973074766
0.489446009703417
0.284692486119016
0.371000736796373
0.828414185921269
1.3882417041763
1.58411431015891
1.57119757034317
1.94142654669407
2.73606429194802
3.5076735444087
4.16151890738263
4.86207327399335
5.41403879625387
5.51974484474576
5.23052346798704
4.60189950672993
3.56806945963538
2.49875551151609
2.03555489598099
2.2081388539615
2.50572450416466
2.67447565318082
2.71767985881148
2.49649384592797
1.92472186489815
1.11440610317879
0.096254909286401
-1.06038345793914
-1.98883752101583
-2.5321420305425
-3.10988359303434
-3.95979451901173
-4.65309168853266
-4.93881864975042
-5.32837893215505
-6.37540036256842
-7.95982445250728
-9.33255922900145
-9.43871365956989
-7.76676290157856
-5.38002464704713
-4.17693639199376
-4.64507771239015
-5.42914328674068
-5.37997587627388
-4.69610022636702
-3.79400415758737
-2.4649873921918
-0.57168377798818
1.48893419073076
3.28593967620472
4.55602461917739
5.0179446286076
4.72020947537085
4.27596695211495
4.16370405510758
4.24604085422962
4.27749259513776
4.22426815242659
4.01962687347734
3.70361065067635
3.59531181032108
3.73973394002913
3.69655727267527
3.30053131517481
2.89913648258293
2.62982649879861
2.315757940297
2.05365349316207
2.04839825399407
2.1204941233124
2.09805616415234
2.16255126349695
2.27576100005839
2.06925650210477
1.62620568763763
1.39684271866305
1.27585172368574
0.821795157851395
0.201801469228465
-0.102226229345232
-0.151190339940516
-0.296920870069035
-0.607069061991411
-1.07334243069117
-1.72534556358337
-2.24921971795797
-2.23219866636409
-1.88688652908614
-1.78939367924743
-1.99336600529355
-2.17541331226289
-2.38819588609128
-2.83102471330435
-3.19089417107346
-2.94859415353803
-2.01699177883198
-0.699302580826151
0.507173293849756
1.03383477363038
0.779562277354063
0.335674931756986
0.187969798068962
0.197213985779902
0.199899864851729
0.350171035061661
0.625446376051182
0.763979065233317
0.686881451032929
0.311112208862273
-0.690308322555463
-2.31835245779231
-4.02283162327019
-5.43534923343688
-6.49879922720861
-6.81130365183732
-6.02151501098212
-4.80600056746387
-4.21287741810513
-4.26916369693995
-4.28054579712954
-3.91857324751331
-3.08690999333282
-1.54200306260706
0.509598362695539
2.23800016215711
3.20332600930071
3.80048672030043
4.4159718675794
4.9342280041167
5.20813126351504
5.25398862626829
4.97622833811537
4.33175225241254
3.56520645839286
2.83379686509208
2.07553976769027
1.51285945716068
1.57565174598733
2.19673872679494
2.88097408733776
3.33937344316535
3.48222652517452
3.23321883596113
2.81729830349561
2.6535286769763
2.74709490625655
2.80460283680564
2.79644938985957
2.72910873366393
2.33159068318377
1.63892060295172
1.18575691046126
1.10253260354071
0.947662721281551
0.71515146039356
0.847531661021852
1.17106980725688
1.051550761083
0.468386051746375
-0.172053525525296
-0.8414752622761
-1.56067977904703
-1.95782086876483
-1.91876141631099
-1.90053738865149
-2.11347777613659
-2.25973275366935
-2.34884997220884
-2.82130728488955
-3.67114225531593
-4.31233581594658
-4.37538260670299
-3.9615418556926
-3.36566611978386
-3.13787534473811
-3.89421640074795
-5.54078451428751
-7.24292460575723
-8.36090068141864
-8.82125480090875
-8.77206271782358
-8.54665512582085
-8.53763106793479
-8.5453875568879
-7.82308846972049
-6.04592041446578
-3.51951413156238
-0.460084283791306
3.05113895697667
6.53933332903849
9.32092322594252
10.9516445121562
11.1489033063905
9.98606173276712
8.35866412276092
7.29803463984663
6.76078220216517
6.01828397420813
4.92840430786197
3.84676423439833
2.83063423228175
1.87170904526368
1.31013689925679
1.29943300892041
1.48057623955925
1.59968152933022
1.79194204546194
2.09888940850691
2.40347102244375
2.80177730079319
3.30392289769891
3.38432813775091
2.61493325234358
1.42786420235805
0.550187038764552
0.129055595696688
-0.0796657266585822
-0.273774590293081
-0.689238737124034
-1.48439852606383
-2.37873591355415
-2.80261945338451
-2.26641209754604
-0.557140672079525
1.80837377305252
3.45692787712425
3.37432246815834
2.03022175457734
0.497916413602073
-0.917063016007331
-2.28334030499794
-3.18057689867229
-3.2692682258362
-2.99053161904133
-2.99473152937033
-3.51275323120904
-4.38698373465611
-4.92658884421618
-4.14349962216538
-2.16046520079107
-0.773982677405738
-1.59526875613955
-4.25275878654883
-7.08215960280286
-8.71964739513885
-8.57556251697942
-6.86640357991618
-4.77951314726872
-3.74941348324815
-4.11023053704687
-4.93640522650265
-5.08587064809689
-3.84707388650178
-1.11209404199254
2.28502721005247
4.96314546710716
6.36004585948954
7.10108018672011
7.81155905160227
8.45573011040941
8.87473772955365
9.03686755002167
8.80964997725365
8.14744388638773
7.2535495349673
6.23558989300137
5.0501032761008
3.7876244152836
2.46249297713178
0.848226249767771
-0.905901758071697
-2.1275747117072
-2.61890805128224
-2.9503690327177
-3.41262718138512
-3.74466414978653
-4.04404530379158
-4.6991215912728
-5.35244421368263
-5.04705014595297
-3.33435087305056
-0.536914032880026
2.59834561442636
4.99268721537057
5.73190985085045
4.94253803516134
3.57454797732477
2.25698342863649
1.08759254440852
0.302568313359937
0.103568008715649
-0.037499230239688
-0.872812979503255
-2.2842884976108
-3.47096337353093
-3.93920394775757
-3.75911053520558
-3.30055029089911
-3.01339898738464
-2.96418852980377
-2.66468976108061
-1.87849365368215
-1.15233986447296
-1.00129623184054
-1.16260080464925
-1.06197280777778
-0.423133307110629
0.643599462774229
1.55563249980474
1.59385235242768
0.912811098045295
0.513061399633822
0.679113333154167
0.499383670352592
-0.556789904331384
-1.79769929905225
-2.41180372742773
-2.21240822483899
-1.20914281208783
0.397188516447788
1.94482611828983
2.98122758843301
3.78845614744158
4.58745393292644
4.95093949118813
4.5634213993631
3.77085758064914
2.96480747845932
2.18152414814414
1.5106288761401
1.11066012071515
0.754562988810356
0.103504587694762
-0.676713690649624
-1.20822141458172
-1.47355425776303
-1.58458337865457
-1.45579495681899
-0.994463980095088
-0.12521729330123
1.25166199549854
2.76068585268274
3.45249669808423
2.76910223493132
1.03695732104013
-1.25198664370961
-3.75796823241212
-5.80099412888385
-6.64353357058199
-6.3871449529039
-5.7657127865385
-5.23435143890176
-4.83881021914604
-4.37273222033186
-3.20550032369438
-0.866807758729485
1.84022744134955
3.29166726599743
2.76441186151961
0.891971949933959
-1.26805327871027
-2.77149808802775
-2.99836548849912
-2.21142216759712
-1.40882666454451
-1.13037821617503
-1.02288614442998
-0.752516991631287
-0.45697253867793
-0.0994838326236646
0.721037906664895
2.07573546419971
3.47656290802066
4.34678766488317
4.29797066825203
3.35949271463458
2.31727864091958
2.13866811091602
2.73438388367484
3.0080605484744
2.22160667087077
0.653608894705172
-0.856060756327751
-1.42767666441368
-0.695844881762592
0.694650408975654
1.67998842399337
1.95728877555723
1.95327659153495
1.95419879850328
2.08686488694278
2.6276234515915
3.48751529294657
3.98389297673282
3.69182662409949
2.80934780949718
1.53827269113671
0.0798386061047586
-0.877441001516294
-0.752012122792259
0.0950643418155406
0.956224589746415
1.65659169387807
2.20957685632099
2.41356283039937
2.32484689776063
2.28643181663374
2.16199661427066
1.42840423555624
0.171020155641466
-0.953523511171076
-1.73981507378513
-2.43260735224299
-2.83063785015523
-2.4008455871149
-1.20779402441803
-0.0487463969564309
0.149133784329123
-1.1037610638715
-3.31908488067353
-5.10065561956197
-5.46122088250175
-4.88013054298536
-4.52559161880917
-4.951391183136
-5.98116986845652
-7.12761572249018
-7.77298656040944
-7.64704773433005
-7.23906370523543
-7.16325853872608
-7.38980445995135
-7.58426139881572
-7.56282759713544
-6.97933408394596
-5.4198377815355
-3.1385462773632
-0.866413669866093
1.08105754064155
2.67304197784895
3.6048666391904
3.83602186959009
4.11184559377544
5.06904676047619
6.37761458579844
7.36222050549148
7.84813339696076
7.993639056855
7.92350069811077
7.80968704649179
7.79970952838487
7.80445632111114
7.71844737836273
7.50122867081373
6.69149783422779
4.63145393776228
1.68953102511113
-0.660295871501173
-1.46760932441134
-1.15625829868897
-0.579766703815264
-0.138355338730142
0.16850894147749
0.570192654478401
1.26074831302251
1.93619322880477
2.05249319145455
1.63738054672356
1.17762478898576
0.848560568904326
0.6135892836746
0.70193087837535
1.19782712319422
1.64868420900635
1.68251908143609
1.41553421818859
1.00208166086051
0.562327122335904
0.480907704484392
0.88477388516499
1.13912743671976
0.671527664358646
-0.27498567714058
-1.35605576742597
-2.74937678558581
-4.45951224388266
-5.88929688381942
-6.65451986186013
-7.07956964363777
-7.58013205769026
-8.27855351672013
-9.27023498608356
-10.4160572106296
-10.91829847269
-9.94750467044662
-7.60036282427186
-4.68746178810081
-1.95198607090579
0.155752782203856
1.52556416559556
2.45052013843787
3.22253410484124
3.86280558490845
4.55603807018968
5.6541987916134
6.86037760357049
7.25460333381862
6.46689062449919
5.07051305472454
3.79109597821451
3.03938348260775
2.91688431277086
3.00966207404096
2.70386716248461
2.13794971222592
1.99942193148128
2.193364933712
1.88288088428881
0.919640488963103
-0.0213573977827904
-0.647602620070462
-1.20393213074283
-1.65222887509437
-1.73041225591486
-1.58173336246127
-1.60588975288215
-1.97309228658528
-2.64605101160123
-3.42385054038218
-3.78183735057587
-3.26703189248948
-2.20506372348523
-1.50760285516193
-1.84756388518454
-3.40227006949453
-5.85971741529985
-8.12326567515858
-8.75058603611859
-7.32291896438747
-4.81193593694574
-2.39997392949431
-0.604031975945905
0.602859461804767
1.6031594687034
2.86672986157091
4.39216291852988
5.82131746713399
7.15997023699165
8.56945732705555
9.53191868470384
9.22261998993403
7.61555808280636
5.4547192858511
3.53004094283649
2.54095559745134
2.8707777316453
3.90231648783712
4.35579406300154
3.66675516294115
2.3467850880087
1.07729160250494
0.187678070038637
-0.294483387415298
-0.731445840934136
-1.58559058346823
-2.65221285349847
-3.17752071550963
-2.93386684663964
-2.44942510427612
-2.11898204809935
-1.9172050761739
-1.88852319189615
-1.90655415076096
-1.08500805634509
1.45788291675672
5.26442888206684
8.73374924220004
10.431026649809
9.83825467657986
7.47413555327247
4.59231973007591
2.09533299375139
-0.300022526724277
-3.25349438726572
-6.54192453708689
-9.25395348142409
-10.7964476070968
-11.276096755242
-11.355004937143
-11.7725044374956
-12.4273735037943
-12.2317611735499
-10.5295502250168
-8.09266114914313
-6.07311346443632
-4.7096819259001
-3.5671648449962
-2.22568904319912
-0.484610385522705
1.31817683758607
2.30379130867701
2.0981402093783
1.43221729955572
1.12028721514132
1.21145969207684
1.63116655090455
2.63729249330514
4.09078596524368
5.24896740347394
5.79722632569801
6.2836394427798
7.24468089220917
8.63668226216127
10.1381118601162
11.2371908286759
11.1802338383811
9.54196470009535
6.64714755864534
3.1710141954228
-0.129050287111098
-2.35927218874006
-3.10281023062632
-3.03950509830282
-3.19142425847103
-3.85970114746813
-4.85083306783399
-6.03127583679098
-7.04562461274396
-7.19042740920499
-6.02664348232832
-3.6580295607648
-0.537202066611471
2.41613179689359
3.99717437143151
3.74129869475103
2.2974496466636
0.467314447797155
-1.31330108934873
-2.47314541680295
-2.43630213135043
-1.40911170543071
-0.154837542979381
0.89677074727451
1.66656020210811
2.025739375179
1.99754664721686
1.84424379907691
1.54685529636902
0.817946887254831
-0.124774249375931
-0.562545034651404
-0.270416957379723
0.227610120980419
0.444470640854498
0.248462246365778
-0.413021755846224
-1.36341971924611
-2.06772196821513
-2.21957225847122
-2.07655114978892
-1.97565553167282
-1.99024047017985
-1.97812153888425
-1.52486477419718
-0.299055836659418
1.14534854145138
1.67237181961641
0.981626879277843
-0.12235721618836
-0.91724676344751
-1.23268508359043
-0.914085872182655
0.101840414639635
1.37680351825697
2.43180766547201
3.22215862347709
3.77047278800224
4.09315415183238
4.60172686060611
5.55698039299082
6.22217713454864
5.64982691836354
4.02800524527808
2.24432561929159
0.622825024299952
-0.910748354964015
-1.92726536419373
-1.70854325518439
-0.137303380482038
2.05875475578947
3.62379824860331
3.33528096904242
0.958972996011702
-2.33179287800088
-5.10458119745968
-6.97587655987809
-8.26520351375748
-9.07308262731149
-9.37597855210194
-9.27450420756324
-8.64191078361025
-7.27397823275535
-5.56147758763331
-4.23661428269308
-3.46151329816632
-2.71040459133822
-1.28871368409357
1.22038489401969
4.37783479116679
6.75627397448342
7.21554407571589
6.13779684026808
4.66158289812185
3.31280355001587
2.18321748403232
1.49819007684029
1.10237927294386
0.315986714738359
-1.04140007862405
-2.35913267354758
-3.16908180642496
-3.43690688177319
-3.03070613705665
-1.82218945310304
-0.112942366906331
1.66171247246928
3.22105568841148
4.06548065509496
3.57262869411964
1.9306735459708
0.298778314985604
-0.346138358751302
-0.058535655812528
0.364759236372203
0.0738222259098675
-1.02517490782398
-1.68844183626574
-0.320956857790548
2.98487509629265
6.28677337155924
7.89747751501996
7.63951384212206
6.12773421566992
4.07966111269255
2.24769030851984
0.964161831599217
-0.125534861387983
-1.35276064052992
-2.57793815157055
-3.68986821302197
-4.72927866558789
-5.41685705626738
-5.3963069459707
-4.82731707001786
-4.04023534775884
-3.04993545822962
-1.9885944927879
-1.34002673273815
-1.30885461086659
-1.61457182400674
-1.93968595858053
-1.89732205170549
-0.944397560205498
0.859538563693285
2.49545920573601
3.07680032057383
2.78366833034665
2.33693239810789
2.26276793430508
2.89308965319426
4.1985321645169
5.44399609430883
5.90687011954555
5.91663414211661
6.22866593496635
6.60006602258546
6.02049500041215
4.09365520000358
1.38918672798968
-1.18518620314147
-2.89573681862676
-3.62203074202045
-3.97424601812348
-4.47694553141901
-4.8882658343259
-4.82431621313615
-4.45049298815823
-4.04180577444411
-3.57526441501977
-3.08899108959697
-2.68619709934634
-2.1404647118936
-1.26678640225658
-0.436824112100897
-0.0438585000482312
0.0059038964720633
-0.222414292143801
-0.878201985256912
-1.69404595061195
-2.16254128215894
-2.41112796104865
-2.90038283664985
-3.46533485980029
-3.60034209324852
-3.26848452935074
-2.63736160547513
-1.64637474060443
-0.525443188182294
0.0042452580317915
-0.312072448464501
-0.798693031676316
-0.795742063786935
-0.388765795929447
0.0067147034963744
0.0569447250867395
-0.46400119999826
-1.32232489586687
-1.72898105543988
-1.22919323456878
-0.30346765158452
0.302476317314949
0.308427092470581
-0.141904391150591
-0.610771290034315
-0.557911413038731
0.0409159023082935
0.591304882350204
0.748493841559957
0.810736838744792
1.08521113434026
1.60815086789866
2.47399912056736
3.67132989490514
4.83383026719732
5.79844274380587
6.82948474453773
7.76621571350916
7.85238236635373
6.87506903522955
5.49462121709754
4.211930491051
3.002367662807
1.94935612355076
1.27361760619345
0.896301385122736
0.714914022654709
0.91771347000397
1.4505173669077
1.77321702667251
1.62957475949281
1.34752243817965
1.03345340326606
0.338597677021688
-0.68370828807217
-1.367395533149
-1.27510119753433
-0.593795474436065
0.169824204934278
0.437055071778335
0.0167361724917103
-0.400407851306555
0.0118188178129808
0.870826258817109
0.902204384469991
-0.419197865482528
-2.33267926320556
-3.62760492431998
-3.38790402783145
-1.42508015699593
1.44114385704446
3.91700210716293
5.19032340246715
5.0082426407901
3.33476580671601
0.701962264089035
-1.69481358122548
-3.03909107353813
-3.52646805377161
-3.67905534933136
-3.85325087757738
-4.45649953190476
-5.66857848915774
-7.05659213402108
-8.29682306559368
-9.84350979871457
-12.1011212911768
-14.5313898299625
-16.2543667038521
-16.8968200128557
-16.4420620070526
-15.0727811280026
-13.4235252149104
-12.0075895691245
-10.2461765033879
-7.10517877531596
-2.69496403356423
1.73183733936139
5.11958330332736
7.08149694293655
7.57073099183809
6.99411220113706
6.33217166000431
6.63908204328319
8.50100097647466
11.6899001401033
14.9895517291523
16.9453795809269
17.2169541937671
16.5960208514018
15.6541300422755
14.3192786254437
12.6758615114995
11.0255365898283
9.24544980890763
7.05547025726972
4.66171573554511
2.47642893359331
0.748173557107494
-0.183552777926531
-0.111019994082196
0.422350319419415
0.638442207553469
0.545926137418437
0.588762376225574
0.693042339523765
0.527747035102697
0.175999962221664
-0.243274594900744
-1.03550192756263
-2.3297198140269
-3.60775267205206
-4.37054278824429
-4.72596059773758
-5.05497432130633
-5.6737037313482
-6.75336678836033
-7.89120159521387
-8.04846257530604
-6.5925025812273
-4.0702688434654
-1.62297223801193
-0.152063864816593
-0.0170154414880437
-0.789788293464902
-1.4590726395816
-1.50674496441956
-1.39176218200345
-1.60252433113803
-2.00219600372932
-2.38797107178046
-2.77577837551528
-3.01455885328282
-3.03291827461601
-3.29851040003366
-4.15166113200194
-5.1174654972043
-5.60375046026305
-5.55269812646337
-4.88305963932286
-3.31575095182294
-1.19386564992384
0.539561263122031
1.41342108649217
1.65735076005597
1.54311880508166
1.31212929396735
1.39234723256833
1.95079463959429
2.63558754624527
3.22560625929242
3.90799402873759
4.58104386121295
4.71249043863279
4.19919440423404
3.56376435057083
3.19638302523599
3.13652331801235
3.38182359582175
3.71387013153563
3.66729807015244
3.20303197545878
2.80393999957826
2.66618410532341
2.57470967260104
2.59637097077363
3.06622239184747
3.96480361869529
4.89938891892423
5.41934716012476
5.07410424961205
3.73540855318169
1.96657156144638
0.425356927947094
-0.91064278249821
-2.26315345205206
-3.35119974125819
-3.91034543986434
-4.23238821718642
-4.62804755224584
-5.16787374949242
-6.19791083112715
-8.06446414464903
-10.2054683926546
-11.5245316140087
-11.6296806596743
-10.8884338172102
-9.59579987939043
-7.89784131503716
-6.12924784498455
-4.50339691681017
-2.85718571648514
-1.17046465859614
0.196181243994868
1.09280135729473
1.80579546396674
2.57530275953384
3.46842088898317
4.58672473678696
5.89117661811292
7.20589513732205
8.7199851039567
10.8380290619764
13.2989629075753
15.0700407920115
15.1235537230676
12.9189263865672
8.66043692548798
3.60545660380618
-0.599877025705639
-3.39461344791907
-5.47638193452213
-7.40927840012718
-8.86194641716293
-9.1183646693242
-7.61762443768635
-4.43921520406887
-0.895350230933868
1.13835646602368
1.07754091691651
0.0216875669455061
-0.846463861194874
-1.1916888624306
-0.970329121972466
-0.210014477350523
0.675823729944511
1.31693475717627
1.97391921669401
3.03842027509017
4.30182129466192
5.20577313207225
5.37547518063352
4.65638430462549
3.27307014500487
2.1057360430998
2.01584046796577
2.73508835128612
3.06680573827386
2.12799921518211
-0.0646291953266532
-2.82377962549704
-5.20333625064306
-6.71997190847625
-7.82704258775233
-9.08054587761964
-10.0496724754712
-9.81606307582975
-8.19448919593306
-5.76961325378478
-3.24389972053534
-1.279720716248
-0.325140305964896
-0.207620014999978
-0.452208125175299
-0.911600577583588
-1.45666529686931
-1.5800476345925
-1.09724452700687
-0.543252370363499
-0.205351186746068
0.369628565555784
1.4560849290086
2.73151939122905
4.00513312141959
5.37582942877857
6.65090156020626
7.48235034311194
7.8583349802886
7.69700982252091
6.42446936092209
3.77594132633101
0.555001369802305
-2.11345510598136
-3.84808802242938
-4.91019420056857
-5.63739457684101
-6.22952595802136
-6.50805495581672
-5.93086057523504
-4.39962000758913
-2.698718854213
-1.62925714824195
-1.21971178938629
-1.07103669277245
-0.810690837284603
-0.12396309668276
0.976246818602936
2.00478417399369
2.61814214916374
2.98876864069358
3.31289612607317
3.66483740299416
4.42252735407702
5.83775277254049
7.15435958596679
7.18629635400103
5.71588547869177
3.52997256577731
1.47631468076213
0.141254097613683
-0.212953911211491
0.0266966758417796
0.175901829614235
0.109548643122156
0.112741808649638
0.112856884119999
-0.0886425789665032
-0.146533273911069
0.405324059551827
1.38930671010713
2.34656459045672
3.23839369083068
4.19612509287253
5.06808732200107
5.62701322884893
5.63962648787963
4.57696561072275
2.02247946858554
-1.58793444063884
-5.30959238495119
-8.56712499492659
-11.1632775007951
-12.9107020171599
-13.7738903936457
-13.975869267327
-13.7781315783796
-13.4666528459633
-13.284218893605
-13.0133268493436
-12.125923839399
-10.5834047264557
-8.81523369107678
-6.91817102442629
-4.71383218693329
-2.30492101837846
0.363396132584581
3.87422713787367
8.21652565286035
12.0764942853461
14.2662068284448
15.0616099819835
15.4049647329784
15.6780639306021
15.7571537407612
15.4416634301429
14.5412085933583
13.113555013239
11.5491754440583
10.0460003072584
8.44716535708261
6.9304398837502
6.12048125626824
6.07597311238836
5.93890182928069
4.98905564509959
3.30762475741778
1.24755091117191
-0.913630537499268
-2.81464888675922
-4.31976655093847
-5.83546108471168
-7.75774270533259
-9.97133063273149
-12.1401734218937
-13.8944823333722
-14.7581372103996
-14.6402552201061
-14.222573137064
-14.2218776681407
-14.6532842296659
-15.2107736428031
-15.6360499802985
-15.3876294969521
-13.828566678503
-11.0217033296207
-7.62580329824008
-4.04136887579852
-0.264446796441472
3.71948265112493
7.83039665998188
11.7266319154129
14.6908197805859
16.3615327925445
17.291049497743
17.9139985706082
