-2.02967988328264
-2.09003202698769
-1.82255057916873
-1.74041603427439
-1.87628514160465
-1.67084842641544
-1.0337990662931
-0.481682678929976
-0.197703389303456
0.16871104567203
0.835558147451443
1.63578035861908
2.23864500622932
2.3176708024129
1.80315842673173
1.02586222695254
0.326296379501973
-0.292321161077347
-0.928228271803611
-1.56558021543256
-2.17024050549222
-2.61951346597734
-2.69602115175621
-2.48211374564529
-2.32360380823337
-2.17577862385174
-1.69567949504912
-1.05647072311069
-0.711018000401741
-0.423366486587108
0.375149308734098
1.52228037258535
2.49149403819495
3.31762845993486
4.15202528502358
4.59554319500105
4.35414121342205
3.78873976433421
3.19293568724093
2.36851541805545
1.30911480759564
0.413391084360484
-0.237047406672353
-0.961361310270228
-1.72344193182943
-2.09303960281622
-1.95393910430527
-1.54201037835744
-0.994648458655176
-0.523487688531862
-0.614752660967622
-1.40563497030348
-2.302802047223
-2.6786939995805
-2.50464134331001
-2.09359843084707
-1.64841987069504
-1.11620318965419
-0.271134633685795
0.911416115316082
2.016353396491
2.66985594366908
2.98542113387611
3.13541219935473
3.03242334412813
2.84896914342993
3.07222640604695
3.66411581514224
4.01914953793065
3.88780278244396
3.4119132223797
2.45361696316838
0.940684294319829
-0.548418088271825
-1.52916106531145
-2.31079456630396
-3.19923407524947
-3.91229409805213
-4.39770959993093
-5.15264526781856
-6.18338331670364
-6.69750289789095
-6.2659651854703
-5.35915018560346
-4.50450230528711
-3.81136577031311
-3.35300868525399
-3.08131481543057
-2.44302314941651
-0.958162052084564
0.97552692728002
2.50162947741801
3.21916657683021
3.29614832084427
3.13133898995484
3.11393600180843
3.31562669222091
3.4216509445637
3.18145839183316
2.66217597608049
2.01445218957083
1.41037270525307
1.06105366155783
0.862117564780505
0.43138190614767
-0.159220577200904
-0.409264586117578
-0.354696700291665
-0.485005533903373
-0.627751228208606
-0.161772411658269
0.724464535611087
1.30100915487211
1.55466796637208
1.89964128697443
2.11237210653649
1.7724002021661
1.21799266322168
1.06359436162096
1.33265488571143
1.73457548398403
2.12134474202299
2.22758743381386
1.72940769552122
0.87330521881181
0.277457632235593
-0.0049866213645088
-0.406269769307815
-0.904830653339515
-1.05774772162826
-0.836107943154022
-0.635545047289073
-0.636929990596479
-0.717062167020349
-0.758918822037669
-0.741536677009711
-0.71805945079126
-0.737317764653121
-0.712294753919339
-0.606591568718331
-0.671810559887956
-1.05660252814695
-1.42728480685205
-1.49483510713101
-1.46092457196999
-1.45345950154353
-1.22832425465145
-0.846986941449571
-0.740555151848474
-0.833825872457794
-0.648955408295916
-0.31385682979335
-0.343330461390534
-0.638247768535849
-0.813009504298608
-1.03176123202503
-1.48022501563853
-1.70181019160499
-1.38883146067595
-1.0436847547245
-1.09934840864419
-1.22848152814066
-1.11324663369052
-1.00244537033505
-0.99873149400399
-0.681050871147306
0.105906660367968
0.842337013769526
1.0021314891236
0.543463535889051
-0.255040490210034
-0.936384033703654
-1.06366823144764
-0.657209378037118
-0.138253336056942
0.249095529246848
0.552592252164856
0.795180098011131
0.982954391409877
1.18329818688803
1.33733406561928
1.35236142608411
1.37558527886917
1.52130078517771
1.5958529005979
1.56443190455909
1.74402969243923
2.09391470557677
2.0872371310782
1.63170134324965
1.22960936413228
1.10777004056554
1.14960341511778
1.51253206716428
2.29812804445802
3.00135001152246
3.19733313071418
3.16471393262813
3.09697681258896
2.55640149072657
1.38958078931554
0.256133512404643
-0.365857984722039
-0.81129359519388
-1.40111210865307
-1.89848177151317
-2.1727311006845
-2.5187116052956
-3.0170462717037
-3.32165899423317
-3.18791999273472
-2.66204879198271
-1.92015056393464
-1.31028849388516
-1.17445406508059
-1.38318959911964
-1.45660833489125
-1.16403385179114
-0.635964578868866
-0.0844206522496219
0.308332767884603
0.527184058470098
0.803742368654087
1.20450303024809
1.41690765698323
1.37616845547412
1.54358382000028
2.10133494016832
2.61262511236704
2.80889406851794
2.78654241165449
2.30346866989021
0.991169497263656
-0.768479124883787
-2.26752751269756
-3.46966550551323
-4.57279609123728
-5.18765327196664
-4.98233774144648
-4.46187181027707
-4.20453241053725
-4.02003024496104
-3.5611143885573
-3.02422686822756
-2.71541779946742
-2.67701576922841
-3.01998448082516
-3.73565907319151
-4.0867057214834
-3.23761914828679
-1.54758149106873
-0.228508908356543
0.279436960533505
0.741481253428758
1.98144966519233
3.91293154320661
5.72513774295052
6.75623687901021
7.07422877591781
7.11276056942704
6.98549757832399
6.62502431349137
6.28669779402715
6.21740765600811
6.15588187776925
5.81421476537703
5.33539467856937
4.73387924017975
3.67186153876082
2.23600599020829
0.973270442292124
-0.0854072399401955
-1.32337287332211
-2.46387491730978
-2.83011238044801
-2.54328740931404
-2.32343852134524
-2.39428777644695
-2.52364409804846
-2.65351582944459
-2.70991259635865
-2.41461076099505
-1.93531045635939
-2.00756385964441
-2.82287200864932
-3.51488204289539
-3.27337595981511
-2.33523274695622
-1.54217078593076
-1.4854947986734
-2.14749476352456
-2.85866922475006
-2.78822704711191
-1.90128127287846
-1.05630914387768
-0.908667443860618
-1.26072416857768
-1.61856940670826
-1.81840520977311
-2.01042738648451
-2.33375212745066
-2.56056701692895
-2.13787773499995
-0.918587229329525
0.446404697598849
1.3028015442343
1.66465224339418
1.67549936222704
1.23784563361994
0.633008472985965
0.537790028717228
1.06572890774722
1.72222985791302
2.28262369358503
2.69932170245059
2.53050576186643
1.59301085120809
0.626655727000135
0.266044560377917
0.061448997302355
-0.572254750783865
-1.2637115970342
-1.35462065062024
-0.824927480559921
0.125493813913747
1.56627229406969
3.3260243958387
4.79022452109755
5.62319369803305
5.97446828181722
5.84072361066339
4.99139980443127
3.55563930511911
2.05879623803386
0.92413279919164
0.245802511486124
-0.157233895400026
-0.543879457583657
-0.896425308006426
-0.969956309957427
-0.860046241068036
-1.04984283482951
-1.75800124125709
-2.77429494090842
-3.87560711982066
-4.84354048596189
-5.38586526739991
-5.56396128566639
-5.73500819843438
-5.71877931866749
-4.93261127166617
-3.5900359189153
-2.60565393161203
-2.17981977219588
-1.69225660311437
-0.911863453099039
-0.106994578362119
0.742745695425907
1.72019075025487
2.41722774511996
2.56297628578896
2.6200991795191
2.99760813730122
3.38853881594117
3.50044222245463
3.59474806456915
3.75960942262908
3.54949801917478
2.81552467838855
2.04590233139694
1.58684816401561
1.27985224581915
0.94324298996993
0.569896086341836
0.139822766272804
-0.308274539773777
-0.609129156726849
-0.683490247942652
-0.601159813341156
-0.475732795133534
-0.466362960167293
-0.635330480132913
-0.775960364259757
-0.777599453807194
-0.94064173377808
-1.38614241342608
-1.61881171003715
-1.31219511851042
-0.880288138255961
-0.706104476567327
-0.658554702241964
-0.764902687516297
-1.2722647596181
-1.80969061979928
-1.69501684243535
-1.12194305667259
-0.862042732061846
-0.982837098773334
-0.982424097948908
-0.802436039595895
-0.655617118512836
-0.338061005498355
0.329485253276459
0.876626249798171
0.804032633759311
0.318021746562752
-0.150730420701409
-0.545358759838391
-0.839151657706088
-0.765117974530714
-0.237074577625859
0.508298093234595
1.26919559343442
1.93524134143715
2.34677751996464
2.42585000857386
2.2227111114411
1.79074861746194
1.3078421109188
1.08695192212125
1.14611878563596
1.15690009707232
0.993300090780347
0.798590803252392
0.552460106999212
0.217708308864554
0.0583397597596262
0.176614323570848
0.250230203781109
0.25590008308178
0.615084539445277
1.18679340529098
1.19696530109978
0.495139963942439
-0.274410389661025
-0.849063135530093
-1.5008875844098
-2.11782306817457
-2.2875281753103
-2.11428748026652
-2.0226702303583
-2.06768630211651
-2.13536153711254
-2.3246011994138
-2.55097745283869
-2.38317232444665
-1.74077532180573
-1.06558147536606
-0.502329859333835
0.262109425994363
1.16284435193383
1.66475360315071
1.62808689852574
1.4750738584222
1.47461602879571
1.45443385845832
1.16819279289454
0.613102076608604
0.0474825925605481
-0.262590674942236
-0.31836101846607
-0.196225815234422
0.230841962213393
0.854327478077897
0.980709257119419
0.21499600559493
-0.772212725937174
-1.20580252102491
-1.27975343441699
-1.46655965064752
-1.63620629528437
-1.60639042087419
-1.57925251595737
-1.49419451245806
-0.987953881752372
-0.205415693042551
0.440848310567872
1.18275055279177
2.4150316490402
3.65799759200991
4.15939425206437
4.09757650384165
4.13920045363806
4.30987541810882
4.24428176512298
3.9862275298223
3.67968967266611
3.03716553198169
1.83573026115614
0.410654434654054
-0.812077491676905
-1.76565615849118
-2.53701741657425
-3.18230223162281
-3.73928137504113
-4.13345349553303
-4.26363666025063
-4.23518203647382
-4.17886979702366
-3.99823087460186
-3.6423532667362
-3.26619129711843
-2.86154284342782
-2.26559306994917
-1.63128472809374
-1.23191795112887
-0.913853003506453
-0.434104009215741
0.0477975926652513
0.487567602383545
1.28615727687467
2.47754535186227
3.45450179897056
3.94593417421959
4.23949952304894
4.24339488495699
3.5173377768813
2.29151285988255
1.31624043517545
0.806693304735421
0.508931995965054
0.459026089071539
0.734456913579592
0.87473512635903
0.421292574407371
-0.355790488520921
-0.925882456464121
-1.21143753705148
-1.35926798404536
-1.39313389121445
-1.43592618919332
-1.68271360683882
-2.01085174865456
-2.14260436531307
-2.10260266805376
-2.08385076617442
-2.09707118789341
-2.01214070238159
-1.68518030130465
-1.06206352456966
-0.39808375025673
-0.0708165944305936
0.0115666571803219
0.303554912692896
0.878593870109529
1.43399485664351
1.85713761269546
2.05465979437615
1.65421527173512
0.656157797844465
-0.246717511063541
-0.656248906418952
-0.919210194382716
-1.15537298897945
-0.960440319833714
-0.372926655649237
0.0700435072715529
0.341100334955428
0.817967926758862
1.31036703117137
1.31579211490412
0.97600456978988
0.778776293440095
0.684792117512957
0.428725612193259
0.225338931251895
0.384525147140014
0.697646434345527
0.842148301136167
0.919678769627258
1.18181920974482
1.69542954989216
2.42506547120273
3.20647513844706
3.74410097618512
3.96829418606903
4.07297182455144
4.03185295551405
3.57021385200854
2.65735019217966
1.54189549619623
0.425966855248925
-0.538419688889401
-1.24806951674534
-1.80839823872625
-2.23652947769811
-2.16753633154959
-1.53751183352349
-1.14515553281247
-1.68913909936875
-2.79687313566614
-3.76757842753157
-4.47794691520289
-4.90896417311482
-4.81000011068001
-4.39376833661775
-4.31763605280382
-4.63397587536255
-4.71957242728499
-4.27103054903424
-3.47153999228823
-2.41768768153
-1.2609710995535
-0.539653722496021
-0.547079487210416
-0.791540990600865
-0.740217114313967
-0.534698666115088
-0.414570175813539
-0.136361537102519
0.497959664544574
1.17282537658003
1.49060759670587
1.387120407951
1.03696801127485
0.7174766427634
0.65929240892432
0.861378204158779
1.25211945506886
1.8669778481497
2.5360274958055
2.82788508294118
2.70644247484156
2.67642462219283
2.97882603369655
3.33118110808033
3.58905728184364
3.89840713251781
4.26023886245078
4.65137246105289
5.20240936858125
5.64050058175169
5.29183395342178
4.21210090879153
3.35652137893922
3.17981947287325
3.13618473271897
2.78001669771507
2.17762410251747
1.17569541949722
-0.510567488079861
-2.44975692568402
-3.78942363968509
-4.34175945430571
-4.55622690307317
-4.69333663222927
-4.77837533226071
-4.96183921380982
-5.24931005032241
-5.34242942201414
-5.2010969562672
-5.16089567358399
-5.2496276908706
-5.08344537029819
-4.52471216412373
-3.79845153271096
-3.03282741328145
-2.19382836957612
-1.30770866106057
-0.448392395284431
0.335048487520867
1.06032334740481
1.86323755454273
2.71222709907894
3.11464311630899
2.70792720703249
1.98169568237042
1.6140788489925
1.43231479212075
0.951851778190733
0.383691072641327
0.11405133552352
-0.0925667637747582
-0.457640516085455
-0.61627339287665
-0.379619942675177
-0.0941098586983311
0.181681590600737
0.78787778163398
1.57103408483272
1.96782195144035
1.96767608688415
1.9683672831439
1.88443133675411
1.41681982247891
0.907170590260431
0.950407996428945
1.47587169676375
1.99147542876766
2.29838538987643
2.37637034328879
2.12230620254353
1.61330145734883
1.0841089789574
0.519561832007857
-0.212141336881488
-0.949308558304917
-1.42390183727981
-1.64089348190143
-1.8196145859653
-2.19892174760614
-2.8476032391094
-3.41620869706079
-3.40204615690333
-2.84776848584823
-2.23383055112685
-1.67056132912181
-0.967988150175277
-0.312946252941434
0.088037637904331
0.688339564367411
1.91057066651748
3.27577851811083
4.10308903857209
4.37717082425576
4.26319471988476
3.70731719860741
3.01754860501172
2.79670544260237
2.97295388222518
2.89503103241432
2.46292892970161
2.17617496713882
2.15296450283927
2.04542734510425
1.71327772494207
1.12198932072371
-0.0501699907130017
-1.8706339267133
-3.67558823631911
-4.85827731441275
-5.6257697180637
-6.40911590475131
-7.03747631174407
-6.94129527243769
-5.88789551154828
-4.35673495795479
-3.22666706772838
-2.93366415195388
-3.06929705286772
-3.10421318502948
-3.0854170328936
-3.17475293579144
-3.12437733203864
-2.72872586383937
-2.13459075828107
-1.37422262225315
-0.348309090388527
0.662980245388313
1.31333010960845
1.79092731897771
2.28349302185735
2.44731284211291
2.24199814642119
2.39158518432212
3.21257186220413
4.02768986199503
4.37424604340328
4.64744788430153
5.08512735027997
5.2703691418427
4.96453286910481
4.40135574921235
3.6411603506574
2.58847432524324
1.58752777170776
1.08851221344888
0.886130060586873
0.47519366126198
-0.136182001891137
-0.591266043924959
-0.729645013488236
-0.546910172996015
-0.139533130196659
0.0781269879352809
-0.374688638583591
-1.47663115804695
-2.6827285652552
-3.33463323603406
-3.03298485377973
-1.97411996546214
-0.879757213433991
-0.283027279236461
-0.175309049596535
-0.502377577084389
-1.28153084432244
-2.06049453194183
-2.20813276102761
-1.87186330124542
-1.69753596274509
-1.7472287709045
-1.6856489644282
-1.60373768152757
-1.65315408942523
-1.4836393080602
-0.88939721455121
-0.236957829917898
0.306140651850598
1.0061181487994
1.74712011008144
2.10557024552761
2.34945574659927
3.17334412674921
4.4232085582405
5.24688845024526
5.42711442217389
5.44512785479374
5.40517528994829
4.98274443662816
4.23132616831548
3.51004213822899
2.8391993997668
1.97513860660382
0.853799031324693
-0.352175165062337
-1.31926242634646
-1.73017434892911
-1.65204969151127
-1.54935051248386
-1.72735726462713
-2.07864781060388
-2.38004841800228
-2.49805088499751
-2.50875890480102
-2.8383008636433
-3.79123316146866
-4.87761978361865
-5.38227705664338
-5.47432870641677
-5.75790474680636
-6.08713922444136
-6.00253605662325
-5.78333310005591
-5.83867899469351
-5.77101211991813
-5.17540346067434
-4.52046670358517
-4.2897193477218
-4.15157554374111
-3.65879183565258
-2.84896848922375
-1.75868114605977
-0.300449701603678
1.17286070398279
2.12934185692755
2.7609206138935
3.75588823926823
5.24297731336396
6.74383448447133
7.93362834179966
8.74065645043763
9.03240719974034
8.77729968213398
8.20223077112391
7.52777944907416
6.86325290010154
6.30025787715928
5.77811016484698
5.08517735559504
4.18311843437592
3.19881642878287
2.16705611833666
1.22278559103121
0.738052105615413
0.756188344755779
0.719463413851837
0.158082829151451
-0.88232489875577
-2.21628606705744
-3.58328132450163
-4.45749106755039
-4.66106114143697
-4.8289813334479
-5.41046515567594
-5.84534584072274
-5.55986235708487
-4.89662663526945
-4.2856709452436
-3.52260456828848
-2.56881645399805
-2.02749036492562
-2.20223697696001
-2.55687229826817
-2.50503850212895
-1.97273169652858
-1.05723110544815
0.0586814491272134
0.846129334342098
0.871111448508857
0.433720212041407
0.175800651376252
0.318269179910242
0.706519438651031
1.14422526877394
1.36634263913949
1.15361721256152
0.612963835717659
0.0140468313510003
-0.504565906737561
-0.84291357568378
-0.887606544025239
-0.65775715955124
-0.195146981248281
0.501670615901827
1.17331069211068
1.47041178011395
1.66580926666252
2.39742744826371
3.56352906687645
4.45768070289339
4.94682444568547
5.37376710478017
5.54319909820823
5.02159868303668
4.05942474886526
3.14917029068673
2.25814812674905
1.33014584114895
0.716666863046818
0.458253882192726
0.0726523840744944
-0.514695786392723
-0.841597966862416
-0.961515026855576
-1.56180873857199
-2.84496498416623
-4.25435413657637
-5.32085526372002
-5.88725004297677
-5.72234502016048
-4.83725473943243
-3.87257533268527
-3.37970381296393
-3.10870413339785
-2.58643049210497
-1.93511181268104
-1.67430321589425
-2.02394696125071
-2.62270095130397
-2.86868489073445
-2.58737278392475
-2.20537972496106
-2.0508363345332
-1.9060177029766
-1.57124607842677
-1.21538421556211
-0.84455338048342
-0.26099531195609
0.264513078182618
0.319335706989444
0.371591674193608
1.28877574015298
2.94752627551287
4.44354777217239
5.32385957556367
5.60458516819028
5.21149475333495
4.33757499467602
3.61706305807978
3.24585996581084
2.74271134331546
1.97408115869901
1.41745872862778
1.13016889952949
0.541125553715273
-0.474225141928794
-1.33836673011378
-1.76240414133216
-2.06231197439757
-2.43629301578733
-2.6944883690549
-2.59312988888839
-1.919051745209
-0.601612314676293
0.936795305195122
2.04325253400042
2.59263280661523
3.0209411330423
3.69403782180916
4.61731095059774
5.51359106448778
5.97522942521112
5.85892271988113
5.48494676620593
5.12236015902331
4.63435259092784
3.94530378613013
3.23125461845855
2.3949051875707
1.17078642240147
-0.135275847430011
-0.944747911940548
-1.34750510822983
-1.79902891622023
-2.27104346774322
-2.65098063944853
-3.34192019947386
-4.55689691973891
-5.77397342607052
-6.60071374578556
-7.29950505711004
-7.94967812956093
-8.09074603364678
-7.61951219435568
-7.05719388520446
-6.61959254768179
-5.97431233187683
-5.10591545044755
-4.50824525176258
-4.43787513317208
-4.74626407121406
-5.31162865886486
-5.95243312794512
-6.16709382710235
-5.48085273312131
-3.82770384339799
-1.46521957649546
1.13535249889138
3.39036257696258
4.92305140315821
5.65106949709522
5.58786972439915
4.97793083710275
4.40613376877206
4.20350248215495
4.09607066482825
3.91689727396453
4.03633341375491
4.67599907665618
5.590715368682
6.63879922477696
7.7328612002096
8.30617610165734
7.90941904057422
7.03896762518794
6.33771190124732
5.58598491532538
4.47710717624768
3.52010828761992
3.16789888176473
2.93140161099667
2.21743478459299
1.20806474294274
0.270369336358869
-0.659991993933913
-1.61443414510134
-2.3142830796638
-2.68717335404364
-2.94413410503295
-3.07063436859863
-2.94225558591918
-2.81001123416106
-3.02360215056778
-3.52324227613425
-4.04679279484698
-4.47360401435493
-4.75486102083242
-4.91342307318797
-5.10910951442856
-5.37514842329278
-5.48568834199703
-5.23737864135174
-4.52374107213586
-3.2323255203485
-1.52937746197204
0.0639106701433283
1.30899624887618
2.40886952022033
3.24971611747948
3.37914361900045
2.97177011983048
2.77975779619238
3.04786454128458
3.49945508229715
4.10552167960586
4.75794910131466
4.72097991637759
3.52056368692325
1.75768761652338
0.178638046523008
-1.24858699344602
-2.65393230019808
-3.63285541172584
-3.94278818258429
-3.94885908993943
-3.88350713493397
-3.49620314807115
-2.76077844172988
-2.10099904092522
-1.71401769044974
-1.39460782242134
-1.0192971984014
-0.601468976763742
-0.0978404552153843
0.373543260816702
0.493078262966116
0.203572898078712
-0.172270123674389
-0.334971276363361
-0.222618531336862
-0.0074568806463197
-0.0581434991374694
-0.55392030575757
-1.14654847366026
-1.42892184913211
-1.45873791389462
-1.36332811488687
-0.998616825686722
-0.482064489118982
-0.311965848952835
-0.575059388599887
-0.885080452382539
-1.20361096679715
-1.68991595160005
-1.86668416239087
-1.07245793022306
0.494422042364683
2.14118330320538
3.59358364995723
4.74964353901745
5.2587848669859
5.0974852392029
4.83425156461166
4.77193149785844
4.59721125862845
4.22908120109379
4.10364015860466
4.31518350016076
4.41127291850782
4.26067228576377
4.21909751070996
4.32790832138417
4.16109641801334
3.48137254921443
2.4632975757459
1.37083053030628
0.344593033617947
-0.625779855100518
-1.54553595555568
-2.15402660554862
-2.14594319545868
-1.70525762849991
-1.29951558382586
-1.03327451865622
-0.828992027255249
-0.913927105128465
-1.40736791328865
-1.93899895039489
-2.32746057412771
-2.90930268367765
-3.71577106845399
-4.30156879534433
-4.70011417193934
-5.41654408047372
-6.36955554217079
-7.00804756427526
-7.33574993592912
-7.70498524454009
-7.96652541846897
-7.82758599983924
-7.52063204865424
-7.27113162914625
-6.72889838438399
-5.61161279014198
-4.24970174478441
-2.98434361053821
-1.72386828733837
-0.417525463218301
0.817028756802673
2.22103686481218
4.22183335877958
6.65716084781025
8.8761265962433
10.4757026517803
11.3831484317768
11.5747885768823
11.1863331414818
10.5306286376051
9.75002379310201
8.74193473798918
7.41407116838219
5.83052659365651
4.29287103955756
3.20350041251864
2.47831563335392
1.44517281680447
-0.169096546696967
-1.74835574516188
-2.80251624420705
-3.61238734666619
-4.37965007685832
-4.81072236658417
-4.95574853405821
-5.31180052703092
-5.87552928019398
-6.20291869287328
-6.28677568721641
-6.27461032909935
-5.73881705616528
-4.32673724005412
-2.59282884645779
-1.2430578636463
-0.218729379680964
0.687233392921217
1.11390283040426
0.798916408965898
0.193659087597437
-0.22171686166839
-0.503395219009613
-0.710588067619378
-0.606834142561397
-0.186171580963315
0.225626101092615
0.523196892707914
0.908816593772233
1.45969371099436
1.97248297113858
2.15539549912033
1.92316915341029
1.61065754453553
1.63332175360683
1.8465761834728
1.74642588104815
1.29661111511899
0.876722148986256
0.561866661249851
0.221005150629225
0.0274933701504467
0.13789495435548
0.302199506491956
0.320294003994246
0.260254370324674
0.0157748962269383
-0.464514339592647
-0.586317044225891
0.145783152673786
1.08704088028433
1.33678711116653
1.18171015964889
1.4765297962534
2.17047293466174
2.57575794337014
2.53627597634807
2.35892914916148
2.11360272153839
1.76987558388901
1.49431501943469
1.24495597647576
0.630917298123991
-0.482855861195291
-1.81101624231506
-3.13180830363052
-4.29227854899823
-4.92695244000752
-4.84551733308755
-4.43016012562434
-4.15853556156541
-4.07223099897819
-3.94608608306715
-3.58975028505122
-2.94034816653915
-2.13916081071096
-1.36800657884252
-0.554545261317142
0.404043248395691
1.3051573846152
2.01683056945846
2.75518207670676
3.44769676068268
3.52439662148794
2.90477704729119
2.3141906620496
2.16584395670251
2.13170980198617
2.04181896003316
2.05696319933141
1.91690221242044
1.1929374649914
0.155818453574664
-0.636241901709052
-1.22261410358306
-1.79280081250148
-1.97590087325732
-1.5042870398903
-0.930804856926352
-0.812267615451037
-0.799785758277424
-0.263569421062592
0.804252474275341
2.03197479085371
3.12518870075792
3.7165487467521
3.42476515536883
2.32129013548004
0.930598881893078
-0.220250746121513
-0.884830305345057
-1.21946931473774
-1.66166453103766
-2.37880554530072
-3.05289634370371
-3.47981861554157
-3.89273512473497
-4.45619025621441
-5.04572287402944
-5.59436436394315
-6.00276596096385
-5.89545076494017
-5.12007077082613
-4.03725676994994
-2.78547303580366
-1.05408291235615
0.983696185459906
2.57222252857516
3.53780330152193
4.44162846319239
5.47579989141793
6.27996403245872
6.67108242933331
6.58660971427782
5.76995762272158
4.38419447429578
3.28495315508358
2.9175128877908
2.68826066914732
2.04973028424898
1.33661418845097
0.963123296869569
0.717252723919571
0.357960639565748
0.0352996529195524
-0.221991378024517
-0.62735500503313
-1.10866922930581
-1.33036563018331
-1.17100764619571
-0.718986391306654
-0.0617095983968632
0.650261471783728
1.24516946033786
1.67072463222463
1.86091109814627
1.73464179740932
1.48025726785247
1.36617570896286
1.26855400024314
0.953615355509107
0.560460633807462
0.181485659564115
-0.463789601192204
-1.30519588415019
-1.73580530301776
-1.73873937013446
-2.12263134239045
-3.15268130883162
-4.13140505892097
-4.61628007957533
-4.80425064240129
-4.6268523441147
-3.73910927063044
-2.45156297974044
-1.59715264389194
-1.49143757676956
-1.78652329318585
-2.11339237706082
-2.24443105057224
-2.02045489838057
-1.6777400433843
-1.78994550074826
-2.45817193019511
-3.05865006801702
-3.02200394666064
-2.32911438453552
-1.23597446094946
-0.0619832823259675
0.88694168887909
1.6098932702562
2.38310790178254
3.26972034600699
4.02613591786611
4.46919413015901
4.56453457169939
4.34766681742903
4.00081742167424
3.66868543856604
3.20657025118142
2.58088798473212
2.16492701088418
1.99642912217124
1.39711442021373
0.0966269404471535
-1.12666141038857
-1.67121511364335
-1.94547619354467
-2.35914529952748
-2.64127272227365
-2.62681199873181
-2.57209790151351
-2.44502278942221
-1.94870750261132
-1.22087940769722
-0.566323257494763
0.231835638652828
1.45151646926025
2.70423515393466
3.48451336025254
3.94447924931038
4.41526424047196
4.76441071996956
4.83379222571218
4.83525647069433
4.83534461488274
4.52296605315173
3.76740777713363
2.79769887937353
1.76830119860856
0.641818597521882
-0.587198252617855
-1.8493513098529
-3.02058918973073
-3.95718434851411
-4.68860258438936
-5.35496226896249
-5.86206298742258
-6.04816869666626
-6.0878820455038
-6.02984591787304
-5.25494297084167
-3.35360601662033
-1.13843721479742
0.215074313403435
0.548034823241339
0.442898308486193
0.322525984865304
0.483051148928869
1.12180044428443
1.84305820054411
2.00861650431038
1.72083364787598
1.57436291266738
1.61913845604993
1.51556230043289
1.37742951045951
1.52260200590104
1.77348288058936
1.8395855550765
1.93716844528242
2.28268805002238
2.48017480688018
2.04983523043305
1.05422551707386
-0.208166966678836
-1.56017613114015
-2.79589052401125
-3.72847561866536
-4.40651855226933
-4.89462045860076
-5.07184576683603
-4.91094924507123
-4.60833080847732
-4.33085141755499
-4.12147820845047
-3.87188103955323
-3.1775065337307
-1.7071747150341
0.107012138224424
1.37600062915538
1.80898117184221
1.85849191624422
2.05544734737182
2.79760751266265
4.22358721806918
5.69427025106006
6.20166031363506
5.7729408962502
5.48083155267962
5.78713205660378
6.03018055114681
5.66455487674618
4.80270002046719
3.53608340373619
1.86465541729242
0.231484489870935
-0.83978725356249
-1.49627918568097
-2.20861687823494
-2.99573114831374
-3.61769175945562
-4.06121570552918
-4.27415997604726
-3.99489760001954
-3.30341849525843
-2.70561109058562
-2.34935556521365
-1.7979425519888
-0.784278623061929
0.343974816227211
1.04850315889273
1.18066228924335
1.11291545808703
1.29548906525826
1.67347289047151
1.84005686001901
1.74522053739669
1.66178730896044
1.53278950782402
1.15766919960595
0.825442385731038
0.840540647051231
0.794129545627047
0.248647201035247
-0.434332444051892
-0.795384874597744
-0.983651624275719
-1.09174182651523
-0.843145837694
-0.428465087546319
-0.457933587776193
-0.799957461953237
-0.687077054071349
-0.0461561851071538
0.443881044957705
0.484337030180536
0.241305090426718
-0.409988750867567
-1.64002865148193
-2.97732696967204
-3.82955935872849
-4.32591371564971
-4.84705887229532
-5.21576782241054
-5.06042409747542
-4.49881714346452
-3.95200548779521
-3.65745577538962
-3.5518628579965
-3.33689695444582
-2.73482146151579
-1.83188731576942
-0.90287094932875
0.0592382149922419
1.23520024683634
2.58871281829883
3.95016049349047
5.15045020564984
5.87074506002433
5.89851200983244
5.58159114266168
5.4088084996877
5.33927617999202
5.1810658607108
5.08356762262699
4.95356448103334
4.19703534324343
2.75379955114481
1.46548338773136
0.893608179226505
0.812159352751532
1.12572603569525
2.05496230065101
3.21638143571414
3.72867822011435
3.40455848441592
2.85736671521986
2.45021237017852
2.02131868164167
1.49325703943027
0.938095725042656
0.262570609504918
-0.503059250840205
-0.956123597539267
-0.892784106227256
-0.693950159143984
-0.793946892911318
-1.22645887539047
-1.84624843250467
-2.57409741653156
-3.39241863777624
-4.29814616311207
-5.12449055179624
-5.49481484631343
-5.28035561480424
-4.84507050648067
-4.5187212663016
-4.31572194543605
-4.39881635448068
-5.06920574655005
-6.12551570536182
-7.0495575413811
-7.76516077742905
-8.35060677131694
-8.3730476678586
-7.44517937812679
-5.90453931207543
-4.18281483095209
-2.29464605220247
-0.479777146589367
0.708906105908356
1.34447938557091
2.06023377102714
2.93288280594184
3.54818768678035
4.04753821268453
4.92583026076561
5.97838299824933
6.5766187292281
6.773144206087
7.12194019698098
7.65810491462725
7.91219884929367
7.63338743632993
6.88008633639986
5.80519666786392
4.7480083157165
4.08290922131184
3.80226722295199
3.617755201136
3.35789038637512
2.97938224529756
2.49458493925702
2.04692901806575
1.70929727769371
1.29390316251085
0.716547338399138
0.233606732811585
0.0284698627027155
0.038086581985186
0.27362533520145
0.660887938375151
0.716735528219133
0.174671870731573
-0.460227115453293
-0.800598935899446
-1.33068574107834
-2.43367154465361
-3.57631414688793
-4.26325165411023
-4.8077425092946
-5.50360404829982
-6.03082253996356
-6.14159936204718
-6.02690658250776
-5.7793843822384
-5.3109948851858
-4.81811432374502
-4.56903237978862
-4.36115453172759
-3.89173539710114
-3.40309299946005
-3.28741585920235
-3.37624320719449
-3.16786956446496
-2.39163572634767
-1.06556346774346
0.506413367800597
1.71344616391652
2.15578799277178
2.1282414460396
2.18400482260597
2.44877896364978
2.61838480210577
2.34676302279387
1.6102065656413
0.920194577570965
0.875646076358206
1.33400375571026
1.62200638963565
1.62691491265289
1.82232160746305
2.26854062512545
2.59963684752895
2.82418761541011
3.14171249121715
3.34311244932231
3.27710322622785
3.30263198317311
3.55981996700615
3.5726726331539
3.08212541277857
2.4391368564982
1.96748202167514
1.80418647167909
2.26453258897853
3.38031522119436
4.27999844911896
4.02107185719991
2.83362213621103
1.70289541751566
1.08921021085084
0.849814936659871
0.891011840942869
1.04450549778561
0.770968677231213
-0.300413554009604
-1.87912735972944
-3.39878971227498
-4.54422845047707
-5.33267041102127
-5.97869204489753
-6.61255932051169
-7.08386347329412
-7.29136317959399
-7.47985671626732
-7.78642189119962
-7.87286284540308
-7.41623548249627
-6.45240305855723
-5.04682980677286
-3.40185001853912
-2.30529370466229
-2.46455020194643
-3.42203169581039
-4.03608550258868
-3.73308629884449
-2.51504851811749
-0.448061960238877
2.03337967557743
4.13578211138053
5.65468313641331
7.01860265308717
8.07790938560682
7.99763080026299
6.66884628570954
5.11524709584696
4.20388028229685
3.89129010296884
3.86571582085442
3.9990084700264
4.06251331537656
3.79966851317002
3.32135884821446
2.895684725973
2.55167762394506
2.25835244321396
2.11377730250952
2.12945074268979
2.21054337180025
2.34030504509581
2.45303649423954
2.35860888597209
2.04098128905651
1.70603168829744
1.49256113080857
1.48277845420545
1.74740237965826
2.01631012510637
1.78706210726361
1.04113481655167
0.208377329622795
-0.601442639295475
-1.45897444342021
-1.95957151270014
-1.81199874442738
-1.68913618620598
-2.38427577049405
-3.68475017795092
-5.00760220184781
-6.29020950134719
-7.4429727057709
-7.96387803897432
-7.81444364779029
-7.68351224557462
-7.90780563595712
-8.07618692550349
-7.9029808120187
-7.49607769700388
-6.69607158437719
-5.17995280442641
-3.2515315841711
-1.5943390556726
-0.304113579964786
1.03574076082615
2.505902181405
3.7201248797727
4.3123347879222
4.20076768066785
3.65196180052644
3.18478483204274
3.16845693584929
3.61571474799916
4.41273597301539
5.363352529738
6.05517699959007
6.16665151432125
5.7731341354501
5.04953600557325
4.13728403454769
3.50425048610215
3.65769098039688
4.32486208224317
4.7653378653173
4.83501271805357
4.80891919776597
4.49305456544027
3.55120766615796
2.23011506990115
0.826655481834373
-0.904818255903399
-3.03854459124391
-4.95490063129786
-6.13428341122826
-6.69777519870939
-6.82141605085327
-6.44932213523387
-5.7980154701305
-5.33371127234579
-5.12265370167844
-4.8847354561554
-4.59751934069372
-4.39497671072495
-4.15899237884704
-3.82219497595871
-3.5959289543091
-3.36695720711246
-2.50704547184894
-0.743313276485
1.39166956498975
3.22224256331264
4.49369152053178
5.24436503017733
5.57092681856617
5.50993492002729
5.03833947558659
4.31957655580389
3.69811514810573
3.18029838564647
2.41377455742804
1.44045031383886
0.771030872775011
0.595204439795038
0.787954043983923
1.53953184131629
2.87671157107639
3.92077051451225
3.83283093012396
3.00348640771659
2.24958266152326
1.6114121779458
0.880565940089518
0.313915338028066
-0.0525199451731591
-0.798918361116322
-2.12585397422072
-3.37773118115926
-4.03168035839075
-4.30187665518559
-4.49222085693661
-4.59650627328464
-4.68566102677079
-4.91725824652372
-5.14915353505724
-5.15346193029634
-5.00073334869602
-4.77987950863421
-4.3560392415342
-3.71221022630685
-3.03917228827611
-2.37265079821572
-1.58191411893384
-0.618593345045072
0.504183246814673
1.66973526732315
2.53652687730019
2.94613604441786
3.29496012434169
3.94596915544283
4.65702391114143
5.11776398778128
5.42915142786706
5.59684143156877
5.33872962360846
4.71069824514727
4.09405468903908
3.54192359706839
3.00574997384428
2.90115745538835
3.51142617670244
4.2659256024678
4.39332175560669
3.77583838462836
2.71407111695952
1.55492333568335
0.783546337080277
0.670552597318572
0.713429645471955
0.199065564213755
-0.761013202718558
-1.5621006185191
-2.20952177507118
-3.13742417431226
-4.20248295996021
-4.85119959414025
-5.05410677056945
-5.22309445556065
-5.45788912726999
-5.51641402187777
-5.28048196123111
-4.87591233327187
-4.52401688406783
-4.35205069372057
-4.2502979706207
-4.07871893374385
-3.94800214282897
-3.9423389379272
-3.82669464165231
-3.49396660001447
-3.24501219629316
-3.1547993621962
-2.80215848925318
-2.00260679845843
-1.01700173698282
0.13547649147423
1.63464182608782
3.18693735771441
4.35736532858989
5.2202270018701
5.78108505857911
5.50175701014902
4.35328957178614
3.39251950965792
3.34867309718779
3.60459690128139
3.36584326284619
2.82912494774631
2.49585851491564
2.30169609850765
2.05488074729524
1.88684023235435
1.79780400390112
1.50908553600001
1.02121993538228
0.63468364796005
0.397300344889375
0.159119371965818
0.0287671196034543
0.257568248508091
0.859859628186387
1.60390701787881
2.14546322210509
2.17504414290451
1.67915262647479
0.921770517978485
0.11516275393235
-0.588534883800938
-0.965307995947283
-1.03825864307989
-1.1772878655175
-1.45271895907528
-1.47215073665664
-1.18405031874501
-1.01580095432436
-1.01631528094876
-0.850518289815327
-0.643381456214792
-0.732659074432118
-0.776515909763311
-0.190919613848248
0.88870581739216
1.98111943877285
2.97371055125349
3.71562027326818
3.70532787872012
2.8570089693251
1.78963051362268
0.885014606283622
-0.107994998202585
-1.21448568377528
-1.91076895646172
-1.98952138347851
-1.90575651521364
-2.02070798667852
-2.20568320690056
-2.26894373578556
-2.23609308006651
-2.30823354363916
-2.82987697463915
-3.96797982421948
-5.30694133120036
-6.17106533248296
-6.28946380514671
-5.81387571253351
-4.98780826925097
-4.07460712069656
-3.21707452641289
-2.27637282735897
-1.20455792760826
-0.342976522615826
0.0930240924501569
0.343820239821826
0.538497588486964
0.510856754433834
0.411798318427129
0.56902711367469
0.679742899667103
0.234912789073008
-0.367398039229896
-0.255441014641092
0.647623046689807
1.77042411691113
2.79213768277445
3.54333602296792
3.702462890501
3.35450993084093
3.16145881403023
3.42177669402404
3.69079669218893
3.69526969027035
3.78101723919844
4.16167612102815
4.58462838986564
4.9294810712751
5.3107333959215
5.55023092320225
5.30834924936769
4.66695630272913
4.01371908370925
3.52680285712195
3.09202962272311
2.48648971592333
1.56879460214281
0.492382563935629
-0.426474155685187
-1.13164354373305
-1.77286388589374
-2.34400671669895
-2.85341167338767
-3.52591487854954
-4.31384043243376
-4.75548424637978
-4.78564221995863
-4.92067440466002
-5.31236744360189
-5.57640528281608
-5.67885969664514
-5.88412181925695
-5.93486685071994
-5.46833709675114
-4.92026586688874
-4.8383746712368
-4.76831836116241
-3.8987774646974
-2.30023969776159
-0.667247767453872
0.612983192735625
1.50668895942182
2.061187494094
2.54421433521543
3.2444640709535
3.89921892649778
3.99423653466184
3.64959613292363
3.44294954315621
3.50842082916287
3.59959057558864
3.74847714775242
4.11447142372663
4.49577867669038
4.53024192527857
4.11083132411502
3.41269832425692
2.77063285039074
2.42451440406129
2.18612613689199
1.65396873009128
0.772888239423946
-0.262068965840321
-1.42685356278132
-2.64815161855885
-3.61440238786871
-4.32944147419179
-5.18027484847112
-6.06954279750545
-6.40224549256184
-6.15526845322152
-5.87527254036647
-5.60874561693081
-4.98088183330633
-4.10051819880698
-3.28322619327726
-2.337630163904
-1.06933106022506
0.218860956830758
1.52022892534713
3.46636656541663
6.0807749659243
8.14881948390235
8.59179259854248
7.64344532234745
6.14486584461151
4.56974738211441
3.1588220134268
2.12746888705257
1.38647181154849
0.689582982221703
0.0870309116888378
-0.258186253091258
-0.460781145930036
-0.714283463803067
-0.995728295644245
-1.16463859297722
-1.11160956700176
-0.876138330338821
-0.74690298911674
-0.915024018992262
-1.04441847922808
-0.717650851601281
-0.132247418289624
0.248564147650331
0.328403339383571
0.0641031288308741
-0.780472282144205
-1.95318410970918
-2.63310665690736
-2.52055018276878
-2.11935527628957
-1.79042306583959
-1.55639556264199
-1.69713938819868
-2.39388600825379
-3.06040121195489
-3.05620050606514
-2.63338905461448
-2.34540682940098
-2.14953491177919
-1.83588694791549
-1.60686266836161
-1.52239156480292
-1.088731167436
-0.0053335373835128
1.33739076764539
2.47040733854042
3.25957164510319
3.57700087568855
3.31325521320239
2.74412812965732
2.28788772859974
2.02074018139767
1.78051487469262
1.45148495922192
0.993777114753521
0.522626033031524
0.322881425679631
0.565464951242771
1.22427868246617
2.24550567074103
3.36262148105743
4.00467736504755
3.96632697859836
3.70641376410347
3.46840273203496
2.9279538047267
2.18821064837197
1.95582324245003
2.24187306157746
2.18040436976984
1.47921846237096
0.742511430683265
0.271850957418256
-0.168741800949509
-0.561290294862406
-0.787590764917218
-1.20204553902323
-2.04390619846209
-2.82352067583239
-3.14727687579913
-3.47844568404398
-4.31800082571624
-5.35202327563289
-6.06926598015614
-6.49063785130291
-6.7710640475201
-6.80167098679315
-6.54727400474908
-6.14395760122036
-5.58146335737148
-4.82169962588228
-4.06727812293982
-3.4892926216668
-2.97160207986362
-2.35752164750277
-1.64018331806444
-0.895572412484706
-0.273228674371801
0.131863778985134
0.477619552536254
0.896979828727466
1.21858729632306
1.50510251036419
2.4110831656521
4.26839074068254
6.35632501020712
7.74212447561515
8.1736329996363
7.74094103634937
6.63980470925601
5.56056508521189
5.21433368071008
5.33546238427606
5.14135427942775
4.53819344545404
3.87137885431264
3.0213240420726
1.8383725941345
0.903112872863406
0.828075433221215
1.33266784959506
1.81999113263353
2.23640406206733
2.66474380804138
2.80509034754593
2.52348544712981
2.23291273238804
2.22896347276346
2.23614427338903
1.87894605023388
1.13802460907745
0.285220818298199
-0.372485540756647
-0.806815161389369
-1.34849264174838
-2.24058291268609
-3.34700927848143
-4.52588980445844
-5.81389870196644
-7.04456347530317
-7.8667296308931
-8.191568872518
-8.07008286933243
-7.4534781187025
-6.69071581275976
-6.56639674853412
-7.11873176218212
-7.31843629081925
-6.59228697884334
-5.61521377955563
-5.08953427691044
-4.89685511967983
-4.75072090405097
-4.5124948660105
-3.78527016109358
-2.29966329259765
-0.610511314715377
0.49791100038699
1.01838682728325
1.4478074580229
2.04127945666903
2.94572782628596
4.37290155598834
6.01761980692717
7.01528560085907
6.99909975425351
6.52169051810873
6.15972357379098
5.94594151818316
5.78224766340623
5.6900362947085
5.63485529138058
5.56853432193949
5.49428705658466
5.32157197597375
4.98738098090172
4.69125477746249
4.66191315791978
4.88842797343025
5.26349398024102
5.55757554779433
5.25849806634842
4.091471196153
2.55769005031486
1.26851871287247
0.117469911871585
-1.23128737934765
-2.66333003020008
-3.99859995282892
-5.24350289527159
-6.11308117798446
-6.30735720470776
-6.35507023904587
-7.02351321340806
-8.00554153788224
-8.38468712760977
-8.08166890821895
-7.63924617312249
-7.01774485614337
-5.80851733091191
-4.23071294008079
-2.84574231340891
-1.67520844220348
-0.450616306667434
0.744363517292224
1.74079521668534
2.62799529595214
3.38841969092671
3.79438661716513
3.86064924200631
3.81130927738742
3.65704632078617
3.34526602238106
3.12052118225744
3.30489634923832
3.89150134541761
4.48561493802721
4.52183747232976
3.74992898731242
2.61699146997722
1.76233975673775
1.1849168942096
0.486859516220943
-0.351176058998549
-1.17842852604256
-2.14215690512314
-3.13639135085986
-3.50551706679299
-3.07895305898247
-2.59928634437115
-2.49000087851934
-2.29268144706077
-1.79910944959183
-1.51868398851509
-1.64229259965531
-1.67850470460484
-1.34941347199737
-0.912047199783232
-0.584126580658834
-0.435825604546454
-0.674042622306259
-1.348553861723
-2.05066475903595
-2.42849624632951
-2.57392763657026
-2.53134465103879
-2.07332771397456
-1.29298689963285
-0.700504623820948
-0.472008033860399
-0.226412337471869
0.349873160589983
1.11110644940474
1.6393449621266
1.64060636742317
1.34338722609835
1.38900970840061
2.0248768467422
2.75418675202631
3.07645950337497
3.01125673895866
2.6812855382837
2.11435617956418
1.57626193209102
1.36514147866816
1.3741160491163
1.47434567852838
1.84112484256713
2.32482421498641
2.32420939412654
1.81464873127369
1.50491607226349
1.63143731255745
1.71328581451571
1.60456271223234
1.58818496704459
1.5028625120891
0.967589237590771
0.269867541296605
-0.0606290740683363
-0.216922177419527
-0.636670339081282
-1.02882183669196
-0.878383376429141
-0.43847128618365
-0.31778453929958
-0.553859059566415
-0.799986346781764
-0.965694813522473
-1.19773399370557
-1.59855549151096
-2.13474396024346
-2.57911228316616
-2.67955614155329
-2.53029069207207
-2.47952014489138
-2.67672389220535
-3.03365863387413
-3.41763660935995
-3.61123394466711
-3.47695514875286
-3.27048184163532
-3.22813877650519
-2.98971167598555
-2.17861608009404
-1.18137797015187
-0.50976045387168
0.0092439461301052
0.582489669560443
0.842566165461678
0.667891745261884
0.639796322264239
1.08786060992187
1.69106695010377
2.30666088013935
3.08920846603986
3.7300600566471
3.71725127960866
3.29552437669214
3.12124518813415
3.15352579257466
2.88067777563922
2.38039051115584
2.2084677140823
2.4938099554012
2.90110930469871
3.16071863005038
3.12062495579013
2.72759509759809
2.25039476422734
2.01702836197272
1.87642565481202
1.42134738472314
0.624290285193584
-0.162025860975215
-0.668589328419412
-1.00226785903442
-1.63765653240002
-2.94968825991102
-4.58465151408447
-5.75436950719941
-6.26924148917985
-6.58143685340422
-6.8064468079085
-6.60916399811158
-5.99291078386083
-5.28641890550476
-4.54739920599961
-3.71572959941803
-2.87331782575141
-1.81814104343577
-0.189975069560857
1.61790738200397
2.71974259377463
3.11362080307987
3.64131383031278
4.52393913338979
5.13412557196914
5.20548296141546
5.13193776688883
5.11438472382576
4.99864562316274
4.82631586327354
4.69016841177461
4.29068953527325
3.37007043832965
2.22888987417481
1.24656585779735
0.361096397589612
-0.594059731930063
-1.56479807162097
-2.49319846702243
-3.40798265908589
-4.28373238822037
-5.07825975892411
-5.72939601076152
-6.04355068973996
-5.88705238185096
-5.38528584489183
-4.67922959048165
-3.80912809319213
-2.94050821337191
-2.12018054334723
-0.892077879609559
1.0248889634595
2.95626651952061
4.12608420731414
4.77142518965845
5.39171833120234
5.68286701025225
5.28447039071277
4.65397646855633
4.22625851989801
3.68607784692828
2.81756037120749
2.06800677185462
1.74634239756837
1.58993829057607
1.39041293360447
1.20234396839955
0.899482740403397
0.317223578727241
-0.307742817939122
-0.757100686560629
-1.33392016425386
-2.24962090147663
-3.02643557470336
-3.19555065405417
-3.04096951427245
-3.08949691148241
-3.36026161500276
-3.46217836990285
-3.0602575582283
-2.17544766927974
-1.24315723314167
-0.706120824438378
-0.510897329048907
-0.329434329307689
-0.102496022972517
0.0492338909360482
0.117565340039022
0.0491750830896482
-0.242896761850333
-0.554696391352664
-0.677599024533825
-0.872198629820643
-1.30603472527122
-1.45701630659551
-0.961262386979432
-0.400180975561791
-0.356530744430403
-0.491000263537738
-0.2837372774322
0.239712623560721
0.99751767646801
2.02215150338567
2.90373656288766
3.13076408898686
3.003441959569
3.15731012348919
3.35906287280076
2.85652642919972
1.67906082027331
0.55391697999198
-0.195034105482259
-0.775635545392799
-1.31376596532623
-1.80767655924807
-2.26608119511568
-2.47273833117003
-2.13916096097182
-1.46544427009982
-1.00087846883731
-0.944654064970836
-0.992040989151653
-0.716378994383838
0.0772402780799669
1.11259777601622
1.85381897958309
2.2569000162051
2.89123176625044
3.99012234630474
5.05018806906617
5.6432706785388
5.77876659070853
5.33820099750283
4.14402160924027
2.58217022853128
1.21101228717696
0.01580142732143
-1.14903298904471
-2.02606079176008
-2.61176136748576
-3.47228618863317
-4.76202952277367
-5.86192682413306
-6.41207040014627
-6.73174564773259
-7.00327184362025
-7.03088513778962
-6.89389081635262
-6.8731153679565
-6.71878359154636
-5.87270059463642
-4.33516921296498
-2.56316913485888
-0.768297939061587
1.00592795437042
2.46095468533113
3.259575907564
3.38913519890553
3.10700340704572
2.82318448822955
2.92103185430478
3.35487648081197
3.65523123468798
3.51868175946497
3.09636605398077
2.7591833530234
2.89085754500596
3.57194429225193
4.18262391377332
3.91470969109524
2.889695119461
2.01943129749749
1.76432111708218
1.94373169652381
2.51505182490593
3.44795174837056
4.19556614044724
4.31040839424291
4.08015605433269
3.82084448462491
3.34812338802554
2.68190643753599
2.23879471752373
1.91455901391503
1.06586997417053
-0.312549095251142
-1.43018746650598
-1.85962288656787
-1.91152685618434
-1.89539838497882
-1.93339674328174
-2.36055093260461
-3.42111048770249
-4.75041357486705
-5.81503428891244
-6.49737284307071
-6.81208546790173
-6.6543130225435
-6.19523861119352
-5.93268473271462
-6.1114908471341
-6.47765521278682
-6.57062929064929
-6.04618800940033
-4.95226829376559
-3.75112335417186
-2.81540185871778
-2.1097788132407
-1.57697303007002
-1.28391006464419
-0.966190134893968
-0.183595080930343
0.932021088214377
1.90241094614413
2.74034006735753
3.65715964383051
4.37830378771012
4.7296575315078
5.22097208109165
6.09215082301521
6.64850642252391
6.39934759568541
5.90055893746365
5.77292087545372
5.8487219254417
5.80399313913793
5.70283758685742
5.53990888282547
5.08400964583021
4.40085312972464
3.80017559535118
3.25191261362001
2.53758026563048
1.78835542297788
1.22740784425066
0.713809829132133
0.0733683248084033
-0.539027417063911
-0.940471014436018
-1.14344142224612
-1.19934905249131
-1.23457292885216
-1.52391737776505
-2.22725073525462
-3.26862699423197
-4.49509562338494
-5.59918211685485
-6.1201055513575
-5.96440856152254
-5.54137105007708
-5.09644331177648
-4.56946582873581
-4.22434701341116
-4.45231758127815
-4.90396585844327
-4.84847390400446
-4.25078353289446
-3.5258309374555
-2.70149628447697
-1.77918248639536
-1.22739177455207
-1.2398629389813
-1.24977340745659
-0.792207709766143
-0.034722377696262
0.873535524501516
2.03572675816731
3.17793873919709
3.72948835019524
3.6710969939982
3.48540830609379
3.34584634685045
3.16202273093824
3.15881635452907
3.58378383246568
4.16810897417776
4.54051318102884
4.75406164355131
4.948276682112
4.97168494924153
4.63317326950942
3.97909358228456
3.27148840930536
2.83622544723628
2.70994303270536
2.46217156343742
1.73310585889527
0.710546082292081
-0.324373337361103
-1.42330569646288
-2.55536110546469
-3.47535041071909
-4.28256323581885
-5.25119424263652
-6.06183630166254
-6.22083678887966
-6.0596719242935
-6.22453989304798
-6.53463379764954
-6.33035573371855
-5.40408982909961
-3.85708850535226
-1.83848170489592
0.0517700318311028
1.07142124787174
1.39153452068961
1.81829722089087
2.33175876736546
2.07335329796353
0.907836960799615
-0.194965940403719
-0.499182978495872
-0.188532799006113
0.338325989043762
0.945097726295461
1.5358764196503
2.02232088759768
2.45887790459036
2.93729518949646
3.53218144354378
4.27944436035271
4.92964462638836
5.04851363965644
4.64302689013082
4.22780708028575
4.12572112046547
4.23007379857899
4.37835532088644
4.39105897910978
4.01712894332265
3.3381250516121
2.76305865647554
2.32986342688699
1.70039461814542
0.888930503039971
0.0970781622065428
-0.950816229200052
-2.45889905298582
-3.81168101774254
-4.46961588504594
-4.96108690275598
-5.94726432425607
-7.08276844432442
-7.73655982825665
-8.02697615846353
-8.32961001885043
-8.48492224526074
-8.12726128136705
-7.21844778431582
-5.91113896404097
-4.43741396612644
-3.20631837769403
-2.40901899743937
-1.65310082932329
-0.580565220795456
0.493072873676417
1.11385260548748
1.36906225031989
1.5708258629788
1.79817444698371
2.05169673905625
2.39677258113465
2.84982786617837
3.37915858742036
3.85560836667969
3.97188048056736
3.61858582728145
3.19275244337895
3.04112213065901
2.97094964136176
2.78311589736734
2.65094768525324
2.55161900857142
2.15039469005743
1.52991040348721
1.11173839744131
0.834845107305278
0.393251860466675
0.0062735962431412
-0.0497670637323149
-0.143366900993781
-0.584220858030174
-0.926178733814139
-0.769494022330823
-0.435228960643425
-0.184799948353447
0.35699893007766
1.42855215837907
2.58200959789645
3.33284112114707
3.63858899553002
3.51559462724056
2.92327758391401
2.13919721249192
1.60568843660858
1.44305184253312
1.53181253292001
1.75171904937165
1.85639328814164
1.59743373935598
1.10654180193949
0.678718574156232
0.291958510007673
-0.215035356734191
-0.781236277165523
-1.25636192269752
-1.51318697244117
-1.36010966636395
-0.799811474865544
-0.194772380493504
0.255198270314773
0.730185927686742
1.14469039396821
1.067513470317
0.557240701634556
0.125855607139933
-0.214250810870199
-0.81494625891813
-1.48624454995599
-1.8427240494505
-2.17843612167728
-2.97133514687632
-4.07884324750643
-5.26244464140041
-6.74274882428494
-8.51102709390376
-9.91753228551045
-10.525967324581
-10.5693758362522
-10.197718294764
-9.17979732804391
-7.63459295954519
-6.15993780819986
-5.05508116464575
-4.19366231920113
-3.58182372505956
-3.26143940195205
-2.85234330568162
-1.86131997869686
-0.277269562624881
1.49484595793888
3.09057531802162
4.48968328387156
5.99892603961047
7.7896860805448
9.50899809312314
10.7313945560906
11.5296758745042
12.0343558000479
11.906255022306
10.9313112133437
9.5478945966442
8.20295232413859
6.94439223817287
5.99086271804989
5.65567042749396
5.49616946837417
4.70026044661073
3.35076001145344
2.21259851211309
1.54649727603221
1.17967991906205
1.22164778247868
1.7021697930641
2.06282558842214
1.79927110505442
1.04479701008389
0.0581789222363671
-1.14190357632649
-2.32259403484641
-3.04478364011892
-3.36752399013325
-3.74931678122762
-4.17649044658429
-4.19354815451626
-3.75775830628869
-3.37028014823387
-3.50542759047463
-4.33954543835053
-5.71168664277894
-7.11313205905599
-8.05957323963785
-8.46174995069428
-8.41904121653974
-8.0462154117285
-7.69218318012415
-7.72803063711084
-7.99623061523566
-8.02247749591049
-7.55326638286288
-6.32817804958176
-3.97341840791835
-0.849362414300687
1.79946453837773
3.22253807990627
3.85364975814241
4.29185337342329
4.66540864672901
5.14117414959336
5.90805164394726
6.64537156356695
6.95007409618397
6.98542791000008
6.95238934713193
6.55261849121011
5.67615376013421
4.85919060768031
4.44230103028444
4.07251663304452
3.53807591514178
3.24192956258335
3.3984032151071
3.57193030792375
3.34672804644103
2.74799865343335
1.89658011960269
0.892094420103013
-0.0192994602158815
-0.641531337107119
-1.01364795985799
-1.20471498093221
-1.26892647827361
-1.40145429516251
-1.75038050244281
-2.19465788489924
-2.53988642089036
-2.65724075739873
-2.42285132197159
-1.94472560522172
-1.64003623205189
-1.62624182060778
-1.50322489074088
-1.15065927592135
-0.979108742612057
-1.05517998896875
-0.972442751788175
-0.789945290342514
-0.980757459903675
-1.47891902480794
-1.92948515515827
-2.55725405249974
-3.62061967398808
-4.5369717621211
-4.63723349123625
-4.16819492403059
-3.70397551555435
-3.32361188512275
-3.01887403488843
-3.03012037514385
-3.21229049788613
-2.95231321951393
-2.14705163083255
-1.39601043266611
-0.989464013746942
-0.611318267015632
-0.138888410283716
0.142610217156469
0.154145585926064
0.208981318842526
0.676993503271362
1.76540656028779
3.32164799397971
4.73289401990711
5.37984361859691
5.19942394758613
4.63923763526783
4.27713991697522
4.45735525722145
4.90750456547188
4.91958158665556
4.31699518528815
3.74755634450098
3.62631424264275
3.602305393673
3.46042398688076
3.50436609190255
3.70553623376115
3.61677544653423
3.31737431509792
3.30171025628114
3.47847031171324
3.36578445486717
2.99790973095178
2.6548464708763
2.14860184080454
1.23015801149101
0.163097384619746
-0.781633110128902
-1.79005364425873
-2.95851512884629
-3.97318477895063
-4.73557136739043
-5.61714344197868
-6.84041456704943
-8.20982013195083
-9.37145375441841
-9.72168072770592
-8.50531641115634
-5.82031246642996
-3.11131757866877
-1.95771369011921
-2.62771060591711
-4.08465429055914
-5.0454973658679
-4.97736543927945
-4.35795433431204
-3.90726297893753
-3.62023357375343
-2.94669736764614
-1.67578054947352
-0.0327359583381354
1.72072745890058
3.15203301498212
3.69768823628346
3.4251738576436
3.08542638673187
3.09704912348002
3.34520628012677
3.95875422246015
5.11325717479081
6.20595321311327
6.43201733266657
5.9165410848872
5.26653603921535
4.55988549631718
3.72018854758732
3.16029872376347
3.11616761221272
3.02766196661659
2.36114233959256
1.39614414335133
0.655928791436615
0.283522148806233
0.336351590770983
0.898017511230201
1.64291969994896
1.97072011487637
1.63407042258099
0.788724679990991
-0.314922040525214
-1.35756993013691
-2.06079890733442
-2.4330345668191
-2.57887854672376
-2.440556772778
-2.06374389369144
-1.75607451518822
-1.76427904621741
-2.23000875809117
-3.35012961633651
-4.95799603606305
-6.29332363167658
-6.85345253277372
-6.88270483068557
-6.47340458484971
-5.18546172406795
-3.15132381687314
-1.39322592519611
-0.50976968085701
-0.142798300401477
0.0678897471282295
0.129487847859287
0.201204590899782
0.379851030608523
0.28773087902045
-0.211999061764816
-0.434928403046679
0.161936587363066
1.10711837157183
1.72242534566714
2.01993852255577
2.15885711166791
1.91622974719108
1.3605567490214
1.22151135237404
2.01259623943
3.37633398975231
4.5398770662666
4.97227968231464
4.67826427349094
4.21342940942455
4.20381677093457
4.68891593328463
5.17615125426514
5.22404272192828
4.73195291136769
3.99536383107046
3.62053601390631
3.87703581552898
4.16164922995689
3.70882141654695
2.5683206012525
1.23924051708652
-0.115713878295867
-1.42875091886796
-2.45397145915332
-3.30044695169006
-4.36251329351611
-5.42515323477569
-5.87184667272323
-5.78797515184708
-5.70264634634098
-5.46890719979894
-4.60464458180122
-3.37486689811121
-2.41827321665071
-1.78872162758247
-1.35099056581807
-1.48343012827484
-2.39746904781139
-3.36863486249705
-3.52558005094529
-2.86418370805239
-1.90539009475999
-1.04493501564714
-0.646334787418663
-0.973058077243984
-1.67434455657554
-1.98949859982594
-1.65413659088823
-1.17430261649386
-1.17417732300667
-1.67611050787565
-2.02492149961391
-1.63782118178995
-0.817553235065946
-0.391804277498122
-0.599980381078188
-1.00285301826733
-1.3226858595716
-1.51121333553614
-1.26277343984074
-0.394907904337083
0.64980432306179
1.45316938219764
2.17274748550837
2.90468995761739
3.42982555919018
3.98126963657435
5.11029309382984
6.54816119507915
7.39896201464948
7.47934437724977
7.2985365863239
6.93465295586666
6.11343959605773
5.12976270530534
4.62636306160842
4.69122655956646
4.9293097692789
5.03860904131278
4.74647223172991
3.73557786596584
2.12196164669722
0.44979015951176
-1.02541986277451
-2.45441250382777
-3.8336456073394
-4.96565609430329
-5.79896291936431
-6.29435159275084
-6.25441891214838
-5.62257855562434
-4.64929994906031
-3.69056772447096
-3.06779454957353
-2.8760586018937
-2.75676676703015
-2.30095007113676
-1.68169479248482
-1.32232879608404
-1.21070933870531
-1.233985024556
-1.6551367262395
-2.48788946062403
-3.11736911291325
-3.22178699915869
-3.18765520862178
-3.16660431678408
-2.80594316214842
-2.13776805893092
-1.56291737065766
-0.976461203658018
-0.0819356098662834
0.680384572328053
0.668949830136624
0.155612969642687
-0.0986433565515788
0.0558733897890076
0.352762082479908
0.898367900071874
1.96664684630603
3.44299198097713
5.02061914246649
6.47305980938423
7.44363497018376
7.51786565180077
6.6213241537411
4.93050847146774
2.63086341600586
0.140865488265558
-1.9060388389836
-3.24859384841072
-4.0987693235143
-4.57994705970395
-4.58288236817999
-4.09513206566096
-3.26029927371499
-2.3279749817002
-1.67790144683967
-1.44435050212097
-1.20309234063645
-0.577734693812752
0.236201551051148
1.14180193244691
2.56652160963346
4.50149730778276
6.02323229063528
6.42173590022072
5.89480233869007
4.82993151512586
3.46265304384471
2.29341952619243
1.73136028699427
1.41595883023242
0.800325773089669
0.0313002597658126
-0.525848485845303
-0.998723791503483
-1.50218386349177
-1.73520726895047
-1.83697484910258
-2.72188773337504
-4.74593641060439
-6.90041657749282
-8.02054994366239
-7.96255866030539
-7.08200314069403
-5.41032960248207
-2.89664015871541
0.016331900972893
2.42412024229718
3.55675976011759
3.40771419024499
2.66701262702749
1.90059753275059
1.13739121434745
0.38663637659903
-0.0853877424947034
-0.223873828400412
-0.263700572355009
-0.219680310000845
0.0746281717375959
0.540985194720143
1.04472662867887
1.60573783748793
1.96316896370509
1.67504978030458
1.02221521829925
0.810085609376518
1.01032469228048
0.738630255684406
-0.286482604572898
-1.3956585406135
-2.03946852243949
-2.16339715194317
-1.73172811763429
-0.877877835955233
-0.2760095977199
-0.480908233361812
-1.13527508351353
-1.462997955163
-1.1576045864854
-0.320449337570559
0.880548880627695
2.0623079710363
2.75825599099573
2.98825033475559
3.16814224297493
3.43315931692304
3.54240683621354
3.32120354416804
2.8481126865193
2.39786490802966
2.28318099784884
2.49628388627921
2.64392676318799
2.43136477621073
1.84819737375398
0.856367933076396
-0.45146383346435
-1.48688728464276
-1.79581746625582
-1.81571275740585
-2.15672572723561
-2.65877209171818
-3.05597084137547
-3.77840662685891
-5.14312061890737
-6.60065909431927
-7.54069430438292
-7.93700226855197
-7.75089372194329
-6.74179677894044
-5.15967539050483
-3.6242521193782
-2.19203245361852
-0.436634019337033
1.5996961627762
3.37372103181952
4.60539829234529
5.33979432605167
5.53671640476137
5.2830481758116
5.0664373757017
5.28112161438695
5.81080476357405
6.37682669686491
6.84859936682383
7.10618696454348
7.02386269234383
6.58248400456682
5.77676814121688
4.59340424709963
3.11973477590141
1.42193679923829
-0.515384458276064
-2.49001703198622
-4.0865452781626
-5.12211427027712
-5.59559500874843
-5.31502411447321
-4.30760201717268
-3.30760997691779
-2.98481409023855
-3.12064646668449
-3.2834548700693
-3.53671308274884
-3.78755205062339
-3.51779644207988
-2.84996663930101
-2.71530893457499
-3.40137621456313
-4.05094027859259
-3.92401179236018
-3.09298234853668
-1.81785026159565
-0.32681718804507
0.795664077877465
1.05844624551788
0.880856084497963
1.07405840324496
1.66035692918511
1.98789030082593
1.72196123716718
1.01328766246722
0.0222961713000666
-1.1551812374185
-2.34968896158779
-3.38681852936018
-4.13421552903918
-4.54063202346249
-4.73904417003143
-4.86413141326299
-4.78738151437557
-4.33972524402225
-3.54343029818946
-2.30165925733071
-0.360549257714232
2.0870355222036
4.3663516833401
6.07631147325384
7.24165206882366
7.84975023694003
8.00388738545316
8.15657484185198
8.41218336996617
8.21892449353462
7.42193069693494
6.72845457511822
6.57792735849878
6.60743760286212
6.58220560765516
6.65103364171535
6.46897675629899
5.32426878993758
3.33678603330664
1.44861608777816
0.131526376349252
-0.999724935140823
-2.36994509934064
-4.0372154352597
-5.87409039826102
-7.46365029579352
-8.19802518201758
-8.04554582705389
-7.6881096346113
-7.4793533887799
-6.91115102242594
-5.41970684909334
-3.12219369291175
-0.588621661930474
1.68400587118002
3.56165044550455
5.26738183270018
7.02787534124893
8.78991800475148
10.3740450917608
11.5241071387244
11.6952619355948
10.4191791741255
7.96588132444471
4.9454654208247
1.43481188297417
-2.61065597101776
-6.46817108428191
-9.23232656680392
-10.9096840973302
-12.1024039684841
-13.1759615747118
-14.2901587719897
-15.4144823541398
-15.9487869297748
-15.2774126160932
-13.8310930140213
-12.6199056095445
-11.840042927741
-10.981811551426
-9.98057805107634
-9.03459736821954
-7.57825838860202
-4.7692272843749
-0.948201297606098
2.46871120954229
4.54802737388304
5.56062595950244
6.30197376688866
7.19891050275836
7.98663715949228
8.20278483970809
8.13133234865854
8.83367522762448
10.8628413716714
13.4273747038546
15.1546043388631
15.2327512104643
13.7506955626281
11.450944848023
9.11739387116557
6.89450713740239
4.48600247357272
2.0263414539799
0.0617605780360463
-1.23207562235551
-1.94888992773876
-1.89367323108209
-1.11463019878243
-0.463044926834761
-0.593439902704729
-1.03695597730892
-1.10871828564342
-0.917941061161965
-0.794341292244433
-0.601065019139275
-0.168827596393214
0.335536852493879
0.777329034417761
1.19163131334232
1.49258173407477
1.51929957418843
1.23768109872352
0.562607189705641
-0.614530170087949
-1.90425578397901
-2.56231900989682
-2.50706275744539
-2.4620316592334
-2.8309623748285
-3.27185714246963
-3.55288092396793
-3.96439396434039
-4.71956139123198
-5.55505457858506
-5.96695886224976
-5.60521786420162
-4.62920501317282
-3.6424537611628
-2.97893466623343
-2.3673118026807
-1.60613408707545
-0.959383984577318
-0.57268571986654
-0.259735564380983
-0.0413896390188909
-0.0521621283137893
0.0207508569682893
0.529785064228532
1.23997551594311
1.89352453721653
2.70065648175509
3.54916959450277
3.70331014078124
2.96474888075054
2.10495315553432
1.66468812086665
1.37281535539975
1.03240584327574
0.895677961217098
0.9334434038646
0.713018366650744
0.150012175645465
-0.437447885860001
-0.972646127836704
-1.5580768411956
-1.9907845026796
-2.02859894794509
-1.7848378769336
-1.31220518816018
-0.275750566451349
1.52741137305283
3.72401959497008
5.59801723417909
6.47811881433053
6.06647500515368
4.69196119306832
3.08473815599418
1.88369030124604
1.48725897495897
1.90090746827463
2.40103568870774
2.05648038236385
0.912321813250906
-0.185575220114011
-1.01155970314636
-2.06029293430025
-3.31927409982705
-4.28562150007254
-5.03538620019269
-5.99212993435365
-6.98063952252473
-7.61717569176316
-8.08161543400863
-8.62206866409269
-8.99760936912057
-9.00748163946765
-8.75136353347808
-8.03868743574792
-6.47980630461489
-4.33274898852452
-2.26477956131141
-0.234328338730302
2.30805026296283
5.11617608884151
7.19574781424827
8.21846469999282
8.89012012600051
9.82470028652548
10.746074216174
10.8475306870257
9.65310396346988
7.6148331615063
5.82988345090803
5.01569959246419
4.99771313424871
5.21647983891432
5.20593219754489
4.58500229197278
3.19430394224487
1.21332138464797
-1.18955895721527
-3.89876286442733
-6.35328061695715
-7.8384597688745
-8.47145507039166
-8.96026363042748
-9.41530384661208
-9.42965150976484
-9.00201164597248
-8.26546982089128
-6.87405282109551
-4.7262997773621
-2.52863217091754
-0.744781228648079
1.04394314852667
2.98323000737639
4.24366693392742
4.20007815095712
3.38503688641953
2.71853054776417
2.58451163236198
3.00925641870003
3.95143383879209
5.1117960316804
6.09559293891092
6.87802501978916
7.60246975781383
8.08860482774249
8.05870102462467
7.591727896105
6.93388380926448
6.10403686914586
4.91645086384744
3.23613572110076
1.19715102854676
-0.827014563644013
-2.6437779691807
-4.41837089454209
-6.09521677447646
-7.08291120404133
-6.9825933324792
-6.0893329814424
-4.8175434159179
-3.36410754001411
-2.11056391356946
-1.38908045574445
-0.808133546006783
0.176337768166721
1.25723583603435
1.84553159754751
2.03582629664437
1.96096163035315
1.0361088303283
-1.0786737413098
-3.57498747443991
-5.37323224694987
-6.11035528912545
-5.80771884478676
-4.54257172720651
-2.89020233161858
-1.80614812548947
-1.67622353822667
-2.10126101105766
-2.65675330765115
-3.20154622068162
-3.61623381647379
-3.96454772226915
-4.64681253032545
-5.76495906260207
-6.73623779679387
-7.06750989703054
-7.06585657996736
-7.32263915633367
-7.75598529421223
-7.44643816291708
-5.51755059253927
-2.3091083726735
0.611436530607346
2.06717436641383
2.54576838861594
3.32518702619573
4.88921080089048
6.82871370219237
8.62288524696033
9.85746916628649
10.2892355785183
10.1252472413542
9.70732664818272
8.97788605364512
7.92044339091812
7.11044880372267
7.04404377210259
7.46891768763068
7.98104792232632
8.4795063069836
8.57265028719386
7.57428184491101
5.59464372731957
3.70314720350547
2.6559240525755
2.29107118044212
2.25188875117845
2.32859070006448
2.0692582451521
1.09808387977094
-0.141522524126176
-0.85473547141111
-0.988922173963335
-1.10346273818271
-1.4215967718883
-1.66221097072973
-1.58140924991955
-1.32579809707685
-1.43093431800339
-2.4517988390337
-4.3590369936315
-6.45425319728527
-7.98866198555354
-8.67721212311045
-8.8183970421664
-9.19378870382007
-10.3573394679714
-11.7228373515127
-12.074398518221
-11.1465081785301
-9.73030477624742
-8.2822178037244
-6.71776666499608
-5.38702693599985
-4.75929604127675
-4.33697868696994
-3.24441528342801
-1.56658743665338
-0.001434511934368
1.25732651167707
2.37940514160184
3.33357949414192
4.21425100638441
5.44726440678185
7.11144402882004
8.69572120816206
9.85662691129966
10.7078793747468
11.1616805380301
10.7728811662186
9.43039387078537
7.54468931824739
5.5023924617885
3.43538622060125
1.4161016709372
-0.416214440561854
-1.73057646592041
-2.07885357768959
-1.50844700975126
-0.872165801655736
-1.07723567473647
-2.27245539822506
-3.94436459332637
-5.36510581786814
-5.96914966130654
-5.82404655211799
-5.53613749308642
-5.30567198653066
-4.66105592796491
-3.45932433059133
-2.22470415628796
-1.17370702585418
0.0498955902469334
1.51769669438315
2.96909909795462
4.48732541681646
6.14744723174214
7.39340666437311
7.80529482717242
7.92115130305376
8.37416649853207
8.83486626332865
8.54042296355253
7.25822494803829
5.24033786174874
2.90815196011753
0.953539648917177
0.0511785586222958
0.143554975215659
0.563452304274601
0.90594401785172
1.18763103644047
1.32772257013438
1.15157040517993
0.696560649607812
-0.0328792732376828
-1.36345672553761
-3.63067058153636
-6.68289804725447
-9.71334762539779
-11.5562576807359
-11.5939119627843
-10.5480226612657
-9.90735599613424
-10.5324431889299
-12.199467816063
-14.1032292746912
-15.2322350546975
-14.8560864288067
-13.2836482806649
-11.5222755252574
-9.87125863535552
-7.76254131512276
-5.11219518111152
-2.64567772442603
-0.732755925027538
1.05855439605031
3.24337001484442
5.97414921080673
8.96370871413576
11.36454280039
12.3983104106331
12.4739684760405
12.8146507506688
13.6891580845692
14.0274725447355
13.1190513842627
11.6591136378783
10.6910500329008
10.3706348185157
10.1197897618925
9.34261821295382
7.81869686461576
5.78952701935693
3.57155257394647
1.03368790399471
-2.00416413263593
-4.90740927532175
-6.57090141109073
-6.65527112927453
-5.85116454102923
-5.02136192892101
-4.46470016246751
-3.7490813783241
-2.14046796826903
0.443250871990895
3.10859165592629
5.02814286740512
6.25595324514334
7.06180119549867
7.32974484262208
7.15106991731342
7.08108164032155
7.40831673201792
8.02482830537683
8.94775128840291
9.94425427754867
10.0403631118918
8.60464118143723
6.47325957202761
4.91161115342627
3.94246756140515
2.53535759204832
-0.147765369417597
-4.33407276714746
-9.7045934609202
-15.2065143267778
-19.4360476508381
-21.7586949225787
-22.6312605604454
-22.7421105969171
-22.4640968975508
-22.051150700052
-21.6127223413422
-20.9363387627009
-19.827199837582
-18.4567013908148
-17.1512381891317
-16.0600116437688
-14.9444122761528
-13.0880724035131
-9.85011552739454
-5.52950765019729
-1.07458658768877
3.12707789576416
7.3699926321966
11.5916791347966
15.0553377821222
16.9683306255722
16.8950235584745
15.1007092996432
12.91747897208
11.8989971725685
12.2274674826988
12.8439284724416
13.1157962516391
13.2217373670834
13.1407162641358
12.5870310147556
11.7488500221954
11.0212087355264
10.3217458926385
9.44272076240273
8.57133097834287
7.85603144031534
7.0647651628402
6.13014465007698
5.32725743282252
4.52946534284136
3.05292916689993
0.615699516328817
-2.17315604288814
-4.46579429221684
-5.82834133768348
-6.298654199034
-6.17847223669211
-5.65671770830564
-4.62815433035378
-3.20130657786371
-2.08562969631077
-1.90408769504422
-2.39636880484474
-2.72052370420385
-2.22544559705668
-0.868491624403255
0.588066411278769
0.978282327414351
0.0143699335056683
-1.1699081049576
-1.36002610227501
-0.546328772509451
0.584112713896652
1.49636342586123
1.74572705228614
1.19528639383182
0.632968484239495
1.10126105066672
2.49864466423188
3.73021556344095
3.93744442080745
2.75887760313645
0.0808093003259883
-3.46709563228283
-6.4305869353945
-7.89717646296559
-8.46965922297893
-9.29474805669578
-10.7340354164678
-12.4119141656879
-13.828153448386
-14.5280260806248
-14.3288097364763
-13.5955256715015
-12.7807584962611
-11.7952797349411
-10.2859298701073
-8.22366113852968
-5.86870190602227
-3.53851451784365
-1.56817243904807
-0.115218938834044
1.00989004308871
2.14085800253217
3.61236844135941
5.75200670060745
8.50055904641503
11.2321241758722
13.5323772470375
15.7127608467647
17.9201782117163
19.4301328951839
19.5022901286261
18.1528908610798
15.5997590199277
11.9321919208442
7.67952057683513
3.69334752179722
0.349958944895282
-2.24587734675423
-3.63418731113079
-3.63780374282025
-3.16388963705537
-3.33131664232164
-4.17960875389515
-4.97791660555558
-5.31796368966708
-5.34192391814048
-5.45266541581401
-6.16028285392859
-7.52423573406262
-8.54695623011023
-7.95452080545664
-5.7210940250716
-3.07781130225745
-1.13747013570685
-0.238134152797928
-0.291280599014039
-0.937237706411348
-1.48360353166405
-1.21572101912713
0.108749055303869
1.9434479514099
3.1544633089761
3.10781967781113
2.69341786346352
3.56409321291452
6.2278487498515
9.56893657373521
12.168370466495
13.3937118604115
13.4495197384993
13.0184131168024
12.5396122529929
11.5544365677785
9.38886232513275
6.44583334043849
3.79566002484886
1.59423024297241
-0.944985177434488
-4.16872018258368
-7.60292934890316
-10.6470933184524
-12.804969379327
-13.7240490396261
-13.7757284030978
-14.0395828242022
-15.0440062034681
-16.0661742872294
-16.1227903193508
-14.994252320287
-13.0158061479349
-10.6747509491324
-8.54240455488226
-6.72045617223461
-4.3617633157194
-0.59812777088854
4.15341509382814
8.46257960562127
11.2177276799513
12.2677172463774
12.1556268897534
11.6247263381955
11.1791404791913
10.8890329582958
10.4549701768077
9.2792704826193
6.82591744981842
3.43099273131089
0.363556225067107
-1.49636904864465
-2.52407817659933
-3.46866513020394
-4.57131967622397
-5.96549117871922
-7.85080022701978
-9.86537778055525
-11.3127335457162
-12.0600781269088
-12.1601278775917
-10.9675222229257
-7.92473868113607
-3.82080666029835
-0.0848357146940958
2.70674822292515
4.66815134738434
5.66092258246431
5.53877263788243
4.75767166460183
3.9425190600469
3.42997894384012
3.69695962502496
5.30618587315435
7.84566685196095
9.73549171628226
9.60765497026114
7.45418904203638
4.39252657890315
1.7418589154705
0.220152690559137
-0.288786097111632
-0.223727320223641
0.167960649365729
0.628930265963232
0.645418300691203
-0.16668553860452
-1.68086049946806
-3.32053933051237
-4.20924290773897
-3.70658835128007
-2.38883263845734
-1.80709459962569
-2.52508612680931
-3.25739512474316
-2.68237235971624
-1.05522767149392
0.639921168843778
1.96068841562889
2.82471991933891
3.12334507178069
2.9431339538068
2.41971797163449
1.3899921404014
-0.152721076949234
-1.56672391037785
-2.10834940932966
-1.51986432365663
0.31317438207203
3.50540980411262
7.43806631112226
10.6885420663419
12.3162686408688
12.6820120819149
12.753405128335
13.211425721766
14.2180117186985
15.3218777512555
15.5692326005072
14.1863402054896
11.1329257324857
6.96170088496576
2.43113275433959
-1.9164925068694
-6.15895459123342
-10.6883389155612
-15.3526027046369
-19.4974366146457
-22.9023003658532
-25.8841093151645
-28.5044553777083
-30.4299865277208
-31.3371166605432
-30.849097773131
-28.6823071387678
-25.3798947969852
-22.0057784572261
-18.7383336905691
-14.8759245379778
-10.3688246463235
-6.01733634558375
-2.16349324458937
1.43496959703266
4.59223122934239
6.90861267639361
8.74266485883248
10.7312957085005
12.6810547548523
14.0703612810799
15.2237718619807
16.854879129028
18.7717293272535
19.9773313791112
19.8089922696172
18.4095497638307
16.4344856048716
14.6879995765781
13.8070477894774
14.1499230109487
15.8723342628568
18.6125685896682
21.0921957838001
21.7824671888082
20.208314903363
17.1865832099241
13.8668538354507
10.8471318070502
7.88939345571315
4.24160010027255
-0.392410034307169
-5.22225400119277
-9.16062470358614
-11.9302317366669
-13.8695205143048
-15.2400455425865
-16.3236643528315
-17.5002001614454
-18.7494250127862
-19.7995519920798
-20.8441851923737
-22.1469347837261
-23.0980315086861
-22.7840928818232
-21.2329609948588
-19.0345276833591
-16.1790375815986
-12.3801687625609
-8.12309503477491
-4.36636245962166
-1.54797993989234
0.384543126191195
1.49956953084004
2.0799529514799
2.69113284362404
3.59053975845585
4.67816347560919
6.1027409627242
8.03768204698811
9.86433009740013
10.5351534573638
9.86004758475092
8.76861029035942
8.19207598712447
8.02954430316355
7.37718736876028
5.80394167837779
4.14633493897879
3.60478840875441
4.33606203455815
5.62945221220578
7.03936374377231
8.37313233247304
9.08016795776711
8.83316070033141
8.30784745546936
8.4325210678331
9.3781188464298
10.8692505229895
12.624023595155
14.0545899121032
14.5265210835299
14.1448960914471
13.3528830940899
11.922895211461
9.3896308511795
6.11978059501854
2.82919348636269
-0.60046050503886
-4.76987491962935
-9.57707848101397
-14.3049864789523
-18.5363724416285
-22.2342461902396
-25.3120635982493
-27.695550174708
-29.448096437862
-30.5783019714743
-31.0587916525909
-30.9119135488394
-29.9223287765265
-27.6646351533395
-24.132931581509
-19.8135255778966
-15.0009221413123
-9.69224306558876
-4.14079954416915
1.16531740375016
6.01894321419269
10.5651420531767
15.0938335708335
19.888349523687
24.8048272651321
29.062902577552
31.9841509288347
33.6047214964323
34.0614221230875
33.066242792036
30.517405480666
26.7771007164531
21.9924440593141
16.1820654071877
10.1813555996667
5.32670823587271
2.00596066425448
-0.553048452165142
-3.12873256818322
-5.93717253909353
-8.88080096058498
-11.5597024644211
-13.4102727600788
-14.4720462657327
-15.4740820043523
-16.6786342848395
-17.4988969766737
-17.7742493714059
-18.3323012214877
-19.5726232874513
-20.4310589950807
-19.4955578797229
-16.6089008224304
-12.8809997584189
-9.38052813435258
-6.13331677336348
-2.50232550305986
1.61841933363704
5.49224239237696
8.49654313868781
10.7250131059872
12.4982718429518
13.9932172036326
15.3186038944255
16.1348957129606
15.5066117562806
13.1088647950696
10.068214066944
7.6044119851351
5.58594534467418
3.38419444456255
1.16447865896538
-0.63285815314557
-2.14314418496453
-3.69181778450486
-5.38322129184411
-7.30107147657817
-9.1956591924628
-10.0433081829377
-8.94359265580023
-6.31648554691241
-3.31501821430023
-0.427381557717203
2.40052412622761
4.78851677519869
6.19780612910217
6.89174600119949
7.75245608291161
9.30763634468668
11.3016684214958
12.8656476992208
12.999749634008
11.3245198033158
8.38428165612981
5.04320493504214
1.85301652377145
-0.97248685954981
-3.43677158572898
-5.61147825313054
-7.30601031891255
-8.18024498456371
-8.34985920035219
-8.27621374135675
-7.98398859354252
-7.16177221819651
-5.92271755064507
-4.6066157562363
-3.23923672122044
-2.10648758907105
-2.10135996797758
-3.46209609543515
-5.07296337517469
-5.94051187533732
-6.26883913371233
-6.25708228654091
-5.05386805922541
-1.81441176734462
3.00976025147356
7.92124142697174
11.272818885825
11.9067112881979
9.79463562058194
6.19804630109742
2.60992682337049
-0.389498410029169
-2.86120428538745
-4.65885272214742
-5.53066814006612
-5.66933984036207
-5.61080645405118
-5.77636584814535
-6.20118358539811
-6.45196190718877
-5.99360176510547
-4.8898644001528
-3.81614453029026
-3.27381158522317
-3.20944907615902
-3.30628193117634
-3.18806376202848
-2.62369883819522
-1.93766573159162
-1.77306989526007
-2.20637482657194
-2.6797198385217
-2.80580273019662
-2.5302977269283
-1.76023860952471
-0.604886177554385
0.501577475644863
1.57925690410424
3.2170924881865
5.40623419740908
7.33178630598541
8.67290266013593
9.83763604043877
10.7174797962941
10.6571096199088
9.87976003012896
9.5632808599881
10.2589011981858
11.3663823627431
12.2304919041222
12.6902425468327
12.5948372935683
11.7955113257222
10.5636549013798
9.23919448112755
7.66063214193653
5.51041036587742
2.91380324076962
0.305507017926239
-2.01536554936061
-4.03238625377316
-5.89599678643384
-7.62872275868915
-8.95038727395936
-9.60350079285675
-9.67547011842865
-9.35656242201981
-8.79209412254705
-8.37730021795824
-8.52246309808316
-8.99533484935613
-9.37715314700389
-10.1168670253996
-11.9789435529634
-14.5390794693838
-16.3885881095254
-16.5837919014778
-14.9172089875322
-11.4427001866822
-6.82282356056066
-2.40039714617185
1.0282668670209
3.8405978935212
6.51060420147897
8.81449146272494
10.419923678476
11.2944155489535
11.3658878254602
10.7805040079422
10.5315221547363
11.7181649540776
14.0082973763457
15.6699577310956
15.1595394020728
12.1890475448419
7.64883605964743
3.03220211616266
-0.52701059273365
-3.09101875702111
-5.5325574817624
-8.36953693046787
-11.3541600658427
-13.9032462403523
-15.4671043596428
-15.7512405248104
-14.9099235005488
-13.4220656643135
-11.8526466670144
-10.7754644272651
-10.3935672461074
-10.0467518108587
-8.70932423402591
-5.99962777633617
-2.04603720340237
3.1705290601577
9.23009865703557
14.5524352191062
17.5176617738512
17.9490056659944
16.7226860294925
14.6809436028737
12.5169341025143
10.6680893272848
8.73957869607132
6.00821721594477
2.83501597909187
0.612209631251306
0.0739243642730381
0.465981951734596
0.488886357244839
-0.521100761581884
-2.1486133761857
-3.08909816456563
-2.20007659656188
0.111985084951544
2.06604800885447
2.41659965439234
1.55044223865978
0.538247089717391
-0.0761481360375266
-0.338062942880271
-0.387413667816373
-0.150350415172939
0.575292486387818
1.65783736408089
2.52500895648126
2.90411830774905
3.23388988698546
3.84813555051934
4.30594629895159
3.988948132846
2.76140925888661
0.816361732466485
-1.43765067004643
-3.41272172276304
-5.0393099198331
-7.02206901298227
-9.60100769994148
-11.8384255194777
-13.0009459601975
-13.6199155080264
-14.3053793448881
-14.6496317586205
-14.1393980300724
-13.0560391965479
-11.7570169534093
-10.0335466946326
-7.7210703085675
-5.13548495740015
-2.60854458381865
-0.324535443032714
1.35350917572334
2.21482260094612
2.85849680586894
4.33838172345498
7.18009613411787
11.0359325828881
14.9524926488504
17.8242053607393
19.0779901691608
19.0367477916591
18.3847597622423
17.5242823590419
16.5659830486123
15.3935003722027
13.6122142423068
10.9619452569214
7.72121845869752
4.30299437864764
0.823426094482998
-2.64418672852076
-6.06977520809031
-9.87254649725478
-14.3814949152313
-18.870752018769
-22.2030576834226
-24.2229069485452
-25.3650746245917
-25.3663748642404
-23.6353412040764
-20.4074054417357
-16.4868661250907
-12.4240702705996
-8.64952414023768
-5.58969329217298
-3.01210661133371
-0.0198400563876196
3.87519700688482
8.33178359614743
12.8729703959661
17.1316384306053
20.4335499922343
22.1024935021685
22.2484190397701
21.5653990143076
20.5002730446278
19.1177672985845
17.3987304501685
15.2719553189852
12.7638173077222
10.3003622021677
8.46925580619885
7.44393716894687
6.82046143078265
5.86337270197042
3.98425925383469
1.29984462837957
-1.55705665519728
-4.41570868373199
-7.60568020295798
-10.6956232652078
-12.356419348099
-12.0795689540942
-10.931852431387
-10.1332147133092
-9.93985893606012
-10.0898302540064
-10.2181577629438
-9.81974437853247
-8.77791176951543
-7.7689748538454
-7.50435709181971
-8.00148248888206
-8.89822801103214
-9.73139691437937
-9.79001836025678
-8.69384459373773
-7.22853147640051
-6.54957948496664
-6.42093572434342
-5.24687175693414
-1.97618815388589
2.87012358341733
7.93578977679685
11.863584305606
13.6176227548198
13.0085755984539
11.0088889996459
9.05449005801802
7.96699306741529
7.461717051621
6.397026229779
3.69987296446854
-0.608268343189851
-5.47696220552333
-9.88515049789749
-13.3731698558127
-15.7693134365528
-17.1181953949823
-17.6750668333797
-17.4207689024513
-16.0157268183683
-13.5860772193202
-10.7942558392169
-7.8531706750781
-4.34228181358582
-0.0714060648608121
4.73793357105808
9.82469095226536
14.5400757114677
17.786241402455
19.2919137589793
20.2002043270114
21.5328383078594
22.9016639512057
23.4196812777043
22.963186448975
21.9027580970536
20.4206108693745
18.588718537592
16.3929383620541
13.428131718033
9.33892386499587
4.68136290043609
0.624948235564158
-2.18344450428553
-3.9179467230899
-5.04411029490486
-6.01756053849589
-7.16787982720308
-8.44654771961578
-9.4194988830201
-9.58614350830896
-8.71173534504711
-7.13344730803624
-5.68060536328102
-4.81944950215717
-4.05924469645915
-2.74484590620536
-1.04026041254435
0.475679205940913
1.63249412421091
2.48254861878297
2.87864198706858
2.64996645117435
1.62675836703627
-0.520897960892719
-3.7668313516139
-7.3701358910233
-10.7987386038632
-14.4032721619411
-18.4014356237481
-22.0308487957029
-24.4929973675362
-25.8620961416774
-26.3965751587659
-25.8710688745837
-24.2187164850496
-22.0027915732197
-19.6625641841648
-16.8956172684405
-13.1373381065316
-8.1821064582167
-2.33356058470269
3.53351804679369
8.2873651176993
11.4839616897014
13.7468646299935
15.8769110137278
17.9644799822355
19.495029149354
19.908255860472
19.1432341885434
17.9545547013556
17.3417094028278
17.4307936748094
17.3883871529199
16.4779863198572
14.6684838120022
12.4013454790664
10.3145948909273
8.82599956649365
7.59979740733197
6.03655441811027
4.38667288442007
3.35701086146929
2.66125405044784
1.32673144067207
-0.540828196870154
-1.63604654706277
-1.11092247480187
0.648089473256496
2.64934465657344
3.92288593117906
3.95045645414648
3.0580499689715
1.94726908871015
0.665574077292159
-1.23277069165727
-3.48590975407435
-5.12064371154151
-5.8091266489541
-6.23453474655348
-6.98311155833049
-7.95811681545803
-8.81633603526615
-9.1489832950607
-8.44363865541927
-6.57249790846371
-4.08755834862498
-1.71399355481453
0.0318596578501004
0.68759817474398
-0.0451876670092888
-1.87308955315322
-3.88431018417017
-4.96615065173393
-4.40761072422899
-2.50625309666986
-0.427578855236364
0.886925761933706
1.30841597202641
0.917574464431511
-0.252260179627066
-1.62360632663006
-2.38017021235664
-2.67621132140663
-3.45449070958837
-4.94827284618803
-6.36510148705262
-6.88301735598524
-6.05074645270271
-3.65273961638321
-0.0881906568719546
3.52635314891756
6.25451470755025
7.92312211015956
8.61459999096686
8.33617767258454
7.38756793276725
6.15750480632153
4.29294474550655
0.990306250764786
-3.56794330873499
-7.86872651878797
-10.4515325161615
-11.1441424111175
-10.9342008134496
-10.9734980946075
-11.5305270961013
-11.7345574722147
-10.5226430691545
-7.66933834608765
-3.65131199918834
1.0005681689434
5.81095359284928
10.3081068441899
14.1618221965891
17.0569652646752
18.6260838584919
18.9827707588718
18.8293950053666
18.4690625190514
17.3850968778058
15.2800818785233
12.6251570964016
9.77668283387047
6.54270954604811
2.83481722382488
-1.21942194229809
-5.67106832861614
-10.2742093156473
-14.0826163979088
-16.5435120119622
-18.3591472103074
-20.251304370846
-21.5831009450124
-21.2465447925809
-19.3118846078276
-16.8223519688833
-14.3731636836452
-11.6273631538434
-7.91521403110816
-2.94193995010224
2.69328279396405
7.60537434171708
10.7652160624097
12.4733238988488
13.789021058221
15.2948969238757
16.8300685009276
18.0979648126593
19.0927271368687
19.8688148661525
19.9336400621302
18.2367461991466
14.3240012870103
9.21828087114262
4.40360052823707
0.288179844102152
-3.5105963915298
-6.88309030913979
-9.15450982604436
-9.85578007503725
-8.98430343230918
-7.09788128919833
-5.35804234598037
-4.60754202223333
-4.44502405955496
-4.17301772109798
-4.22544610556761
-5.46744131263113
-7.64888197251009
-9.7962190562699
-11.5734322788983
-13.1194270129591
-14.0559996617635
-13.6428240576339
-11.5896932713744
-8.22247717776354
-4.43061059549564
-1.7444104663075
-1.51308636770844
-3.44014578232608
-5.59039821186423
-6.13288691370533
-4.5365019428685
-1.19801970034159
3.24814342864049
8.0924030425721
12.4605464325478
15.2690645233964
15.5384111595498
13.1578338251032
9.31625401133863
5.9534881345958
4.67646077020483
5.74578221197947
7.69213036578387
8.47972135996245
7.59870797907968
6.32366988569569
5.54562262778439
4.57875912368969
2.65683416647469
0.164841668635525
-2.23393112551711
-4.24887080245517
-5.30448568387297
-4.72943695604396
-2.93482128317868
-1.11817795541718
0.227949699404987
1.38804208677977
2.32818386892217
2.6673514086431
2.38906107052088
1.64384153150689
0.339506196145556
-1.19694275758097
-1.7078879684617
-0.0604718598232898
3.48956372821472
7.53800992201397
10.5738255632625
11.6193156741933
10.5315673956988
7.93580016837754
4.54483966611593
0.652438674254093
-3.5697657320462
-7.74540643337354
-11.4595812015114
-14.4029382108076
-16.438457851539
-17.8377862131642
-19.1330988198855
-20.475081130721
-21.5163231352597
-21.9259384224333
-21.5205379052412
-20.138317210173
-17.9414829421753
-15.3721896242393
-12.3279099453434
-8.13195261562958
-2.72524964128065
3.038655996287
8.4849035087156
13.4227222149221
17.4036390698678
19.916234355876
21.2233342634135
21.8890072584412
21.7292707462137
20.2054565833373
17.4550175654612
14.060319700608
10.2391183471547
5.97572939458103
1.47423289757043
-3.00172261586304
-7.09838052216146
-9.85384976665766
-10.0692075257158
-7.64087648147209
-3.92926983128827
-0.626382080631591
1.35025131898628
2.09288625752862
2.40430070879
3.17817281161967
4.78150868158396
6.93176742337821
8.89492700532264
9.79554735128253
9.33456442834027
8.30841320394035
7.77970934776385
7.79247036577926
7.57682180085557
6.68987848649729
5.20499464251883
3.31135585291189
1.47003914178651
0.307522828496525
-0.199973620960783
-0.660751103303246
-1.19186962208112
-1.40502640919316
-1.38820921746238
-1.5630228291179
-1.79962449854051
-1.74965244328435
-1.66808377468844
-2.006108299727
-2.75734541126363
-3.92577899189283
-5.86700807067812
-8.48468373794489
-10.929617616654
-12.7262921326128
-14.3609219476221
-16.24802549944
-17.9543644488004
-18.8237549380729
-18.6499863405101
-17.6142464756413
-16.1695803898906
-14.8731710224382
-13.8553269889604
-12.6607775842075
-10.8174939088705
-8.2926488481453
-5.46940281655812
-2.94242078075062
-1.00100348346691
0.928976375416999
3.90702149519655
8.45651760913408
14.2471466265573
20.363942079339
25.356788233223
27.7923447850688
27.5488619163903
25.8731500797287
23.7205976479923
21.073981886874
18.119334442226
15.6445342074381
13.8776577675628
12.1375152111098
9.78102474868331
6.53738686661707
2.21306052044288
-2.89452697317426
-7.64262163061498
-10.9971109462251
-13.0204775098963
-14.371458782333
-15.3665646413395
-15.9480631220741
-15.9115872864301
-14.8874228949005
-12.839190028149
-10.6446065140333
-9.32293853193201
-8.73232317850478
-7.79458657518165
-5.76198013391898
-2.65685976155722
1.06758007806308
4.77463177603756
7.99994577302253
10.8320387342384
13.561984738626
15.9858995098003
17.3921967441349
17.0955274374886
14.9273319049559
11.5453054959607
8.03571930830985
4.69329547218986
0.691035586820781
-4.39998125156918
-9.49322152841993
-13.1082754569037
-14.8419332766134
-15.2172829755346
-14.9657500495041
-14.7264607467576
-14.5075475491677
-13.4552012788453
-11.0552270074615
-8.16639264532577
-5.90577531966602
-4.16059482360002
-2.24418822644654
-0.263290360366325
1.32621422432442
2.87595597906506
5.13450309787869
8.0870249468919
10.9247406255242
12.6991813521959
12.660143224222
10.6791527388296
7.66507849042464
4.96903855788877
3.25339831803259
2.29490342780997
1.64091590658924
1.06811603183922
0.627005115682275
0.455439956580637
0.493710774369046
0.548153978233898
0.600318194630461
0.546255238910283
-0.235050113743229
-2.19853397694277
-4.53687070960307
-5.57151210338749
-4.21630744429337
-0.690143115827746
3.59637782912363
6.49740958212662
6.53875465982015
4.42504943071152
2.21907130837589
0.884800809409961
-0.233424191725837
-1.6517226197805
-2.87209402868062
-3.24184606083727
-2.56634202280687
-1.02307183983688
0.699613174181881
1.57554413500216
1.20688033221337
0.016357022051051
-1.91854046392869
-5.09904222644312
-9.05943445286374
-11.8891719774759
-12.2187665316452
-10.7524701380499
-9.16432641215648
-8.23365079359856
-7.49117212181492
-6.12010949683047
-3.8689355188835
-1.21086491659685
1.2842002069586
3.43010220415734
5.10599352042256
6.02739651983044
6.22828581541754
6.22320852020397
6.42654230231791
6.94452341661475
7.8309757763181
8.84558839200387
9.36277719726732
9.33390032302954
9.66571914815914
10.7835287048705
11.6880729314842
11.222210944472
9.30064184556464
6.39965197947121
3.04375603621636
0.128484257684017
-1.54614943283626
-2.3090929800548
-3.08183138171746
-3.8988341449558
-4.08981047183492
-3.66271006432955
-3.24593371069102
-2.82707965505958
-1.75555152457439
0.0117186370366971
1.59368722373197
2.15085233019838
1.66880687665647
0.862483591595566
0.435625279121443
0.241867189346855
-0.689392965341123
-3.12682824109686
-6.95445490096395
-11.4360767724447
-15.5251672679377
-18.0927864355947
-18.6737388655715
-17.9083423904925
-16.7373187399169
-15.4938034350641
-14.0157060734365
-11.9493054975759
-8.81361896984459
-4.63443474967445
-0.511199518685505
2.32011888295596
3.78761310167676
4.63103470488387
5.33317048999614
6.0966378599818
7.08090768663295
8.01074532056568
8.32658736443611
8.100676523805
8.04050957240701
8.51268248275089
9.31991593460092
10.249477089538
11.0406530476292
11.1385734527592
10.3367705989921
9.35274900983402
8.96802809314477
8.87771290634972
8.03198264856878
5.84175609433571
2.69879391352099
-0.301750982559343
-2.06992339351493
-2.48542147181666
-2.61616591217981
-3.52964759305249
-5.10060945577884
-6.28641814588728
-6.19933935039456
-4.73549331009214
-2.54044738382455
-0.415212490222733
1.37440369584348
2.91043660745746
3.88853930269552
3.90687765200763
3.40262367881352
3.22349567271723
3.30289269648765
2.80421987925757
1.43104735209806
-0.309690401423301
-1.78770706775984
-2.47458924987466
-2.08121171388923
-1.05007634820094
-0.310161020913376
-0.282767714171369
-0.728276487598071
-1.43112567066355
-2.26798049904529
-2.85016529780743
-2.87336872277247
-2.58464850640989
-2.3314707565296
-2.036025357042
-1.58968561180686
-1.22251440501452
-1.04178144826266
-0.86299626910876
-0.896138436709811
-1.86918415531932
-4.06265001089149
-6.745370224121
-8.74638862327075
-9.31164177406528
-8.62878171253507
-7.7539675570595
-7.64253638019764
-8.1293601412886
-8.21083162135024
-7.13621880217538
-4.86319258256707
-1.96728844462671
0.413742861456703
1.14984407860927
0.133688885072919
-1.6329433764182
-2.98794012369651
-3.2763560741154
-2.54722625415889
-1.5863363043015
-1.00714142760729
0.0358780543242633
3.00895890334611
7.54139440064164
11.3674878555838
13.1653554014233
13.8812428474735
14.826194374586
15.9959514057263
16.7210196984988
16.6406981696049
15.5784084639832
13.4898176070979
10.8634880416738
8.39584238759238
6.19487158956497
3.9574801055099
1.74085884453912
-0.0838451767153165
-1.35207445626616
-2.08160504994276
-2.28835590266546
-2.14428288109132
-1.96626995565491
-1.88378129644346
-1.72811217859991
-1.26904883215057
-0.59947261616459
-0.43339898715771
-1.72838641590465
-4.66528165637412
-8.29617182038432
-11.3584497474475
-12.9985875350246
-12.9446820886337
-11.9249768873613
-11.6119121369149
-12.853926660378
-14.1479292522443
-13.111414840534
-9.26011282250782
-4.35414038035992
-0.473102135184498
1.41430025506764
1.59930154619715
1.12131091205546
0.740137824290613
0.253667401466838
-0.684294897981543
-1.39526513702947
-0.739411789340063
1.32355766485843
3.58148854484953
4.82805094343579
4.61875304955752
3.14450458010951
1.0988692360601
-0.624482869450913
-1.65149350743864
-2.25974994559149
-2.67316113804283
-2.82988379390832
-2.85130997276834
-2.98712579678748
-3.02938651370781
-2.31971524212889
-0.367778602517948
2.69976960812741
6.15623145589825
9.2257498734725
11.7896573619905
14.1718374192387
16.1098180298024
16.6688416291981
15.3849358240599
12.7766216440789
9.78561804078555
7.48248179885437
6.80381900545602
7.44346755643547
7.54886314639935
5.62165121640063
2.15433896083327
-1.32533216181105
-3.88507622038077
-5.29383667741222
-5.69073596536479
-5.78676508233495
-6.41944524462945
-7.46206852398936
-7.90932264937272
-7.1405040226524
-5.4212779090325
-3.35480168872415
-1.61139483544833
-0.869785380314172
-1.14999627024776
-1.48712794865904
-0.983951307042084
0.160754964290124
1.15624999095786
1.64469402521391
1.79827153004198
1.72596903201317
0.964192176000939
-1.47423623575846
-6.20027778348157
-12.4635818393767
-18.4527618233014
-22.6010059752784
-24.3739194435979
-24.2100433267221
-23.0672986858287
-21.4839388268416
-18.8428054538379
-14.2264334431698
-7.93448466036415
-1.28336434970388
4.72026042106612
9.45511066372454
12.1844750303327
12.8908770820753
13.0095247212915
14.1186062731741
16.4148267908128
19.0723798969523
21.1558107543299
21.7704067702335
20.485338185871
18.0172937719887
15.4882613590454
12.9101473719209
9.49081413829899
5.37958257625284
1.8619557129295
-0.240994633793107
-1.27189131360344
-1.81842775095792
-2.0284741952548
-1.87765381714096
-1.51095251941807
-1.25071163698219
-1.31710270568481
-1.3866191341258
-0.721745462214293
0.923808393996381
2.86615937222721
4.08553435638602
3.76497496711583
1.40517458704648
-2.76263709564371
-7.54982843753208
-11.6923339126439
-14.836239735023
-17.336043584307
-19.5557692804353
-21.4933780368705
-22.4393790403717
-21.2172090873854
-17.6221477674803
-13.0934503186865
-8.96726431600633
-4.90064420763256
-0.0956881398119974
5.05312307347353
9.81045241543652
14.5162328308525
19.7997230654039
25.0716378751599
28.8646268750073
30.3191296373129
29.7579259660513
28.1080733771538
26.043989070306
23.4644879734469
19.8149799146828
15.0349056234736
9.72238602337932
4.17258516616109
-1.92768023795105
-8.48928324039859
-14.574432861694
-19.3119620543662
-22.547174993017
-24.5145676342433
-25.5440513885033
-26.033705193498
-26.2297892377945
-26.0979756258668
-25.3895605254198
-23.5525555397034
-20.0233486526203
-15.1419111204901
-10.1345923134051
-5.67302674464957
-1.39541178269215
2.62512948935006
5.18058717946297
5.48029673905433
4.49007811760147
4.14615413736368
5.73660200815102
9.01364553923166
12.3772692408208
14.1885268287664
14.1711849388408
13.0669723587299
11.1535717586407
8.21871301472865
4.87639548238653
2.5067677154286
1.63724402485732
1.4737744312965
1.20993379893065
0.835165120038843
0.567445960769881
0.412466825994669
0.399326212554923
0.591590516602956
0.890871850408671
1.1961797844078
1.48736861911166
1.5884570044155
1.29471993759407
0.806208295636738
0.648445929773007
1.18504126550024
2.31074061507427
3.36947833776318
3.5270405040657
2.70915948999343
1.88459451702008
1.91356547869955
2.57347962459888
3.11315284938407
3.06388360199923
2.22875008663245
0.762705618952986
-0.605757017742247
-1.35098896202137
-1.96263967659384
-3.06500926732782
-4.32471157515364
-5.24440880599616
-6.16513726309281
-7.36661141312644
-8.035835028324
-7.14661855633543
-4.72206174713782
-1.69927844167077
0.730502746768046
1.51077724417257
0.496499629388593
-0.941735045139458
-1.04518537438519
0.476768564150531
2.46879663954042
3.88890022800505
4.40546606056348
3.9364034911702
2.75763769368706
1.85168658726721
2.30340716565718
4.38637356792953
7.42860228053226
10.2508080590447
11.7732550434323
11.6372831900343
10.2801469543548
8.35362320511139
6.25434083400432
4.00002989482085
1.2193372346082
-2.30486097091284
-5.78393866930707
-7.94133576670196
-8.7809875488331
-9.81474781021705
-12.0947594604422
-15.0241534576195
-17.3503429660805
-18.3607216519515
-18.1187392170605
-17.3902990744283
-17.0685702680679
-17.0198051587406
-16.0355690129812
-13.351625591642
-9.45491564041022
-5.16444324051996
-0.88461471228618
3.03747493363417
6.2375883513335
8.83671393304616
11.1402533860537
12.8107958860578
13.2593262078624
12.8320589246935
12.7594798212884
13.9442771125016
16.2428891662215
18.5463860698817
19.2424158936269
17.2343934930153
12.9464573806536
8.07213424928934
4.34739380293284
2.63655571410476
2.61235776064441
2.96286645544654
2.42283793324295
0.865137523582757
-0.907588600561873
-2.24819992635279
-3.1628650019457
-4.05031157289524
-5.15370132792236
-5.93078935080941
-5.36470730226584
-3.70599692536347
-3.17497725806074
-5.65229388896917
-10.324847380484
-14.7909416895523
-17.6003163496629
-18.5951835314933
-17.9159137812454
-16.0081894342858
-13.7909749082358
-11.7855622190655
-9.66821679383792
-7.1785343944001
-4.66105201026294
-2.29815229533659
0.363798484429198
3.73709637215282
7.65988336214267
11.6033369480862
14.8065176636738
16.4128488897952
16.1540152627036
14.7294298720164
13.1298036616472
11.8727435061373
10.9665635543337
10.1547798566193
9.20254152493653
8.25012612777132
7.67587662727011
7.50526895015182
7.34654175079478
6.82426722589974
5.65582589297132
3.71016243821203
1.49453746851203
-0.0464343331063905
-0.702433066641549
-1.22336691685669
-2.11854479224012
-3.19636221479448
-4.38598151739467
-5.89531135785059
-7.50442042573384
-8.63595091894271
-8.95915552319209
-8.32107215757898
-6.7336759016167
-5.01387622410018
-4.5134477610692
-5.48057563843394
-6.42044045754001
-5.65824423693991
-3.01650593611449
0.220684408328374
2.32728048960673
2.11029959764979
-0.284210848708297
-3.39578378439603
-5.74851134606631
-6.87194581210485
-6.78397200989886
-5.40472958901531
-3.14643779851643
-1.1857635650701
-0.362937864990758
-0.283435012717219
0.123416709626014
1.49408684101673
3.53934206903244
5.44277141799252
6.76951595797313
7.81174818034302
8.81516358988804
9.38054700942231
9.07693503671877
7.96963527432314
6.10128946103548
3.36194612613903
0.312035208787612
-1.90817546753909
-2.90580138405075
-3.38656846013436
-4.14423647459971
-5.59043694065386
-8.00724749940044
-11.3155035089633
-14.84799382901
-17.882827555694
-19.8782235537493
-20.0441836223215
-17.7712302411308
-13.8052247415769
-9.80467176357718
-6.29125818979346
-2.20800011134608
3.01099127224394
8.1244325424314
11.4984642860647
12.9675763754279
13.7165112393486
14.8445805327897
16.4330185624485
17.8290118326038
18.5433850123431
18.5114552245021
17.5002810230694
15.0687114596803
11.4856447389303
7.87975739701512
5.08409149465981
3.04740299859463
1.48857503280532
0.32482334349236
-0.478805960809999
-0.780230014095548
-0.336838071807047
0.44973468795081
0.605655808983944
-0.131092261482424
-1.05741914741597
-1.78114879836551
-2.54453985187722
-3.20418030257751
-3.25007100258749
-2.85117794392303
-2.65037109536721
-2.67989817564047
-2.52472987381612
-2.23048461723472
-2.19064832236013
-2.59041305890474
-3.65510696668444
-5.8620379340986
-9.19786898363608
-12.6418598015959
-14.867819847871
-15.1312025643238
-13.4521838586754
-10.5562594758711
-7.62500632364249
-5.53832191433631
-4.40113190479752
-3.90126858469476
-3.53558595380544
-2.41972638348806
0.240046264520199
4.21499332079669
8.30071453942123
11.2546473310831
12.4304413443569
11.9010051419572
10.2166376553131
7.72454156557272
4.31913442281337
0.308980365606271
-3.06271208520647
-4.65744022682127
-4.42285690639795
-2.90557514939045
-0.625778820688274
1.81846342355868
4.05687327296126
6.4464688479917
9.27909497000886
11.7680778554021
12.8572806871424
12.5422982126305
11.4416797793667
9.74070451364719
7.4029701386767
4.66472090008056
1.64507474792016
-1.70699713492894
-4.82309244577745
-6.71336064653377
-7.40990519793532
-8.12220335224561
-9.53728359864354
-11.0520847419903
-12.0060914800335
-12.5154451158535
-12.6188893808718
-11.5178469145795
-8.39126058268676
-3.85443227987518
-0.19112565288138
0.336339468263043
-2.44002288949077
-6.52101373866526
-9.65067379703105
-10.7468160230118
-9.79197935207021
-7.44106675373768
-4.79790981069667
-2.69938053381524
-1.13677244230239
0.275590616506086
1.71256002443724
3.20868268193366
4.5042889757323
4.80525123656871
3.79880595361964
2.77084207113087
3.42371099381672
5.80189632232491
8.60328855066799
11.0434573807518
13.0830121348284
14.3338301156275
14.1744822184595
12.8365777214043
11.3852065199382
10.6137592029655
10.4096266156962
9.96580878887391
8.38780271570275
5.53745944624976
2.38854667539701
0.0778965245508084
-1.2124156717815
-1.8965424617258
-2.06062617938987
-1.6867559895032
-1.27675837616491
-1.45848212997019
-2.24374851325612
-3.06653917334871
-3.32307614986923
-2.81335346366259
-1.84833296187141
-0.858099387236672
-0.008392009857983
0.495702818645644
0.182048899220951
-0.9908322799015
-2.29625912222165
-3.29667039173773
-4.46482493403627
-6.06316192057209
-7.36618438415846
-7.68673883853549
-7.26949572147772
-6.7748876696801
-6.77522121764579
-7.73091812729761
-9.41066857222159
-10.5232853792019
-9.91498417266666
-7.84088588954703
-5.34323708740206
-3.02265184710421
-1.19516378666783
-0.483801144763941
-1.24470780811897
-2.78903385695396
-3.81825256832163
-3.2975370268988
-0.753977198206416
3.48316767873164
8.02706950041167
11.0892459750395
11.6482391903072
9.77678157068855
6.27178905566998
2.43428872155974
-0.282485104018762
-1.0059377336099
0.125742042088933
2.09965024678002
3.48630107989993
3.34395609169355
2.07575931482325
0.995323697121032
0.919171456571665
1.56091056206772
2.03495130346622
1.47387917610187
-0.285843566558785
-2.12019609958789
-2.50735295759878
-1.42340008741166
-0.382070753375856
-0.350869637897995
-0.79263942258877
-0.908504054037462
-0.613331409020733
-0.147609101987651
0.30586731518209
0.606988012473707
0.868132988235393
1.39111072276452
2.0049741442639
2.09060541955254
1.70051474256577
1.89870959200652
3.44490367037511
5.76405672688176
7.5786204383726
7.96498456159392
6.71846077897769
4.42845586233372
2.25572288675237
1.07532311615799
0.882139435457358
1.18753149911225
1.53562520088384
1.53548276225932
0.968611284435178
-0.0333081583650947
-1.22707066836695
-2.47672875816035
-3.60845192992588
-4.51053694027414
-5.36132561371624
-6.16185123310244
-6.27348464413575
-5.15775213610854
-3.28070793621701
-1.66287128128982
-0.94315865050947
-1.17149040312452
-1.7614248982529
-1.5456444942584
0.100497712957097
2.15698830198965
2.90611776086667
1.70310375585946
-1.02115638223018
-4.746493505755
-8.66159049161721
-11.1147627078838
-10.5784515008343
-7.12466273094411
-2.41600843682054
1.43058573776648
2.80778345608016
1.37433222713903
-1.58367168501184
-4.17466588732787
-5.59588978288315
-6.29663221754726
-6.62970912481219
-6.22325230224324
-4.73521375350551
-2.61087176293433
-0.943130865563825
-0.591473829264777
-1.24468691436978
-1.52738705526968
-0.277500207001045
2.57266412444057
6.35382411564109
10.1864658451748
13.1791675244263
14.9414423839166
15.8467675539007
16.164006737812
15.4463561309104
13.4892475026077
11.1101083608574
9.22244002321715
7.90594146228207
6.79565524297511
5.43684714138425
3.16483047188467
-0.214663573843336
-3.67338423838505
-5.9849916568667
-7.25568513750848
-8.45676325668451
-9.9241081807569
-11.308922693359
-12.4242449404352
-13.0982933709448
-12.7104583035015
-10.860607850008
-8.11754188293979
-5.38279949889284
-2.87862613004373
-0.164612330769304
3.23155004536769
7.22154152972046
10.7218239491751
12.0977832246484
10.6532214603565
7.45873989878313
4.38130499072965
2.61003619622532
2.16234475046116
2.30675579550712
2.32981255786332
2.06588663662482
1.6333405741382
0.921193401934625
-0.157086708559231
-1.27126778247338
-2.20012731412622
-3.22698083862349
-4.36244975787691
-4.9707044392924
-4.82787193402059
-4.58471275381004
-4.61806874113534
-4.46620656605426
-3.72847679699005
-2.44095303326459
-0.529225607229406
1.97007558821365
4.26921775519948
5.42931187179178
5.28877171671318
3.96375932781753
1.09382311806694
-3.35195369922849
-8.04376690801355
-11.0924782902051
-11.6386622740548
-10.1680819154047
-7.84188692727443
-5.93873187589228
-5.26524527637851
-5.60588284804586
-6.01472023696189
-5.68578629836048
-4.40229168768654
-2.50344166238575
-0.660485097661219
0.607154334348029
1.26815756458444
1.54765288181474
1.72913187734955
2.28831711803323
3.60865083237217
5.47461307636542
7.45996711090191
9.58264247041324
11.8035780727164
13.3841260140444
13.6999005384446
13.1254498202011
12.2474748880164
10.908821228761
8.75513694806671
5.95731226026033
2.89420673599186
-0.155452991200914
-2.85718556523846
-5.0458574279515
-6.94440106615654
-8.56286007828939
-9.34657380226284
-9.01675356678771
-8.15682873521208
-7.39545745758082
-6.66355166987503
-5.74839705210331
-4.81740633029901
-3.86266298120645
-2.31797620225329
0.299147299226314
3.77719173768726
7.25976146233675
9.50632407593998
9.49712101749953
7.37415624263175
4.46931803759168
2.07106095876858
0.529929478877909
-0.424549249115509
-1.05676233639541
-1.32905089626584
-0.924338202366207
0.220520729024087
1.3925006321158
1.70648347494684
1.21227088171385
0.774337707639281
1.07697665919113
2.31616453231136
4.29879822730056
6.24486133647478
7.24158741487388
7.31761595823773
7.14452546549939
6.59695528163299
4.898313624725
2.21719196127362
-0.263083784133431
-1.88564160991586
-2.92360416663632
-3.55348974079025
-3.49723334511011
-2.58323497954276
-0.924946895459517
1.14181642826538
2.75056002872908
2.73916732914368
0.800646907370541
-2.2178227677298
-5.63269620749119
-9.81438659122585
-15.2808632857856
-21.4674503934445
-26.7991490671405
-29.8139808346118
-30.2175579446013
-28.8985829470469
-26.7924697374465
-23.9209553500414
-19.7656747990495
-14.159174803996
-7.52918118971956
-0.761857352125609
5.104147101737
9.69400677467018
13.6181044935221
17.2366772288555
19.7039804544
20.2413631172592
19.5494258391455
18.8355711472857
18.3564139957977
17.9655246765409
18.0432301483344
18.8408913099519
19.7495682165301
19.9197540899383
18.9823199749723
17.032194963972
14.6185309588231
12.602996269228
11.2741418053086
9.83824593553712
7.40477209720864
4.06904779192748
0.488044447938231
-3.02180653530597
-6.44301201974755
-9.76592371698794
-13.0856284270684
-16.2367663838884
-18.2259552341733
-17.9682652144491
-15.656056135848
-12.5572751799989
-9.53405359937489
-6.48971867239743
-3.18830950310006
-0.0927557189762271
1.73611298670267
1.66150365059883
0.382704725405435
-0.683857701847242
-1.0518378484128
-1.45920187906091
-2.41305394707566
-3.36463306502907
-3.49716948187575
-2.57005389282217
-1.08079441046756
-0.209810991007043
-1.09171292205303
-3.48516070455324
-5.79104066225336
-6.7867756922858
-6.55674636187111
-5.68082518623025
-4.63443536805999
-3.99431991987125
-4.06669134749028
-4.25511530678248
-3.67485455718865
-2.23208786908608
-0.394930926575484
1.63613610906221
3.75500931098451
5.5293398277272
6.79248223243593
8.11850793151407
9.95913385322254
11.7824133599181
12.6337592692743
12.1923754304946
10.9751414294793
9.73016193232316
8.73528590696296
7.75872150957813
6.82922537736524
6.54759899128021
7.06635359241856
7.37035525980211
6.40229307526854
4.41149244969399
2.52239560227379
1.51494422443334
1.43648990247928
1.69835943610959
1.27140358003983
-0.532107762038421
-3.34989263596356
-6.19559548592383
-8.21051860714225
-8.84746252854135
-8.2697608540117
-7.75152163201891
-8.47998232261658
-9.8701547865653
-10.3887975102825
-9.99959264330873
-10.3656850863138
-12.6234750199162
-16.1870838176046
-19.6354614608017
-21.6189114923294
-21.068563371788
-17.7599944147567
-12.8802406943494
-8.35298085788401
-5.52234220384752
-4.63277398915954
-5.05057224777026
-5.63168828492542
-5.288404881207
-3.44531776075854
0.0983377821898407
5.32850409713562
11.7108578616318
18.1438348315569
23.4774479727832
26.8626176969117
27.8687423548055
26.8163926851043
24.7927394544518
22.9286072048861
21.7778944815151
21.1990158468603
20.2575124261187
17.6918954498521
13.4101609371061
9.03335461911206
6.05429769445563
4.20950000853396
2.50672314400907
0.758369555063768
-0.823277558382599
-2.39384262039682
-4.00053634583337
-5.37102319999322
-6.70385700245144
-8.68244855972088
-11.4430024365567
-14.4834793658985
-17.6606846540899
-21.2892806417776
-25.1574186067119
-28.2532910970843
-29.519059583683
-28.3757626639438
-24.7706993021896
-19.2036119268404
-12.4818586563521
-5.33705512457699
1.35704672799998
6.3581208651403
8.89922876601722
9.54225926753703
9.46191932080977
9.15334719946205
8.41449611165898
7.2707652731005
6.37066491410646
6.43081250084361
7.37484543323657
8.26261984539558
8.47162799525224
8.57482376370718
9.23309522193545
9.73229583129012
8.84789353437863
6.69094030388487
4.377954017498
2.42355683629893
0.755481535349953
-0.361045495560946
-0.669000177566565
-0.553487471505473
-0.39050571687622
0.0787243356796356
1.13126079466359
2.54158368466261
4.00781471961296
5.36872582294994
6.29028948118692
6.49266920104587
6.25257128421998
5.95241838819242
5.3636673919684
4.12838144308134
2.53916157774614
1.05188611231904
-0.470134940374268
-2.2748703400407
-4.01180053003552
-5.19235295206628
-6.03440271263732
-7.40518251746079
-9.97966938932028
-13.4906730061393
-16.8442370514375
-19.108381000928
-20.1212825987047
-19.8882565108321
-18.0744686568104
-14.7730823113986
-11.1590218468982
-8.57847657997605
-7.26193928518274
-6.24058570470998
-4.1973567906291
-0.564311612888664
3.705961321408
6.92996140665788
8.72900326977417
10.338762429407
12.3767679991981
13.706682233792
13.3455274896073
12.1308877523071
11.5589853001381
11.9982190114592
12.7449887784207
13.0374409242587
12.5898256338652
11.7585391288583
11.2987871630328
11.3978386849094
11.1425646392455
9.57522889006839
6.94650982125944
4.34700296157311
2.56356912419582
1.74033089548368
1.53200251763669
1.15294359147591
-0.231592955631111
-2.89048829522283
-6.45820031231044
-10.2476221945984
-13.4679830688425
-15.5759509375424
-16.6239127410101
-17.053105440802
-17.3156095349886
-17.7522858701537
-18.1108183884378
-17.0686358149082
-13.3711551489113
-7.69583813065546
-2.20016713055565
1.81514417001954
4.44828408130267
5.63722014037516
4.76762442101402
1.99971819057398
-1.20529443132186
-3.04626808802205
-2.51502569491515
-0.066625340467359
2.65112335115864
4.4447767332854
5.90962850216978
8.29502175766263
11.3835500900566
13.6788296054187
14.471026074636
14.4427627445616
14.3031899405925
14.0307200687201
13.5252948746375
13.0160331683594
12.6583505480035
12.2724916558637
11.5429998310539
10.3475936187798
8.96602634229628
7.78056722073285
6.65012764111114
4.98541151800422
2.46341479087152
-0.908238637027837
-5.2346832509969
-10.4416336740923
-15.8176165568943
-20.6386531953953
-24.8727911428166
-28.6615849009101
-31.6861572205771
-33.4820961895345
-33.7284348733898
-32.1658384673169
-29.0426252627514
-25.3353865778366
-21.544048061834
-16.8080007225741
-10.231579371229
-2.42769346308049
5.07845629184287
11.153899285524
15.1857362791095
17.0261259959225
17.5433297586762
18.3240530789197
20.1625633521705
22.3809337512276
23.8277415649231
23.8812814760845
22.4707095135913
19.9425714174133
17.0046551671643
14.1990091886818
11.4916043892397
8.74732009088549
6.27984238197265
4.63362671264142
4.1307151730911
4.64935759554211
5.5257916637369
5.89131731099022
5.42485267224467
4.52822391898767
3.72153409997652
3.24646246546642
3.06205969188355
2.75983730475712
1.82228156056634
0.290002643453287
-1.43356862472431
-3.58320938727795
-6.85668607778051
-11.0360546796138
-14.7800197189851
-16.9402496283258
-17.3948105781463
-16.9187322414645
-16.8736106035815
-18.3106231625559
-20.7191879267529
-22.4083184636432
-22.4060218730598
-20.9630515942802
-18.1804332584134
-13.6279335934372
-7.64318467029178
-1.69552611661515
2.94338134285613
5.97874964860042
7.5624103988921
8.00558196112669
7.96123784188367
8.0081206195746
8.19420321780374
8.52807473064009
9.38468320161605
10.9023023910871
12.5936536050385
13.9737283437682
15.0208109036397
15.7550879013976
15.825031671642
14.7985540548267
12.8002020094635
10.6829399197089
9.17466626887285
7.78457377381224
5.23186570202388
1.20762987688672
-3.07442381533311
-6.28976082671397
-8.09374218988518
-8.80611882329186
-9.05171758147614
-9.59082660702814
-10.4923511969766
-10.8540928032107
-10.2645253272509
-9.76945967611597
-10.3256731764502
-11.0993665534891
-10.349289003526
-7.41246250127824
-3.13751175578636
1.01659168930435
3.80689270544271
4.77497418385757
4.50800092642567
4.04403831142689
3.93125840312641
4.12870813822621
4.44573665990524
4.51607137270458
3.78697419789272
2.15752210475608
0.244407907689118
-1.34946223985259
-2.54703711494488
-3.39919593131507
-3.64078938332607
-2.70444000326186
-0.0467826372126872
4.145003912513
8.49041525636732
11.2852733212339
11.9525774726499
11.2080661008186
10.0651212638354
9.11562272708344
8.25170322864369
6.69410803798062
3.95046698935037
0.86201046531412
-1.20076677643583
-2.09864660264163
-2.88710028718267
-4.34673005042487
-6.51232502905766
-9.02771112165758
-10.9937306973309
-11.2583045580505
-9.77588211149188
-7.92239220477785
-6.85586614303914
-6.44979293414544
-6.23700198953404
-6.28497153220605
-6.60192324014041
-6.64892531526531
-5.95334318996302
-4.53910443352179
-2.61914049130619
-0.523000019866368
1.17267143256592
2.07738583408759
2.40748814665108
2.66687684287356
3.2468562792886
4.36601816202733
5.85360102270689
7.0250474626548
7.22611775262368
6.35576853172103
4.66619751797054
2.46060557826215
0.0934939246356403
-2.15460398910043
-4.13133238866391
-5.46970613793997
-5.63826004112591
-4.59785902966271
-2.80690428124597
-0.561813119801428
1.8315071723696
3.53426954900407
3.99342266858668
3.90657748928812
4.2134718987267
4.70706257251988
4.71552343003416
4.36461131817817
4.17040279602658
4.23121650340941
4.59412713305128
5.48657340382666
6.58849702690579
7.05512337890619
6.70983999918293
6.2215420390973
5.86145621455332
5.24081174733752
4.48707912871667
4.45360676597967
5.44043023797121
6.64161186261938
7.06230797732175
6.35540815704706
4.73661412418573
2.51675895804015
-0.210315480829493
-3.50922712365226
-7.32769818967596
-11.4416426587655
-15.453179246287
-18.5180400637186
-19.6506803236141
-19.0382216154746
-18.4445049767085
-19.4230738109411
-21.6548080583272
-23.6333824431861
-24.1317383336115
-22.5351383094783
-18.9201772545967
-14.3710472439185
-10.1756717895178
-6.40913632175992
-2.20157406167631
2.7234414510941
7.66588355136469
11.7296063261673
14.2253372905332
14.8696402619595
14.2875556810365
13.8093661951722
14.3199339761179
15.7412117010988
17.6102436115025
19.3635744497281
20.1358685152871
19.2876510171527
17.2126171859543
14.8877649892635
12.8205059733441
11.0642441185975
9.76347865240982
8.97577656492081
8.40262297168827
7.79795884806875
7.28401494318217
7.06912323414409
7.12671508652728
7.09266203649161
6.37127018193043
4.63151702363269
2.17450147391256
-0.478707343107205
-3.01508743757977
-5.09784303782744
-6.53288088198238
-8.05178782513761
-10.8209476654305
-14.6804760127412
-18.004472904058
-19.6435531714043
-19.8784050698717
-19.4268340526652
-18.7070786400207
-17.9592160337703
-17.0791863726759
-15.6582823769367
-13.8585191423975
-12.5146526692049
-11.7639074705381
-10.4897965273844
-7.73905079336531
-3.84411882769124
0.316184204172483
4.26400155777739
7.67244763273325
10.0086534615283
10.9254701990946
10.5575876967404
9.3481131437182
7.94509149537522
6.9981404470256
6.64093377592764
6.43547782631833
5.93521150449032
4.93610694216219
3.40634052322355
1.76044075996232
0.915426163246829
1.49025001484589
3.13651881721733
4.86728391292208
5.7396391598265
5.3432636635602
4.10690830715764
2.90371654690382
2.04696423622541
1.19282980452785
0.316285849710986
-0.187444835146387
-0.453685208043231
-1.05505398200694
-1.94687859751604
-2.60376102376756
-2.95876873937377
-3.13572969342432
-2.74496137012934
-1.52889021592892
-0.168670396184346
0.479322368752709
0.393568867368096
-0.0390221698360969
-0.748325864847245
-1.66956978542973
-2.44280251741457
-2.9429725807545
-3.39243053955389
-3.63428645032165
-3.12406340899301
-1.87671130362719
-0.622097093469866
0.136459826390964
0.607183771190682
1.24868825277173
2.2455347572302
3.41452061015474
4.48195045822551
5.42843999526488
6.34706052374145
6.99685832638948
6.99152411154077
6.39892724207847
5.59002521204938
4.69114772365668
3.79875246543686
3.34361133843109
3.59047514653121
4.2118601540957
4.75409063630628
4.90865351011438
4.26149129216016
2.70514062658355
0.991561261471082
-0.160404541288578
-1.16160157620636
-2.69579202671286
-4.36497993396258
-5.3090682028595
-5.52104019821901
-5.50772368239916
-5.3297950227077
-4.94126433165564
-4.82352716809797
-5.363707954607
-6.11227637632211
-6.40043184615176
-6.28961188178691
-6.40680770667052
-7.14308517550906
-8.16968834563352
-8.52404508122822
-7.49497734706158
-5.77231223537968
-5.14792515680822
-6.58817511136208
-9.05277654318232
-10.5062996347558
-9.73787286587825
-7.18694873053884
-4.3514287328727
-2.37496326801179
-1.1661237031299
-0.0056504781056947
1.45424692129907
3.31547218805981
5.88946921753197
9.16873083791111
12.3316433145074
14.4575241157963
15.2766708653566
14.9571521008156
13.8993768866199
12.8146988449019
12.1237279663447
11.3110562785156
9.63970847133238
7.22695471160756
4.72581042385555
2.33275243420085
-0.341204403760437
-3.77011256540235
-8.06297401072037
-12.4731175570599
-15.403533799748
-15.6976549354019
-13.8809078023542
-11.2836071468373
-8.20733900366316
-4.12329724738828
0.546274190796468
4.22968685173089
5.9167109189118
6.14062705511861
6.21040969569286
6.95107930063909
8.0143925168939
8.21363670358926
6.77434972629744
4.16771791950615
1.52139999963548
-0.350387176937849
-1.13567289590767
-0.903772476738788
-0.0400375239867084
1.17489958429562
2.79831412296622
4.61465722859699
5.86902181510346
6.17802856792172
5.99901195966422
5.77741233297284
5.513945478383
5.34885593381367
5.46728716218982
5.38349700999685
4.42296125074315
2.76154450549136
1.01867067582641
-0.720470532318617
-2.54436961692318
-4.04672164757727
-5.00850393319911
-6.1281766419472
-8.15076619935351
-10.7418742664745
-12.8523557088934
-13.7015375732184
-13.1098463331941
-11.580931014339
-10.2325461646616
-9.87721579141292
-10.0790765745924
-9.70995302998417
-8.29197002280253
-6.33088925179169
-4.61180723860722
-3.50452302093839
-2.7556968263558
-1.90009183170562
-0.930719802172058
-0.237961340098851
0.121044945139165
0.517299758789175
1.16468369024001
2.05664621618517
3.22708325208592
4.45992228901454
5.26538951353968
5.71002643690649
6.46125895844337
7.53869247717614
8.10510252642758
7.879666650854
7.52058948448593
7.34118808904239
6.91262371927124
6.07964004066408
5.2063458390447
4.38697457508692
3.35024661558889
2.02103180164602
0.475669842696675
-1.34292546880052
-3.30314330417755
-4.93371848871583
-6.04052017213068
-6.91356975426543
-7.62651520967255
-7.83642899429864
-7.48025722030964
-6.92645256806488
-6.33200627467724
-5.47135063589115
-4.1493414942446
-2.37606831653962
-0.3577762917167
1.52389426736083
3.0742824328008
4.55885912544162
6.24477309312708
7.96416711593036
9.46980603096578
10.7913443977341
12.0138948711244
13.1478837008938
14.1693934349461
14.7514684311494
14.3835604125067
13.2669377721579
12.3933425330578
12.2313273022024
12.1937799030689
11.7574096019254
11.1075255887918
10.4843673387647
9.8723097245579
9.25896022217295
8.30324101823809
6.17703449307198
2.68865532909062
-1.0185726527294
-3.83558349821859
-6.10762805602144
-8.76861876826585
-11.7733172893936
-14.4198975492143
-16.6712260404539
-19.1261094097102
-21.9003070396503
-24.2374535722764
-25.2986849882458
-25.2525376170401
-25.508985976031
-27.4079980023551
-30.5215297038516
-32.8413219043935
-32.8170892372745
-30.6908354993575
-27.8548697037105
-25.3562646812303
-22.8307497618888
-18.6929608843753
-11.9011687589983
-3.54844254123774
4.1369622992558
