0.914170343139701
0.456779618328895
0.222710258123583
0.628687855168549
1.4778435894059
2.13715955702007
2.2233283878372
1.84923294674354
1.30360201864449
0.802974709983832
0.434223580332906
0.0947204988664579
-0.380166293785986
-0.934078830627479
-1.31943671126706
-1.39264638332465
-1.18371602187576
-0.802232200886553
-0.455920770512811
-0.33855761942287
-0.363009872508262
-0.28618790987191
-0.125054894583817
-0.0921963126006631
-0.180454125229464
-0.197979195018689
-0.0924181611691863
0.0955043442779946
0.400311914734641
0.775594022360485
0.995033377035471
0.89749424970447
0.517772356318286
-0.0750889368054617
-0.793998809635297
-1.38226735909064
-1.55139852815543
-1.30180303676465
-0.888312288574979
-0.510267399846866
-0.201632141695718
0.0899250786687053
0.427165952610609
0.741647295273888
0.801525491621832
0.543632279549616
0.284278819013343
0.311275660778603
0.475289089385906
0.451868870557916
0.152846927548429
-0.311086953894331
-0.771404390639426
-0.99097283324975
-0.820139622200679
-0.403136945354942
0.0036846615819952
0.315125000449452
0.530286865764646
0.589928626340536
0.497171194132716
0.35583738287213
0.235877293241504
0.214797262511163
0.412159587387851
0.720340271546888
0.766303893316067
0.419537310713066
0.0180462227795445
-0.135177393103466
-0.14026896539728
-0.200601776342409
-0.313082719789815
-0.365099339847636
-0.2383398999208
0.179093889932255
0.794738910346418
1.22794573242551
1.21405663672449
0.924516734509955
0.644326915346533
0.405095132587358
0.147321982026128
-0.0946640809583329
-0.337854530797661
-0.654050686851979
-0.960944123557561
-1.08045712436618
-0.959126176949209
-0.671533814571201
-0.394428817286158
-0.42027373222465
-0.852448225470409
-1.28984206969768
-1.20979915390677
-0.617182445579578
0.0281542250815533
0.3629603513615
0.30024841390294
-0.071362684899574
-0.493780933196039
-0.707355546178438
-0.745900165323786
-0.799394598195821
-0.836224588165698
-0.683616162302565
-0.345245442580154
0.0464137032844811
0.386569432839442
0.522983546250559
0.340897100822347
0.0738010475284103
0.171999613149451
0.708394284208002
1.21835006015432
1.2299664592914
0.711950568443298
0.0099000105897381
-0.412634057651988
-0.263965276873002
0.293459563726163
0.780207949253057
0.970054963029817
1.08301508486595
1.32642144771499
1.57298225434624
1.56997307859486
1.2003597611545
0.566833252218098
0.0255277434441531
-0.0026682533551434
0.557822226272821
1.31809979355409
1.72428076121351
1.35759332883855
0.152451395254056
-1.4134194294177
-2.56282845790712
-2.88096621112524
-2.50977095813714
-1.67620041328698
-0.516437547701011
0.577948057993579
1.0178349166304
0.600532586970215
-0.313830066712619
-1.2205821485091
-1.79849263169238
-1.93275805287633
-1.67168593615347
-1.14667728744419
-0.517835620461388
-0.0504994220557271
-0.0209740711742048
-0.302843102728178
-0.298523363141507
0.375079327648442
1.33472145125313
1.86857602816629
1.69896625963389
1.06740927705061
0.376030731548156
-0.0082216858807005
0.0990248420503643
0.533097765582026
0.933914206711997
1.06203260876489
0.8415204122982
0.328091485097692
-0.195606926385505
-0.404556478748269
-0.340521152188783
-0.318291435599761
-0.438076959942366
-0.569676125444626
-0.704152410809783
-0.900349093850771
-1.03419759588353
-0.969502038965801
-0.796569161579713
-0.663391258921311
-0.60456840517
-0.622508482428099
-0.647611976952429
-0.466822478640296
0.0007926677341809
0.509650373769481
0.827472415454222
1.01689980204639
1.17050704023491
1.17225885195518
0.90996189563018
0.492415758697044
0.177113066226061
0.225043041309477
0.704729153662318
1.26059359306116
1.31941352568951
0.761208139650337
0.103863135696455
-0.178478230614624
-0.166198473049219
-0.172989487552389
-0.337368978382189
-0.65323644964178
-0.993106299701941
-1.05260116310605
-0.638571760118188
0.0049143552910325
0.412958107636312
0.350043253221113
-0.0532943023590647
-0.415055964629256
-0.367730157020457
0.0389923620860588
0.307411515452423
0.0881077702610129
-0.417527713844741
-0.820638237552564
-0.959205382117199
-0.824114120521061
-0.503600782269426
-0.291523099675532
-0.439571143973127
-0.793992158283857
-0.997228002502493
-0.907612721487198
-0.576444497187596
-0.0886662373013938
0.371985172141015
0.624782059318819
0.782922659461193
1.09915074643497
1.48191173185971
1.54684939186064
1.17723074740997
0.681453728862118
0.393558488569478
0.403597247804157
0.613542248058397
0.828016101570724
0.901348703524857
0.897786660702664
0.920732454490366
0.843452907020288
0.513885574009912
0.0821064934090865
-0.215456951078382
-0.392486724736184
-0.544989419225306
-0.624203466389884
-0.603486661674732
-0.581275095587159
-0.595243034343192
-0.603288559165746
-0.639048410777846
-0.743979875540308
-0.865916572699288
-1.00901710909631
-1.27044111993054
-1.61188457819648
-1.8412259525807
-1.82868969060228
-1.5182807973433
-0.899556682023517
-0.208595409173179
0.150332521411521
0.134325159604537
0.171244561667642
0.562168191362589
1.13770722458038
1.60109021896577
1.83319737194464
1.80843610617234
1.56095130276463
1.26751038669917
1.11292857918547
1.11685743578614
1.23006145252126
1.38700982121437
1.3420750798468
0.802430102726798
-0.109821822381466
-0.848410651289982
-0.985566967126138
-0.523928286025074
0.213329890121277
0.728748850116829
0.609886715292833
-0.0807043423513149
-0.86844548206616
-1.4052362853615
-1.66796764482846
-1.68910617445927
-1.49256128257665
-1.23524796004386
-1.06858434186161
-0.964508767575476
-0.887878809789945
-0.914623299888851
-1.04278281510504
-1.15541880122053
-1.19675487121736
-1.11860859631238
-0.778377888435531
-0.171188515995374
0.442104768551562
0.849901167241878
1.05783903640217
1.05278274692991
0.791340813743535
0.489696935973419
0.506686635667824
0.872595071122648
1.28238276388319
1.53226252118994
1.61394405731251
1.46748797748834
1.04105446683574
0.554507480997183
0.383618468029641
0.695507419024418
1.31357383822448
1.81605708399897
1.77629154616398
1.12379478490845
0.223501801449158
-0.537056094475768
-1.04031516002256
-1.24600694140952
-1.08407144897756
-0.677014112277731
-0.326660462152791
-0.198189503753423
-0.262796859624767
-0.459492079605753
-0.680681952915898
-0.796739284982287
-0.871332376545704
-1.07652317228973
-1.32733544189454
-1.37279997622682
-1.24745287513129
-1.23422522721451
-1.43576072669917
-1.70975265838673
-1.88573930687145
-1.82052405955903
-1.46310782611564
-0.980194478094217
-0.541848296386054
0.012553653137269
0.949593256538955
2.12713554632882
3.06146977671373
3.4658677527168
3.43063220257851
3.17023076545409
2.84956135025611
2.52075199329591
2.06024447025671
1.38135293752651
0.755844003880435
0.561400418262015
0.686933864716595
0.601305873672895
0.031909397211857
-0.755130248062371
-1.30039918443596
-1.35890875123869
-1.08940769360845
-0.938320833673373
-1.18177607005384
-1.63694770582745
-1.9959558556517
-2.21091543310573
-2.31533717030324
-2.19459597492975
-1.81467969584263
-1.37604537749291
-1.04637150319098
-0.818051106578885
-0.663764362528443
-0.53360872563398
-0.284641597162297
0.10058445059502
0.395782371059935
0.446967581356716
0.367140410766723
0.287159681069924
0.203525623961745
0.14761616768617
0.222398997884796
0.441052486382793
0.748440879530733
1.13787243069067
1.5502958280644
1.80606721011902
1.8317978950737
1.75814858511848
1.63878950480231
1.33406114427163
0.796454233148789
0.205820434634271
-0.22788239396537
-0.385436518096039
-0.265682213489223
-0.0825572847472265
-0.126691747167743
-0.389824315814445
-0.590101609980485
-0.606554223678189
-0.562243938442432
-0.511568969857295
-0.37966995343376
-0.140597753010357
0.168973335812056
0.434337365005605
0.368138992822498
-0.223235777088143
-1.03493296674493
-1.53876245047096
-1.62552119699521
-1.54540517799057
-1.36932988455859
-0.983806727206479
-0.450776420531108
0.0324308585342292
0.375840384868614
0.570918999046341
0.644624739968876
0.760330395742499
1.10003831038218
1.56709382535624
1.83966671709809
1.74038034893696
1.36532628734639
0.921107950608789
0.629354527188661
0.669372971742328
1.01774587223812
1.42393707427719
1.59495791087027
1.31351055105281
0.538865054893966
-0.392626066950215
-0.913068477520873
-0.828506631101982
-0.532341835236223
-0.465280235447154
-0.686166252003507
-1.04151534718699
-1.37646034950749
-1.54667992654515
-1.5471809279187
-1.57538229877195
-1.74438643202948
-1.92418087272697
-2.00684511901743
-2.01946275958194
-1.90891115155241
-1.60320513342187
-1.28452334514909
-1.20150844400106
-1.28452093886493
-1.28386289952077
-1.1068437791418
-0.741952400720465
-0.116827466925988
0.718475353934038
1.50115441659196
1.99865365607729
2.16369958533587
2.0594531681696
1.84840451319519
1.77642488352352
1.94078384909676
2.18883688775353
2.41025805379267
2.68738036878037
2.9804671151608
2.98190445662551
2.48730982748142
1.65877311277544
0.835753071425641
0.296826119148056
0.135010899548872
0.15740691581042
0.0479254412421835
-0.259531535124691
-0.592797906992855
-0.909325036020614
-1.31883996918558
-1.79910039561833
-2.22839465911078
-2.58310186265379
-2.81474149877681
-2.73171644052844
-2.25674270665074
-1.60195988708198
-1.05931420634316
-0.811215224101741
-0.897118243910088
-1.12655916527823
-1.1711710333353
-0.944675686213738
-0.664624304209724
-0.43951986883938
-0.140385228994763
0.257087090050866
0.583931531276901
0.772426180577687
0.91016259113051
1.01535534051426
1.03866266920707
1.03114276145114
1.09145597461534
1.24306257953929
1.47859165982414
1.72721478346789
1.75137155390074
1.40579516123245
0.985416422464866
0.916186439792647
1.15667691976137
1.30285739434809
1.1629540610979
0.874671572099405
0.626841748413061
0.525099258850152
0.523571803835709
0.363399961030388
-0.166382270938101
-0.887963094559155
-1.41223724424083
-1.58849017042754
-1.56886228294097
-1.57807200791531
-1.75179617759562
-1.98637000829328
-1.91793964947145
-1.31850324797457
-0.459485789050145
0.163350107035287
0.311964108759857
0.0475478834104527
-0.410583460826698
-0.720504786960955
-0.647114933625423
-0.356890520452299
-0.202109449952231
-0.242963849105364
-0.267567322490278
-0.166516502272046
0.0192249766073337
0.284046326861521
0.590941049834728
0.754652301373217
0.652835402755857
0.426931833079347
0.298441541002397
0.322836399851967
0.380145613225769
0.255530111707269
-0.186853068843213
-0.747614575299321
-1.0278687416317
-0.979236176112244
-0.998325242873481
-1.32407699061913
-1.68917349292018
-1.68593822369317
-1.19571330391507
-0.460116273056674
0.0545682243954055
0.0131647561787146
-0.384281548966845
-0.584420028291695
-0.358111722833134
0.0114390238948416
0.209504430782958
0.205651661613641
0.191233815375423
0.529057889524049
1.52109050865066
2.88754882030242
3.77481085316781
3.60546306873263
2.71100563859279
1.98100238787854
2.07554038009565
2.9417752123744
3.86860095319539
4.09926311832476
3.55644341366344
2.80944679392012
2.28383594454718
1.865319169598
1.35866700799871
0.837505248733108
0.369585474098823
-0.124255589559839
-0.591465222973692
-0.865010158796645
-1.01781080472828
-1.30908898978416
-1.78917716475151
-2.24985698006928
-2.49624251175449
-2.53153724876631
-2.61251043171526
-3.08007095536377
-3.89837762627987
-4.52166643186671
-4.50310018948466
-4.00118376377772
-3.42958756613616
-2.94989603739321
-2.57326850107618
-2.39488570365207
-2.46539902676327
-2.67467482387006
-2.85724787011673
-2.84959335945902
-2.549654582335
-2.05794717500272
-1.54807390445372
-0.963037500646432
-0.17759728043224
0.571498294174032
0.854411684484008
0.640045005892179
0.333263332127256
0.262965121802516
0.45418526484022
0.796915980092783
1.13040686070446
1.28390874259247
1.28294989192283
1.37020185872669
1.69215924276107
2.19303408243951
2.84889622076148
3.68907030234741
4.58500766058813
5.30512971127204
5.7224081032599
5.80314564204196
5.59512206717877
5.34003079805162
5.31881503838933
5.51580316285405
5.67724414587217
5.64087944726122
5.38581813870905
4.92829710476072
4.35367769551578
3.72130935171306
2.87156460444211
1.65479607758894
0.314862507064408
-0.761682546664404
-1.57692197347681
-2.39429365472688
-3.24642041515417
-3.94013558998181
-4.37843684818898
-4.63458979518543
-4.88769251951708
-5.35832947115756
-6.08272505420243
-6.78061777862637
-7.16698656782023
-7.27492111450876
-7.26995220951123
-7.15544796544521
-6.88048014607037
-6.50181856758581
-6.04095721325193
-5.42518225024605
-4.68833882190298
-3.96418103195643
-3.27618218444072
-2.62123469676352
-2.14110974166219
-1.90925997349408
-1.74611393821908
-1.48572138837777
-1.15414020480188
-0.745747441108592
-0.169925705823308
0.502315872370231
1.05831321166419
1.38400748024964
1.44372382763059
1.2162046587972
0.892616806778101
0.883670284580211
1.43786071792019
2.4784899803149
3.80657133276719
5.14015129718718
6.07209099612413
6.38275345543397
6.29430732254671
6.16099349424435
6.10592517091075
6.10283400476171
6.10877995897825
5.99905667669982
5.64389659956441
5.08011569856727
4.39271408534274
3.53922181394248
2.54255169754235
1.69642990481286
1.30115863435566
1.32134554290979
1.48259947624812
1.52830360267791
1.30448874736836
0.860793271853848
0.495327982002828
0.430350731630608
0.520394159104461
0.515111952808477
0.390348387383704
0.200418874286361
-0.0863660558596354
-0.413517528541701
-0.606269900176996
-0.60046123966818
-0.413601245100051
0.0555782333049767
0.889383107064703
1.90432264356473
2.75736658005306
3.16337539864278
2.95739412045501
2.20577009318451
1.25842660921613
0.434899530951968
-0.263619388193265
-0.98533875523108
-1.84859534280115
-3.04333760385046
-4.68933787256947
-6.46687318191699
-7.81851996699762
-8.5929485038721
-9.09154435193385
-9.49593338491169
-9.66088988109757
-9.45617265234428
-8.96976849262609
-8.4056819235653
-8.00958308343127
-7.96009780179621
-8.14006154646269
-8.20086490067617
-7.96958278255325
-7.54952675041197
-6.996488612009
-6.20384593574457
-5.09000716528545
-3.6393025221938
-1.86756108167345
0.0565066382371407
1.83888775748991
3.31745509110784
4.48446407409285
5.29350712199583
5.71579896764963
5.88197455507824
5.93297338796698
5.91784879061582
5.97617423938356
6.29421610952738
6.77955362097987
7.15648416471515
7.40294968091745
7.69968877088172
8.03084082624999
8.23337313168562
8.30692329996522
8.34793552427573
8.33712089904425
8.1765468516115
7.74989095310379
6.93187545413145
5.78866080223708
4.69275506477719
3.97360579811133
3.56828184276743
3.21654943100035
2.78917824620796
2.24144065822924
1.52876954610441
0.754976927309024
0.112547525191315
-0.429157070569988
-1.05554109303671
-1.73264240271247
-2.26458369258795
-2.64730944301285
-3.03231994481954
-3.4899513667843
-4.05185767166939
-4.74355546490092
-5.40698874839878
-5.7678877634832
-5.75677557686222
-5.52368716325761
-5.20584618254258
-4.91167049169142
-4.76209705087317
-4.73560427284709
-4.65882358009594
-4.44280812791833
-4.11082456740927
-3.64417799245831
-3.06420322261091
-2.52046449637793
-2.06112442068834
-1.5573730885503
-1.01719480874511
-0.629374094523817
-0.387846037395435
-0.0516367105633341
0.467588104335903
1.00977928071355
1.41091276185522
1.56182749783242
1.38325984466399
1.02749149664896
0.902193872535666
1.217840554944
1.70846561388841
1.99492496736918
1.98465366690002
1.79828927620963
1.59144063137782
1.50949753981897
1.55374218658001
1.52227134497792
1.27114292077711
0.86916458849076
0.375450823997316
-0.255740296248462
-0.97467288661488
-1.64292782456437
-2.22546448025404
-2.70228708790619
-2.94019112479013
-2.92649307824527
-2.89636911524577
-2.98654684725932
-3.0348137217788
-2.88094862898934
-2.57138371774851
-2.20886609412725
-1.87742089426478
-1.64684793971811
-1.41213084533144
-0.912940433856868
-0.0855027048465375
0.866666043254961
1.81290330055596
2.76840470014022
3.64950659284376
4.32546266807501
4.85458355729653
5.34220144624343
5.67411852263296
5.67003188297011
5.35960197920527
4.90483295617639
4.45071752407894
4.18091085629464
4.2336247099252
4.4581774121383
4.5378702566625
4.35618253074097
3.97574308550605
3.40993457642808
2.72084503743095
2.13277842220918
1.7751274809357
1.50865869994784
1.13172343356606
0.54427585189082
-0.262551160433859
-1.13993583888977
-1.83624697165895
-2.31782684884028
-2.80969501770119
-3.40507437355032
-3.97307434837154
-4.50270123718462
-5.13036118864278
-5.81471583226007
-6.35523623740126
-6.66421478432688
-6.75045326154889
-6.6350572956304
-6.47374254931622
-6.47436999632265
-6.58284614624533
-6.54479448356184
-6.26299188393411
-5.80326648878276
-5.17682378991045
-4.41153966202467
-3.65580214853126
-2.95040036377136
-2.11711875318131
-1.07420622628876
0.0150385910975237
1.05367066021828
2.12622604429236
3.18341610657948
3.9610635153404
4.28122490622803
4.15939523993583
3.69727920596418
3.12528033898668
2.77349645181943
2.79251597441535
3.09289141614474
3.59967406078537
4.28384645727862
4.9960744473729
5.59480925781844
6.15195285474505
6.77590641484165
7.3845912464988
7.81798193709775
7.97716175559461
7.82321712057833
7.47121117121737
7.13813266348695
6.70838335062995
5.65196394383754
3.73297303125147
1.46242438488556
-0.461827160396964
-1.81020277803377
-2.7357684831466
-3.45548096038361
-4.175176231491
-4.99519883835522
-5.80627378498854
-6.46919870198567
-7.00203219180604
-7.43372944407417
-7.69477770025243
-7.81706071918602
-7.9706645312664
-8.16740547039825
-8.22178033038291
-8.06178636652034
-7.7552130212302
-7.25950892112731
-6.47790298396723
-5.47079130148673
-4.35558963592582
-3.17327856846252
-1.99025531664756
-0.851922795773896
0.409347829503623
1.98924222160163
3.76578113846053
5.43862777062722
6.88800177956396
8.16131027359133
9.32414393873238
10.4768398061873
11.6221903750976
12.455514387317
12.6232573398635
12.159795548027
11.3622964849951
10.410152283818
9.39433737040623
8.42082201234893
7.39406316613353
5.99867918946439
4.10056621830439
1.91539562918194
-0.260083725927415
-2.23663211955996
-3.93836685706412
-5.47262049067538
-7.06285635297802
-8.71817457594528
-10.1647655248059
-11.2442151617243
-12.1045562326814
-12.8768582080515
-13.4686972268568
-13.7442040044286
-13.5955088781245
-12.8632307266395
-11.5159540205171
-9.84265905628439
-8.2257061413498
-6.84662960006473
-5.69541495307545
-4.61959019357291
-3.37622953446463
-1.9406613104525
-0.66889567020799
0.141566178527055
0.673625957773718
1.33474543673765
2.34068423422616
3.70665964003393
5.28704236208245
6.68859654509247
7.4968311023431
7.67589675758874
7.53226533203
7.3980116022496
7.49284849644216
7.79134575342011
7.89385516963908
7.39702397703107
6.44008429422338
5.49884722578372
4.73001643408565
3.97247408228958
3.26010021044369
2.84674035830185
2.7988014980778
2.92637905455122
3.00794369530027
2.83516455059726
2.24554950210545
1.33922765374008
0.45328704912654
-0.206741331564714
-0.69247695957341
-1.08449757767306
-1.39333603286589
-1.60170750530687
-1.61646035878677
-1.36548677340928
-1.03027065856291
-0.874331826688814
-0.806544207935299
-0.458101160397247
0.333998199258831
1.4214879758577
2.58964891795706
3.64283844093405
4.43483592297603
4.99859570047337
5.43991732347894
5.67888564990738
5.57730506345407
5.22854840874186
4.77871117198974
4.08883302485179
2.86719776895543
0.988221799197273
-1.44516021513535
-4.09490201931357
-6.42094874922389
-8.05274180798237
-9.11377845801512
-9.92335516523704
-10.5519995034622
-10.9511206716181
-11.2587368945709
-11.6318646406626
-11.9791631251807
-12.1196661104942
-11.9909318337418
-11.534747868449
-10.6394396149178
-9.29806001717712
-7.5825784499751
-5.49697416775258
-3.10229741479229
-0.641650576541047
1.67566460725675
3.78837633861205
5.53114572240033
6.54513971667206
6.55680373828783
5.59166185250751
4.01974057029419
2.53418237199323
1.78671303408139
1.82182133866204
2.13589815172838
2.36155746730034
2.53894465397239
2.76866112239796
3.06469147216816
3.48251207991556
3.97417281320394
4.26735481490854
4.22614555560954
4.08249545755994
4.04865527096647
4.00003201900945
3.72523773893217
3.22625851229869
2.72214338834391
2.58083971453115
3.15764073787221
4.4675873116514
6.13867046169466
7.83636347656433
9.504587623077
11.0319142678966
11.9540095663177
11.6963299918729
10.0077638245379
7.21745102881744
4.26491231209472
2.24556259574604
1.54583129970413
1.54655645140797
1.3859415209103
0.786612624694877
0.029908684308964
-0.535468202615054
-0.821563307264443
-1.05962289647068
-1.53015353600503
-2.1524961823988
-2.58487547941894
-2.79835106191471
-3.16281253817329
-3.91560056081926
-5.00057562026249
-6.40873776607979
-8.14310922650024
-9.86795562657854
-11.0828272676604
-11.6346517154282
-11.7906456337837
-11.9746351352146
-12.5522661356261
-13.5415652967203
-14.4462468385624
-14.7055987912543
-14.2907165802147
-13.5440564857609
-12.576531503886
-11.1930096657256
-9.29533334092877
-7.06349729613311
-4.87850956314376
-3.27780059212865
-2.76547666320502
-3.41330484727867
-4.72671876437816
-5.92050117469049
-6.22366162668915
-5.1675982578356
-2.91141258792508
-0.104432021124806
2.78733694469614
5.72715941698518
8.57454234119086
10.8059173798811
12.0450237293058
12.5578346535487
13.0072145763706
13.8008559731221
14.6453813817353
14.7066460194445
13.3811344883105
10.9326055081259
8.26479227267783
6.31005396614266
5.81945619117589
7.1928225427199
9.97871191308564
12.9482568281725
15.1544036931373
16.6206533333925
17.8007116304084
18.8888267984643
19.8570394373509
20.6159786971114
20.9010822263083
20.4049542918893
19.2052802520194
17.8330912713462
16.8609268979105
16.5303991278869
16.674658164381
16.8698050464148
16.7531341987599
16.1946375374039
14.9971836857797
12.5913944859932
8.39175081759038
2.39706681826049
-4.76437529706069
-12.1566526191954
-18.7836901117055
-23.9914530706019
-27.912142451641
-31.2110066774523
-34.3226619866045
-37.2569345016603
-40.0487695016129
-42.9296424378398
-46.0169181346633
-49.0794881103724
-51.6020754475681
-53.0937121554678
-53.5466747552496
-53.5122446215291
-53.4413851210019
-53.09971954508
-51.8956996870755
-49.5016909035888
-45.8494424466408
-40.8156539520612
-34.2141139828141
-25.9677346692841
-16.2933367706826
-5.90942979606871
4.16013746298433
13.346355868038
21.9105787480831
30.2287129515347
37.8898767542884
43.8045219495352
47.0865768271867
47.7951904875427
47.2356738064167
47.6281577722953
50.7560081910976
56.3347651447021
61.951087079367
65.0351334356547
64.9225884519781
62.9628314469409
60.8275629197606
59.0226394263676
57.1958307205507
55.4174569373803
54.1064599738105
52.3981112799872
47.7824294541021
38.4882572637779
25.8182294019952
13.3084571745024
3.81410852457771
-2.15700326538049
-5.8336704682452
-8.72570943262846
-11.6699769500333
-14.7576794744148
-17.8569185871659
-20.9898361266847
-24.197326476425
-27.3657886962071
-30.3014559352553
-32.7091960531149
-34.1600192375174
-34.5175086349222
-34.4272411819805
-35.0519341152898
-37.3122911193648
-41.4762844383101
-47.0681895531694
-52.7041870451386
-56.3180754656937
-56.2887876486492
-52.6578386630141
-47.1456695166345
-41.8773870443567
-37.8686582541675
-34.4455922774952
-30.171866443736
-24.4912977250013
-18.2782498996483
-12.7390443758883
-8.25092186981216
-4.4813115582823
-1.14625209227677
1.77323110043285
4.48798218850896
7.84218122361486
12.8959722627338
19.5464176389336
25.7142579652421
28.7277456371528
27.7681456093803
24.4432148097822
20.9499078430515
18.2431142213428
15.8901796364823
13.0506557130463
9.58105678030066
6.52917961446706
5.31678862262175
6.15923411959059
7.64023876737447
8.10624289463854
7.18433380041648
5.80337801317521
5.06430517650341
5.28597087642284
6.00294648175944
6.70564579678929
7.4214790542774
8.49080767494782
10.0199940325491
11.8761672480812
14.0314797613662
16.5032605280766
19.0922675386202
21.5256485901351
23.6436300183485
25.1974912511512
25.8717377431618
25.7677963141935
25.3659385796468
24.7596786272533
23.4738763581631
21.3152724772365
18.9240750814499
17.1460288453449
16.0285454190588
14.5879873748741
11.6058598939938
6.76274369641585
0.960523622204654
-4.5633552645069
-9.21198408698182
-12.9643070608994
-15.8017068076259
-17.6596031376353
-18.6911963090901
-19.2236522240238
-19.5854953983265
-20.0181144581067
-20.4977570570375
-20.7437617203793
-20.7238874068235
-20.9591230091768
-21.9733103755364
-23.6286973199562
-25.2714663454202
-26.2996543159544
-26.4088102086168
-25.6064471447066
-24.2012747359341
-22.5413029758972
-20.6932295707048
-18.6012991807444
-16.4087108791095
-14.265909641746
-12.0357344122616
-9.56837300254752
-7.0265135685406
-4.64909693388219
-2.49909409866521
-0.621161346582686
0.924871754568833
2.29755131206076
3.81849912544054
5.73050351178484
8.31314624222878
12.0462215399678
17.2758580536234
23.7539775734453
30.5477150817966
36.1672012639546
38.9391111234209
37.8987911386523
33.5988323841889
27.84666505488
22.5657042006276
18.802285511369
16.3765902625639
14.1741396267668
10.925896953345
5.94155989436787
-0.65195370193344
-7.9578065757185
-14.5401885388774
-19.1798009436322
-21.727255093661
-22.8991426988608
-23.1579524909812
-22.292481343362
-20.2244572625304
-17.6311546143183
-15.4484149730016
-14.1135536861725
-13.4684357596892
-13.0856384654938
-12.5637229292694
-11.7057614913745
-10.5026220474342
-9.01701622972766
-7.43207764954013
-6.03424211554186
-4.82809437648871
-3.3365159111779
-1.07644287308402
1.96553968656442
5.43772895062506
8.75201797180066
11.0072639397533
11.4410405895808
10.2972034247355
8.8673615169455
8.49743261906415
9.69979788401729
11.9738971904227
14.1344311045561
15.0755328545373
14.5625605040581
13.1876807268175
11.6484011013315
10.4139477294363
9.81521935732036
9.83260308331364
9.92704501939235
9.62880934283088
9.19079238867071
9.23669954220851
9.86690906906834
10.4022414916559
9.90416811183407
7.85984527324259
4.64230040219429
1.41051312385226
-0.726454661508723
-1.54333559556351
-1.59542967365096
-1.50215497016627
-1.54655231060916
-1.6580914783789
-1.49180199036293
-0.762910368008952
0.319354272409642
1.11109505351187
0.95663394874977
-0.643904219759532
-3.9861080773645
-8.81237097077458
-14.0483796993303
-18.1760065378377
-20.0432418242957
-19.5649912458077
-17.8299677243337
-16.2947293369378
-15.6377578805371
-15.5579049737127
-15.6172643401831
-15.7558847279619
-15.9710986163721
-16.1264911761987
-16.1838954258371
-16.103641355835
-15.4640856888594
-13.5920333690823
-10.1221505245447
-5.31634861301134
-0.0305089906255177
4.59990754299772
7.83120097944872
9.79587019800587
11.0319388153877
11.6219026299924
11.2701372235106
10.1098866113132
8.77128661282286
7.6080837479604
6.44495857566765
5.19013700021561
4.25907746726444
4.22935571497209
5.15511265025211
6.21142272690561
6.20590653080787
4.72452813809713
2.58361755314627
0.885504366894349
-0.0483894408995616
-0.548855728891048
-0.893174342174474
-1.11068725247974
-1.11340902459571
-0.713009599337352
0.24016800609794
1.64373378909312
3.28907557724485
5.1187656721059
7.13199772821322
9.27141713538904
11.5600918411633
13.9923122610064
16.1602053487293
17.4143973407791
17.5947196803204
17.3786812829076
17.8520928351016
19.7728433800024
22.9563862226156
26.1084240003698
27.481952922035
26.0845709313793
22.4069805722096
18.0660687216942
14.737063534611
13.0694899456072
12.3001762529577
11.1224340775443
9.07691247763954
6.56860759897772
3.29565583377867
-2.43191029829532
-11.9722086153942
-24.3007779551934
-36.314194011442
-45.1370723473605
-49.9645980984969
-51.9203128174793
-52.5145853252663
-52.427490720264
-51.6536022344866
-50.2689887028806
-48.5260884889733
-46.3794644410649
-43.4208659288346
-39.2552303643453
-33.7292963645498
-27.0741101845619
-20.043578635393
-13.5228596371972
-7.76570420089802
-2.33025683233523
3.23553733298301
9.0606934327637
15.1158183802581
21.0319250440601
25.7160554315131
27.747883639681
26.4926699277993
22.78746102862
18.5564312357754
15.7008638920317
14.9853757025049
15.6767281594193
16.328518312368
16.0420576069686
14.9284076665072
13.4971417530448
11.9797118703279
10.3911737970441
9.05908990531185
8.80099965948554
10.2473317846647
12.8803458523834
15.1563175041853
15.9443948263357
15.5849417142437
15.3116300544651
16.0244716987624
17.8138060558689
20.1840920258495
22.4818781344088
24.4320738900672
26.2821823019409
28.1278164326943
29.3816643788011
29.3690470804038
28.0486428595065
25.5741845190265
21.5845791384586
15.6406361891792
8.1903828027094
0.62109469571821
-5.61815907998476
-9.87757940310148
-12.5415342996896
-14.4991338843898
-16.2690789421905
-17.7017324320506
-18.5383015132134
-18.9121638156542
-19.0925725022952
-19.041473956252
-18.5145258579685
-17.4587131804844
-16.1232688927267
-14.8007669887159
-13.4876001378169
-11.9485351548354
-10.4340018060351
-10.1720090201289
-12.453522127192
-17.0640639022755
-22.1285445725449
-25.5667425231972
-26.3402747233654
-24.6093781733307
-21.4110639417636
-18.1059892205105
-15.5401265508221
-13.6656586031027
-12.1212082529412
-10.902905712889
-10.2516988058481
-10.1374370277041
-10.0548179922404
-9.26447520086531
-7.25553204483907
-3.98907909206
0.368779249339497
5.65607637960381
11.2696466486891
15.8467284577273
18.0157003286441
17.3815058424442
14.4767125766017
10.1115085230501
5.11043655909374
0.221305969368118
-4.17254202136305
-8.00074535995751
-11.0086633837776
-12.7286414082541
-13.091659121235
-12.620171368838
-11.90353017147
-11.2919001375625
-11.0504973972166
-11.2487912345929
-11.4112170138551
-10.6456672989365
-8.20124087482962
-3.8903724638988
1.76638162469907
7.69807523958357
12.7957638704159
16.3918692239251
18.3840515857963
19.2560037742772
19.9745733494397
21.3706468081413
23.5028052357691
25.9124249808307
28.2815053926753
30.4407648245687
32.1595081878129
33.4910901487887
34.8961147943513
36.4987740603474
37.6899688949037
37.9304157042435
37.5077987272163
37.1544251995345
37.2574360671943
37.5787564144605
37.4541950959993
36.3044164292191
34.2439211377114
32.1005651545232
30.5701680742481
29.326650613692
26.9434334789795
21.6069610696676
12.1952531176691
-0.836533926814523
-15.5749081962442
-29.8984181314535
-42.6133300945883
-53.4433994686157
-62.4541732048774
-69.7287127850041
-75.1383778798952
-78.2305383538349
-78.741131664409
-77.2438402527452
-74.8569640355221
-72.3122329339635
-69.5760503771907
-66.1616717833159
-61.5273999096425
-55.4064521272971
-47.9630864222996
-39.5117343635818
-30.2349013389822
-20.4890351012506
-11.0957763079217
-2.82841509984431
4.20797378529813
10.3167415905035
15.6027086249145
20.0041931160616
23.7610576779925
27.5073898379899
31.7001091822417
35.8267129317797
38.3948498722549
38.2350210504719
35.8831838943141
33.24454982993
31.8873393896406
32.0785185555249
33.2964966671721
34.9443207355304
36.4548861489621
37.3052620629026
37.1462535133101
35.6786861087338
32.5948891031098
28.0316454751205
22.8369610065046
17.996036797689
13.9707452493525
10.7314915926911
8.07717307309618
5.8342932597082
4.08450737185705
3.17909034162022
3.25558796740596
3.89985555096038
4.50456498847444
4.70515424750913
4.32489056251356
3.26690305376356
1.67143190568349
-0.036733558770406
-1.34471902358032
-1.84733491064563
-1.41979196610719
-0.332566924850096
0.769229953212231
0.672829823392262
-2.64557041432747
-10.9804992469288
-23.5748455826182
-36.3788628779364
-44.7161836685593
-46.7216606349549
-43.9250497161404
-39.1581384144624
-34.5251461941035
-30.8358005811619
-28.0380765375786
-25.8700840671594
-24.1075079300147
-22.2415569716145
-19.3832358151339
-15.0134567196615
-9.63279295482458
-4.23720658911785
0.612387618503231
4.87497189455809
8.57453639302238
11.6396260419403
13.9443531575614
15.3489438950796
15.9461525498857
16.2342319097255
16.7273764805487
17.4167050144628
17.8162747073177
17.5007423017327
16.5792457084226
15.7444354112891
15.7071673327785
16.376057772164
16.7760611607271
15.9395028811114
13.6647173523411
10.4666826605257
7.30495039847441
5.3359993054581
5.23014843788701
6.48168238796667
7.72842388054269
7.80567916370528
6.39482434905336
3.96381342900872
1.28170549924345
-1.33296062226742
-4.35883161901783
-8.23045197315217
-12.2051855251107
-14.7940999901935
-15.4713801021489
-15.2727447539524
-15.4855467860151
-16.297115656182
-16.8504071471871
-16.1411137918601
-13.8012987130347
-10.3608339978513
-6.7612871635448
-3.51890218293887
-0.512817703081265
2.49455830478591
5.46438702622699
8.10897612004337
10.019864230998
10.970399984531
11.3551207217231
12.0699557061158
13.70710633033
16.0064328712774
18.1018317546243
19.1529329005168
18.9600326903601
18.2010507037339
17.7809949330599
17.7792959543348
17.3921000172309
15.9336548120173
13.4396159151563
10.3893418344931
7.3539203488519
4.69835410362542
2.03152581797676
-1.85709184346568
-7.93686973386547
-15.8404271794058
-24.0759363171992
-31.1527520490511
-36.3602165743192
-39.7677601901886
-41.7417945151857
-42.4118742948381
-41.6567163675152
-39.6778355474287
-37.1762507520657
-34.5654720639313
-31.3457495530703
-26.6969992971796
-20.4796049658751
-13.4118329990184
-6.51307402057688
-0.469235842928141
4.73955047205866
9.66185847270311
14.7428876922642
19.9615383750239
24.9529064226739
29.0869381919132
31.6366739837745
32.532115204623
32.8200092606682
33.6584388528947
34.8661591416797
34.947184875143
32.3904623521442
26.6746596044293
18.537087992889
9.8248535310392
2.78264176876335
-1.07117099582789
-1.64491872142934
-0.157374391667127
1.57087691349608
2.19252962107927
1.64976108059626
0.81245032012396
0.277457910456216
-0.110255426104664
-0.599055695264925
-1.06020139542464
-1.40378073623863
-1.93992021536627
-3.0486665451534
-4.79852795879454
-6.97078940498966
-9.14840791399238
-10.7295053418141
-11.0643731700624
-9.68643513911716
-6.57199859530079
-2.33298365597361
2.08703292721234
6.12944870398376
9.70289880630563
12.4132677853255
13.3488952819763
11.9960741381736
8.80610719023646
4.52324722889446
-0.520524090516051
-6.16796898611987
-11.9498388802777
-17.0509523735255
-20.5579708567998
-21.8709628467337
-21.120693700372
-18.972307986536
-15.9050529921332
-12.0593592475924
-7.83218882277793
-4.07381946048032
-1.49265836728171
-0.20620509755041
0.0221926547758342
-0.632654806794934
-2.14312105622516
-4.40184210382122
-6.94934315811374
-8.99803638028752
-9.89055794061602
-9.57556233771349
-8.57309011994289
-7.53449504143942
-6.8356987600427
-6.36252061949898
-5.67204976256864
-4.66949669288707
-3.9788116120661
-4.05335838368261
-4.0430658280053
-2.36091067078073
1.47429175467022
6.12715949907894
9.669468464353
11.1830981284929
11.2706065410465
11.336762737447
12.3749556056164
14.3691893766211
16.8042648364617
19.3284419214691
21.5661200549508
22.7304482971819
22.0672976411822
19.6334075342581
16.3762708632876
13.5430191063354
11.9077420867385
11.1481676505521
10.0256499466287
7.61497245807991
4.34813905475514
1.63659791864785
0.689433566587044
1.82349508483445
4.44426532869558
7.38253324205915
9.62264940961067
11.0034170214098
12.022927453919
12.9854276498069
13.7179163730733
14.0589213959074
14.1631489001508
14.2751771321887
14.3657725109364
13.7840336523038
11.246225640489
5.70547901678668
-2.57386249727252
-12.1943746868965
-21.8324618537361
-30.8006919312779
-38.5693214333467
-44.3775481144049
-47.5157732377888
-47.8710077757511
-46.2643735156927
-44.1913143131577
-42.8904996348164
-42.5682224999848
-42.6014554668878
-42.2321464466739
-40.8981621592597
-38.3612015082546
-34.8979821211841
-31.0750016926585
-27.1404002738168
-22.9226529825586
-18.286735330012
-13.2411023337534
-7.62213558635324
-1.1137150890793
6.37083458560301
14.5515354788771
22.9507343365634
31.0068860418578
38.0887555841925
43.5828723512397
47.1386113995937
49.0465798733743
50.3467671934552
52.058571962747
53.9643743869568
54.501187735126
52.1848319854583
46.9361940362913
40.0451563623487
33.3905944327838
28.7024113934018
26.7871220914448
26.9680905841545
27.3908007223423
26.0005453448932
21.4715375627297
13.8219644274493
4.4903622876565
-4.47879054702156
-11.6580885925498
-16.8286181798189
-20.7323344894629
-24.4293810384953
-28.4570875090406
-32.2630316182248
-34.7092658467002
-35.2194523828547
-34.124635875165
-32.0788040799345
-29.6942417843159
-27.55040922588
-25.894932297878
-24.3396542210976
-22.2196926512244
-19.1732823360031
-15.2670184912011
-10.846860933041
-6.32442589066416
-1.75878875610314
3.32711030821281
9.30432745525165
15.6955190811292
21.5386490827513
26.3830008072468
30.4459074067915
33.9451221973495
36.8407546369384
39.1679712610138
40.9651267912571
41.4231610086371
38.2979999308128
29.073417972761
13.7173241855053
-3.83289604390641
-18.0412756456573
-26.0572955699212
-29.2283495840125
-30.7618125605702
-32.9956383507161
-36.7354466681623
-41.6805737706934
-46.7427191946506
-50.5473968529392
-52.1469099484274
-51.3296525519945
-48.5291492065637
-44.6400511059703
-40.62800820127
-37.0843147467667
-34.1434600792493
-31.5219048309539
-28.4528716344813
-24.1445706450718
-18.6991905778031
-13.0222287337093
-7.43135529186608
-1.00791949502661
7.09501664950681
16.1183089957687
23.9794493127661
28.9419197935821
30.8850684485415
31.2571747286083
31.9423652960082
33.9525412649247
37.0529549143912
40.4103729350909
43.1589387950101
44.5009056762402
44.1635830518165
43.0684931715077
42.8319833714641
44.1301653312128
45.8580678858001
46.1510506933199
44.1274558307191
40.5672367849857
36.9061233500288
33.6828724361029
30.3258667107084
26.5146518136655
23.0437789741075
20.8166991095459
19.4990984201122
17.7935953683636
14.840813849992
11.0422251237967
7.71751948643598
6.02075988646389
5.877203356921
5.91077602261655
4.48823881157849
0.629733784048519
-6.02500481931431
-15.4179911974962
-26.817275330903
-38.8112849469535
-50.023625644351
-59.7271594175674
-67.6561146155113
-73.5059699976665
-76.8148281856347
-77.2325942240146
-74.9090426560148
-70.6808599199652
-65.6182034673904
-60.1462433220301
-53.827503436058
-46.2086176357931
-37.7216755106421
-29.6965481597248
-23.5574381011826
-19.7366526694411
-17.1168521791503
-13.7926874526698
-8.60636412808228
-1.78357462278956
5.80424994424733
13.5164053309042
21.0807816011917
28.2515704132859
34.4061105486793
38.5623196063093
40.2517208621444
40.3544708098047
40.3409881564931
40.5815608667104
40.1648449147648
38.4367722520246
35.826534114687
32.9718396194489
29.8585787409832
26.2040464403399
22.226623151624
18.683372899292
16.2000334635322
14.6246949477474
13.1068812384918
10.9529977663297
8.34993437155056
6.0733928374456
4.63174686027384
3.95654633109041
3.69591249657346
3.40623453163374
2.66112494730337
1.42219156913243
0.207882878833367
-0.394293090833646
-0.298552049269874
0.0964361347150416
0.387465668473376
0.647994818968709
1.41274174096772
2.89222116736379
4.23946530958329
4.14192868870781
2.25659168556185
-0.418161400923391
-2.6157844727151
-3.77213915525609
-4.00217492876023
-3.61675469281674
-2.73118142099915
-1.25658452758606
0.536084972863963
1.61029144584296
0.881872779340742
-1.70421067480247
-5.21788372930815
-8.50383132198722
-10.4271570901354
-9.99113657681642
-7.00913407309142
-2.37705611149076
2.76649487605475
7.755303605429
12.0172313242011
14.6745996875161
15.10230865042
13.4560855654538
10.0452003947549
4.36912698212558
-4.62067615186633
-17.0577326563398
-31.1874698018984
-44.2501316569433
-54.4616020796867
-61.7766164416027
-66.5513949079414
-68.1523603402278
-65.5416216263947
-58.7963795767065
-49.385613181913
-39.2336010642837
-29.9518838295016
-22.5263339160079
-17.0918869310301
-12.9904254456059
-9.20825472667559
-4.7826583282455
0.936897727850804
8.07747337362802
16.3146031314343
25.1435126500791
33.8266120683435
41.2914136303279
46.7488348148397
50.4928487875998
53.5788379941224
56.6028684110953
59.0857937570865
60.0508189268728
59.003836016624
56.3151856302257
52.6780033946213
48.3768347796274
43.492405820026
38.7641637349571
35.4030135305224
33.5762758031905
31.8137607365937
28.6524042821906
24.3603018461791
20.2881737966211
16.9245971327255
13.38189352482
8.67335046223325
2.92741744216967
-2.7649436637802
-7.57754979973862
-11.9571459207788
-17.221490093983
-24.0685931201348
-31.6814696643332
-38.2842267333332
-42.3229283734563
-43.3392310412412
-42.2470479569429
-40.7383425105109
-40.0916802734655
-40.6888785799441
-42.6929612039029
-46.4172137220404
-51.508098200651
-56.3367197941892
-58.8261937540534
-57.8113793711116
-53.5919952090987
-47.4977444682131
-40.8984243053229
-34.4077785221138
-28.1156668285247
-22.3926452773593
-17.7513555253626
-13.8020144599396
-9.14829038722177
-2.74401548698802
5.05624064963136
12.950450300724
19.7654473718317
25.0527010200057
29.1619307714993
32.9887566762435
37.5014002054457
43.3837482866713
50.7462240691528
58.5307084758153
64.334788145835
65.8077424703691
62.6385676690258
56.7462625525418
50.3861569936521
44.3565595883442
38.0232785997235
30.8411503176061
23.648806739127
18.0779672377597
14.52121529653
11.3616202960656
6.80514777060407
0.889460694864623
-5.01690042780695
-10.1288912630833
-14.786361250878
-19.3623419038173
-23.3786063262451
-25.7922326257903
-25.9539365212047
-24.31113302659
-22.1166682994395
-20.3128201640982
-18.8183195857917
-17.0026453025303
-14.678703122014
-12.584823520214
-12.0511172763424
-14.0538427342072
-18.2333317131676
-22.8043155145057
-25.6407496657184
-25.5155303531286
-22.4735751054321
-17.5647045390009
-12.4373146229048
-8.56956448534783
-6.29253609534516
-4.69149892746293
-2.67348548926772
0.014682591853576
2.78372888741111
5.00888951228506
7.01292946535476
10.3036420893884
16.2216427272189
23.9699790909076
30.5393664081638
33.1196758716587
31.391264536535
27.2909241831599
22.9028998752456
18.8853575981862
14.878910943895
11.0969691532812
8.77133804514638
8.3952026857227
8.041166975807
4.6241261492806
-2.94017125684168
-12.5084244445905
-20.6639820374821
-25.3910590430808
-27.1050224020998
-27.8770446743257
-29.759023485044
-33.2984267849503
-37.2703308054752
-39.6917212048327
-39.0681268564445
-35.0571756532256
-28.5529925436347
-21.1577778147795
-14.0124198785139
-6.93679452254011
0.992090498824578
9.9687072943134
18.7983688586266
25.7479367149052
30.0619615037156
32.7110696768888
35.3986498029418
38.5140277563734
40.3047728004784
38.4612771992715
32.4299764139745
24.0638329210509
16.2780948089013
11.1100189839405
8.67612601203664
7.74118039687623
7.16795591564985
6.50520884114105
5.23355253737276
2.22979662043734
-3.44824234315394
-11.4154352056421
-19.7604133337467
-25.952080867964
-28.3360211317071
-27.2465407610703
-24.5042545548901
-21.4955343340263
-17.949624405018
-12.8097397211839
-5.98445594490236
1.03178089854181
6.05910468399126
7.56965543021613
5.40435579876694
0.617467530718334
-5.13995286917893
-10.2137756160909
-13.4269807536199
-14.4476631239202
-13.6675051553976
-11.5087914811809
-8.12553895581066
-4.11747372925697
-0.94457450550822
0.293569066103189
0.36110324390959
1.41471741670868
4.99307172834446
10.7807924892147
17.0031679516158
21.6267213873338
23.6092298380666
23.5613525660407
23.1049247686209
23.3660968122476
24.1716627721748
24.5523556032726
23.6069981049928
20.9854740162238
17.1319267531906
13.246088714907
10.5931569872006
9.42685833447804
8.51758913271796
6.04216789551331
1.33438630294806
-4.28318157831444
-8.72768039693405
-11.0633030455767
-11.8043863133777
-11.6454804120441
-10.5327140746888
-7.84182569831243
-2.96428818445587
3.988136635025
11.465433612252
16.7998121990153
17.9847164112601
15.047064524716
9.30747352900418
1.84867231370486
-6.56975143497629
-14.5528599731677
-20.1304879526449
-22.296260705292
-22.4283205352459
-23.8133291809333
-29.0816735269806
-37.6970260770918
-46.2431834456535
-51.3963164653588
-52.4127003839604
-50.9667709740451
-49.3896871857734
-49.1924359852936
-50.399745387089
-51.5601253565551
-50.4333474788313
-45.1320798894997
-35.1981288185737
-22.0011132422454
-7.96720521250655
4.90052189756387
15.7711117498395
24.5128369364899
31.1844882919877
36.189739545277
40.3183756526991
44.319358136219
48.6537772560796
53.4346067570133
58.0502347711846
61.0481419757954
61.1055426521104
58.2753779288188
54.0280613629428
50.0849418533169
47.1566322956003
44.3939846573097
40.0390607661413
33.1870931026176
25.0042774984842
17.641826213124
11.9212845366337
6.69813105768354
0.561516131429911
-6.35153488243283
-12.3297282375454
-15.6639868623609
-16.3321922536894
-16.140648246926
-16.9498846209762
-18.7995914063516
-20.0106983425193
-18.9071515724551
-15.1846476216174
-10.001613713022
-5.08879185211253
-1.37955653869497
1.73264115438821
5.33846839828679
9.15148185872991
11.3556421489447
10.4489568030707
6.61166895447447
1.10442817510298
-5.06850817944204
-11.5760765732525
-18.2070888121529
-24.3533263952187
-29.2020340633552
-32.322880071382
-33.8714129652446
-34.3316324926396
-34.4332904766582
-35.1942665635739
-37.2403107282868
-39.6970612492642
-40.3615624947324
-37.4889754476289
-31.1574499088939
-22.8458764612726
-14.2717402094942
-6.65137743328618
-0.289877791984622
5.33809128375999
10.5882406456815
14.7032629406753
16.351094034495
15.1526352342972
12.4145019866649
10.2981860323611
10.1571795259941
11.4897954878202
12.670930134767
12.8335031135055
12.6092141878628
12.8208390854733
13.0719489314876
12.0809416108028
9.08767681754856
4.81073663911497
1.4035364907551
1.36114383669214
5.8222041483344
13.646271089325
22.0999266671266
28.2524383769201
30.0849412964071
27.3855282887804
22.0890302298895
17.0320619285649
13.749090134746
11.7555818447694
10.1362716472359
9.16477775260399
9.79270860968244
11.8386089972124
13.2983509247858
11.7657993373462
6.57891610888421
-0.549236334970125
-7.04024163608263
-11.2948142627395
-13.0095667047343
-12.3998758486142
-9.77118023624712
-5.66133685935701
-1.07378486366948
2.37777984438492
2.8886322715511
-0.247144237886382
-5.78882030348455
-11.5913487401284
-16.4151356886147
-20.2804761127762
-23.4756984384672
-25.9581462233824
-27.5641076121485
-28.2632620393112
-28.1820228721352
-27.4182026931278
-25.6996069920428
-22.5414042487549
-18.140287387773
-13.6661988583876
-10.0297415532511
-6.64838980875865
-2.05005523492237
4.36856192867009
11.5422275330732
17.6741322054524
21.8201343403019
24.5172157642811
26.8126232223913
28.7852708505293
29.4133991944804
28.0330553141227
25.4739683286592
23.4062598052894
22.8055981985449
23.243944317824
23.4311327827885
22.3865489085243
20.3562659697998
18.5444720508988
17.7006692626358
17.1682734000151
15.5952402410434
12.2668213519175
7.35259055948768
1.08631178363282
-6.79594749456754
-16.6073531117055
-27.7528591679102
-38.4415145521573
-46.6871243851051
-51.641076376748
-53.7485139626137
-53.8423874074754
-52.5818034548187
-50.5445842857341
-48.1251402753229
-45.1889259438194
-41.1257532816739
-35.2248624710621
-27.0305719679329
-16.7484440081211
-5.27630507373135
6.70569781910019
19.4278545340663
32.811125768798
44.577001255883
50.9009766595519
49.6979179919268
42.7333859202389
34.1553517707837
27.4286377893954
23.7428062340818
22.4543617830854
22.2110038798667
21.6515273187953
19.6539609321723
15.7005485505353
10.3538078738264
4.99165940488236
0.702017767586298
-2.32376788763789
-4.20915771971338
-4.7611546164374
-3.70501836374605
-1.13457885003393
2.46824629426971
6.35483408535792
9.63042331907477
11.5701656348205
11.8715367804073
10.6295002872077
8.39195518262807
6.21267509864083
5.12247619686161
5.45517861740338
7.0001576492901
9.4935699003464
12.3624679838937
14.302646448681
13.878230957727
10.5918583361895
5.03415428290741
-1.91836848599707
-9.73837735461409
-17.9714053509831
-25.3978028478462
-29.9194607262027
-30.0580452287054
-26.7759875024586
-23.1681034344797
-22.041386144764
-24.2849341510276
-29.439003479906
-36.4619171548426
-43.2701162823456
-46.7577442953264
-44.7034659106297
-37.7540667610711
-29.0077685637441
-21.4551551189212
-15.8123310779036
-10.7504493130547
-4.98359477307077
1.26651769098485
6.86919267060827
11.1851580228121
14.5611288423138
18.0667234435363
23.0878614747173
30.3876629288848
38.9231218729729
46.0493250915399
49.3547542822545
48.0941720108058
42.9711133007823
35.2364159832842
26.1463532982039
16.8001010775524
8.23624939731927
1.49157415574953
-2.91945283694994
-5.62805844954999
-7.91860639903829
-10.3880346517514
-12.4151994788709
-12.9190714524457
-11.3016370484682
-7.83873113871234
-3.57001479026205
0.370332665433183
3.67248799981748
6.92677599882627
10.5966769207191
14.1916991895901
16.5135093820953
16.4107831311106
13.4899153102856
8.60747933637424
3.51521580159817
-0.409582758571567
-2.94992944805399
-4.5342416909296
-5.48046186206204
-5.82986922930831
-5.30652411986434
-3.43142101413611
-0.357075458914969
2.46009774393786
3.17652760489295
1.3240159974601
-1.66059757732541
-3.60983801253877
-3.29027843920851
-1.38438317765419
-0.116050241576469
-1.63182817641848
-6.51856856305055
-13.729654338957
-21.4641940315488
-27.9730035015431
-32.2243571763504
-34.3575528627997
-35.2255461697239
-35.287498107317
-34.2726250798011
-31.9056872563349
-28.3860590546361
-24.0502826493154
-19.0711985169187
-13.5540326121633
-7.47772031429518
-0.585841537057308
7.16031288007122
15.0016567509861
21.6543538268628
26.2836456396012
29.1166666687394
31.0864739479807
32.8600613539903
34.2636527182926
34.7532082447884
34.1562676043136
32.5428614775466
29.7334001096825
25.6615097927929
21.0381179107517
16.9206987537834
13.6485495040597
10.677183345885
7.35950262007642
3.63815368342364
0.221452681724224
-1.83300242330007
-2.10241002289087
-1.38894802141703
-0.977795564005974
-1.51325336695686
-3.00246287955686
-5.493635411736
-9.07941307583313
-13.395146312286
-17.5998540364103
-20.8402075379112
-22.6441480243341
-23.1249691960277
-22.9570364160332
-22.9591320658304
-23.5425730777797
-24.5181285492661
-25.2960216894268
-25.2171019716981
-23.8187744370332
-20.7439673825609
-15.3918951003985
-7.27510073596909
2.73252469006382
12.0845292754568
18.3016484440046
20.7482815403378
20.3199867493874
18.1454389565559
15.2493950630993
12.7361675518619
11.3412547558879
10.9121470042719
10.7544458818685
10.3994876936851
9.86869045623018
9.28616885808193
8.4006564516062
6.73705842547903
4.38933877838551
2.33265831207946
1.54507828427734
2.08649182145823
3.39921195149879
5.10638075873061
7.09572912500345
9.23214690412454
11.3856614787845
13.4440589302917
15.1595169206921
16.3609552275702
17.3143078700379
18.4203694567497
19.5835422983629
20.2685495631266
20.0412199932685
18.6564500529669
15.8061886802351
11.1719133023299
4.55204851181566
-4.26544690263919
-15.3352182502874
-27.8878182281957
-40.0908307918023
-49.8118826801386
-55.7474991918417
-58.0630473523313
-58.0895244664637
-57.1022589727704
-55.1621357826926
-51.2954805411171
-44.7894498572759
-36.081729715631
-26.4578903380101
-16.9316655055255
-7.05565139700073
5.03966797762639
20.3820861150332
36.5123666200275
48.146316840432
51.4003188270579
47.1206905617588
39.828665668628
33.8644917836123
30.6099617815678
28.6817524966325
26.1408234269417
22.3642261658197
17.9751173241139
13.5631113868487
9.10863609992332
4.52941952074857
0.164854646629136
-3.41977966051579
-5.83187833243912
-7.08722186985978
-7.6119602866591
-7.82929223870925
-7.66833175133218
-6.81950293440584
-5.44059170881777
-4.03019198560464
-2.6644169876409
-1.18348888647845
-0.16599831116195
-0.698078303486992
-2.7519915664344
-4.50404148441111
-3.88603244892131
-0.753387829298637
2.72916675001329
4.009830372591
2.50753045098467
-0.0767014252942348
-1.78796270947885
-2.33923664105732
-2.81673150290338
-3.96922954686484
-5.27450054825731
-5.58735042511137
-4.44448954505676
-2.59912589563493
-1.09052810906785
0.101782707221321
1.91862254886542
4.67090040938899
7.35803838571688
8.80559393311967
8.86093508606492
8.20188664664369
7.45987180110392
6.68919909504225
5.32170210777768
2.66877040580397
-1.15009050430944
-4.90571192970022
-7.30968921721563
-8.26730561056197
-8.76520801373512
-9.72223033018688
-11.2860432507454
-13.0168679906548
-14.2987913263654
-14.4908965207536
-12.9079770178645
-9.07443548360982
-3.45367568305211
2.18405610300991
5.80560959563443
6.82034517262968
6.46536217460011
6.53734136771871
8.06465197386034
10.9053286698778
13.9677802762883
15.8401492359796
15.6857301369978
13.6791540023953
10.674707870701
7.76769194230715
5.98193958657536
5.63394220756316
5.81367698382394
4.98977948171909
2.3135460008399
-1.81482394831496
-6.25511522853722
-9.96602791439719
-12.6524353246604
-14.9288426967644
-17.726357367576
-21.344495984914
-25.0944162962092
-27.8539295713957
-28.9363290158242
-28.5374982423567
-27.3882488802235
-25.8103942744235
-23.1158907447529
-18.1722733222378
-10.5373765704504
-0.884324887588647
9.31707987069033
18.1492921165693
23.9096826845983
26.3259635887723
26.8890788917133
27.293205791676
27.7296503086858
27.1611833712205
24.9106199654417
21.4652643412774
17.9060264532286
14.9129339544109
12.3602137344294
9.83708153319025
7.43718933198954
5.72352753020955
4.92358960337755
4.59540345160405
4.19081749117053
3.62072712683577
3.25822831566802
3.62592607233481
4.9288533056896
6.66552203811991
7.88491223296313
7.95490384333647
6.9159712220445
5.21250911651876
3.38776656462018
1.77189776246614
-0.020020143332933
-3.04859484129003
-7.96646366378746
-14.1000797758848
-20.0210041277137
-24.8399845924703
-28.5802320373282
-31.5207898217895
-33.5362328760947
-33.9897879070857
-32.2541123311506
-28.5944199735593
-24.3835099439694
-20.9739009972273
-18.3921223381307
-15.4545085910174
-11.0466856203918
-5.11334508790657
1.35737966094008
7.15220260791575
11.7993185527892
15.7233356246912
19.3445724466088
22.284641985445
23.6744063872615
23.0105948427212
20.6472802216191
17.7594875007158
15.6961987146097
14.8547814020918
14.285661464433
12.8520708251064
10.5765046358037
8.45108439167436
7.23413316778804
6.83130557223278
6.5935026465596
5.91495478114467
4.70219828364146
3.38012309912027
2.3478584514603
1.54581543170245
0.7136498701292
-0.157052324571223
-0.840326381960312
-1.09019064003944
-0.690123201384161
0.298358727403317
1.08948496639058
0.411797003912756
-2.37272063193244
-6.43588778890824
-9.91160126865977
-11.2958143035695
-10.6941494880528
-9.64039418078424
-9.29470522063063
-8.98105458397698
-7.14974458965309
-3.65957129823657
-0.292458207622194
1.03893673448601
-0.0953473873787906
-2.81033802954893
-5.98127912245852
-8.96119423737127
-11.6255419295168
-13.9693546298037
-15.7754898431799
-16.7625206315246
-16.8584085127835
-16.1223118389668
-14.5941411526641
-12.3052304623614
-9.0993586369447
-4.48582303661252
1.74470704181942
8.68576603213543
14.6498592146832
18.4588980940031
20.0832018508804
20.1782544649529
19.478874428083
18.5204647424621
17.4376236692248
15.9858819647993
13.990098392214
11.6981545137179
9.60406831947978
8.0860045667237
7.18559564424013
6.53249427758112
5.63953742552418
4.48371013377729
3.51608822021355
2.90049637486513
2.12768493354041
0.625120480530781
-1.53310525119041
-3.62387662339589
-4.79224894388223
-4.72152222700708
-4.02890813600768
-3.75111341687058
-4.23161225306727
-4.81877931353538
-4.74589026098499
-3.88000100177985
-2.57873893833024
-1.33923849725589
-0.675632119241703
-0.907180305502596
-1.93812189585021
-3.38655584458964
-4.87851144374815
-6.24315018008163
-7.63023786715859
-9.3333387267467
-11.2299626894749
-12.5639517879865
-12.5651060152274
-11.1032699874572
-8.54332220151807
-5.2976635775469
-1.81698822769325
1.29401461251986
3.52053822157089
4.71434598683493
5.06565070499208
4.97957778968125
4.88546069215825
4.84780961431343
4.40025741637083
2.96692154668242
0.410451840907275
-2.74260708869298
-5.32803091136447
-6.02467123526824
-4.41964339301656
-1.59072440927844
0.841536176259974
2.24752807905738
3.34869590257236
5.24764085589874
8.26201871712077
11.4355692949579
13.1533716686176
12.5997643263833
10.5719026215579
8.54660043207648
7.22638083655236
6.36921168022508
5.52064550569622
4.26733533244085
2.14765917949128
-0.978685559535382
-4.516812047791
-7.50209654849035
-9.45048794599711
-10.7395646350301
-12.1339609259264
-13.9354741659472
-15.6019464944552
-16.1936259436275
-15.0551693028691
-12.0164748841582
-7.35118121201622
-1.99506277152191
2.52739937406355
5.13269494343032
6.19896848736901
7.14098507747637
8.98074116626331
11.5414785301286
13.8196464941156
14.9104415762929
14.7155811202764
13.7933007614136
12.4495511668976
10.3233226384081
7.15519843881519
3.47447755961999
0.0348981878655555
-3.00593671885245
-5.84427536927065
-8.32514102191251
-9.9208627673047
-10.1981779276277
-9.10820713341008
-7.05075294820068
-4.73978217417602
-2.85755354614467
-1.87598934853362
-2.13722994915359
-3.6744356824099
-5.86012168034382
-7.69628126989231
-8.64392392669092
-8.88424330768109
-8.71690594359277
-7.98839508938859
-6.20715166390901
-3.1450983233913
0.633949946051604
3.90500917985415
5.71939628524185
6.24827526432008
6.44917355678865
6.98627490853858
7.78526454183835
8.41414614104033
8.45268105701109
7.71918677998141
6.56762754992065
5.71660042739356
5.44526154203751
5.23223985137887
4.4107933340548
2.88917539401956
1.12508404654883
-0.307589372711381
-1.09199322947815
-1.34428423844789
-1.4010138501922
-1.38496929050618
-1.17992231503935
-0.795533596686904
-0.413456219907428
-0.10515897476917
0.177676793967024
0.436988663040438
0.702189587988493
1.06911231878384
1.49126141489003
1.78176189585805
1.8710908416164
1.76016844821695
1.28110573426377
0.268613053025715
-1.10156442471393
-2.45771964430154
-3.62641611754996
-4.68687103198337
-5.8338794901583
-7.3612916543868
-9.50794224841598
-12.1045019210033
-14.5347936987971
-16.0577776091132
-15.9888555311848
-13.8569968231869
-9.89457845659846
-5.23254267611618
-1.14979878437183
1.85356364721385
4.11970186095797
6.23566929802507
8.47524104417633
10.5823482504021
12.0819419450398
12.8995636510883
13.3960745638541
13.6440366435058
13.1251491769573
11.4066576904339
8.73775576526414
5.82330467885121
3.33572896501259
1.5850344754123
0.279178459256157
-1.21174739918097
-2.97269284386431
-4.20345721729366
-4.12664694446681
-2.9559214288605
-1.67506616700571
-1.05019496036891
-0.926224567923587
-0.290995000078784
1.84830215833597
5.3403537973162
8.72615025787896
10.4192445115961
9.91792801368729
7.79901174881632
4.9492292374119
2.04849781755603
-0.616972585624948
-3.22139662214763
-6.14215392456674
-9.48963529570756
-12.9295897126832
-15.8402604658989
-17.5866590529559
-17.9345284884045
-17.2947214366095
-16.2957008594511
-15.1586902235608
-13.7581628108036
-12.0458524142462
-10.0419977577031
-7.69512816403728
-5.07439960607801
-2.35541462242407
0.576920412929544
3.99621630819302
7.59098401160698
10.3782869530298
11.6093246375827
11.4533685413616
10.7524802132072
10.3338437577115
10.4305070249113
10.5757604640533
10.2075883270108
9.38382940991556
8.64175880228068
8.22717308762499
7.78608856820667
6.77290280213843
4.96583615804801
2.73273897315441
0.937421294752928
0.333986501589862
0.873885713608373
1.81463491030063
2.56144995564278
3.1269624907182
3.81532617811994
4.83291940854589
6.13199910853201
7.25879768647297
7.49869538941732
6.5336188690021
4.80791689983421
3.01645526285171
1.43301564344973
-0.162301018853141
-2.14481076879403
-4.63880070784839
-7.22846237642637
-9.19514670419266
-10.2246881726282
-10.6660678316905
-10.9894166342313
-11.3206196970767
-11.5813535797831
-11.6947153973802
-11.5504448395046
-11.0405768916194
-10.1618257279328
-9.0002400865483
-7.7612765470129
-6.76341121135315
-6.08562085724224
-5.33211776633975
-4.12428613688068
-2.66000625843401
-1.4275305631982
-0.609826157282896
-0.0993026322223479
0.235496336550692
0.677505599304951
1.74531679281997
3.74930705573169
6.40206437012511
9.02239456737215
10.9161737196774
11.5861054246055
10.9776153568159
9.59661840243786
8.13257280905538
7.00022914902383
6.31448105344611
5.9717731160291
5.59998924111507
4.78883629902883
3.51363173794044
2.10898611962089
0.920364881940387
0.210087548567812
0.122516945040164
0.438652312623406
0.644283103278528
0.45624553164512
0.0181892798604823
-0.435728796533924
-0.765006011537766
-0.889450842475624
-0.947923343054304
-1.28023653976629
-1.92188014634472
-2.41690276880139
-2.39176138069805
-1.9805778066556
-1.54194059685925
-1.30900295838144
-1.36693289294364
-1.66360603778492
-2.0746495448299
-2.65924014621308
-3.6558540267603
-5.00347069311284
-6.09144783893965
-6.18671081219851
-4.94579666254802
-2.51936862230873
0.493691637140466
3.18201076882623
4.77443831608039
5.00144891812052
3.92339280784295
1.77035749404661
-0.829810873754482
-2.9911628532734
-4.32736881411208
-5.21986847610525
-6.11014872034585
-6.8665643174894
-7.01072319579103
-6.35026498737444
-5.29873476478506
-4.53100744737629
-4.1646145855187
-3.44809757816276
-1.61940184051112
1.1475396433912
4.07437644783117
6.68875894101714
8.85428301136208
10.2868078731592
10.6861110808262
10.1683887550801
9.19468010693645
8.22109948203992
7.48339339154969
6.86653575427746
6.05592210815511
5.06288833495966
4.37154533115108
4.30023189996453
4.533656820694
4.56605474806185
4.2689582545694
3.77059267852944
3.12782141754101
2.32618762621972
1.28024582581987
-0.241459579631389
-2.33715358265914
-4.6282969356597
-6.50765045112905
-7.64999901926498
-8.13784834507387
-8.34412909385247
-8.71287512043309
-9.25019197857516
-9.31380801108002
-8.41596148514061
-7.08884510817478
-6.3795438985091
-6.57472660076317
-6.8826469785968
-6.31968227358061
-4.68242415232298
-2.76887542942315
-1.68418599395463
-1.75143760985351
-2.20696924039116
-2.10754139405244
-1.24159466306565
-0.0529047037890593
0.821680862223922
0.817676572091599
-0.128616122464905
-1.2289344661657
-1.44036687213341
-0.520329876297807
0.934202682873683
2.46540357814996
4.29770385470074
6.80246262272769
9.68280634311833
11.8194597845406
11.9996111446088
9.98074082632121
6.8269037112066
4.01819277360307
2.3267943864222
1.69499986503541
1.80579429865134
2.35612988648807
3.0688790400848
3.81621518769318
4.5548093188739
5.06643574917734
5.07865299490031
4.58888947888248
3.73303399901631
2.53095954704784
1.09466997943471
-0.222979338960418
-1.20917286633231
-2.01286810475634
-2.81737012468711
-3.64601295758605
-4.5245885672465
-5.45810401681987
-6.3116365627991
-7.00734082364027
-7.61055940894372
-8.00001231886845
-7.81269886218328
-6.87627733492085
-5.33197919107287
-3.3537983275502
-1.16885600710756
0.801656338117654
2.29286007020583
3.49075410117445
4.56001486826741
5.15740478356711
4.84568416661566
3.72375431694822
2.25904150958823
0.743538765233808
-0.793335165241139
-2.39260438718047
-4.07849612489647
-5.73980270720031
-7.08953951044676
-7.95704465627435
-8.45199726888252
-8.62464775015592
-8.24991100417483
-7.15555337631038
-5.47115499030455
-3.41237674031531
-1.045191949069
1.70096769326231
4.85304361044616
8.03840933552171
10.3310753630569
10.874119223094
9.71181909150181
7.66287699148906
5.50277514204504
3.63047808522676
2.19458771801327
1.05111318147762
-0.0952293512821265
-1.14541539418722
-1.5740095034458
-1.14951676927531
-0.24047510012983
0.691784490952754
1.45160271806637
1.96499562100858
2.20939520754093
2.27659699311574
2.25460203478017
2.18183652057188
2.23576479542126
2.63221145272589
3.18084714427259
3.33945445934619
2.89812282424626
2.2518697298169
1.88752337517359
1.93485239631082
2.22210592525321
2.45657668801581
2.40120420270036
2.06255791215314
1.58780033828748
0.989045646129779
0.216603445293801
-0.638977275841873
-1.53362660286898
-2.63086749625529
-3.98737271027875
-5.38222986690675
-6.665209182489
-7.88792184614771
-8.96426117992388
-9.62741603010546
-9.776536425866
-9.49614470034742
-8.81276312233517
-7.7215489920395
-6.23751426228134
-4.25976517900623
-1.76530600204179
0.785124913154802
2.69103242589141
3.66709392954588
3.87456840222133
3.51958122556422
2.86062626640292
2.31206290882761
2.06662441415765
1.86956467205505
1.50527977721039
1.18151158447821
1.16084736447884
1.39323219917426
1.73554852650083
2.15009315285702
2.56375726802572
2.91070286901121
3.31482083969886
3.87159240326966
4.35059742063655
4.41294730924858
3.98095309878565
3.24373972780744
2.48474294804212
1.8992017138952
1.38889470457594
0.677502034716238
-0.244801602678742
-1.08999276155102
-1.73523969532322
-2.28636137335901
-2.69619402401434
-2.82157204545074
-2.77281526111347
-2.71454322747073
-2.51217946425571
-2.01812989045915
-1.41222512430173
-0.90307747106245
-0.456066719163386
-0.0356500338685983
0.29891330087041
0.637018896093836
1.15865799840559
1.84647543900343
2.5548462535832
3.19712159458829
3.62148528604752
3.59591702288152
3.1660126453969
2.71473887125562
2.46813419792539
2.27074252295544
1.9680422816469
1.63208111922304
1.32299456636007
0.970365495140094
0.511691369549626
-0.0853097539536398
-0.834798150241338
-1.64504279364101
-2.42665697610153
-3.28334938387878
-4.30686772889901
-5.29009220437191
-5.95266229276721
-6.27141087742935
-6.33799372239709
-6.14346777205694
-5.67102297515053
-4.94285892456514
-3.99252892346656
-3.06525629207011
-2.56703082882698
-2.422485297576
-1.91244322580665
-0.612317186222028
0.986689665497932
2.18539871163691
2.86461659859215
3.2777759831039
3.63149568762902
4.08332921524657
4.66880670162847
5.16586220532505
5.41270444499781
5.62686132977264
6.03465089650064
6.41458266728725
6.39361513741352
5.98523180681331
5.5277516753159
5.27624826451065
5.20280042880588
4.97072617497422
4.10359441660622
2.45997475287148
0.455297350823596
-1.40853300401082
-3.00535814606383
-4.41921520467578
-5.67103002568811
-6.75441898449817
-7.63424379021512
-8.19715619264349
-8.45195644731677
-8.63254392250478
-8.91002763650788
-9.24926385462662
-9.60358113500893
-9.84750972832379
-9.52082237115989
-8.12430121267301
-5.69992568279579
-2.8360112102922
-0.288842666933324
1.26519568358211
1.62981183541436
1.46586699680262
1.72085438479639
2.59463086444031
3.65115925201384
4.79449573568616
6.31767055573715
8.06801837834311
9.35920907636284
9.74277633180208
9.34104230083631
8.52512658427431
7.70153971224049
7.23171611588571
7.16270486031072
7.175980730203
6.99174219566861
6.57657210141844
5.90264691192494
4.88934805887831
3.65178898865506
2.49561647313936
1.64568048729599
1.11528931755959
0.714647012691084
0.147887416113039
-0.716169285042327
-1.7265818283937
-2.71863912417184
-3.6444888124884
-4.34781262528957
-4.64064467992131
-4.71647034657052
-5.01268300313357
-5.59682049077702
-6.12959435203403
-6.36192460592673
-6.24920907860412
-5.79515761232289
-5.18998519540324
-4.81940817183458
-4.8357588657292
-5.03241792425082
-5.24556439474039
-5.50626256679391
-5.86007053854614
-6.42375404597597
-7.37956241706445
-8.47360011151184
-8.83311619436461
-7.7688574876596
-5.54872773643086
-3.07330483340646
-1.07430971919898
0.16667369772821
0.745116792549473
1.10180447654451
1.78822734049651
3.05494050662431
4.76656653695219
6.60319371258623
8.1691372215756
9.13533085941047
9.48224908289054
9.43893019253199
9.17534416992628
8.75497187898952
8.22902140463463
7.5410616869234
6.58349364700754
5.51825733200982
4.70790039698805
4.24936570925529
3.95239217743837
3.71141619036626
3.4742564492327
3.05484441777125
2.43552385517732
1.94959128658046
1.76267107428624
1.58387637049521
1.20573655111816
0.844189904839369
0.720386476868133
0.780631382273639
0.92355881572822
1.08190459858693
1.0975755310956
0.822426486701089
0.203245270329138
-0.902783955262779
-2.67391661933797
-4.90025999344311
-6.96568052663949
-8.41866045271508
-9.26975837883306
-9.72212977531171
-9.97553785281139
-10.2396621693359
-10.5844410677279
-10.8660226534337
-10.9704919227189
-10.8422518111505
-10.2114528470632
-8.76119458634649
-6.60311959144841
-4.13122916219755
-1.51011720710504
1.22028338742362
3.72465275975323
5.51833207299088
6.41948263162425
6.67781935297172
6.85183482699097
7.46432579216338
8.39635131564478
8.80651288773546
8.05932139566454
6.46126754954409
4.76304494431926
3.37425318416205
2.3466582843251
1.61907582161888
1.03790712243527
0.536499922957468
0.30650327501248
0.432209552756975
0.567275057607448
0.364378429157796
-0.0639159957878258
-0.444068351385383
-0.734253301511509
-0.935306830721154
-0.921544296154772
-0.715146504655091
-0.54834951576303
-0.501226175732565
-0.430923723876904
-0.261124704771646
0.0040879910931057
0.412859283148186
0.885708566222978
1.13766249254761
1.0392097321161
0.792958476613015
0.639072372297835
0.67063551552104
0.894922827089057
1.16839021321791
1.20588302894377
0.910651404111654
0.504784079105862
0.210770272032966
0.0814523647656574
0.149475255668699
0.398152823616717
0.639327104802231
0.720303679999271
0.70506777120801
0.668135349826454
0.602025593203231
0.615230748942971
0.81818280030401
1.00092009711332
0.847435709917293
0.397504720597611
-0.0746082458037884
-0.469488946969699
-0.857018080401687
-1.3134788513427
-1.97632010536464
-2.95163768246148
-4.0201231857854
-4.76986597522853
-5.09163191413622
-5.18999100393432
-5.13928416417803
-4.83671380656832
-4.30170936585307
-3.62197916876761
-2.75876379715566
-1.73060409448297
-0.748659556128168
0.0707030274347028
0.842791296552004
1.62461757642481
2.24618812741039
2.45271508649404
2.0768397079186
1.26610838574211
0.625498192978794
0.750956383807765
1.50453253524787
2.13629026905385
2.15713774791368
1.73571192854738
1.34431643849086
1.37077312281415
1.89269717075137
2.55521701804158
2.90295404328529
2.92201785482808
2.91237218508693
2.90230389641583
2.65347032277659
2.12430778204432
1.4902274695028
0.869639728132845
0.349254374026523
0.0170289929515658
-0.269779601972699
-0.823576259173309
-1.66347705700394
-2.46271428596388
-3.03468625718339
-3.48205080819929
-3.8584948314923
-4.07718156885781
-4.07707607356724
-3.74236678951851
-2.88137193711313
-1.59835986177986
-0.3913434081065
0.334874498699383
0.531057101467297
0.262521419186508
-0.34394559967362
-0.915911826256647
-1.00653071105464
-0.46549912031505
0.507393027531243
1.50604980146492
2.10626225781398
2.23262532609848
2.29746164829296
2.67340593033609
3.21960966240988
3.60055372373942
3.69777115077942
3.43466892449572
2.69174441587491
1.67336913511701
0.88208862726565
0.551822903094402
0.50460480222744
0.547171813989872
0.615254043723142
0.644043812862215
0.627733069929739
0.647223180412573
0.650988634228895
0.463845947235513
0.111924079337512
-0.181007100852112
-0.347330825872956
-0.474513778138832
-0.517876244404115
-0.408307193586696
-0.32941543209212
-0.519102001586606
-0.946366180472839
-1.42596077925498
-1.82398132101201
-2.05064315176281
-2.14032737879788
-2.30388327989999
-2.61909789338726
-2.86648185457559
-2.92490948108621
-2.97633782207843
-3.07346924320399
-2.92561159526254
-2.31943533865291
-1.36136214724101
-0.249635529980913
0.782214549865643
1.36915498956546
1.30687635185785
0.868688272413256
0.542722764247567
0.599685060165421
1.00200633999488
1.43342834141486
1.42953458996563
0.834663046775497
0.03533254868727
-0.556752874318293
-1.00592157215928
-1.54767662973467
-2.1154596492815
-2.47095633893223
-2.50234092552722
-2.17527694764464
-1.4909922505115
-0.630435871899512
0.149933500302513
0.799097559100091
1.38856092432021
1.86697722996165
2.15871683802746
2.29470774202152
2.25605291558627
1.99305519004833
1.68588537752896
1.61125523796279
1.75651927137642
1.92385944139928
2.07388679840788
2.22688904807676
2.25747539903067
2.07659805164126
1.76839150268635
1.3999165272648
0.976755004317035
0.588409560942597
0.298768117910361
0.0183182027776894
-0.245076187457496
-0.267805117622202
0.0224670440584226
0.395507903066567
0.679373105180094
0.890794820094783
0.965787318643038
0.758493018736391
0.28726744759919
-0.317081832794341
-0.970310625429622
-1.53791835605833
-1.82898810371457
-1.83852206879399
-1.71993347876861
-1.47962011908802
-1.05240954674473
-0.64389267100212
-0.558688989703878
-0.726876120018266
-0.821641440973798
-0.758865529633868
-0.720337253425863
-0.842914132341484
-1.14426922952127
-1.52272563683218
-1.70438761654257
-1.48738055060534
-1.04510463235272
-0.699901311903026
-0.536924394454726
-0.498074171042368
-0.577333138557176
-0.681754310972569
-0.62425513796254
-0.419072527116399
-0.262445428715382
-0.188502604033531
-0.0647206840372192
0.157004964592523
0.462805305002083
0.854825866257588
1.20704597539108
1.32088923907896
1.21707725047332
1.06063497667848
0.861950236051129
0.606840872721284
0.491491946061777
0.645125517184772
0.852140021713807
0.877689469198672
0.801312241578991
0.770173867990426
0.716386119419038
0.528812349869467
0.237787348912336
-0.0833725773621304
-0.352691278883627
-0.440836516664748
-0.360095894176685
-0.343740131213209
-0.483377810879363
-0.550385475712538
-0.396342613501006
-0.184372594650703
-0.0689986212495722
-0.0223464284547325
-0.0395605038790231
-0.167098745149264
-0.36677865778748
-0.611493452895755
-0.951191860366998
-1.31944077413554
-1.53824825144048
-1.58843496523383
-1.58241675422606
-1.52924829275527
-1.42889399134129
-1.39676025978102
-1.39031971030779
-1.10991421464042
-0.425953686413449
0.433864366661609
1.23156181848465
1.8490748722965
2.10948223377239
1.94367071933081
1.65944133139812
1.63269147500299
1.85643459392741
2.08545881866976
2.2123658549641
2.27480511866773
2.32842211787089
2.45967327194273
2.68971783856661
2.8316925319418
2.70372476298116
2.41800911893208
2.18676364712724
2.0057374279173
1.78533211368157
1.54219406496377
1.25511931655144
0.832210602175711
0.326519291267417
-0.12273555457778
-0.527081669371025
-0.939074156822314
-1.28528552902168
-1.56048823791085
-1.91233149254446
-2.35832529101939
-2.75795380081864
-3.13470357192959
-3.63985777892975
-4.21577357585668
-4.67278057084841
-4.99788479128618
-5.27437541020461
-5.4868700414804
-5.6180616571065
-5.66055616638547
-5.42848613919367
-4.6923478985618
-3.52559525881923
-2.22894326182234
-1.0118341519436
0.0290946716369634
0.851478460437515
1.58801702966948
2.45557691432786
3.4161090847492
4.21041376246212
4.75219803238298
5.15391676195564
5.39900230173272
5.35702627659707
5.04717487353141
4.5482598664978
3.81620328395449
2.89486539543896
2.04998587533554
1.4447404817729
0.982300654418527
0.59230682344666
0.318630017509775
0.105568535411915
-0.148003772758105
-0.386994352036372
-0.523940300016058
-0.593642682975648
-0.609811430218348
-0.517822005972326
-0.365535049146681
-0.252186200099989
-0.165238682541108
-0.12054546323838
-0.245482846896644
-0.483983408009632
-0.564716601071387
-0.46194090746352
-0.469978740568891
-0.7035683401308
-0.967631062026305
-1.12708397112164
-1.17247943612995
-1.01938377769817
-0.638151209668452
-0.231927019801795
0.0034347461781936
0.0947702829465495
0.102869637352937
-0.0014869343720767
-0.1639621326133
-0.246448410378472
-0.249024715535965
-0.257404129864143
-0.233633078603784
-0.142880449890493
-0.131871138694754
-0.309589435147449
-0.560235044359719
-0.759584861534755
-0.914202512895285
-1.01480390683951
-1.03791241032506
-1.03901254936597
-0.981079093695526
-0.662755035719806
-0.0525726713046663
0.572442213597726
0.969435120637873
1.0980465233468
0.938004015807896
0.529849570487766
0.143211368255998
0.0276446634522486
0.106634987339429
0.184355908850024
0.217288018685935
0.193826889292228
0.066852384030752
-0.0799416171267533
-0.106928845763309
-0.0379983467013761
0.0556468822858226
0.210015727442647
0.387709278267591
0.443192219022963
0.441590792375863
0.646525627471288
1.0686454066718
1.40867454830752
1.49806150420826
1.40540039918456
1.14199365603175
0.684581913807979
0.218102123621505
-0.0312388000857118
-0.0855906210161254
-0.0695806566843736
-0.0179358702068331
-0.0101336526158782
-0.167704487633313
-0.416567366146258
-0.578597536380489
-0.663555129269583
-0.765038173441144
-0.837593669844677
-0.848919767011658
-0.898102815561123
-0.988158838977369
-0.987369004048963
-0.906402165058449
-0.883217351136794
-0.906012001242129
-0.860847852193377
-0.737292115319252
-0.53930947928692
-0.212826906164458
0.163954893352743
0.391675541451957
0.412951477588717
0.288649611628205
0.0138753215646741
-0.343562958329332
-0.53092393660815
-0.427882802598023
-0.238523303364154
-0.167853026633778
-0.180288326611893
-0.186364707268653
-0.163137809610194
-0.0422632613682343
0.220637422589469
0.485877976148608
0.602390000916215
0.603254143789743
0.498799152517009
0.17084836590219
-0.278381325386532
-0.459509824808476
-0.215040920895548
0.181481095498959
0.461839069066524
0.600021115541529
0.615993571499177
0.532370932575973
0.465218511818014
0.484308107890793
0.529077272300125
0.589850307218371
0.718981420142637
0.835782166262961
0.817323963485718
0.716967700355206
0.621646052602388
0.474612061573047
0.265976124767882
0.123305949320753
0.06368092070425
-0.0168316127928527
-0.0851220300972069
-0.0684304671615194
-0.102340037565857
-0.298002998479385
-0.448255645845312
-0.313833893885391
0.0153497865401473
0.294854181280809
0.415328651265502
0.376293912627808
0.246928120741931
0.212662380312066
0.38033021495026
0.566321071811961
0.56029140449216
0.471171557114106
0.519519424146934
0.680953126074126
0.789339411960578
0.754333902026837
0.528729322793571
0.150707847977924
-0.151553012266196
-0.204066044453769
-0.149010765959433
-0.198390359737432
-0.341758934884507
-0.510636421878369
-0.726669368653028
-0.941640980956344
-1.06357035552582
-1.17734426066992
-1.41558680308135
-1.70719862444635
-1.94668991378327
-2.18927337716581
-2.44036629340343
-2.57788492414772
-2.64339296412596
-2.8226500839874
-3.06630796239876
-3.11462352317915
-2.86963351059993
-2.42566587373814
-1.87141861973223
-1.28514093574063
-0.694583443076822
0.0662574242285504
1.13661155027022
2.23918574337044
2.91030100058727
3.12351722292031
3.27117879294882
3.54930995267087
3.76865564595811
3.73135761593085
3.43546163385675
2.97534350304605
2.48234022900482
2.04049185886064
1.57924400516051
1.05123972627011
0.633191651139458
0.463877121042339
0.372107126121006
0.174025818023486
-0.0128240697752724
-0.0180744781200908
0.10147935037389
0.198627120266518
0.17402246231806
-0.0405961787162735
-0.352410306683679
-0.477557664341309
-0.311106407339978
-0.105487373467855
-0.0760677136382155
-0.153142270678826
-0.255307340930852
-0.424321884252543
-0.633779749584675
-0.817108921009671
-1.01559182559286
-1.21901158526536
-1.27797269781282
-1.18177013832565
-1.08608998058313
-0.930786696130548
-0.464999558517099
0.235220394217063
0.726786630483158
0.769377570642394
0.541484640578256
0.292375780308572
0.157654148791749
0.231394874636283
0.461654556305969
0.611930122904472
0.573826050619648
0.474758479294774
0.342140883445231
0.0158319376167972
-0.523372000102059
-1.07061071614599
-1.41924285747714
-1.42741250595178
-1.05948643859264
-0.560243097070634
-0.299808928517985
-0.319420621102948
-0.355742519872009
-0.324912132281187
-0.414216675515531
-0.744748062236628
-1.27007434253165
-1.90479730646656
-2.54163398754786
-3.1034516348732
-3.61083357408248
-3.94767588350253
-3.71782259076754
-2.71768736639202
-1.33311999362962
-0.0874316537289913
0.919862503827145
1.79971873577857
2.46635594811043
2.79159562602678
2.89492634253886
3.01352834091161
3.22029954667965
3.34503085259231
3.08771466278323
2.34287998792199
1.53447785196327
1.3309123843766
1.82202847816235
2.33097979719547
2.23561666926193
1.58568474018605
0.804657725898199
0.249048251353602
0.128018308737188
0.413968377762809
0.802796979176483
1.0415614113032
1.16093733951083
1.22352851275159
1.15013250955891
0.937187296416393
0.728213694735771
0.613792394681492
0.617847799266239
0.771768434396572
0.976155232675041
1.031308530325
0.96797759263858
0.990286988608201
0.995165348496711
0.578088319346786
-0.435658022869566
-1.85300225894401
-3.44206599589962
-5.05865416001733
-6.57006952984735
-7.88831145218114
-8.92237075073381
-9.43434049422859
-9.200632912811
-8.30790102407886
-7.01186296994293
-5.41375347733522
-3.61057770038371
-1.97909020968637
-0.855414415570758
-0.0181006043615449
1.14367422287266
3.00626536147449
5.40198794681893
7.69733113122149
9.09854396775301
9.20563126023243
8.3485552974103
7.19060004981814
6.14167910047965
5.3279843889448
4.79573301182181
4.48436076753187
4.28134341013578
4.22116334268905
4.34388871434727
4.43093958771814
4.24985671609906
3.90916161612839
3.62602358596207
3.38646417173424
3.11633347208171
2.85609139114434
2.55258112135396
2.01795670811262
1.1653653120986
-0.0410713764403683
-1.75044345239574
-3.97716210227266
-6.384900310329
-8.62337214986926
-10.63916211452
-12.4558830790758
-13.9496091374438
-14.9740565748843
-15.3963094976224
-14.9471878837629
-13.3638188205477
-10.7571637162943
-7.66691704319978
-4.82075261095119
-2.85526879208687
-1.87265180680548
-1.11904158447164
0.456116737062863
3.15464496950573
6.36448910026879
9.31835511106401
11.5473234472943
12.7688493852064
12.8792703256776
12.0303818857224
10.4710005828393
8.47098209834608
6.43739894513201
4.76963520134232
3.57664654574329
2.78934373668961
2.37692374896488
2.19126979459566
1.9054315904329
1.3791338509504
0.779544102606181
0.217856073862986
-0.357372835032778
-0.894625273547023
-1.26730403444459
-1.50532034920051
-1.67889629903197
-1.71991993627101
-1.60243939111533
-1.47059342367596
-1.43856020852718
-1.52306908443188
-1.80734610362426
-2.3521651888146
-2.95481590326601
-3.31541197531397
-3.37670769084871
-3.21816400031709
-2.80241308679324
-2.13903135018653
-1.46564268479424
-0.985903448828409
-0.663300176962805
-0.413449837765038
-0.207668815921379
0.0452632840515801
0.426319749594136
0.882743603117098
1.39054207985138
2.02858722381354
2.72387990896104
3.20480546324381
3.3071418258038
3.05678823317447
2.49985329498599
1.74715255367137
1.04093276055268
0.504508469498896
0.0304461386640224
-0.416316390788573
-0.685411454164584
-0.722532978819573
-0.644470898992221
-0.540345283224779
-0.467860726088207
-0.499364374202321
-0.552440311568248
-0.424632946481804
-0.130978972921773
0.121738145727881
0.342729561415022
0.742023344684183
1.28589723183615
1.63914729174326
1.51613089847442
0.766077880973166
-0.721211509104853
-2.79146242218288
-4.8806909004297
-6.48225990020275
-7.59508716593887
-8.4584709097374
-9.12566700416272
-9.49696613990288
-9.45779565699891
-8.86552725503272
-7.67651489546039
-6.07761867308113
-4.28190800020951
-2.33511351947804
-0.24724818561623
1.94381559396679
4.27022151104978
6.63928933249563
8.56974881403071
9.50725850861937
9.36284643571061
8.49876069408644
7.39331585006857
6.50134248525816
6.09323159534247
6.02489575273899
5.92712020900715
5.63226287605986
5.16912912581694
4.53730370671508
3.80104331143776
3.1823306563898
2.83575541067817
2.77761234275325
3.0865859347174
3.79792112532756
4.59125317976364
5.01132497397383
5.0113209388594
4.90568788605145
4.85649192605488
4.77373579195009
4.59114035544911
4.28471701152839
3.76315431469323
2.99571894047121
2.07627631967135
1.04749209712041
-0.147880772056328
-1.60712504653804
-3.57896549368494
-6.40745568117654
-10.0794052156827
-14.0450474720983
-17.6624268411357
-20.5637746299952
-22.5383240763639
-23.3912278711359
-22.9884240730409
-21.2837498202907
-18.4281303997865
-14.9414761632645
-11.4935084665897
-8.43094129471151
-5.74468043517311
-3.29071488365785
-0.639165696060263
2.92926768044672
7.65816222456018
12.7511366566933
16.9656152717011
19.4681028345367
19.9247538551003
18.3587750894928
15.3223109053364
11.8114829642576
8.70264584389385
6.43190754850465
5.12501237097067
4.63604673437151
4.51997875198605
4.35276781947241
4.04148979565881
3.64670152590114
3.17003268785302
2.6864291494696
2.33405795191011
2.05012216017151
1.65157575754884
1.1568846037679
0.699658973544269
0.274079323875589
-0.137495200489185
-0.430515214119285
-0.616265855317957
-0.922344622132725
-1.51409625571692
-2.36131730127873
-3.35489075526677
-4.30482646731471
-4.9744261560962
-5.33414254846188
-5.54230244170722
-5.57006055031336
-5.22310661849144
-4.59080086214827
-4.05626372098722
-3.84911534350118
-3.89502055301527
-3.94260651353519
-3.59823951800144
-2.5729412650365
-1.14410340976862
-0.0164742729415131
0.450404301592243
0.545739919329977
0.721326348794414
1.20472903215447
2.0647333324674
3.20730900164959
4.28531780650063
4.9554960780893
5.19720124530312
5.18368613463913
5.02915747811664
4.80672168688793
4.55217587678149
4.18913777344325
3.71216075038295
3.34064689848867
3.20565902315607
3.09630614345901
2.766597936491
2.20938783512338
1.47502206383037
0.572398395861267
-0.392265726375193
-1.34182830283097
-2.4286294177029
-3.7595847672217
-5.10527222339743
-6.20611572337964
-7.11023352518384
-7.95415870922459
-8.70178439683055
-9.24082595819432
-9.45696370943478
-9.25245438797352
-8.77704993623358
-8.41970152152345
-8.2155882676996
-7.50362951450087
-5.53565955750489
-2.3244091730107
1.25120043648391
4.07100222907079
5.54379568286639
5.97587749016957
6.18235502756585
6.65383288935006
7.22876796334327
7.56055393908826
7.51468185530349
7.02071926374571
6.04173620131982
4.89599272800225
4.15529178773947
4.03014478452086
4.17419910082156
4.11909112638423
3.6422070422291
2.8363490828333
2.04539860822219
1.55791592404353
1.27471627861382
0.908412588383616
0.438432794643343
0.0536172901994526
-0.205344893564313
-0.428320714026012
-0.652507305208056
-0.903873072128978
-1.14910713093654
-1.15801263592267
-0.832212575528686
-0.63030730466331
-1.15803803053324
-2.41028494349415
-3.87057430347842
-5.17358718128138
-6.2655164748885
-7.16619591336229
-7.91098839074559
-8.49235989881612
-8.6984865633058
-8.29962059239837
-7.43833571215436
-6.49561388415418
-5.57556136885227
-4.44979625407757
-2.93754219610883
-1.03196895771107
1.19535965554441
3.51202994132785
5.51897353926648
6.93145897105399
7.68335325062002
7.75674161195391
7.2275790973982
6.41235405313895
5.6391090392198
4.98439478179929
4.45673568998999
4.20545389204057
4.35655940647008
4.84150806491653
5.42259128841617
5.72675590951051
5.46716671472559
4.8888588094632
4.69801499735484
5.28263008821056
6.30853910367685
7.21755937920722
7.72246070466442
7.75873126046442
7.4019197129082
6.88336165009669
6.38907662094474
5.92981067248668
5.53560687364344
5.26547376740645
4.93107743418332
4.20575618287298
3.0428715133093
1.56397660601026
-0.450200951373617
-3.52890095366948
-7.96496441870096
-13.5508023884379
-19.6694767447397
-25.3816969249011
-29.7206654327104
-32.243204623277
-33.123812292722
-32.6470324377691
-30.9526945178103
-28.2411550810656
-24.7471270871788
-20.4772373616851
-15.2962006589074
-9.2310342325424
-2.59425121274924
3.95517028121484
9.52472511309312
13.6107696911141
16.5755493331907
19.0813022877048
21.187347347609
22.4086144982774
22.412589305004
21.2451972900005
19.1387411840365
16.4549791462862
13.62440202554
10.9930014428889
8.8736857058867
7.5667975163254
7.01381385513596
6.6669314726048
6.01577187140313
5.01841149665031
3.87462097716853
2.72911064864081
1.70811645362448
0.909405762660447
0.3141955431555
-0.0394019446156092
0.0556566599970735
0.611542627628467
1.20676143537901
1.44908308285778
1.42075962235382
1.38429700614513
1.36617508493281
1.26568710824607
1.05249120849593
0.707436148004321
0.220197429151892
-0.375636717921524
-1.15385577528833
-2.27428975785046
-3.63837256245845
-4.85484068024926
-5.66207738508485
-6.09192547839964
-6.23501272158826
-6.16947018448303
-6.03485154059158
-5.90956423163568
-5.77150359509307
-5.69466471530013
-5.75491422742358
-5.69518351426327
-5.14491101219207
-4.22502493745964
-3.50877697726073
-3.38396914195871
-3.75025620611025
-4.18954283996035
-4.21513058941931
-3.61344491685556
-2.69049780883326
-1.91163169429141
-1.30149384483425
-0.538212069151505
0.444356896300242
1.35170395442476
1.96605487941223
2.347256400145
2.67555004971277
3.13720200459543
3.81034836475633
4.50144512454468
4.9112709977422
4.99676390465091
4.87891754466466
4.51617566428123
3.86835222099007
3.19611616052748
2.78477895180057
2.56887706723439
2.31754848949558
1.93496477351241
1.42466222079895
0.853286017605205
0.379705537538178
0.0442692900573172
-0.353410754090846
-0.91889437117921
-1.44219232710291
-1.71401771025183
-1.76146493799956
-1.66541028354411
-1.4894392447053
-1.38238893516752
-1.40784722918123
-1.404018194283
-1.30249248516754
-1.30460013176357
-1.4884151757469
-1.6051556912667
-1.46389148077752
-1.14342896852387
-0.723477583808419
-0.191725335518082
0.34588509362293
0.719232399860484
0.94499504008764
1.14770526092748
1.34368450491189
1.52017962266798
1.7042171266319
1.77886237872201
1.54207560564403
1.0654778727214
0.64646297648073
0.380351863234608
0.125866805444055
-0.188264268908408
-0.528978680421005
-0.869105154905896
-1.13418381342919
-1.26791087250655
-1.40103675732527
-1.65868282172587
-1.87414314187237
-1.81243494717327
-1.48449738025023
-0.925995025482735
0.039666223526121
1.48333875426517
3.05074451380109
4.13674391728773
4.2021328211859
3.07095286972353
1.27972768526164
-0.0852833742605474
-0.308301206956105
0.354365323248679
1.14731912224397
1.5272401210904
1.30686380469069
0.593008712093608
-0.207648740167234
-0.64465690727119
-0.589548107636662
-0.175508655686643
0.475180992471426
1.19092594320769
1.61216704129127
1.43562602936429
0.700893381716712
-0.291456337128638
-1.15872876563628
-1.55381393911608
-1.41423587403344
-1.03720369749175
-0.675874932722176
-0.322841680526163
-0.114268793010202
-0.476352935972094
-1.53042308439901
-2.77482970681089
-3.63748764074091
-4.00095303078669
-4.05590464263267
-3.95519852020014
-3.67934725978287
-3.12594882653713
-2.47692616016665
-2.41095243760725
-3.43505209094219
-4.93503873121436
-5.46687942577522
-4.1707491267605
-1.55446724068981
1.07375557423789
2.65187611739978
3.05232447068855
3.03394409641053
3.39007617020402
4.13984147087901
4.80486483500794
5.23954293060647
5.6575634955777
6.01111133182311
5.94798395793889
5.3470149755244
4.44045583438618
3.47566817133854
2.59169168025068
1.88059667420619
1.32321261059678
0.856897044564392
0.595148411474082
0.688273078638952
0.977765458633633
1.10619345132989
0.885840585153737
0.347169007599503
-0.328314762781207
-0.775486820531944
-0.71715293695428
-0.384297039150847
-0.310168043956554
-0.720158983249703
-1.47545233428782
-2.46361447150989
-3.63185867849639
-4.74732025100549
-5.41823298092621
-5.29824182731786
-4.30228368102048
-2.85926271474556
-1.78267304923126
-1.5452582478854
-1.88141944557798
-2.34624977376862
-2.86308937298738
-3.43601161387991
-3.78434093128287
-3.61632545968022
-3.0008533875803
-2.30972543605849
-1.96761694751302
-2.17435776187915
-2.61386127687053
-2.57585283168124
-1.63772741840126
-0.0870024719710893
1.49058417608314
2.75475095421239
3.58340278030745
3.89252343132352
3.74135508467494
3.39561288406589
3.18482683500567
3.39014688074702
4.09255110379469
4.98584235086839
5.60329448290024
5.81299021772878
5.78087082409006
5.5101248690052
4.84656647663518
3.85798268700157
2.80510965670215
1.85127104305186
1.08208253546348
0.5937507089764
0.366837156445511
0.306239079536912
0.431058083712035
0.70283254248341
0.808868276904334
0.530192393683964
0.124844401853774
-0.0226260780525974
0.141985588873783
0.501107920846458
1.01017549524254
1.56987677181821
2.00830182143068
2.31162856608615
2.57895576482651
2.76106610669226
2.70646330613492
2.34743171173398
1.63096011220901
0.538313738873228
-0.591687954545503
-1.13340882986633
-0.879366340827229
-0.412850588503499
-0.663932403544867
-2.37062175352641
-5.8041720918621
-10.4494558130914
-14.9706967262314
-17.9791298284286
-18.9639637694008
-18.4299798556521
-17.3173073844992
-16.2840154245418
-15.2751700692237
-13.7920712341218
-11.6576093107078
-9.18217966963794
-6.4750009741288
-3.21204869168055
0.606611391257692
4.27827259198699
7.15489708007945
9.3257239943817
11.2886958834054
13.2904112172271
15.1051255251099
16.2275681336272
16.2981037503823
15.4371112683057
14.0263165066673
12.2315514749654
10.0653373577827
7.8211529067303
6.00391519190977
4.82204983855729
4.07469475252134
3.50518188503946
3.00783208561784
2.56254726661549
2.14782691901086
1.6299674738929
0.755807419843285
-0.484596291148059
-1.58789520770249
-2.00477874821213
-1.76139937057308
-1.29077009475938
-0.882630970909921
-0.593061292505587
-0.373418122363326
-0.022313776160455
0.691207551935609
1.71454343873517
2.76082108592749
3.60741793357856
4.10426357323079
4.09451875596806
3.56842156702544
2.65629608136902
1.37670332611536
-0.273780516516824
-2.03825876476238
-3.64302875292362
-5.16367257347691
-6.69732750125904
-7.95550256078172
-8.64316106404922
-8.89788364375116
-8.94063771064794
-8.65365082174474
-7.86278517995923
-6.76061363534795
-5.81719954639351
-5.42915341085911
-5.66105811284233
-6.15169614189673
-6.38048916311285
-6.21039224855473
-5.98951072055609
-5.97614689200576
-5.96549401459134
-5.64323312954191
-4.96549493204722
-4.04929294046102
-2.98807416599127
-1.81367354311266
-0.42598382267794
1.29374581994965
3.13852362830691
4.66615284824762
5.79995829816368
6.97558977928513
8.56109209211773
10.4205361507517
12.0116342585453
12.6448710977066
11.8582948846266
9.88285773628501
7.58122227259951
5.74056672986149
4.60335800824043
4.02443270057793
3.68723933393943
3.21996358285787
2.49585702077925
1.76631700284366
1.28176307114326
1.00294708823716
0.840265158773256
0.87901331545217
1.24758276984772
1.98291569748579
2.97444697186347
3.8303797253085
4.00987954591556
3.37734203744105
2.41839257239541
1.66427037989372
1.15068059065073
0.609982596154683
-0.167155520154529
-1.32140605850736
-2.85810032164384
-4.45110218215169
-5.69625277828255
-6.60908830058375
-7.55390321787797
-8.76091834301713
-10.1672286996605
-11.5594879904396
-12.7148063567346
-13.6145210188807
-14.4872922127589
-15.2943784249552
-15.2848263495465
-13.5162721099637
-9.8154064611121
-4.97471123554905
-0.131317065026167
3.88326916235545
6.80041490831463
8.71925061930245
9.67044052608511
9.57711023197626
8.74029867192082
7.93456842854771
7.73351277545349
8.02988302956959
8.30688761776261
8.02190668948057
6.80305784445475
4.79200056560135
2.78889072355416
1.63029464654511
1.44176313101661
1.74225282383295
2.04815536523038
2.10081873486623
1.83248714887543
1.45792838992553
1.35079661771631
1.62828223306566
2.13552275454039
2.84967002245246
3.8703651958122
5.01125867787833
5.79827999246839
5.85174077685546
5.07818029913413
3.7167977166782
2.34759578750158
1.54343399773431
1.3865395655686
1.52014212870625
1.56152794826313
1.24431354419101
0.421234128848903
-0.816657381802135
-2.28342733438487
-4.03649906833077
-6.17730180351938
-8.34547946907425
-9.92692500671465
-10.7565661499002
-11.2102695940834
-11.7263400868756
-12.5381720240152
-13.6195429555382
-14.6259801975532
-15.1150061774211
-14.9026094733185
-13.9480838184534
-11.9991490117655
-8.75726581361683
-4.35783354932127
0.599850049855443
5.37086902989709
9.19705468416521
11.4396956117815
11.9854281665259
11.3952036046882
10.4204440645153
9.46265938664523
8.49215123676759
7.28203922021644
5.8124993500752
4.60726386247634
4.38546694601662
5.1664157691565
6.04311603564253
6.03103227474051
4.9027949087286
3.23101954485623
1.94183925702161
1.70776602830545
2.42919841802785
3.38102806090128
3.96785474411195
4.08364483932289
3.7852157770022
3.11960520646129
2.31908467113537
1.71693743499808
1.42958866340125
1.34192633693502
1.20960086951987
0.655546623356972
-0.515006830791733
-1.86167436822229
-2.64826690331289
-2.77169003754466
-2.95483197885952
-3.96385185956692
-5.95073660681049
-8.48849570643124
-10.8840486638317
-12.4584320599598
-12.7735718797255
-11.6656359712442
-9.1785816186977
-5.72720345761233
-2.18640840527265
0.666674971990748
2.80927010458752
4.71462614337086
6.57260662466884
8.13545982627506
9.14684326415539
9.58286283879765
9.6101819546584
9.44777098877923
9.08529131250144
8.17676241768726
6.46360145135534
4.17055915385535
1.76008744695295
-0.463048166259539
-2.32542515762424
-3.70467769239648
-4.6362009260699
-5.19692929216252
-5.27598917488604
-4.77311132392568
-3.88056850152449
-2.83557965142258
-1.63126155773694
-0.304491042423861
0.723684350082797
0.852703605089782
-0.271908499840249
-2.5001907933415
-5.11645949345549
-7.19193779893468
-8.31503363694373
-8.84871949409608
-9.25416022826575
-9.42631888629464
-8.972739930654
-7.85443487661467
-6.41498662725772
-4.98797314311911
-3.73221924990786
-2.66300252650576
-1.64369455665413
-0.41804999181808
1.30356958088846
3.70817803735998
6.57384570883117
9.14815763360949
10.730546042587
11.353036607273
11.4950155229757
11.2740248319237
10.4049608311196
8.82993308211378
6.9468177992225
5.30855955496757
4.3290159659991
4.05694483700044
4.09241574722513
3.98076792235919
3.67300498968352
3.30080024851617
2.70424141263095
1.61418371095195
0.119126522177256
-1.39166266187037
-2.54306924824501
-3.0738897548969
-2.96611150249379
-2.60096823327028
-2.46762304793344
-2.67317112330708
-2.98821865553222
-3.27281834141697
-3.59005128719795
-4.04760340495218
-4.76481351070205
-5.82010254711255
-7.06293974515917
-8.17356301212068
-8.93710407231043
-9.2066469449116
-8.75749608975996
-7.59619632454558
-6.23033186008933
-5.20286641080795
-4.54199007499287
-3.9493803508704
-3.21547797656738
-2.20682727874837
-0.748758339064456
1.32188240411446
4.14018626534937
7.67385712482601
11.3399478734116
14.0656753147707
15.1013167873278
14.6012663075322
13.2769791386167
11.7872110649511
10.5108844811261
9.51463083273182
8.62802798775747
7.72576922669437
6.84235058393535
5.93813674634046
4.86828720238077
3.71402653492296
2.84926315704946
2.58623875541198
2.92279356179107
3.53309362545248
3.8387694354934
3.3273343253655
2.02163103290319
0.414278697305241
-1.17131789546335
-2.82285668990652
-4.59459293844871
-6.30595921050679
-7.90648559236816
-9.59555861675236
-11.5160563450285
-13.7106169442428
-16.2741848776727
-19.1112839179053
-21.652310144168
-23.1654007050137
-23.2793607667263
-22.1244221386562
-20.2280795856869
-18.316773632226
-16.8974727271318
-15.8985542482838
-14.7487642531719
-12.6910133707006
-9.10419663919432
-3.9292101419873
2.11772656209119
7.99144239236469
12.9051606302879
16.3579850479457
18.0686523310694
18.3275570004342
18.036819607352
17.962927973061
18.1489734397902
18.17110254112
17.6242643741897
16.3405587579908
14.5391956266091
12.7903362430565
11.5419587854059
10.7370099141323
10.0569169508484
9.31056752290082
8.40947501139652
7.26812924110761
5.93515840940039
4.58329504190457
3.31476410562179
2.22857386135694
1.54812472858112
1.33718711148354
1.27886673975948
1.03364976218621
0.544291477337561
-0.201753638454592
-1.31119077626107
-2.72698991302948
-4.20154550721316
-5.55915707328512
-6.6798812623481
-7.40267175929815
-7.79774590795313
-8.28470537207613
-9.15631583261054
-10.2494707917417
-11.2827626036054
-12.1702850938552
-12.8253206094405
-12.9339328374267
-12.0589437205725
-9.96245801156653
-7.01802669869729
-4.25466437328044
-2.55694596641153
-1.80109901598043
-1.19215706778245
-0.34298198814346
0.455570512181085
0.863008931502561
0.845686823824946
0.494132605704212
-0.0587775725585738
-0.54547842222865
-0.64324285123611
-0.0967440430334433
1.26321142763584
3.33390349805366
5.52693201805939
7.09865772826941
7.77854906681352
7.84974018144645
7.72061794365584
7.64976850430207
7.69078394533861
7.68809924614667
7.47303469017802
7.05554046512873
6.41389451301284
5.33062052157349
3.82037068812618
2.46554950706851
1.89875651191863
2.12195138008939
2.58635043375167
2.72192331777889
2.29657454881898
1.55842639531742
1.04459122877812
1.00103629261737
1.12922336432017
1.08856749384054
0.90512152705324
0.674278705742891
0.271592095140854
-0.446951660971695
-1.53076196342991
-3.10238905610388
-5.2781956870032
-7.89654204751111
-10.589246819841
-13.0428483483209
-15.0201723836999
-16.381841610708
-17.3018583224534
-18.1486149928115
-18.9242921063013
-19.1216209804959
-18.2724259655464
-16.3254412251823
-13.4881864329065
-10.0799454673919
-6.48268182760285
-2.8981297536906
0.718061518005205
4.29276541412529
7.55346380285285
10.5236745930624
13.6592916651934
17.1272381725986
20.1538658248435
21.3917919819978
20.0711449640644
16.8831981189269
13.6095593733249
11.6156846734765
10.785435354593
10.1131954416532
8.95263184717842
7.26801755673627
5.14390995572581
2.7443543585272
0.561252393099274
-0.814374877021703
-1.12800861704966
-0.545817757832088
0.491966221101712
1.50592312459478
2.31519865000232
3.07393059413873
3.81026414436094
4.18128885278204
3.90770024592646
3.15845478116958
2.27955297130844
1.45969849331271
0.861023238168937
0.713810563805858
1.04197165624901
1.52310967464087
1.70714436247605
1.25999003740749
0.187541252572672
-1.00684466064627
-1.69567953003509
-1.83738057805419
-2.01633548500216
-2.72156524667973
-3.878154692336
-4.9888360538089
-5.44056803545611
-4.92352270668761
-3.89959406970463
-3.4199435384375
-4.2264867992484
-6.23874038590629
-8.89895202830638
-11.590432998301
-13.7670166198125
-15.1998929242695
-16.1448626722612
-16.9260174468363
-17.4155961251389
-17.147677319722
-15.8210991054544
-13.6094785501202
-11.1381940579139
-9.08004624141022
-7.54213556586486
-5.96106651285859
-3.75557321150092
-0.850450376170256
2.56333025313999
6.39511755485758
10.5052884576729
14.4466705015642
17.5491011798029
19.1207185630889
18.6883299397813
16.4282271945915
13.2826819184541
10.2831524740801
7.83308845276957
5.8065810283697
4.00569759290396
2.31719899493121
0.779539049079255
-0.355946655001693
-0.882903164474744
-0.856977784139432
-0.311030795632329
0.867507352909446
2.38550387813647
3.33557627432336
3.06533342119913
1.97082912283522
1.08510388341126
1.1235056613913
2.05283002763028
3.28908399383973
4.25040469691241
4.88327801781608
5.53969579818838
6.32168368200684
6.92378629659497
7.16773060755236
7.21769897537291
7.1677274616294
6.83168742600027
6.04110665262554
4.86943861774899
3.53310664276677
2.23699484573065
1.05362205665276
-0.124842329578853
-1.35884149562772
-2.38688274829031
-2.83676788975137
-2.66938508471067
-2.14635411952623
-1.53783224941881
-1.17286134233196
-1.46612208037277
-2.49933152607224
-3.84435153648341
-5.06671002552767
-6.10782458479188
-7.07813765194629
-8.08806291810162
-9.356901746484
-11.0978268867065
-13.2071858708422
-15.2446874117834
-16.6489242992021
-16.9514206597934
-16.0935613962292
-14.6207332583274
-13.244676378681
-12.1182579161202
-10.7305889298292
-8.50027746840971
-5.41635872845512
-2.25513104496761
-0.0804052529201984
0.820973951219078
1.41270083471689
2.93908835708753
5.60056747046883
8.48838333754453
10.5672798502119
11.3926155392019
11.1629962470015
10.4581777199089
9.77425359041762
9.11500595128023
8.20800530066223
7.12992015305846
6.37360449551889
6.26847647631309
6.66798650907742
7.18536150799325
7.46708841869633
7.36694475300141
7.07580047538322
6.91849976621529
6.97026052526038
7.10983593492741
7.28570430042482
7.32318269871639
6.71956612974499
5.15194365104315
3.00109961642472
0.979187502381973
-0.521261459090581
-1.484858275553
-2.09402412096003
-2.72726591852438
-3.76623558933739
-5.23116144697411
-6.79679704471435
-8.07597155065096
-8.74537458702798
-8.71523145519269
-8.38136862271501
-8.38889100614392
-9.00065771034219
-9.90789811433124
-10.5498931621445
-10.3430540579867
-8.85672317354216
-6.20325671321254
-3.1545638409353
-0.569172548676007
1.24847926517989
2.54871682403355
3.72013285456947
4.92905401670106
5.91731107514592
6.18799435328004
5.6972756686663
5.21402623789238
5.57108372014996
6.66861677126823
7.56095303305806
7.39225283652788
6.05005239549971
4.14613908108439
2.52685861974021
1.61972504272088
1.22243415324967
1.00321069582756
0.961523657384403
1.2288819592602
1.73122186282569
2.23586890577676
2.48500376829119
2.2852380857849
1.76593197090281
1.39648417565332
1.39501420053163
1.35465223056713
0.769813298975586
-0.394975763693232
-1.91933568353638
-3.72487823519623
-5.82661919920413
-8.16592879497809
-10.571333079404
-12.7073813335661
-14.187223978158
-14.8981108538408
-14.9798654129086
-14.38579304312
-12.8724698083127
-10.5851305686588
-8.19537822711447
-6.22879919275146
-4.62729675654623
-3.11269447321656
-1.5985973928378
-0.110716643873872
1.4301264785984
3.25944851702979
5.62775929350499
8.42736442147601
10.9624466881441
12.3957053204792
12.4609232193389
11.5601105759053
10.3398926784028
9.3730266602172
8.92264100217009
8.73419905209035
8.33432705001634
7.66786394268174
7.11328797011856
6.88926698214368
6.86345282671634
6.85209806531749
6.68299962967642
6.1213242712854
5.10614733916798
3.88489706599147
2.72550072263048
1.7665058286998
1.1732125096278
1.03050824062333
1.06344271962555
0.840884658017505
0.24807690985124
-0.499511157239048
-1.19673772817793
-1.79517720603489
-2.37399313775912
-3.11322261623335
-4.1249499610674
-5.28632174792689
-6.44134191245712
-7.62560521140929
-8.80821316595107
-9.69174735573183
-10.1377789747355
-10.4554583600587
-10.8920501415053
-11.1707827152225
-10.8123022486429
-9.5858059663481
-7.53193395436334
-4.94439693861714
-2.40853055142523
-0.507311424669604
0.589066488419569
1.12697332579033
1.48253441933428
1.89215547495182
2.23213181013266
2.10651370025956
1.39123828762781
0.498304022071583
-0.162062224244618
-0.645400249601218
-1.09585728113966
-1.30694997291521
-1.00073352547322
-0.240576423588818
0.653563415897473
1.38184587357485
1.82714530302903
2.15156294453041
2.65347495041284
3.36685121726248
3.97335043645025
4.21653575816308
4.12065331740079
3.70894218670026
2.90302979560604
1.88151611923472
1.19638564669717
1.36285834567672
2.51200821359645
4.36529245992857
6.314182866505
7.70331178623709
8.28139621157158
8.24465047652721
7.83857063541365
7.19983414006309
6.46664562392109
5.65201605563874
4.55284783871006
3.11621850499089
1.64610728939611
0.372978279803142
-0.838016401992408
-2.12377072202293
-3.34529070568195
-4.33453972067915
-5.08393970945828
-5.64750146620008
-6.132460288837
-6.7113680658356
-7.44051427966354
-8.21881281409897
-8.95571561138005
-9.4799390985789
-9.36188023764856
-8.2578097038772
-6.3712001745989
-4.20892351637655
-2.03781446288446
0.0591353093131951
1.81362139369968
2.89662231764114
3.33754581722753
3.55264308706376
4.01799779460663
4.96732686940816
6.18494952324293
7.05035750137029
7.02458144350729
6.11643125560933
4.77629586004104
3.52293170826974
2.74993872278548
2.53654267365468
2.484124215321
2.01584047851809
0.904620073777921
-0.651895654810922
-2.29079148465327
-3.61118145570548
-4.35054962910187
-4.68015683736127
-5.05484005915459
-5.65450914345977
-6.24209892496482
-6.48426857527943
-6.062783099297
-4.71129277425996
-2.60463561276951
-0.485465145050418
0.978541888803679
1.73057699046362
2.03963517971349
2.05913596539689
1.81884851403629
1.31305332520769
0.521314129614061
-0.440556158628083
-1.2915454120449
-1.89458214268539
-2.39861184620911
-2.93377309270036
-3.44208504948247
-3.91003464442649
-4.40997122022931
-4.79443434730027
-4.69107056804162
-3.89335313683987
-2.54454375778956
-1.04418878226219
0.0408851489260716
0.26718127960674
-0.230883669518418
-0.818129695473552
-0.963167187973459
-0.485291207135373
0.658723606785018
2.36955184508337
4.26278417768031
5.88544279805776
6.98133942562768
7.44332469023069
7.35940759757248
7.20163925473615
7.52169409329265
8.34443985887833
9.19260650735416
9.62757474880515
9.43833160555077
8.5376031738116
7.05061681023052
5.3002002553692
3.47805941873825
1.58026793789834
-0.253325161026847
-1.65772299635693
-2.3571149894718
-2.32957306013252
-1.7001489964177
-0.637370777133428
0.755429976850815
2.54051470556955
4.75094520796612
7.04383154397949
8.76931040774504
9.37610086243032
8.55465720529577
6.21233253232297
2.70244656184832
-1.11203511499591
-4.40160209662839
-6.85815615132182
-8.56119089352674
-9.74404220677149
-10.7777310163265
-11.954467787749
-13.2067291588796
-14.3088799580419
-15.1866413971025
-15.7508954536281
-15.7530048202971
-15.1339398838382
-14.2190706373798
-13.3441796855815
-12.5629309160599
-11.779573028949
-10.8748882661502
-9.73261321019131
-8.33184989521814
-6.62875291842261
-4.28828951454579
-0.932836632187286
3.29105515033696
7.8096809065386
12.178878022579
16.0318578994448
18.6537114287038
19.2504172668392
17.6827376498904
14.6052152251161
10.9792160286082
7.6380545805071
5.03852310683142
3.14305976897301
1.68730941428736
0.635301083429852
0.174640928600149
0.369055470163074
1.11320893651527
2.24643956473094
3.41413333261564
4.08586118118561
3.9824450585778
3.22996926959641
2.02298602617699
0.516472475831597
-0.964825780982257
-2.05174732730488
-2.67044005647226
-2.96842448951135
-3.00049766542255
-2.65477817713432
-1.73539242934021
-0.150651381446984
1.69964631499565
2.90628245195028
2.85366280779565
1.88586357037485
0.826674427829209
0.102581333028971
-0.37169854711244
-0.811672104516585
-1.37440745696145
-2.06665131445771
-2.6689316231608
-2.93799422320413
-2.85137807936192
-2.49130638655097
-1.88276480790648
-1.1307523469383
-0.465640245977034
0.0163509951228595
0.398639556413133
0.661654192116038
0.702794672962989
0.663617118871577
0.81690346847424
1.11154600331457
1.23796940250036
1.10356271467457
0.864940923003475
0.580543369254499
0.154588723842892
-0.442001634827771
-1.0466594855904
-1.3369629699669
-1.06888011267727
-0.424013892766267
0.0947204425264915
0.267758006501923
0.340954740895671
0.488206325484029
0.543570567632067
0.418014919270627
0.295640727275698
0.21277626800395
-0.177809607375544
-1.23333342894613
-2.86724448316536
-4.47868493707667
-5.31854593358332
-5.08705811470173
-4.12659026930019
-2.8475586941743
-1.19904942015002
1.00005938802298
3.51347084113614
5.82841978678058
7.56740526299594
8.49072158205141
8.45280370906137
7.66254535569737
6.65804192346327
5.73662166824512
4.66355400443739
3.09722489726657
1.01990459573629
-1.33006864592401
-3.68794817771222
-5.90602278208906
-8.00198060169055
-9.93131180415809
-11.3138212852496
-11.7338141035049
-11.3000304688594
-10.4964825874617
-9.54237829958226
-8.32976699275257
-6.8886972257898
-5.48718744823123
-4.306711869422
-3.26042606381516
-2.09336461512713
-0.655656839919086
0.811802976548022
1.84700118367231
2.38919837913795
2.88155799137938
3.55130275286916
4.08131654765808
4.24221206476472
4.3027215303414
4.54325474019605
4.8309406220065
4.87277892894984
4.55541895866267
4.00972072793608
3.60856690202749
3.78913476801831
4.61524687604333
5.62943897688014
6.29059995457969
6.41807122981145
6.20593930493912
6.05390689817734
6.29940800792212
6.76984555588288
6.7350749856488
5.67734249191376
3.92423715411058
2.21604776371521
0.963993369997226
0.213556373818306
-0.0730024643125375
-0.0320813618213255
0.0777872764617588
0.0817693646396223
0.0205953921004311
0.112419830926382
0.612857591248168
1.4782462075184
2.15299291892818
2.02251760405991
1.08719166099739
-0.0882126778368223
-0.962979439048063
-1.328862711757
-1.37029048212904
-1.70629147230615
-2.98307639315242
-5.1675772771161
-7.58062504336243
-9.63982401196792
-11.1229415080737
-11.8567972810993
-11.7597871807678
-11.0987642896438
-10.1852983573574
-8.94897419877636
-7.21139073040805
-5.14946421821424
-3.12042581240454
-1.29461956676584
0.224143217921638
1.2136997398567
1.56945551999932
1.51803544477882
1.4511357711242
1.69507191182723
2.36955600296543
3.26541266355536
3.97756501915825
4.28233329560012
4.23432252199565
3.94300584028866
3.51083611534551
3.05284701027856
2.4815625612586
1.45188285220602
-0.231863794605079
-2.33567408422307
-4.37562766523128
-5.76184192953614
-5.84583936226669
-4.3442436563212
-1.76546269563546
0.922198567904553
2.96445776266076
4.00322843260999
3.99648932442645
3.2822000727571
2.41377573696083
1.74390461049121
1.3985321870442
1.53195051752155
2.17205790131944
2.91678864895856
3.20449113677511
2.84787635581622
2.07947253782373
1.21150920561619
0.398123846149232
-0.441682692984022
-1.5212350952592
-2.82140729183997
-3.91793731057809
-4.41372595391278
-4.33315990262759
-3.81619255096783
-2.7731434543083
-1.19198226153829
0.566421112367442
2.08311029764995
3.19235824343198
3.89326606913957
4.34243749307091
4.94039654811223
6.03716061463995
7.57978707264063
9.28142342041696
10.9275310083598
12.3070727277633
13.1178266352814
13.1367158721362
12.3393189717615
10.9283518468304
9.44209221259847
8.54733185821616
8.389309500519
8.41516611658928
8.08495675251842
7.3964657250749
6.46710216808362
4.94081136314956
2.09262026904505
-2.52130615143491
-8.48945428948242
-14.5961853954786
-19.6427558191844
-23.2711716647242
-25.805413036875
-27.439813087169
-28.0114310739646
-27.490318129505
-26.1799483914797
-24.3919176033949
-22.3057506501361
-20.0972395590683
-17.8570658905223
-15.4750150475612
-12.8204828785046
-9.85141339149185
-6.49666767332461
-2.77854074242313
0.951732433984079
4.25431843383368
6.9563597063948
8.97547968621253
10.1403273206755
10.5914142253583
11.0031234701252
11.9917672732398
13.515692206008
15.0081252497672
15.813186360042
15.5229236429146
14.3285499213572
13.0822214226353
12.6969822272175
13.4444830922322
14.8534117006843
16.0471659498218
16.1884921310537
14.9919964051745
12.9410115439171
10.8449863866645
9.22029566156863
8.13796797518571
7.38967004556527
6.64024523990425
5.65360495026508
4.49097156623963
3.31788590554986
2.07903297876657
0.657396802313106
-0.75595842022802
-1.84303235958317
-2.64644819822171
-3.55419473537438
-4.89379473921841
-6.72331457399751
-8.79012751013501
-10.5726821577733
-11.6618352110018
-12.1849744215678
-12.6470243586028
-13.4505658375227
-14.694786558989
-16.0715648545785
-16.7574892938883
-15.9143119602715
-13.6367073005281
-11.0724289031834
-9.42768847307648
-9.0868849795701
-9.58307566014337
-10.0280871882812
-9.68503010912136
-8.48504281159422
-6.95098690969243
-5.57448575093194
-4.50046575338651
-3.6931804118201
-2.96365682059739
-1.92071715270742
-0.305518695521821
1.73660874037731
3.98649788333425
6.47981836104495
9.22687463042081
11.9174458402121
14.1987842973498
15.9994289670147
17.3739341275796
18.2522293049309
18.4466243012557
17.7347033207843
16.0336023623766
13.7141840129277
11.5132218229765
9.86720180952694
8.56398225677155
7.18103271036573
5.52392876737504
3.5752204328032
1.43803525498295
-0.551901708636312
-1.92923849672078
-2.39583492350186
-2.04557545755291
-1.49154824346057
-1.63281002268373
-2.85720344773817
-4.55281208790819
-5.81324047324435
-6.41399768374928
-6.66068773780601
-6.62478632431028
-6.08352375741564
-4.97958912762309
-3.53549508984362
-2.1080608802096
-1.11604313903534
-0.880045293049754
-1.44975028700151
-2.68754828982802
-4.34840064090288
-5.96341077008466
-6.96790180526364
-7.1333846629467
-6.62105315366952
-5.58452507932044
-4.10256405060578
-2.51545820546856
-1.35799914595017
-0.852291993982708
-0.792659295509233
-0.918310712902761
-1.12401302272594
-1.41196798085759
-1.85110051400223
-2.43752039035688
-2.92725825023576
-3.00530123407879
-2.53379008090475
-1.42943913283891
0.385888403435998
2.56860005302089
4.24236612855033
4.71995787936122
4.1595881927014
3.35993665275444
3.16568129812459
4.06032634745643
5.93340600806435
8.13371602427376
9.90435177142119
10.7357994280401
10.4150179756821
9.15237522981166
7.61243641453405
6.2985611043383
4.95854875656001
3.09874215437796
0.92256229350232
-0.77977303442369
-1.51306172274361
-1.40324694186904
-0.880554183541227
-0.49045211631005
-0.847953756815415
-2.35745473860607
-4.91348300232449
-7.89847035140238
-10.3683273714099
-11.4263286532771
-10.827144797541
-9.21314621230063
-7.50483826818926
-6.17402265833309
-5.24620285831944
-4.65652792417765
-4.33940449747241
-4.22401754317453
-4.28845591189668
-4.44079602651395
-4.38658222071428
-3.7827957388301
-2.44064812297234
-0.445628071908459
1.57819021355943
2.50096303913842
1.64336058423873
-0.282865326098834
-1.75563225285898
-1.94546554797517
-1.19946258133201
-0.229921916150652
0.665513086461309
1.69345469859126
3.24538823219958
5.44623103334429
7.92393899887866
10.0955483073786
11.5515211977852
12.0455180070755
11.4234768099752
9.82448226447523
7.71098486380718
5.49915748193187
3.35373039130111
1.4010799246312
-0.168401978835414
-1.3212970412901
-2.2404209311395
-3.04143821420967
-3.53934492955107
-3.28272139385475
-1.8353044383434
0.736197523470282
3.66607901551166
6.11798113159549
7.95675023263893
9.54686673245206
10.9806354532683
11.9286378808164
12.0175584968667
10.9731359430294
8.69239728926458
5.53451218688747
2.28252940902962
-0.425545803332576
-2.48729413261612
-4.24498584751006
-6.25775962887647
-8.91433235928059
-11.9224514741783
-14.4435985186893
-15.9879872011365
-16.8245373049721
-17.3659171531016
-17.6357850062892
-17.4724999638139
-16.7680756255075
-15.4028716196868
-13.3692363184197
-11.0516648706006
-9.100847331489
-7.95261726213635
-7.51932049133696
-7.23416323283127
-6.34567473206756
-4.33626704335999
-1.16750752441457
2.82975138195988
7.09327820807797
10.8016104867618
13.1199251950747
13.7766058247593
13.1827573668817
11.9283103638421
10.5210669734738
9.52435997257397
9.32314355560247
9.65515949878171
9.81581734205989
9.35903882694116
8.3746293310423
7.29101574600082
6.61217720339537
6.55576796365041
6.79776648266277
6.830567444936
6.52826923109259
6.06103628099297
5.46521417190095
4.67023486615437
3.6961324559711
2.50277542346763
0.945116817358194
-0.871195874536926
-2.47360739785012
-3.41411162809454
-3.65329462314582
-3.71849880834428
-4.62658405904574
-7.23578606176749
-11.3170837829013
-15.5096102753736
-18.374501731235
-19.2812097710651
-18.3933043197901
-16.3552231320439
-14.0406870932438
-12.0495893695694
-10.2793756397962
-8.27039267854549
-5.8749080607529
-3.29693192211592
-0.723504450198323
1.73590517799886
3.94842023888169
5.81409180978137
7.2604358830487
8.19561356971431
8.67190904240801
8.9152126643265
8.97171904038336
8.62711530777374
7.88429332595599
7.14514460790107
6.73833721317906
6.63961793069927
6.74739222426294
7.06587902730179
7.59149639483363
8.29274394730122
9.11105784112832
9.82384012661127
10.1449244896254
10.0551401150966
9.75730801328221
9.34821039236795
8.86470657968141
8.52978816132332
8.62766505518133
9.2483158027757
10.2640305768306
11.2381942939375
11.285788999927
9.50845165784166
5.79036873804063
0.866365442758186
-4.40264911255156
-9.43068685315097
-13.6850453497691
-16.6414990794909
-18.0933462179491
-18.2416913452345
-17.5293698213013
-16.5119165651431
-15.6593016165041
-15.1697694600679
-15.1419668044571
-15.7457569325638
-16.8782109992605
-17.9142121166999
-18.2342114278374
-17.8018763720629
-16.9313462385253
-15.7649323323567
-14.2175032689277
-12.1937296305389
-9.76121193497693
-7.29574311861082
-5.33537280501917
-4.04149958980372
-2.97473837823477
-1.57968248896108
0.327490409070743
2.57004297550463
4.76477373144286
6.51114785392759
7.80701126060876
9.22206808791109
11.3694861458811
14.2858954447716
17.4343144154468
20.0792577044264
21.6148529962344
21.8952876253269
21.4033898717675
20.8820878163192
20.7499202893395
20.9512703296279
21.1115382948461
20.6108854016971
18.8830446673999
15.9941509629303
12.6187098853447
9.23661842342577
5.76204906002249
2.09088031558575
-1.47420847834247
-4.47675018428901
-6.61113342638785
-7.77134164166388
-8.10650565478383
-8.0058232084178
-7.91048457464772
-8.2205038050102
-9.21688592997554
-10.7320800769042
-12.0637631684793
-12.5825174070009
-12.2596258378464
-11.416326333151
-10.3696976850553
-9.52125200651659
-9.25304837944608
-9.45161089740268
-9.50925722844725
-8.90181374218948
-7.49757386985357
-5.46639403169101
-3.24567443565745
-1.39528498928437
-0.138742409903993
0.82389658661317
1.89225250347579
3.15232918678998
4.42578225193537
5.44003714506943
5.91748408569102
5.78378465324119
5.28873196815143
4.70353491271266
4.02234038045535
3.15321081885305
2.17200906506227
1.21299346248777
0.357524599821714
-0.304562004424269
-0.779190757809522
-1.29416750730385
-2.0655056498284
-3.06595942728308
-4.178467823755
-5.29588495886848
-6.15779693087916
-6.46382206097783
-6.25307384460695
-5.86414478890294
-5.56178641848504
-5.47649238509916
-5.70753158653389
-6.19249897170064
-6.70299767870847
-7.11697963596074
-7.37857018652676
-7.20784370105667
-6.31949064633688
-4.89484309816285
-3.40795299715166
-2.09843493031851
-0.944242157599688
0.118112588331545
1.285421442454
2.90504824899242
5.09309580065435
7.55223101563963
9.90900601613495
11.9854421619464
13.7283584260455
15.1948103599773
16.5762121803008
17.9197236177522
18.9192003252284
19.2515875033231
18.9611375671809
18.3346234156741
17.6330366416994
17.0397020408617
16.6154027177509
16.2826821109407
15.988897831682
15.6580548022334
14.8315292595411
12.7599644827175
9.11167487774622
4.29480455912969
-0.989108099488931
-6.14178944493558
-10.6779661088693
-14.3294075765837
-17.1973226970281
-19.5508489800839
-21.5413417066556
-23.142874284636
-24.0650762041716
-23.7629462166153
-21.9693159714226
-19.1689390521151
-16.177021477215
-13.4426536317887
-11.0971804381304
-9.32030540247701
-8.20270193829495
-7.48104853581293
-6.72068457482669
-5.58284740066837
-3.88236639139982
-1.82659593111315
-0.318641850915365
-0.541835527519268
-2.96817933667952
-6.90360083032152
-10.895454636162
-13.3969308080042
-13.4099458353154
-10.9918580845548
-7.13766858562879
-3.06027691915045
0.364472900645106
2.73228084487681
4.17712050990733
5.2903958356871
6.68779070790472
8.63016467746701
11.0070893672796
13.4249557949043
15.359563207476
16.5065232247509
16.9047781625691
16.6225017264337
15.7376114927547
14.7947730994306
14.6368310924347
15.3652453400522
15.8828840683264
14.7157167518833
11.034837234047
5.08955595357873
-1.73755824812394
-7.38625817964533
-10.2814752774298
-10.2806496124719
-8.42663895952931
