11.3807575231822
12.1500600287383
12.2260767430323
9.5280149123851
6.38115541167092
4.12144358225632
2.01443416335562
0.475094233564682
0.453276077469055
1.28047629901366
1.6536142572895
1.97104560440433
2.67143725674536
1.69386803884425
-1.77141675360071
-5.05655916147678
-6.95015995141486
-8.99971361574811
-10.9248659934682
-11.4925205009053
-13.7745071184969
-20.643165539036
-26.943346748748
-25.8804451923863
-18.7385536738822
-11.6787295340836
-7.77017683319357
-5.48960284192995
-3.01905772685966
-1.22953715564469
-1.16159739917648
-0.791297833581457
2.88040491083279
9.04697390696873
13.1948183824265
12.6932172696156
9.99644190716441
8.80781369791575
9.70048398654155
11.71624679465
14.6302939234637
17.1759690899466
17.2509805550991
14.893931750505
11.1518765047186
6.39796783099733
2.31249713745191
1.32990049007801
3.35972026730714
5.43209728789303
4.51861745820558
0.16907646584505
-5.28954014677983
-8.87519727181919
-10.0205819221983
-10.6945413360434
-12.0189482856077
-13.0145354488471
-12.6487461507321
-11.6875817368581
-12.0473414180018
-13.3129072664266
-12.6869571887455
-10.6194481297427
-9.79137346395355
-7.98715132219427
-1.74657998343851
5.17335002632608
7.01634226915895
5.59070961844037
6.11773228127634
8.32002577911275
8.74827274398707
7.55149598779674
7.1509842566978
8.37138483527158
11.0657990551131
13.7959024208114
13.2139894862036
8.75413047616275
4.68687248879633
3.61572155200753
3.28923393732654
1.70686752408361
-0.241254924310678
-1.52277300090785
-2.90580076887691
-5.23880801735525
-7.55600056990011
-9.21113122386892
-10.4059678013435
-9.54645536965167
-6.14030166027793
-3.03782640566857
-0.965933223118775
1.97820447311838
4.33314184075178
2.87116109679235
-0.961018271188145
-3.08952996231542
-2.91320499814069
-2.3926936885798
-2.59079664149862
-3.53729216139884
-4.16674531252146
-2.61106800664007
0.882432945073787
3.38510675960812
3.12245947779128
1.12473316927107
-1.04362883263722
-3.1141119958114
-5.15076726747273
-5.78777523131088
-3.86483896771437
-0.324073953189455
3.89161028239319
8.00671471348962
9.29443981403363
6.87738981898738
4.78214232389035
5.04848614979646
4.57246627923659
2.36040999915337
0.91739459685125
0.109742996395243
-2.51226724160842
-6.13198235679964
-7.66442101507793
-7.51922861706279
-8.29661960114828
-9.35320505940591
-8.11408697649011
-4.8078826680035
-2.20713883571417
-1.62306440310988
-2.18694831241289
-3.42950881944768
-5.02601675260572
-6.28975216514419
-7.78052420951023
-10.1130832995557
-12.352472943576
-13.2833652584184
-12.5747879496232
-10.1735322006709
-5.56432537656259
0.551966496748737
5.75948891049779
9.02685901558532
11.513769721679
14.2216579621604
17.082886518868
20.0172193191184
22.706665417301
23.8582939535357
23.5639563480359
24.0305268530866
25.5008121502136
25.2037162416467
21.7281846250178
16.5688194154921
11.10215575241
5.9441801895533
1.93113728108424
-1.29656076446428
-4.68015695761124
-7.91839763083216
-11.2501907620489
-15.3551558968277
-18.5048850387831
-18.1439877512091
-14.6561397999821
-11.1258753881572
-9.99646107601126
-10.7954352891416
-12.0728743069461
-13.8032057614116
-14.8348965496327
-13.0244180003165
-9.93244079721952
-8.38277504108211
-8.24597288057899
-9.01056701067455
-10.5261542229239
-11.0830574271247
-9.29617358940226
-6.68419138375396
-5.63054012465469
-5.57836082348376
-4.06523235201683
-0.617489535444483
3.35733044462313
7.49532091817325
12.0859846048934
15.7954283544033
17.3101181626122
17.6230985508929
17.7972992785421
17.7362802740776
18.2383160815342
19.5922246610632
19.8833013373399
17.7831970304911
13.4930689355454
7.2936089470457
0.348136298970485
-4.28728830425058
-4.65988035387811
-3.33357340977047
-3.70151744311877
-4.76347765867116
-3.80281459270404
-1.5619140558157
-0.886817428575024
-2.27689715658666
-4.60187583372332
-7.51158584095375
-9.81585774443908
-10.2025254275788
-10.6112028750376
-12.7560758838311
-14.3613003574744
-13.5971190048525
-11.0366136032151
-6.97051644514906
-2.14552968988177
1.99240631148331
5.44050281367194
8.72529853990034
10.7662498782892
10.2397662833265
8.37775806200161
8.37663912432441
10.8450552026035
12.1018456908494
10.6361527351338
10.142652264776
12.1162498962914
14.2015000384665
16.1157014057188
18.1116623081822
17.5056521131119
12.9943908420925
7.60125710965443
3.77264213206086
0.380817572505325
-3.39569641166683
-6.55239296124305
-8.83413475591666
-10.3478917455276
-10.124204840657
-8.18417976630772
-7.20204076420027
-8.78051637556418
-10.1854948258987
-8.80371375388075
-6.78332189686341
-8.34382412769064
-15.2057812050235
-25.1043730371708
-33.3005958449941
-37.4275191247793
-40.4878934421318
-44.8873260658997
-46.8419491493838
-42.469846115167
-34.7034125884414
-28.8171530730059
-24.9470312250193
-19.5601082682551
-12.2829163235954
-6.40555154898074
-3.2163097552949
-1.2881127021901
0.534882306287555
4.22025429487247
11.7314424244487
21.2932942680642
29.7831122898093
36.0314303436246
38.6239348499501
36.3092895820098
31.4357495405712
27.5769736937632
24.8072220621598
20.9653107258748
15.1631781675181
8.40744830622072
2.92391324908751
0.506304420117023
1.27649450420089
4.5006684830561
9.12861424450436
13.6719146089588
16.3578304937573
16.2249633702019
14.7913509834237
14.8293669557697
16.6128333994315
16.9971320857445
14.0902690434165
10.1815116673449
7.13580152146955
3.93716373589835
0.250162902113421
-2.1328925645122
-1.49876879568242
1.84252453026117
5.98046608530513
8.79386035183649
8.28111337411398
3.85280090864793
-1.62812563773927
-4.17025864749072
-3.11519171071032
-0.218953417070607
3.41862089522151
5.95139339472579
5.14914120198076
1.99938215052811
-1.79087140955833
-7.23138706609741
-15.261431594409
-24.8348711379855
-34.5561066060465
-43.1817502606048
-48.7305351211917
-48.9618855739114
-43.0121702364039
-32.9627727798651
-22.2453141587795
-11.8133908340152
-1.84170732939315
6.08750726964397
11.9054811455067
16.2653983945837
18.2995821028291
18.0627667299214
15.8522736035237
9.55260975036404
-0.872113210067707
-10.8590147023644
-17.4260209889195
-21.29531326398
-23.0583956262316
-22.3184124120186
-18.230067785775
-9.31557277696266
4.7321400075241
21.3130648998955
36.2938709462888
47.0952732929721
54.8004863157297
62.3090765288473
69.9184148311177
75.0961392117562
75.8270291177535
71.4468960349173
62.2846090613361
50.0401657164885
37.0477379256441
25.2056889023008
15.04513484634
4.91476222092723
-6.57936047885366
-16.7307559845361
-21.4267415634559
-21.0543472215958
-19.2418279110184
-18.6234751755976
-20.3612971794599
-24.1184280260568
-28.6180748912387
-32.5961853320815
-34.1175747757889
-32.4009794892262
-29.517789816731
-26.4029471733939
-21.505709400477
-16.3333423437655
-15.3479775526506
-19.3789823358398
-25.5532150073013
-31.0535583991238
-33.6195674098928
-32.5324542187069
-29.7068854180131
-27.5581982320593
-26.7443543277893
-26.271882737448
-24.0738371125338
-17.8302670322983
-7.47544644928683
2.89782066787061
8.62914149355857
10.2438552428263
11.6552569424141
14.0113040047963
16.2922726504925
19.1805271850637
22.3044690747384
21.8402599039119
16.1744619122987
8.10476859211855
0.19069559851133
-6.34025856344464
-10.2177780535102
-11.4048559092044
-11.6413342886248
-11.7771812435678
-10.6432525205494
-8.11145477925461
-5.70127116573214
-3.25844537776056
-0.194923991069522
0.917177874626204
-2.06615526929314
-6.34805243356222
-9.55599530483156
-14.039655047493
-19.8377335042863
-23.3022016166767
-24.5140487032683
-25.0238342747826
-22.5530074139527
-15.442854744774
-6.7267069675105
-0.564059578087295
2.10711111053646
3.7411798117138
7.10339372418379
12.3509648713485
18.4032776995623
24.6143368632158
29.704332672595
33.4741784522421
37.673369032975
41.9395059708311
43.6306450070752
42.485863107804
39.7291776517608
34.9795067335421
28.5585368694008
21.5823415049641
13.458162917162
3.56349723413128
-6.3919326099791
-12.9964913590086
-14.3919255322095
-12.7000215454619
-11.2699224103103
-10.2403767851624
-7.86869402994934
-4.36260350908398
-1.00586782918236
0.781779411552263
-1.08129748782645
-6.25728532660075
-11.4343776423708
-14.8064709073003
-17.4046102717548
-21.4153492257602
-27.4431017326506
-31.5743312471352
-28.9476764180484
-20.7482225470378
-12.3338546270504
-5.69044048951818
0.561660623966965
6.8845152256123
12.7984102780094
18.5309494770462
25.4304144814093
33.743870431386
41.0311867173492
45.649114051001
48.0316440273917
47.5645612993007
44.3938364561079
42.0314373731483
41.4614757308776
38.5804001611321
31.8347303365616
23.6487990987569
14.4439790780388
4.08706410176061
-4.63656795272098
-10.3456983853112
-14.345109522119
-15.390152482855
-11.5952548395871
-5.96786851980907
-2.81237596019917
-1.55427615623892
0.968909312772072
3.69793489084215
2.6578245023139
-1.48069335253493
-5.22485112828026
-9.5686742892059
-16.9540895399086
-24.6920022735437
-29.007199571495
-30.5008887947162
-29.4533409889008
-23.687292239596
-14.514396541361
-6.13961913143069
-0.0879810800332234
4.90639322028696
10.6562741269356
17.6875584257138
24.6598067104515
29.8381280365613
32.1238724626108
31.7839921014883
29.9434370516111
26.9256565925287
22.8433199828008
18.2001367321574
12.1046905367787
3.42509285314356
-6.73387982495091
-18.4184467677557
-34.0265329631998
-52.2019543537458
-66.7851841836575
-75.4621716740124
-83.8906644843271
-95.9163301246892
-106.419806015138
-110.328288530934
-110.810253290019
-113.088910298434
-118.208253076488
-126.114321788963
-136.560568857088
-147.04519982852
-156.242464052288
-165.522497736082
-174.345984955196
-179.375213414857
-177.855850970976
-168.019387581307
-149.609553488322
-126.876746995788
-105.967155840142
-87.3326438411677
-64.6451712952375
-32.6384712673227
6.33459319872903
44.9773421213299
78.5920918208626
107.220975175497
131.218700265624
150.323643620865
166.506767348754
181.345116136826
194.233677602227
205.712580966349
215.785224030682
222.46990660694
225.738192390133
226.781009721154
225.469982794176
222.533710884232
220.272707047668
218.847561918382
214.182157771933
202.357414451685
184.336555554648
163.356408244152
142.364377568653
126.5445172747
119.591158043538
115.399462849006
103.706332427651
83.8480906936394
62.9675014053765
44.165788045559
25.1783743046795
3.44873281145477
-22.4120052055399
-51.7434872676558
-81.6175895217914
-108.161770528181
-126.222541161263
-129.269735557148
-113.576485059496
-84.1381497751435
-52.3378020587786
-23.7737608065777
6.32609580905736
40.0431037242155
67.7933156442432
81.3727177874324
85.1215399298587
85.7382093622701
83.0528409080516
75.1900635437105
61.1235856041123
38.1465599117785
5.64257834284549
-31.989921339378
-69.4022357662491
-102.561689237483
-128.50322564574
-146.929110984913
-159.84036599719
-168.388048255158
-171.92043838778
-169.606570866265
-161.41043531719
-147.84386362244
-132.6524292826
-124.693126640456
-128.673709035688
-137.918308975518
-145.587855120378
-153.509934813084
-162.110513634032
-164.881607024304
-158.799235384848
-147.719702670958
-133.793883843123
-117.469474566766
-103.514584533295
-96.0500320449407
-91.4065285763413
-83.1208214330002
-70.0716698512102
-54.7540912826967
-36.9051062250232
-14.0684816209265
13.6537618906311
44.2225512933122
74.9690878765543
99.6424498298216
112.28225305556
115.505178361667
117.836361843658
126.196522470712
143.545999282697
166.354610052057
185.827215048011
197.819719905123
205.625543064809
211.25103931084
211.454221149333
203.40150774035
191.091465308642
183.272026760558
183.737948815619
187.276502145085
186.308732683125
176.507863985009
156.45788762398
127.491160435306
92.1819534982929
51.3454113424821
6.90849556150941
-35.3128038514768
-70.7393485468541
-98.9077015024649
-120.354402620455
-136.602322142771
-151.988692372962
-170.042300827178
-188.775848489868
-202.915519056626
-209.883272653456
-211.749110273184
-211.547628915318
-211.669947758054
-216.681678937367
-229.023809146462
-242.982900173949
-251.60254237598
-252.295789948048
-244.546431315011
-232.913294442395
-225.516660103302
-224.630061131108
-224.11336024409
-211.277617216435
-173.53108127211
-112.981004245204
-49.7558423644415
-3.87422566017935
21.9545353538084
38.7984979278372
56.3455216819503
74.8211947893045
89.9013361219784
100.317365436018
106.782289320061
107.580369835103
99.8434937938047
83.5560946492281
61.3399277684564
38.1108246782248
24.2955307324848
30.9291361928977
61.4426904689349
112.773199484441
174.224782494541
226.486790763104
253.646237227676
252.933345343684
232.78648439742
207.477472936027
189.022878774
180.940028171725
178.774402941498
175.963469646087
173.403725848863
179.5134627648
195.113956656209
205.83780334742
196.486525635948
167.644193921715
133.693741213192
107.562762995767
90.4913137867257
77.1441429588447
65.8128122157095
57.090255914127
46.7032920644963
27.409910781455
-4.25613448029318
-46.7591500113331
-97.9266132636483
-158.330655302029
-225.479651680981
-287.754815156033
-334.660225804442
-367.796041731509
-390.293556838807
-391.416971728334
-351.694775430473
-262.938081754614
-139.474953530586
-8.29061122018518
108.397326229294
198.460359283936
256.337408219187
284.880096903662
296.778911236962
302.995277237859
303.671631284042
295.3570603387
277.568547267475
253.910908837287
238.253687927144
253.276749580278
309.16462414702
386.719121591928
452.988965479188
490.459770974684
500.229573753998
483.748952855532
436.782267340616
357.269762294578
248.272056866878
118.611568616871
-16.1442513143603
-140.704750771381
-245.257761202767
-322.27763967874
-368.084133586324
-387.178521792674
-389.628737180588
-386.962204746153
-388.811140414534
-398.073062449723
-411.544914687501
-426.757996308986
-442.746332940791
-454.051756746468
-451.924410599994
-434.765782454994
-412.44284867404
-394.285672810082
-374.529356023916
-337.155067686521
-274.662809051627
-195.182300119028
-114.031144104451
-44.2758356872567
10.3954626999984
56.326614899384
97.0269258848063
123.943236279641
125.854964356921
101.276299015536
61.1019338532915
22.1649236798881
-5.40541939636661
-22.8778232653571
-34.8570499911278
-47.8889925120779
-77.1967226049055
-140.321284189656
-241.350657827724
-363.12563894901
-473.174186714511
-547.944214162148
-593.46201026133
-630.192898316028
-667.483836762559
-701.674262290843
-721.229818797431
-711.786793177737
-664.855729514365
-572.748581526355
-424.149381258887
-222.277019784531
2.60602631137623
207.125360706192
359.67540201879
457.13266708368
520.112715477148
574.011061584622
635.4126130127
707.84691170884
783.987305262017
854.590409167314
916.878789609215
972.517723482701
1021.9447157715
1064.2426595252
1096.53349786609
1108.87379430664
1082.88765474405
1006.16588688266
889.364508703141
756.211342809034
619.446239721413
475.632747381356
314.232579910749
130.879819611186
-53.3556074176435
-191.855736035078
-250.362880040723
-241.152917546648
-210.086115161545
-196.886484685407
-210.863077676584
-234.874681016049
-246.578067465817
-238.254030478096
-220.286562450705
-207.925515191821
-205.04045672881
-205.364426757992
-212.128031118005
-242.522810976809
-303.768059940492
-379.33050265715
-444.697351708117
-483.423531300558
-491.019581627293
-477.154151840469
-457.234969116129
-435.41460659102
-404.93544027219
-359.132745082489
-298.48396987823
-244.881495572022
-233.64505338873
-265.988049521566
-300.002002523586
-306.579861371421
-295.41245535514
-271.442765970137
-204.418593936692
-70.7523765143002
101.300471827331
263.078914093057
394.26039695153
491.589935284311
547.866921692116
568.982371292814
580.623529378651
599.33723971798
616.682781116968
617.577668871317
591.201966031032
524.712716164036
413.362707874962
274.98808252842
135.55980217919
6.11307465985653
-113.636239300806
-218.472967879934
-300.051134266232
-361.434193107485
-416.177848275352
-473.744581904747
-531.88640441949
-577.836307631311
-594.196326935078
-575.537214864355
-540.511256761823
-514.65095622645
-503.634203125438
-495.341040058012
-480.809101683565
-458.365911029335
-423.654068195856
-373.047335835167
-312.237875568204
-239.786878143781
-130.602702949597
33.7090307198023
228.006738588504
403.5621411399
528.429525449544
593.252687729782
602.218195863425
572.377007664636
525.74919791533
474.828646858984
424.816379282739
383.137653591338
353.125626388173
330.950285677261
314.288020855931
296.222872095088
256.010236448787
175.129411321175
57.795999737701
-75.3314424562727
-210.29208102153
-350.669387656166
-502.459133854931
-641.753414204852
-702.161650896526
-618.931232268015
-393.72131384782
-98.5496601943824
180.387900251842
384.471214434936
487.346795462083
491.510719123886
422.006455605974
314.15303583921
202.956007749122
116.643515032037
74.0573527737384
78.0814995788122
110.681165506484
150.389111881498
193.209020022731
243.625159925583
293.466520604363
321.774263832755
310.884119265597
257.854808884721
174.060687121346
74.5281727895532
-31.006892163913
-135.656337421989
-236.167624585553
-339.797241634259
-455.758328292448
-580.027660496885
-699.103071892806
-804.049678256044
-897.686647038274
-990.405485450056
-1082.93779298531
-1147.94899997611
-1133.15214433572
-999.558969272206
-762.432971647314
-477.185018716088
-189.530273334909
83.6884252739011
338.121742975093
563.805556317025
744.162409033044
867.894777371971
936.27151220819
955.911791586504
927.84695503558
856.111337491973
764.1531715821
680.94573216222
614.7667614228
558.230925011552
510.385099360436
482.374148160834
481.18654839778
491.229779709626
483.716502490671
441.495000986116
363.504689778221
259.402162144031
150.566958807363
64.8392171903177
20.5414613184909
9.21130259969943
1.96378997844359
-16.8865445915238
-39.8210309767888
-63.2145775268365
-95.9018578485493
-135.663488550898
-164.446502788387
-176.737587768686
-190.350001518364
-217.869761302948
-245.394720816155
-244.002722472376
-190.646555290739
-83.2086047789098
54.4197194829693
176.104167902769
229.665357306759
194.557889669853
102.847403258216
4.38082603118585
-78.6406333547432
-156.405480326817
-252.629507943228
-387.738811698832
-565.775983293237
-770.140005967367
-972.676511469789
-1144.24299445552
-1254.74435459847
-1275.58239238002
-1201.12611629401
-1059.99869112156
-884.446038207106
-681.997215182412
-456.04517445545
-234.057133837487
-56.9477023179465
48.702165819628
88.3116796321966
101.160995665319
132.501385310176
190.694214158348
243.77477765592
263.088313574528
258.09163502513
269.947779951032
336.811670414876
457.41504195482
590.35347314362
697.214821839003
780.813269438314
872.352329246589
982.076895150783
1076.02153549032
1110.85428296632
1078.40830529414
1000.8294554497
893.945755766487
756.336669143636
589.658467863594
409.201315030917
228.84558274705
45.506875747182
-149.548440497101
-340.12558444031
-479.28005606789
-526.875279680151
-486.621229656478
-402.160824913885
-322.639577724866
-270.66789126939
-242.030122112858
-232.58083485353
-247.768787748461
-279.429254513413
-297.643814478878
-277.01682261506
-204.053127699547
-68.6556829933748
105.278456447484
248.247209141834
311.421928195551
311.422844194269
283.963123380425
232.727687806505
147.11529723963
41.8039761121145
-48.2633436560024
-102.036709551499
-124.198161018236
-130.657655021717
-135.897287557763
-148.35488128066
-170.95825833475
-208.050182130672
-262.535794732054
-324.947788885498
-382.922826920882
-442.809359297533
-524.124736249647
-624.437067694195
-701.22778950077
-701.51570547255
-607.481401259583
-445.924116925238
-255.957776911732
-60.5849828323109
123.87907293747
270.377427879653
356.328320559156
381.808490256975
355.283127837208
281.375871303525
172.432960029009
55.192128419971
-40.9348875853908
-106.415947051325
-166.095740451734
-256.952408132632
-383.772639515192
-513.765976837952
-622.534811670758
-718.554771733094
-793.386096874651
-770.754957385132
-562.984509330069
-181.525046549257
259.116269019041
651.119494496779
962.298429400285
1199.33358465481
1358.37767925928
1435.28656347679
1454.39847644811
1451.95861923211
1430.53509000719
1360.47706148015
1231.38645846553
1069.6508839295
904.500783541203
746.817882416296
599.83556322956
469.772132770316
362.448292777518
272.961180608932
182.076448253812
67.1482303594015
-90.574798105305
-310.961070325076
-610.541991167362
-986.282405428137
-1403.98544885692
-1802.2495497502
-2120.76367291964
-2331.22522260946
-2434.06722994992
-2436.71714651468
-2351.64848658569
-2188.83957802144
-1923.80161136469
-1515.37260189314
-981.444934011963
-413.999514295476
89.3141775810385
479.259320878408
757.73267281797
958.444118983281
1123.7323186915
1281.46126357338
1429.94001316226
1546.111852627
1610.59465186211
1620.38677171753
1585.73700306736
1524.26836317528
1450.09231766882
1366.9537148992
1276.18031623035
1179.54480475971
1070.99500620417
939.894279730583
782.627061275741
603.418957897912
410.746523701234
215.771383130412
26.1034814724523
-156.155123680694
-327.611623284324
-481.990320172573
-613.146417467804
-711.395994917822
-756.361355677852
-728.897576737213
-647.287714439307
-574.645885030209
-558.397722143167
-572.058885770062
-548.871555652911
-464.063463641504
-353.703337877042
-260.314210736206
-190.895107474405
-132.119978139312
-84.0275913071367
-65.1917088762197
-92.3233126465487
-167.2695503126
-283.828714697031
-434.801983971394
-607.401231732567
-782.778670318128
-950.197312086517
-1116.88343632029
-1292.6650867568
-1464.26961034179
-1596.75404192172
-1668.58839845808
-1696.66350555328
-1713.85905547789
-1721.99514561352
-1676.48824895374
-1521.97799984829
-1230.55389154854
-803.583389830033
-271.912505273256
288.70098892498
782.812071961362
1163.07996137333
1447.45192028417
1664.52282148511
1816.84429119036
1898.38768918432
1916.99767647411
1891.48500813269
1836.17218042712
1756.41072583184
1664.20342262538
1598.07943500482
1613.58364887225
1730.56174234938
1895.99322408886
2024.18008074627
2064.16745221634
2014.26715174319
1892.22245510193
1709.64021484608
1471.60243111866
1190.96645301675
889.036545695091
576.593410009896
250.803178990323
-79.6303473872241
-384.069349582419
-634.019269826451
-829.870943206111
-1001.37157833232
-1176.11593713425
-1345.09482074443
-1471.77913471658
-1532.8283909737
-1537.49289540721
-1517.09916305017
-1504.59634665316
-1519.33706515559
-1568.18222691219
-1650.62913969356
-1752.00831266961
-1839.44748698222
-1880.29306145759
-1865.65228632621
-1806.16298302362
-1710.2764213059
-1578.13562735888
-1403.23847907197
-1168.32619045876
-864.399327114766
-531.372064918994
-252.40818972487
-85.005839408443
-13.5073458953695
30.3117010507553
121.335564114502
296.959264560323
533.793218355055
776.484224699964
985.931000412631
1155.15554785242
1297.56258899918
1423.99316799303
1525.93943826298
1586.443015702
1598.27452663772
1562.38419794532
1483.33983837968
1372.19307361485
1244.21759221075
1125.94628480258
1071.10888290292
1127.77161198289
1268.8191949552
1398.3892022234
1439.81690897852
1380.38585613484
1239.32522489844
1033.64218837845
773.227361797233
466.960935015098
130.282890319934
-211.059612815667
-528.88437305066
-804.853515595866
-1026.27774063594
-1170.47372090993
-1216.45655885747
-1183.35569014913
-1131.20658275408
-1106.35681732928
-1106.55421783851
-1106.80791674491
-1097.56330427102
-1091.83200204597
-1105.71367460318
-1140.07208334946
-1186.69234328454
-1243.92175507897
-1313.34659136744
-1381.68634178863
-1407.05686163684
-1335.03277349337
-1153.34047060536
-921.278077447967
-718.95605360454
-574.649025884668
-458.900663419035
-341.728559145256
-228.310283095345
-133.528883292002
-46.9510049091646
60.0968992603081
196.281149131277
342.426134980629
487.019536929444
633.051975945767
775.047043548254
912.064572321486
1064.25444967355
1245.13066191873
1437.25241355975
1603.84759800561
1711.76627452359
1749.68416082683
1730.9451782341
1672.10575665241
1570.21017002573
1408.27659217712
1178.611051354
893.075422609251
570.489129979625
221.401969365059
-142.814251013217
-487.364176304035
-758.572452826108
-908.632860353768
-899.101484338261
-708.979776694218
-382.485432412744
-44.2182251374484
179.806139219206
253.310088591448
230.422393315926
181.328628333761
133.207115257849
81.756405413593
33.8568948924855
6.35915809163688
-11.2465996999627
-58.721207415685
-163.465284800936
-315.849903573114
-483.111633453957
-630.545981722901
-732.484053698854
-779.6844689134
-784.707197071772
-770.39822714996
-743.469537779263
-696.631268861975
-647.964211448051
-648.550249731962
-731.527700456686
-873.627840510185
-1013.97656781118
-1098.69906952387
-1106.5030397895
-1035.99410372775
-888.779829211
-683.602306813748
-460.480631627025
-244.717964452109
-28.7780774578438
199.695428673548
436.252838901948
670.264530380356
900.781326626856
1125.21397265616
1316.45958288975
1447.30060176341
1539.03160522271
1641.78885865974
1761.32440440031
1844.8134917457
1842.94395351581
1748.62603512562
1575.4582285383
1334.02010032138
1028.93148656604
662.543448508718
254.946556208923
-138.401665927043
-456.524706522718
-680.190062540133
-828.742887465742
-923.575254827998
-975.271918404382
-988.159948042153
-963.960720573572
-911.62924786131
-838.928288468742
-729.918461022026
-569.079030411885
-385.709690362031
-234.254117008177
-138.399548546733
-84.5619435469835
-60.9733718310398
-71.7793181676873
-105.042563956353
-116.395456185485
-69.9282717031965
20.3764975059372
110.943571992764
178.805750303681
233.303763548895
281.840695182755
302.413541267103
260.746489298289
149.359956296069
7.4130323631189
-97.9718036025925
-130.964135425554
-135.574347854945
-202.372154387381
-384.822670864256
-657.202434526526
-934.457127116987
-1111.93574921115
-1105.89082114412
-903.739500604946
-588.388638829087
-284.397238906162
-69.5486616099785
53.7381383924699
119.111701818396
159.268091125632
202.032973131886
267.074872091621
353.268721628876
438.254310148449
492.735557849777
500.445562796918
468.8260102132
417.438561601547
358.428279957047
286.079852728949
177.965134073868
17.9829303525521
-174.689200714976
-358.25711722333
-508.70703200794
-630.438154616992
-739.291315341133
-850.455119503202
-972.103995007722
-1094.33198119678
-1175.91593502124
-1159.34832363275
-1028.29585920077
-828.412014003422
-607.049937674279
-376.07136865986
-143.409895117697
73.1996082481509
268.084087598442
449.464116598744
616.197039414447
746.504509828626
821.645959166885
851.920172656639
854.307607632305
816.614202296118
715.345627893593
558.459808889204
397.110798685765
303.561094768723
323.620825392083
446.377198941474
631.323271249967
845.798437779322
1067.34758864661
1259.29143456293
1354.12332280182
1297.61242086292
1109.90599001998
856.090065480221
579.659427176222
317.862404582167
136.590469869536
88.4870129878662
163.770999711882
302.892091993952
434.463718138562
507.41973705337
503.197989821755
427.375192799917
311.038969356707
210.626443504955
165.46710588727
157.14142143439
143.008158545426
112.254138464793
76.8157612458065
30.3437300754224
-50.7655547190819
-170.580590347314
-297.279249228199
-397.3557577685
-484.586242563318
-615.524450118924
-825.482879796512
-1076.90381774703
-1286.88160262359
-1409.61874004632
-1465.72178254369
-1482.47329407751
-1446.57920046056
-1339.47480745432
-1187.96097947366
-1042.89172192682
-918.594827670858
-784.275699754005
-612.138905397781
-418.051061678303
-252.775502901999
-148.834526573949
-65.2335456184862
94.9662521421938
370.986818149451
675.868711552271
890.164636213617
980.645188166935
982.55815020182
912.713992541581
750.433531737822
488.833416316849
171.853478269594
-121.265571842326
-320.600583567226
-407.898645634497
-423.200676675284
-414.877972088433
-382.41639805285
-287.849079975296
-122.985251357931
57.1859733801066
181.514810812609
224.576342268025
206.712665919032
158.717621313107
97.8246318303772
21.4000719197471
-70.9912675783751
-147.478289497102
-161.345205718626
-103.824992293058
-16.6371407398397
50.2261642412952
76.240475311029
61.5969078123749
-3.78802103692349
-139.150524341039
-340.082248027618
-562.085150251551
-737.110396583269
-803.089574145646
-728.020559474233
-526.427715054047
-265.792168131717
-45.1897753351725
53.804922253036
10.6330542085236
-112.965846320382
-177.370197037586
-28.3610447819343
383.828407973664
936.382497409838
1418.36310440327
1701.01404384897
1812.71846086859
1852.96932106117
1868.91970952643
1840.17253611201
1749.25110573475
1607.5826918611
1430.91633126954
1237.54060047654
1041.90550900847
827.527678604347
570.5326283895
301.180803974717
100.906912417713
19.1666106862283
12.3545261966487
-13.3567572855059
-111.803119389007
-275.358445596957
-487.453694179515
-755.567326177
-1074.31027211656
-1371.5038763637
-1534.3441218021
-1518.41002699861
-1403.24963526805
-1310.84418982715
-1298.18295870211
-1347.69557940384
-1414.48900114096
-1455.54875988547
-1443.82353510792
-1372.77856671832
-1252.11266518815
-1110.13840499623
-990.531750867788
-926.208522580186
-913.27186819358
-915.882646053783
-889.688798169211
-803.069301852047
-663.115275442969
-520.524347392257
-420.908518522431
-339.071016866369
-158.380653225874
263.712707303663
968.766650553489
1822.52645160681
2580.18259553668
3044.72912856846
3177.65102970084
3067.28846517302
2813.2987221939
2465.92962688099
2052.64635047525
1608.89588734659
1174.8485633133
787.300845950865
473.345885757587
241.519551907363
82.6582361058586
-20.8641276853761
-89.6995256683441
-145.560707674422
-203.81918464967
-267.675584418563
-343.39701775678
-460.425444170899
-654.887006346903
-930.308187301072
-1251.18535320141
-1572.77795115924
-1867.1086876316
-2124.68203470319
-2334.50610193517
-2466.49176476077
-2479.48064537153
-2344.00821692301
-2066.56964427598
-1701.22778202846
-1316.18711440776
-938.756784753529
-553.285637082183
-149.931212211095
246.034483352732
588.671934614397
839.971569001932
981.80944360004
1010.61568060983
938.127671176382
803.447628965088
670.953947924586
598.297439438399
601.041738254815
650.19791979468
702.425140792542
730.120922891337
724.856911381774
688.942875618006
633.355461067857
567.767530624864
492.958982476346
418.158931483233
368.847042009891
356.810162994258
355.088805261462
318.829872951931
235.579993507589
148.628350473771
112.184550278131
135.379355184193
188.908016429951
232.516966307307
233.407176356464
208.897138603377
233.377040160073
353.513043044155
524.431395075072
665.201718072192
747.229995833011
795.166897798664
822.659170702028
810.596585407853
742.257235530735
624.01368716254
483.968760825567
376.236984427991
365.978613548824
475.736483804635
641.231005832917
742.559509588382
693.046355722182
489.574660783104
182.69180336423
-172.982377572176
-532.995045732212
-863.384521689876
-1152.48521227674
-1409.54608502456
-1641.91515690388
-1842.24118476111
-1988.69315364169
-2041.07703778192
-1960.91695447129
-1760.83100407908
-1497.13893713963
-1197.36610562917
-853.26699965155
-486.412822136939
-162.802227303819
44.6308541471048
100.430954560324
51.7906264069434
5.68387400317021
32.7734005053618
115.706448642941
192.853941488775
233.277649038638
258.291953194955
293.729200151912
326.054826556457
323.617017207473
288.068665587654
261.331020498534
272.951211404119
293.554051554617
273.036437159571
232.610834247098
274.947370550901
476.068693497046
789.57922016202
1077.04753746986
1225.98455234429
1218.23997098248
1087.08443708046
852.90816787421
522.502183065787
120.170954498278
-302.640490848294
-684.224746809574
-980.468476589424
-1179.28606960981
-1286.7692648999
-1313.22080840499
-1283.98119283481
-1245.98393360488
-1239.73803466518
-1251.17872790362
-1198.4360310547
-1002.5431538515
-676.701197372645
-303.634270869929
64.4256216034064
430.001193855604
797.490024339308
1141.07716269048
1411.19692730918
1564.82122623087
1599.14905528266
1546.28643502324
1433.55140867991
1267.77260236206
1064.04270397471
863.373455166332
701.148562624658
575.819724979181
466.233114200864
358.413102088086
238.093176966721
93.1923703461942
-40.4577901246166
-77.2328774009497
17.9796863468794
164.143587804249
251.989843918579
259.765719431533
242.924338757447
242.613431686182
236.986050202274
173.144665764955
19.924264144683
-222.501696805603
-528.107139810229
-830.66658981429
-1054.25110977406
-1185.31408405243
-1262.51512748155
-1298.97328430028
-1273.81171087062
-1187.13525857535
-1072.32184862711
-956.570939817172
-837.507785151784
-699.994549376716
-547.481645652601
-409.25785566488
-301.045427066379
-188.431477982254
-10.7287883471255
274.150057285791
668.806883981136
1115.98463085102
1503.58159704489
1744.5552207783
1839.88232427817
1827.30649615645
1711.99411578505
1482.23158649251
1155.66111847458
788.177501846316
451.740008912294
201.233644787454
46.7260910959811
-50.6406587553688
-152.463640448666
-300.551324347468
-490.791510573397
-673.557828287165
-766.835876208615
-698.75161178849
-473.365074723732
-186.330581224067
33.8846186318338
96.2491520750065
-19.2978682640387
-270.342606757083
-592.625326433008
-939.149971516055
-1277.59331940975
-1558.70689172061
-1716.49686909761
-1714.42886919728
-1582.41909283639
-1400.55213187355
-1244.18075522428
-1149.80835772546
-1126.37510742408
-1166.41220498354
-1239.81255820955
-1300.53570206046
-1302.87358184606
-1210.39461030456
-1010.37479792224
-729.188657880595
-417.326754017578
-106.260458167249
210.587523117807
540.991617063328
861.825792087071
1145.1569884534
1382.43168890555
1571.61507629165
1733.402140373
1940.07418652948
2250.9609586328
2618.06621262971
2921.02803815852
3074.11690328254
3055.76744793853
2878.72841204906
2579.17488694744
2217.76202720246
1856.28580299816
1524.98072155477
1226.01246588347
963.790928705075
746.70368779768
561.615266306551
371.378440428596
140.731195835715
-140.407763836173
-446.654087644949
-723.157424525865
-916.550446662401
-1010.75574110542
-1026.63145338238
-997.524231703099
-971.504438267963
-1011.54031036648
-1145.10408624449
-1334.53374352187
-1532.55624547538
-1743.40929388316
-2000.53321358631
-2301.42234347703
-2591.48446133422
-2798.9164126576
-2862.87659092955
-2753.76763826044
-2507.66671804184
-2222.99335261574
-1972.25275402693
-1708.92002179711
-1286.04550189151
-603.479308021515
244.200176448141
1012.73162809133
1518.17477233303
1749.46535188375
1791.53736800781
1719.09617816803
1578.53161555247
1416.49840103637
1270.47879051936
1129.47665455245
946.682347905731
708.828863719831
470.859524377455
306.194072783507
245.237294436747
295.269260586304
474.042924370034
750.750547971311
1008.67491882138
1138.57861602802
1120.12668576343
989.366081492431
787.119642075453
547.597010332016
292.76629218403
27.5478764056229
-249.871024901198
-530.445283033078
-779.317682222477
-958.000139483851
-1082.40272334526
-1219.16663249807
-1394.40967544391
-1529.64579789573
-1475.20797083523
-1106.80785345434
-438.776178840802
325.767380683046
908.345543763242
1159.17044579739
1131.07756711359
969.626386825687
784.075138417459
620.204924270476
493.220001441228
401.140690302272
321.055973090834
224.819908262915
107.869399659236
12.9978361504803
16.4070377224014
154.609010869191
381.615252612743
621.339377032428
827.670293989703
997.372122042764
1160.44430037729
1335.78862002218
1484.17731773524
1537.51313453957
1468.78552008712
1302.86828444029
1071.71329948874
792.521507311342
481.395938049988
159.452274329031
-155.678194598675
-463.522818793001
-783.586727830064
-1124.419000754
-1446.12675773701
-1667.67298554366
-1726.40043544945
-1640.68821224639
-1506.77154514926
-1431.85843447892
-1477.27713263158
-1641.35074583668
-1868.28736629246
-2085.96276446507
-2243.39464663962
-2309.78804564459
-2268.95063813346
-2131.88112688974
-1932.07328643626
-1696.40087690798
-1413.56236143309
-1042.2852902663
-584.111100651305
-111.771657063916
319.376774278171
716.013334000843
1069.6443551497
1331.33426234502
1480.23170210107
1548.95133187245
1599.51759670345
1690.54698464606
1817.40069951686
1897.90191361926
1862.63612237038
1730.52135783349
1571.11673266802
1432.3842965955
1324.54110309112
1243.8859079163
1184.03969109121
1122.77985212899
1021.9409018683
852.107976829983
608.124890855667
315.662967690988
37.4603727858783
-146.383709810723
-185.139044496035
-103.242748072169
-9.83246900584709
-34.088654595266
-212.622834780406
-445.02632142358
-598.43059000455
-661.620222658401
-754.790731433486
-983.448057332977
-1335.80367403566
-1726.01511082074
-2061.86346800266
-2227.93361393937
-2081.2800200517
-1576.72027339138
-862.860230761918
-162.936459294928
392.571434955887
781.437506521521
1027.59861100378
1163.84285151825
1221.84220698543
1232.81395911517
1218.79426996793
1183.05919443161
1122.68075306389
1045.84010331374
963.938450312126
868.812265624927
738.969632856135
578.48457889769
434.572979399923
362.734149308855
370.958714069148
404.485082181494
387.827439002237
270.134598680303
33.9789661646587
-310.487057737238
-712.147186634368
-1067.173807464
-1269.25165576361
-1295.61901781577
-1216.6946578465
-1114.75669533974
-1029.55542511451
-986.494432067718
-1010.28484969743
-1065.64424801421
-1033.34011910742
-801.009590975489
-364.602598411685
166.902945100141
637.775734643736
936.150876934025
1052.93520377021
1047.92696400829
979.825037052072
885.7276947467
788.346277325694
689.296776674964
566.747484973113
400.065029587041
192.96246423295
-35.9965293328099
-272.316780533712
-507.216453336193
-732.521361180295
-942.053241674222
-1139.958125229
-1347.67455169294
-1584.7393580744
-1813.36161265272
-1909.24613073804
-1732.49572289227
-1251.25194694129
-587.952225730641
63.1018037815278
564.324945268425
890.088493529258
1082.38708667719
1181.95278524012
1207.42441692492
1174.27317612263
1096.80938608799
983.087791692672
869.138479737658
827.408259609052
884.038707135094
964.245649386663
970.320032258065
877.11614757564
724.308543311661
560.917406326554
425.650843942506
345.725137779812
315.108996181568
283.228006083929
196.085522438034
51.5193533927951
-101.06515615472
-223.216545971308
-335.860921168032
-470.998302841108
-602.740933751761
-700.793283178061
-813.114145283219
-1001.15236133072
-1221.70837011666
-1354.90368709795
-1336.25154721318
-1201.99123513693
-1022.31087105198
-843.306182555752
-684.266232917509
-554.393507664593
-454.721438757799
-361.017830384163
-225.058061341158
-13.3907342420461
258.951504786677
533.362999129813
738.08380980353
827.344634211249
817.606461943467
796.013637836049
866.019096828492
1046.5230170169
1243.04751551193
1349.56259422278
1348.67011978699
1292.92298803136
1219.96206037592
1107.99428975658
911.536065523072
622.50015911696
283.289332457488
-37.5920080324092
-270.140283179795
-381.336893566522
-403.780600204484
-394.01618518304
-369.040643843822
-307.889710479535
-198.701760147886
-68.8558357707833
34.7603394543421
89.9401730800321
104.795137220015
93.8487401028719
70.3968823964719
41.0431018865625
-4.32337151550492
-79.9772839803722
-187.018759123622
-319.35572104425
-467.397883229585
-611.105783775368
-733.427843067097
-836.057124423738
-928.103537814874
-1009.68900895007
-1058.05647797347
-1033.13957923039
-920.08997404135
-737.263467166993
-500.766608538727
-238.024348315413
-10.7032312805118
136.836491006942
216.473810853548
249.942548855861
232.205317725306
158.231285902678
46.0187223267326
-65.3921658929604
-121.218047159515
-80.8888334294871
43.9081140942549
211.930805920886
410.344960194214
645.184321234975
884.572785150617
1064.82579107166
1142.28452959251
1107.42245878375
971.22066538034
756.653731812561
491.573651158854
206.407099158602
-65.6846624797316
-301.522629122093
-503.72697476601
-692.130294468565
-868.388912784002
-1001.71232436457
-1073.31713637476
-1122.80770447576
-1223.17411058351
-1394.9661774947
-1547.55906154344
-1544.42312665335
-1339.6693145561
-1014.76921838337
-687.624458984675
-425.004886329087
-231.132457620096
-80.0358156117043
45.1649160448461
136.115938001642
184.630560959182
213.258250516721
267.690547572225
378.751662171581
546.810501621496
769.112770545961
1046.77915547856
1354.93345094714
1639.80335870602
1843.8695396152
1923.34807014889
1862.79459866995
1684.59775384901
1432.04655319585
1137.71113108743
817.030232926992
487.799455832309
177.232060682046
-95.1035858082501
-327.443217490116
-519.277067826375
-652.287387544325
-698.391004450726
-654.235296425887
-564.51041404142
-496.893780919037
-491.311469343323
-533.389563774133
-556.943822607825
-469.593504225718
-230.058623826957
81.448458132202
328.051812211766
438.768498019344
420.573028104031
320.921016417709
230.338988498772
243.26741234267
368.892337867124
526.392950487177
637.369921907163
683.927368320649
686.92647956243
666.925029307839
632.336050159679
593.628617856383
575.012069461498
598.283164078043
662.277533720938
741.251298902143
775.471858046494
676.521369410689
389.227273240015
-61.5965004094175
-598.56634451033
-1137.28644835093
-1605.59481524689
-1950.26559884913
-2147.1997363933
-2210.09429174066
-2183.72678710739
-2117.71683186691
-2035.27537271046
-1930.75259212269
-1795.77206105937
-1622.58587529167
-1387.34108059066
-1073.7317578273
-724.801090723647
-439.62884203356
-296.338452556148
-289.895156362128
-351.209750130702
-410.036991305488
-442.840728149768
-479.014927948341
-554.53516217745
-633.285176840389
-575.058645623575
-230.060056048051
402.807749372796
1140.35362687094
1764.71066334556
2184.47672896364
2433.12044936346
2566.91028689741
2616.48289007621
2596.72960635026
2506.97675748994
2335.6213565462
2093.8306341898
1828.68244051024
1584.36587212194
1363.81918276455
1140.3797835032
898.787005162666
656.010553828054
442.042827490399
276.757019530563
184.963727690234
195.112937049437
275.392752738849
317.157459877862
221.916823772826
-27.5843540676924
-380.332255158456
-763.374587330794
-1118.45356829388
-1416.57943820144
-1641.2897120683
-1776.52806840553
-1838.22114076603
-1884.24044308654
-1954.62219011261
-2029.05179328666
-2056.64940345227
-1993.49160631084
-1821.18142025446
-1575.64250997846
-1336.82911989427
-1155.89282912481
-1021.17451517858
-899.596085131606
-776.141170833759
-655.504645977239
-550.632669172864
-473.657583283745
-411.083376153931
-287.791443016308
-7.31356686775282
424.070292831725
878.253556129913
1247.53462848209
1525.84148236328
1738.79596521769
1879.03175037766
1931.45860333051
1917.39732642992
1876.2444325248
1808.66301973858
1675.68076435997
1455.30392878242
1164.95310963986
828.969409288915
453.68713505115
41.4369405905584
-383.70622661104
-773.469916495
-1081.63939302033
-1294.07214861056
-1423.73564761971
-1461.05454063286
-1332.79571542148
-950.226549405044
-338.269526397162
318.062589471107
806.48877941301
1038.6602974296
1057.68336027273
955.6967598595
808.456624328766
648.198800843729
471.051819811601
286.413451099913
151.066715127546
113.860914418923
150.765490752948
203.970552964871
245.392938358685
262.460266165103
233.510076653951
153.749008464674
52.5166508873465
-31.4864305735163
-71.4461211892296
-51.5658288763096
26.0349251915254
124.613493800479
184.620262593707
164.140613298386
61.2861903195659
-96.2753729142258
-279.318785339463
-474.947870875921
-663.623744449265
-794.089947335074
-819.202513186776
-752.416920107113
-659.115483373849
-600.350226232658
-606.021621374029
-678.796532277084
-797.148110968713
-919.793834622135
-989.859570368922
-944.167452455019
-749.514224607851
-445.528743556167
-130.672397351731
116.39782852088
289.340720794915
416.594521488946
501.079321592257
530.480005915599
528.946847710061
546.593887176442
584.38745136295
572.218899579423
450.086223042841
240.473102841884
12.8724954071429
-187.608294850618
-344.735523086404
-443.82485547829
-480.160071326359
-464.248610295295
-383.160928699244
-198.406328508493
85.7640913773692
404.265037795213
692.14644393968
915.032789881785
1052.24195360774
1085.33000499076
1003.0746168253
821.595029332428
593.258979629585
372.482776680389
176.688507591749
1.22388819651407
-127.053449817544
-135.050859155265
33.1145928265211
339.956054824118
655.084537878923
837.236520754128
824.722736597599
654.131564049955
406.193328993488
149.216984071538
-82.3762882780649
-277.783354411417
-427.161638476349
-527.650823495839
-603.524297896055
-682.543727632848
-762.383055181008
-833.990755397505
-913.780750313499
-1012.41052024305
-1087.11354070579
-1063.45935688965
-908.409392340459
-657.271614680632
-364.6764316996
-60.6819201604477
231.455512692195
466.560601756774
596.309004884504
611.620625190166
552.962357838583
480.315544113351
429.100696100228
377.904323409244
265.56819877476
62.255702004689
-187.789912147576
-410.958217265687
-568.599851454381
-666.157406782998
-733.382537537077
-810.370879802383
-924.255489350813
-1064.47543706193
-1189.85849010871
-1257.26816539478
-1238.50612022419
-1113.83747049663
-854.716369179706
-445.968524749955
48.5482843321573
492.455323011222
785.320023260247
919.259834071618
930.93541640983
863.799768030541
768.59449483433
687.812449188744
630.421731307035
564.000764522898
442.020406753614
255.192227459387
41.4785779423545
-151.651251574781
-282.669325835674
-302.590798765698
-160.097142629289
159.645939628856
590.912591206237
999.114000420161
1266.04455159991
1370.36128404727
1379.79507958994
1377.51189596901
1409.17646834364
1466.27206515098
1482.88305161816
1372.43692043477
1092.36155631575
673.867562882605
214.091748203805
-151.013014178262
-322.767775086414
-328.874337735281
-293.854444550194
-305.805885650735
-363.026416310665
-437.986766741714
-527.746945410865
-638.538939410317
-756.177226405186
-848.01817329162
-899.263841457266
-935.489630989565
-987.471923178969
-1047.03731107777
-1090.2814946686
-1128.29315999175
-1195.31032514818
-1302.20334628258
-1427.17376942284
-1530.73215028732
-1571.08296441724
-1526.59635374772
-1408.08574595777
-1238.28093614766
-1028.79536514799
-798.333571821178
-587.532310352285
-423.137665256811
-293.540779520257
-160.79295135088
49.7082756048214
458.763311706862
1146.00096325849
2013.93465637273
2809.89800598571
3322.6178466204
3507.9440541152
3442.27547628171
3235.88882007378
2975.27967597611
2682.01250483192
2331.72090777898
1926.82012822115
1517.59874862578
1153.76554078418
850.978233538249
594.052914695446
350.436380505744
95.4412204699576
-167.722035682339
-418.340691598627
-639.726441424074
-831.297610005788
-1013.42451532784
-1220.05140902633
-1471.5946383678
-1742.85810931264
-1972.28746970863
-2119.08846200347
-2183.71523749071
-2175.3862652961
-2117.14599471
-2061.81698751815
-2033.98928995445
-1983.05840997335
-1847.16820516064
-1629.30925272157
-1372.54768693431
-1108.70039116935
-864.558116229557
-672.667455672406
-551.772720580755
-498.529341851993
-499.093452686489
-532.916598313386
-566.988698335961
-553.813839622623
-443.800538973061
-224.833273725489
55.6533998518263
352.719913809654
698.622281919726
1161.92402677979
1725.98000185819
2247.16866127502
2560.46584302681
2612.95573137422
2478.69254771598
2261.64922319027
2008.97002661949
1715.12127260419
1376.61299534305
1015.95095748109
661.754127777593
328.811062862641
21.8565946221716
-251.263399968757
-476.705676601982
-642.928201674016
-744.573759471316
-782.295428364948
-768.853502357782
-727.303002228677
-677.303050414723
-638.749855636012
-644.72850437055
-711.897333116356
-793.663709658422
-817.057632439746
-783.155458517682
-777.378730725135
-865.682147987561
-1020.38856828459
-1147.98047056664
-1160.08734108359
-1006.94471572966
-668.505841764703
-167.366100977086
403.363528104214
899.945750334434
1201.37097486
1285.07757018563
1226.42074124915
1126.615743329
1057.76332135867
1041.30634824802
1049.75421080295
1047.12097930818
1018.16473334003
951.271528743171
830.494729715448
650.691710967555
418.921565262855
155.533101743247
-95.8026885792463
-292.873502920071
-441.923350962109
-584.330690298413
-741.872277141684
-903.30258087677
-1027.94149868105
-1042.39444031079
-879.484849546395
-539.527277112112
-109.743835001097
269.949234630934
489.145561700208
539.768527253792
491.706375619399
411.740558759028
325.252161681195
222.281709139532
78.4166297298502
-114.777687923878
-329.066828293737
-492.210469294431
-498.011548903266
-280.213487068387
96.3196540772907
474.929253980111
749.735759578421
922.621239313216
1035.6650979747
1099.21630998029
1090.41492597808
996.726364218823
840.736462792202
656.643865155181
455.45332380701
232.380390409933
2.32835128267698
-194.528327539417
-325.389444414271
-397.465419195972
-456.595515696118
-546.796698318472
-670.144877687218
-789.924993824734
-868.20835950246
-899.175185228215
-908.4016515673
-921.848056633857
-946.064345998965
-977.260545643681
-1010.40671451889
-1037.37057166235
-1052.54834350177
-1070.39274009848
-1130.23907429755
-1249.18243008049
-1351.32671410357
-1292.61005502513
-998.676266968489
-545.739742032673
-81.2974621246329
295.50194243089
557.564885484309
701.300194422971
722.740941862055
639.286655423681
497.704723897684
345.67060852495
208.492627504215
96.820244041894
19.3787154531144
-23.115364850812
-35.4429801116568
-5.93958900468841
98.4606036821025
315.56481574766
655.448849333099
1054.21405098279
1384.42322004337
1552.14026032443
1562.47981135129
1474.85861624822
1335.59817888778
1171.33768016498
1006.38148615463
856.889674126285
717.530270905712
560.74902008893
344.252359544827
31.5935685008123
-368.57879134307
-783.190263104571
-1115.4742324807
-1316.23023781775
-1411.42677791943
-1451.44902159086
-1442.69648643209
-1352.94473294983
-1171.32224571811
-921.889171311771
-623.223283920371
-270.811100605042
120.216928362009
466.023846936171
662.699217894997
692.470167823762
631.595401032894
564.415122187537
527.410510216902
515.988941192855
508.463973990148
485.934216799662
447.014851464562
402.394529488107
361.693564665091
339.480217873189
352.685893897816
393.346989636268
432.639040074118
465.519465441489
517.417180993512
601.431722543812
710.448998790257
842.838488095551
980.183003952185
1050.8867187544
971.167449699039
726.246852023427
382.631184170652
21.8933822302113
-312.001366193529
-604.185759933652
-841.838895785683
-1010.61729897354
-1100.15605327167
-1102.32520341252
-1029.58441623865
-928.125974083615
-825.292182480985
-691.653840943505
-504.347841120955
-300.969893542085
-129.785602982986
7.25521439104599
127.331386470697
220.317097264759
258.985417772057
228.339104192964
131.062937252548
-17.6114987123843
-196.581372450063
-383.512508054913
-547.510258483887
-655.432125433049
-705.993744950375
-727.487504964641
-731.320676319572
-708.421001625053
-664.494117963091
-623.189900786247
-604.667626181555
-616.68200990152
-662.519739640773
-746.816247561887
-860.233996940095
-969.817175876853
-1038.91226422531
-1037.99592379735
-939.198562871787
-737.49108664007
-468.122665563189
-175.678039071668
111.253409463465
367.12880189733
569.513012022004
731.600586362451
914.964897959981
1178.38990328859
1508.91154832899
1824.33535196975
2040.06081404508
2109.46342287283
2021.73313442431
1806.57103211653
1533.57052734148
1278.31581874866
1084.41334095135
951.280101840405
845.741540745303
724.246639589633
550.627124905958
306.621694494367
8.62170687106217
-278.523175187279
-470.977864122944
-534.194946058629
-514.024871783235
-488.289891906179
-498.755813584383
-536.780377564196
-580.470073740274
-632.307320232171
-713.285850533914
-821.253122985067
-907.30257129956
-911.440766593437
-837.962575948237
-771.108603382524
-782.635185783712
-852.4584520464
-904.994620280493
-890.922040899551
-807.848176436375
-668.151761348142
-491.881524737376
-318.343207897447
-180.903306674511
-80.7784853658002
-1.65022821934607
73.5991759426983
162.814243268287
279.273875013289
422.859866303592
576.505744265712
709.640577635594
795.002244938123
820.835060851604
786.759570468169
711.857280466449
651.192778857806
681.733370360676
844.835596806952
1081.46645073509
1250.89568853211
1249.56103226638
1083.17581633808
809.038077390709
471.244962510346
121.15118009761
-162.652776707365
-324.353771046923
-372.603313699362
-351.920845137406
-302.311206076675
-254.259645870554
-228.134724066084
-219.879256942423
-209.594960413086
-200.192729210114
-216.535095866315
-252.758054470019
-274.867671640822
-293.491493685351
-368.779383785516
-521.973383477729
-698.076638639868
-830.877523059532
-901.332574216429
-919.942074708695
-880.512196899128
-763.098278133599
-595.125901896334
-470.728722017142
-470.081821543607
-583.148100992065
-727.443047059038
-810.170082061817
-767.965937037121
-575.853243115534
-255.824952317942
104.587002811235
388.713868683433
539.833577407663
575.600882087149
527.954955188507
436.204517192528
374.268938441644
407.591821352568
525.235379495851
651.581559766657
710.392002835123
674.749206637608
585.033924324735
507.786948260581
467.172200409927
436.037302869607
383.33013267698
319.562275272636
300.589356854995
362.363540738499
459.659471987252
519.691745976854
525.773965982125
496.113168460509
430.720093857587
318.350091851537
163.467826579209
-5.0316985359779
-143.641982130931
-219.110282074993
-230.368426549404
-202.032024548624
-155.986398973481
-103.106307780849
-56.1876668375255
-26.9950630125353
-19.8435971422017
-48.639048566878
-143.297232753026
-314.250101056376
-523.698624197749
-716.057482138038
-870.423164840732
-1010.04249021222
-1163.729144487
-1321.35565307101
-1437.70754160504
-1481.79576240852
-1440.30584787854
-1270.66719039802
-929.610236821073
-461.741706308991
13.0692650224726
400.596909281817
670.162061676185
825.99217575196
893.942562527157
915.902673819686
927.881108556261
947.69329797356
979.644860298323
1014.87108606735
1033.35763173616
1020.80766633383
986.771193051386
961.562164116287
960.054904631986
948.226967426881
868.653904810262
705.128669034525
496.530164384377
272.822304869402
15.812133101182
-295.607274550078
-649.039884851783
-1026.36065624799
-1424.90389121905
-1825.29045122845
-2154.11382807581
-2301.79175624165
-2190.04399317881
-1834.48262036111
-1342.38891274524
-838.615985877595
-393.965250474074
-12.3047214254944
336.952047321639
673.934653365654
989.217719787256
1257.16612173929
1448.35609701878
1539.0500619981
1533.30968150697
1471.80537405533
1403.43915569028
1354.4393640404
1331.68302772261
1333.71911047311
1342.44203756142
1322.28197368491
1241.00793989102
1083.41210975919
851.163072978802
570.148291908658
287.402943235337
34.4886461095252
-196.771890251681
-436.803254784997
-721.706493522184
-1081.99924133675
-1513.53008760318
-1962.49204868866
-2333.21687227065
-2494.42775974491
-2327.07982546967
-1833.34509867905
-1175.08047796779
-552.623879678502
-72.5675341775037
247.45334339483
417.622119188266
468.618315033088
460.378674442802
451.805100281217
465.36705855955
491.200669618032
513.5299990113
521.280650858997
507.523785715545
480.609059959932
469.296843133971
501.337780218069
579.512738561903
676.589287034291
743.439430685657
738.989406500952
673.647948882924
592.865530194202
506.044888631144
380.098225352162
191.471307015589
-62.318717419486
-367.50199463522
-676.045890758085
-920.670326859967
-1066.73209254076
-1119.02019214508
-1079.7623797515
-947.027367938344
-755.551454996423
-570.956140838791
-446.543636203585
-409.682185815799
-458.253301218111
-555.745807035567
-657.354922428062
-743.202349581108
-824.637258947266
-925.528599156747
-1044.48154478064
-1124.17235609124
-1073.55430408319
-855.874806405119
-548.713421876332
-269.327510263438
-60.7438227306193
111.867526846813
295.073709705741
501.813670994064
707.444520956864
882.247515155913
1021.690171787
1142.61902465572
1258.47050983901
1362.21682546113
1443.78906531521
1517.26919297348
1596.51417297136
1652.24370012969
1640.62858108307
1568.26949711
1487.25260696066
1433.13165434543
1398.93961818733
1355.2123463356
1260.36176687294
1063.52953790193
737.331272811879
315.435279237337
-123.856291001624
-515.593386008722
-834.694308758847
-1079.60550918486
-1264.39380425029
-1417.07237978813
-1548.97347035509
-1629.13954957331
-1615.3556728494
-1505.45840956322
-1342.71038137229
-1180.55539120175
-1044.47661164653
-911.171095245009
-727.193487056548
-464.991802085171
-158.06462737644
129.612896835808
354.243153665855
502.579509086743
579.406773386146
599.357352508094
576.910754939438
519.240163132466
428.129438509321
306.778563213011
168.273439366528
34.3452096964178
-80.8383080027893
-180.510825873924
-270.219238519481
-341.837598258102
-389.329914993838
-422.846678203834
-443.900972144726
-434.365322422513
-388.967073961434
-328.856955484201
-276.347451298811
-243.790354394638
-244.010586722754
-282.228165065293
-342.960259395072
-409.220205809423
-483.941755026994
-572.46506447868
-656.594396154959
-710.958809813068
-741.627099663759
-779.645634434069
-836.061426224306
-890.519752063896
-918.790032121839
-899.464295793419
-788.129743148927
-530.903636449443
-142.32249952523
275.623248299039
633.675600026269
920.178094438887
1145.10607636692
1296.6356897752
1379.59569695651
1435.1054962708
1495.59389581635
1555.92393607066
1600.72698349478
1626.56129203035
1629.18089901082
1604.29023479629
1568.37269104385
1544.64088128202
1527.98766225391
1499.90605310284
1471.29724483588
1474.41994284828
1517.48286904432
1566.89005640009
1558.20232005327
1413.62594857427
1082.03581255536
585.799790433486
6.41152146525652
-586.289636366561
-1165.69775202896
-1709.73472408047
-2172.84207436524
-2521.35454567957
-2761.78874504129
-2901.73531335706
-2917.53448744345
-2782.54776407898
-2496.24802176262
-2086.02537448137
-1613.11005893945
-1173.66366727933
-852.955723436604
-659.380171833803
-532.978585745601
-422.946332535323
-321.372560830752
-234.599742308953
-158.802926344431
-75.2948509109093
35.1571155689124
162.335444505138
272.358294070318
355.180256045896
445.259432585304
591.300249349923
804.101287434245
1029.75561784133
1194.85668858323
1278.58053882729
1315.60505494107
1338.30387862888
1341.95190459612
1301.90641308889
1200.62891992112
1031.21669594418
796.386111945351
520.003915634681
252.72457896035
47.9929800890449
-74.3396183934455
-122.148794715277
-94.5385616642954
11.4883400883254
166.179745894282
318.572674012615
432.78741375647
491.472142549447
484.26754376672
400.432552632518
225.648578864343
-35.6049637799971
-337.215874965579
-619.419504897935
-854.400545438618
-1041.05249342516
-1174.2394438702
-1253.39197236056
-1300.54783344861
-1341.46124437536
-1380.36051712198
-1392.60799775424
-1330.44694419374
-1154.25616946198
-882.348258249492
-597.672492835875
-385.042956472032
-270.86319044025
-226.827398423849
-212.462542320914
-208.118275089948
-222.158507955127
-270.69570020933
-343.157914137594
-398.841439754067
-401.990852364074
-334.27728284968
-165.903626305969
147.146505318637
606.068674449824
1127.78902298316
1591.08309996272
1918.70839954711
2104.21274631622
2175.94412957258
2152.56934256915
2035.72067168863
1829.93576335515
1552.07192800008
1231.49232218454
905.835421679928
602.310264604071
337.205265818207
136.580790015316
8.44930470206426
-104.516075561011
-273.516105200407
-477.916519631853
-613.999156722649
-621.625816753308
-554.028811436646
-509.777621514081
-537.915449115586
-626.894260574317
-757.830478854104
-934.192544654029
-1146.87014907812
-1336.72086163773
-1424.8082167053
-1374.91364949981
-1209.52720953581
-980.44124337874
-745.495070852666
-549.350617010388
-392.323333898353
-230.714609574881
-27.6141678775306
204.869145709148
413.310320793398
544.147155002839
581.285998439209
542.885188911313
448.524250500762
309.007998325156
142.451134319343
-20.8602325714722
-155.228263063326
-257.634881173534
-339.122894678792
-394.298396746472
-396.554251741811
-339.818834086066
-277.688290083731
-294.468054526703
-424.887838574524
-606.955736662478
-713.331975032368
-648.116831986255
-427.789080107977
-148.983775858385
112.108284529755
337.36579638143
525.444935813241
665.844153324268
762.170206360992
843.340098620421
936.373423686151
1035.76943677333
1106.68465710541
1125.5035469295
1104.40227517175
1065.49631928094
1007.16002281908
907.763510764734
757.763026482625
579.390790315656
415.47974262579
306.399948702448
266.514277753138
261.991781604906
217.755764164443
70.5846311248953
-172.862049509136
-434.030402476901
-627.716995205666
-731.076008424502
-779.721083654067
-808.21677270079
-822.121706590307
-816.592042090444
-789.298330393247
-738.380636812638
-661.03538424358
-552.826753423215
-407.961149904924
-215.009846532007
40.4083478840096
351.089267598952
675.11850798251
956.748769511987
1150.00033140374
1226.43854365727
1175.84830959554
1001.69221986772
721.009907789919
369.777393977009
-8.83360133241162
-376.088248416089
-684.738062070226
-881.393893017187
-943.272540505007
-895.919626648147
-782.532289242968
-627.907528416197
-440.721637669125
-240.79276885759
-63.2776970149409
72.844420821537
179.172629547185
266.84373375954
319.426673490179
310.866505871412
242.460643682545
150.338872586669
77.8165545296774
49.8334098872951
67.107030486829
106.230169676737
132.416800363277
131.080020169906
121.271899054946
131.609427289686
172.950875145487
236.480811367517
308.355161480313
375.639621706074
407.758017754299
341.870727499039
121.966298093771
-238.883377576657
-657.338282160499
-1039.66023925456
-1336.35573012899
-1546.94030964801
-1680.06409466427
-1727.75625675072
-1677.04736616831
-1521.04134090843
-1267.13999951973
-946.056057525946
-594.03870564407
-229.837074253316
133.119594052033
469.242992750773
754.650808637416
982.85564764595
1157.02123391669
1278.47582397181
1343.39320610603
1347.5099904577
1298.68095177717
1217.29554593357
1114.5953590455
986.132325731545
840.311680349413
706.285225087128
592.55905437053
471.269330746443
326.624904168566
183.120116727151
61.2601069243895
-63.5504220382342
-235.855892860812
-470.163444358051
-729.515872035471
-947.189266304124
-1076.13900644463
-1116.97332581897
-1098.32924608632
-1038.89010330711
-932.738447091848
-773.879438492117
-583.18927509736
-395.136707390593
-231.15939493034
-99.1813299910818
-3.75666410113013
53.0329131062043
69.7872778522007
43.7193624527973
-20.3082188088391
-107.217461981155
-202.110950651216
-287.318927256496
-333.435111728466
-314.008973713712
-228.91868523544
-105.271505559098
22.846925220487
138.91195441177
247.94899879172
351.473374508924
435.383159441755
491.489552534598
534.865196115243
595.270508982324
688.028208728345
791.425999868158
869.303155709382
913.179232840098
947.783200206836
998.791692128499
1064.22716215136
1116.31259715592
1111.45989235993
1001.73977597391
774.375217047308
485.669687938296
231.855435511812
81.2279533166309
38.5448496343864
68.7703590523218
136.161521801195
212.556128184346
276.749283972236
320.620846008441
333.744426298412
280.688143209212
117.349412939271
-163.270799806705
-519.502837671554
-902.242922120833
-1283.36107021945
-1637.74284666716
-1931.13336193422
-2134.77270404497
-2231.66119131831
-2208.16224189711
-2055.70596733826
-1789.67099834969
-1452.67871793681
-1089.29002787321
-734.996937520685
-420.268905216009
-149.888754652931
106.756814765541
371.431603249827
623.088233270096
828.181079582339
976.222442317546
1070.22407997405
1111.48535196973
1111.39248417542
1096.58154087159
1089.30804753459
1099.2642776992
1138.66301457683
1224.99090398897
1358.54723349856
1513.22107673003
1654.14783546826
1741.89079431953
1732.08954563968
1604.70874072951
1374.53183549669
1053.50471156999
635.297097264025
129.325903827714
-420.60531354923
-948.769224333953
-1376.381323737
-1631.32241633259
-1684.16146430624
-1561.09318412302
-1327.61939224194
-1065.25038688012
-846.376361226914
-710.705070309794
-654.756037916246
-642.132154719387
-630.556437687616
-593.906726821783
-524.641286128264
-429.197932257128
-325.332633228054
-234.676387273418
-168.093828782602
-116.599761856643
-66.3756544076685
-18.7314995821312
24.1295206102957
82.8619926846875
182.075477284533
309.67654451591
413.327390070763
439.146963253232
370.942296560242
236.728550030126
78.8303953573842
-80.7293836317555
-240.619319732596
-395.996715167059
-527.864028682837
-615.959307774082
-655.570869451651
-657.66893637832
-633.90470546043
-584.176707425365
-504.186431532456
-407.059828165447
-323.568933940392
-268.866511780365
-219.714253808299
-142.487277190115
-33.4038760474539
82.6666984360486
176.82389382148
236.321145043699
271.357612974137
299.251604656944
329.117116495889
365.790168679865
412.478004139301
463.755568832367
502.680840860737
512.427381956041
499.532044845139
503.606499140606
569.719475307795
699.130016531243
834.087411286817
908.143186549456
905.022772994778
855.729322109209
792.493847110572
718.12032497248
611.471703385813
455.310680083013
258.365556515861
50.7280692243711
-134.12924657064
-268.546275809366
-340.527284752149
-368.536751379419
-391.366365436663
-427.609952615091
-456.225074577317
-449.682115041207
-408.961600577446
-354.760553582632
-303.587341846663
-257.51850022791
-205.501578445863
-137.303853302033
-61.4443506327845
-2.45049358058867
27.8572617316702
52.3548476729827
107.620976179455
199.472779525215
295.919586994065
361.899244663407
382.759078631886
361.651239178698
314.636180091581
270.694356461653
258.14660320725
274.375524377579
281.887884136914
246.315836099224
167.268781763507
71.680879403922
-13.573808162436
-82.7210117598588
-148.018626652035
-220.237016771183
-303.551480196594
-412.227017690533
-573.21652105081
-800.599332531306
-1077.58554796383
-1369.41407611252
-1645.68142480401
-1884.1289321315
-2061.16006935129
-2147.86722603702
-2112.52774873737
-1930.63693175531
-1611.58676743631
-1220.0610750435
-848.073353544169
-552.279766674863
-321.677649961174
-101.880005195423
149.955721226252
427.646042248214
691.44446273633
917.620699140263
1123.19024148147
1338.21770561109
1567.96073656251
1792.88801979664
1995.11762363451
2173.08290838284
2330.42517380284
2452.68629005226
2499.33212462779
2427.22728831144
2218.45533826006
1878.54369098316
1422.83116431921
884.389312825238
333.419227489807
-130.510325709065
-426.92129345979
-543.340900109874
-537.078023460065
-492.613772073927
-465.019568007587
-453.831155764811
-438.213314840188
-415.588225580193
-382.939856869455
-318.90790024054
-216.057296230244
-100.51993590149
-2.76306987534737
74.1540978364144
154.406158833268
263.395862872397
404.021464459251
549.013714221974
640.742162218398
613.909214391418
445.80715703268
183.182714616059
-92.090739991823
-331.562917008805
-553.85196570314
-794.862754828901
-1036.95518203063
-1230.22205299406
-1369.22678582169
-1493.84891802912
-1628.41188457554
-1762.72561823188
-1875.94342579075
-1948.38005992784
-1962.99285668062
-1919.99207863248
-1844.04532070968
-1760.30210516553
-1670.67524067437
-1564.45312312224
-1440.0325659225
-1306.0050607044
-1171.87147156753
-1043.6934765689
-914.450206255409
-750.868510785577
-502.818795910275
-138.440951176447
327.094426296213
836.436784277946
1321.83293966275
1735.53590416433
2059.5438743983
2295.98598180292
2455.81911641931
2559.35969475702
2637.40561810802
2714.6261683565
2786.44295930027
2822.75618839439
2798.29305354579
2709.49285895864
2562.35237558105
2360.13853623767
2106.01501649398
1803.89083041546
1458.67948893619
1082.7159875364
690.301011551169
287.237461303761
-116.497664181556
-495.177462949405
-831.781318497004
-1133.0855607549
-1396.52160324034
-1590.16453485337
-1686.14844325453
-1693.52347636117
-1644.2601766079
-1559.4574074445
-1446.1620406261
-1316.69128179864
-1187.86549345229
-1066.50725624714
-952.195872916247
-848.428617981766
-761.012248040932
-692.682112857233
-647.599635189646
-635.176156474384
-655.463301580377
-681.800558947081
-678.614360620247
-640.790707088784
-594.952677793925
-562.947370159048
-543.913600945523
-522.933619716554
-485.816037058857
-431.297141305429
-364.535612800787
-284.264416559636
-187.526307168524
-76.9910334746163
41.6604076741762
162.640953232268
281.368754996697
395.466528406612
500.844698470689
585.536889603751
635.244499297212
648.843403181542
641.068696154621
630.011378943323
621.982394453581
600.742001507251
537.714379636899
423.07611236428
277.351336908686
119.302675417131
-59.4098696795027
-258.920739916494
-430.199288907069
-511.074481337817
-498.096891352786
-449.97388231202
-419.220730076111
-406.64161987355
-384.940733435413
-341.025498512111
-282.757188903104
-216.552316190582
-134.199863695878
-23.9396113254017
113.685570600105
268.20661755798
436.78449514571
626.342634044714
830.965165105336
1022.22068383625
1167.15089852463
1243.80697536006
1243.1946813447
1163.78717890338
1001.71696531204
754.599134638941
445.765637226337
133.215265779269
-122.188667302666
-294.781298985184
-399.310701265262
-468.507597898836
-527.398469806225
-577.233567447376
-590.840446428941
-535.841152214053
-416.988877468903
-276.870829784211
-152.565453344869
-55.732630435049
16.847471756261
77.8785284959777
139.860397778015
199.085186473294
247.078147538315
294.395304248004
355.633750898305
420.297439917474
464.300458114183
474.669822809361
452.365013960552
405.655144280135
336.40926222166
232.991831705965
86.0677318596832
-100.778124661616
-324.300228090869
-591.273170863296
-893.101662626741
-1173.97959895841
-1356.08221280713
-1399.09598647918
-1317.77969290504
-1152.13247372287
-933.419240481462
-675.168664498124
-389.458372077314
-103.688347360909
142.320625883342
319.48911515395
427.639454431074
481.041457800339
488.052337548814
455.482898419643
395.028058042046
316.720973687376
224.445313564243
122.197218173741
24.6444208767797
-38.043294032543
-32.6433578681012
43.1455169271378
140.55104656075
192.656979898468
170.207680677735
100.082585236687
29.4432402031909
-25.9240097186763
-84.7807449240205
-156.777819098601
-225.015091612807
-269.170827225291
-273.740681396252
-218.038874678914
-92.7774367431149
80.9454399634266
276.262804720442
481.870102870459
683.658294054554
861.970363481779
1013.38244361668
1143.25796627451
1244.04481543154
1297.67496580227
1287.38944974962
1209.84329415462
1082.97345931307
929.58099048782
757.36793867894
566.528902748171
361.137852185931
145.425231307491
-75.6232707786706
-292.566239826003
-497.892175196023
-689.553041801442
-865.838171145517
-1025.53848995667
-1171.0956324905
-1301.47496917721
-1399.82409304863
-1434.1300023208
-1379.40150427668
-1239.25721120813
-1039.04728867025
-807.926628169632
-575.175947116757
-367.814131796885
-199.12963479026
-63.0831781366556
52.3630221965891
148.312220182973
217.397374354429
256.179126102045
268.675326221624
261.589899417466
238.545520220342
197.262930237619
132.643418652706
46.7355726174244
-47.5430219716353
-139.990553603108
-234.135087746089
-335.169598937747
-435.517781279263
-523.870950747402
-598.08341863783
-657.745934432015
-695.33555764501
-705.651572998629
-697.371984888715
-685.523966651367
-671.760116571431
-637.548366462139
-560.71159889535
-436.724074629618
-277.030269203407
-89.3211612688507
124.010963857413
348.489021196228
559.700151743825
744.373345897814
903.500247124901
1037.07881821014
1141.02489205335
1219.67801479154
1289.05487701376
1363.91128545443
1443.92964149878
1508.51100777026
1529.47686154865
1496.07321000852
1417.18611103759
1295.41628616482
1112.56571861862
848.194285405709
511.293725437578
147.418987788334
-193.629807353488
-492.691838343795
-754.156842981262
-970.31233504125
-1106.23533372733
-1125.95080711652
-1033.72465542857
-881.325622668671
-725.3412930966
-585.460628411266
-449.626553552254
-303.12478205828
-145.85544252032
7.89717578509155
139.089964048273
230.586052639631
268.572165431035
245.728443218223
165.685185898565
42.4152826379286
-107.495223511467
-273.577510116541
-453.212098640552
-642.511209424587
-823.903386077842
-969.484681502094
-1060.06424777012
-1095.05963250688
-1085.04002256571
-1039.89204103012
-961.980317964856
-848.512934604365
-702.083972118415
-537.896384463546
-370.895180686364
-193.604876311422
16.1523696048733
264.989353024635
538.488087907992
817.305483339274
1082.77418695464
1316.03583663101
1503.79246134771
1641.97848512611
1729.56728479131
1761.47048629602
1732.65600959808
1651.67567796264
1544.20997685407
1433.8154649625
1321.37947205895
1189.18810326729
1014.48470544209
767.788767694543
415.664952210316
-43.9005442410656
-550.760113835027
-1007.84710817973
-1332.77452971973
-1485.91819077477
-1474.77411168938
-1340.47522609036
-1133.55473573901
-902.035610310549
-691.183503214921
-535.189919701573
-445.360886402894
-414.001528742585
-431.070480397646
-487.872043602258
-563.773328910059
-624.911209524033
-641.326169580494
-600.51666309058
-513.614179178567
-413.565321123654
-331.318868842311
-267.121079739612
-196.558583392271
-107.46913639072
-17.7175189314726
51.6208216065576
104.783162885478
157.529422115438
209.731101986156
249.573693964131
274.690342102169
292.910988487889
309.732286380212
326.247417337413
337.851785935695
328.195533962602
280.122880762267
198.128194230299
108.831380864636
37.5212722201045
-9.77041887837114
-42.0717800828666
-69.7997642095475
-99.5165577215935
-134.004215623305
-174.7371706987
-229.022583792516
-302.318815085789
-377.637235796082
-423.043990152606
-424.568577325975
-400.457233050601
-388.362402975426
-417.214687567979
-476.628220887601
-518.110600220416
-497.12107932529
-408.864910726401
-280.569733098381
-142.206918583436
-13.6509393147878
90.9660005467066
161.32138056351
197.282819039762
215.776275037773
246.377393532046
312.775569154577
416.747978365068
544.235577387472
684.397880814773
828.900185441085
953.974572454862
1032.97916064664
1071.44721921996
1095.5471996916
1109.89383048216
1100.96669248454
1069.24379133855
1029.85384336219
989.139566858764
934.829605787136
850.268321770786
731.951795353077
586.780434868867
415.83973482351
208.871886069701
-38.3984635041256
-301.172618413734
-535.674485727003
-718.539087051452
-856.12648176567
-954.543623692697
-1007.97580389328
-1014.43970578319
-978.500853943024
-903.161672088184
-796.336528156207
-677.945238611514
-567.463042312356
-471.907926815313
-393.043000550235
-335.507209698583
-301.892167336217
-286.597936530104
-278.597633213959
-269.478771318408
-258.750906663885
-253.363296882565
-260.732104391438
-278.731862377694
-295.509900308638
-300.339279919095
-289.917264297244
-266.673675256673
-235.162925634939
-196.816812124283
-148.050251968459
-85.5692777637705
-12.0705072474611
63.7043002147535
131.94789089035
187.574903576764
232.437952247725
271.289204469967
305.879217328962
332.625467833176
343.536086435751
334.540568448597
312.997909182446
288.285721523524
261.428630138911
231.916310799047
204.625304445137
183.919932440821
169.353023838186
158.964265012168
150.515142636556
140.735529878415
126.027918176979
104.98647986736
81.5524354217818
62.1987691203794
48.9616871970323
37.406863827248
22.4203070870332
5.6035727098542
-8.98797765257974
-27.2233110464155
-61.3612328116103
-111.616460987984
-162.981467719176
-199.793405541162
-215.804089655225
-216.320117382615
-213.362970809406
-212.142447112061
-203.940606557165
-177.137853576157
-131.437496958956
-76.4813760001497
-22.4349715965579
23.9329064370001
61.1340685541895
93.3024052882163
125.84293937663
159.427122516915
187.966225666427
206.864195162931
220.355658593359
233.184339365323
243.321788783539
249.257383474344
252.159507581363
247.779371881795
228.138258353114
190.524086071594
138.690555003681
80.854757016744
28.3830899442673
-10.9250738334029
-38.2746601241242
-59.0733054338226
-76.521279127063
-92.0603499022518
-107.569251736964
-123.24009861703
-137.172492417293
-152.194602519395
-175.59450303459
-206.288275779419
-233.258374476273
-249.297877733039
-254.313160910428
-247.736441234856
-228.799443986128
-201.092088198637
-169.330824404492
-133.417327301157
-91.3730861421738
-46.2180750268473
-4.29934240817849
31.4085255645615
63.3523670500962
95.1729136079454
126.917403113141
156.212034768451
181.026958478183
200.274452361128
213.782102603802
218.520736927058
209.08302588449
187.802405415627
164.911238978756
145.562657825459
127.116506467955
106.531217586919
81.6484851039766
50.568164883137
15.0924673974451
-18.91365559614
-46.4902947744997
-66.768937689677
-80.2432951160831
-85.9774866091514
-84.2925789147417
-78.5529715221089
-73.471531691808
-75.9597557009454
-91.4133775446193
-114.155144893559
-131.148632723835
-136.933105742684
-136.104198276433
-133.555791131288
-129.95622324439
-123.009195958765
-109.224009579707
-88.8609829537184
-67.2668451149019
-46.3664429341869
-20.5716058420354
14.4589840721968
54.3684813917829
90.9602901533496
121.009521927187
145.406156337366
162.485500082279
169.686436415307
169.773686677071
168.176475192352
166.073290542308
161.237963187856
152.062675927534
136.773481028568
113.729243936022
85.2966454600653
56.8247225193828
30.6485698671677
5.93845388438674
-15.0226303327792
-27.4432930222238
-30.3946668182049
-26.613107156252
-19.9551927416737
-16.0627658165041
-20.4784284927857
-35.199457201866
-59.6036354645333
-91.3055326839073
-124.669256313365
-154.118359591427
-177.841155430661
-194.345223370578
-200.46577252997
-195.22931949459
-180.91907986734
-160.15437962967
-134.143327811564
-102.184445225548
-64.2718378020791
-25.8523061906864
5.77787408517939
30.3482979894964
53.1981975177423
77.9002598508686
104.242849402926
128.12938052282
144.812553496519
154.402449867385
158.304977594354
155.346212686261
146.750008172591
135.006805059258
117.265718814109
90.3145876294366
56.7990089781463
19.1580439168604
-22.178107240404
-61.561034222266
-90.394015306635
-108.156108558974
-123.291534213445
-141.359132529812
-159.338224763605
-174.040483916899
-187.153233431194
-200.07515875088
-213.361527394372
-229.030720506279
-244.632484528898
-251.694945437498
-245.037273173045
-225.154627116941
-193.348792427351
-154.915732366889
-120.612063839615
-95.3642431740304
-74.0318769323992
-52.1377879050973
-29.4262134913066
-2.14555876284908
36.4367609207811
86.5598577265817
141.586464408978
198.146628700847
258.536268563935
321.559359250229
381.895825799413
436.741321412611
480.296357603871
500.567281816186
490.201439241925
451.381126911051
395.154389213472
342.92627694286
313.621857345347
303.460493656758
290.449147670291
258.784624326889
211.939200251543
164.870324067394
128.234600338214
100.970494904003
74.6367097354073
38.6652132832032
-20.0152713065821
-110.82607314815
-220.075080141777
-306.693809744541
-333.76944981819
-303.019771349924
-252.003205044523
-219.99238571998
-218.112077467175
-229.492493381571
-233.932779994368
-225.172037075879
-205.111899487222
-175.092317241866
-137.613602632674
-98.1905494547835
-63.8797264818487
-44.3000055421576
-47.8704135862931
-70.2690278190495
-94.182766569432
-104.150037690585
-96.3623021318616
-77.9234940779095
-63.178822281622
-63.811309727553
-76.4003549452325
-87.7296989622261
-91.9012230810432
-92.4903621876457
-92.2749105950363
-87.6196083271009
-71.0261347378761
-39.870353615299
-3.08899211317126
23.7301603786102
29.442154293113
13.0454621772189
-18.6215360425208
-55.3347039400875
-84.6389055792997
-95.82758369598
-91.1362179086498
-86.3214399363506
-91.452048942573
-99.7571665901113
-101.226348408433
-94.9751388641034
-83.4080157640759
-65.08641273601
-36.723575689701
3.42198125949919
55.1181599565413
115.782873639341
177.209348506604
225.533040550222
251.528789866951
259.27197940848
260.84797162429
266.228164849165
277.459171925085
288.19831885775
291.359161036788
286.705756200175
275.840315705783
256.317165055682
227.251842309132
191.327030739594
148.516150618972
95.9841253465501
34.2073874129663
-30.1067003241584
-87.9125050865487
-133.573255526131
-164.631234030624
-178.925613479129
-177.064866031515
-164.085915288935
-144.996443329613
-124.67632244646
-108.976958447598
-99.5454365531603
-94.5660797634272
-93.0683506693529
-92.3792868132371
-89.1976671279399
-85.0264161486224
-82.0888101348647
-78.0981894092365
-71.9152895143219
-66.8213192840563
-64.9606528376632
-64.5091249989249
-62.770108401533
-58.8774751453871
-52.7531792634019
-43.2424097157946
-29.2118278164075
-11.8253471828237
6.45210615095804
24.5493176862851
42.5934695833538
59.8419531784849
74.023422809171
82.3682347578863
84.0760144466439
82.0294890927539
78.7905374896329
72.7723412323819
62.9998069191632
52.8330979779253
44.8603875624368
37.0563289560799
26.9957733884627
16.4161659044466
9.12640175845124
6.65861638022628
7.46898396051569
7.22922840954929
0.248055945000112
-14.6604393193807
-32.2841256009787
-47.8330962480936
-60.7780046513085
-71.9152098797886
-82.1683742374362
-93.4354497441629
-104.749442722417
-110.083190696168
-106.150931519454
-96.4307837815935
-85.6235740242261
-77.4425445912767
-74.0517337577063
-73.4758481167125
-70.279496713471
-59.4781685225611
-41.5428159682147
-22.3748652359585
-6.92556236523803
2.77021939656141
5.24303064385901
0.912946772262311
-7.16312119554998
-16.3796685894362
-24.3298170673296
-25.9656505241814
-17.0768580148653
1.6290620629215
27.6378660828102
57.4320432748024
85.0408323338242
108.262367679972
132.868160155493
165.25504283155
204.554596939086
244.146188776873
277.936683943334
301.72415343803
311.467809130041
306.415742232082
289.856015207006
262.033138929015
219.039440390347
160.738710683475
90.5687236294203
6.1541530450513
-99.0982303019105
-220.888496843679
-335.636338775628
-411.784661942806
-433.403362596631
-411.972137502084
-371.650818237322
-326.065880594231
-273.580698538113
-211.301536466518
-144.408995516336
-79.2341095389198
-15.0665649422332
48.0938355414162
96.071215629511
108.945765527364
84.5198361194583
41.635982321569
4.53454155550703
-9.12549987874437
2.32874121803761
25.4113518917509
52.5858521899432
92.6291503724616
152.143766537711
218.887675313637
269.852108832904
290.052884990638
278.334660431143
241.978916996038
193.678728290149
145.878619885484
103.366261142372
66.7314609047343
37.8340809722052
13.0445576669717
-21.335079676748
-75.3546205110297
-141.717470731738
-200.067406857757
-230.734500370149
-230.651809651367
-218.311988751621
-213.759438786133
-217.203353947994
-212.085881957633
-182.817625061383
-128.639021616805
-62.3020462750866
0.376126588729724
44.6363304409387
61.5295643192394
60.2912066062887
66.0153938540216
95.9768561789144
145.305363895978
194.243963536988
222.780247853405
225.07479084022
212.14180586902
196.261157712291
178.067600838013
152.26320441158
117.088229234967
73.7919488477207
24.8995581311629
-22.1993803391388
-56.5251911868355
-73.0138386423416
-75.6087795984676
-71.1133811116945
-67.4368951313817
-73.0759091205325
-88.9115787229392
-105.674233718811
-115.792371066513
-121.44567057167
-127.346129652677
-133.450918096747
-136.975577515824
-134.072692514978
-121.230490863663
-100.543095434684
-78.9170756558331
-61.4598172922282
-50.1877432273743
-46.2865923029192
-48.7446167845621
-51.6449360028123
-48.0159828751071
-36.8145376957207
-22.8005961212311
-10.5736639433812
-0.126981394052234
11.4475756859688
25.3747125667157
40.6577882546876
54.5622168641194
62.4589930082566
62.3483682419481
57.8451728290472
53.2976909415597
49.8790967314359
45.8793944370753
37.5856230894689
22.8847323517366
5.08761672193369
-9.12627339660861
-16.1737997230463
-18.811326242437
-21.4843703217076
-24.5294429119834
-25.2920054271662
-22.3815609591721
-17.8611497384268
-17.450999611545
-25.5645724268627
-37.4363491140229
-42.099231159032
-33.5635997902524
-12.4400191815251
18.2192978559818
52.2807915445671
82.055960503268
103.526450931145
116.375661864891
120.656124642078
116.806243888851
106.234128553771
90.0611437741217
69.6655906647238
49.0709646098692
34.0811132711223
24.8848171035883
10.333290131639
-20.7846295938751
-62.1644182264306
-95.7981325605803
-112.12974443232
-115.738900825303
-117.645729569976
-122.283033927017
-119.188093631104
-95.2963835084307
-53.6177889805433
-11.1669421792245
18.0512634206949
31.006015415477
30.4405008639535
21.1522344467412
9.76919465885367
-0.357075548021598
-11.9175316480607
-26.3227364632195
-37.7574760111707
-37.7745249725246
-22.9847680160975
1.95157429670442
26.4431644783116
39.7709308193914
39.0221983368052
32.6890263860276
33.3105621134511
48.2310143806082
77.3560383166621
111.101483001131
131.383852138994
123.952343453769
88.7446586598131
36.4918544224069
-21.467536169079
-81.2766090272733
-142.039050883971
-193.820265339546
-219.554842345863
-206.575487891467
-152.868849215945
-70.5215400279936
15.7815053219814
80.1156762145921
107.611057327697
102.098855461647
86.6393218165008
85.1045706852597
100.677322802273
122.11368975363
139.45989175547
144.359166214734
129.448653478909
95.3828227978426
55.1767297901238
27.6030345962652
21.9373963261423
31.0677360770152
44.6397321820574
64.9418115008755
101.19341587705
151.519516010995
198.892940000632
224.589080907939
224.289073654252
208.063128064912
182.121899604093
139.510132856967
74.8997527274552
0.0775181614804223
-60.9516770242792
-87.9955413496964
-76.1251146884006
-38.6274808183991
-2.54821604513252
3.93465086683957
-32.8827360523278
-106.604138095699
-197.140652752093
-280.27290589306
-336.905362632081
-361.114445472481
-360.246818877134
-343.94724531242
-314.63068215447
-270.322785820504
-211.835093831708
-145.098641708724
-82.0435768559452
-39.1722197676828
-24.1723533900874
-23.6974390870494
-16.4304824628285
5.92123405668373
38.7736908920636
75.0537826291422
107.296082173408
126.478441591183
125.879784704093
106.330203712785
77.1459069682155
53.3426504438275
47.4763344532561
59.7287811959068
81.0230613170163
103.184840890175
119.714955710828
124.661351025287
115.339771330133
93.6086629657169
66.4825075916359
42.9948358567673
26.8511700624675
15.5803660802802
7.19944180090639
4.28485049038918
10.7944328594327
23.0021615309791
25.3554582259913
3.64532018295167
-38.1480608388862
-81.969425443788
-113.208821946355
-125.891818820241
-118.387495880033
-96.2005434269189
-74.0326829622177
-67.5426236531906
-83.0814467892711
-112.884613351777
-137.459137597387
-136.336749573673
-103.472865776902
-51.4407534897963
1.63933660505788
44.2012685944008
72.8536800843648
89.8161452151424
98.0567296585539
96.1454175224878
78.9716086286852
44.4793249344593
-2.22071566244096
-51.6099464663298
-92.6666148006887
-115.906616800985
-119.845371902079
-110.300796830936
-91.2881523319348
-62.2836540787638
-22.4981610865212
26.7653616443922
81.6552456500205
137.511791406158
190.442998906764
232.190759683278
247.617271775678
224.542121625901
166.121353513336
91.7976982226314
22.4659981578334
-34.9961437832277
-84.6845436235618
-129.100484419818
-167.609395138882
-202.407917466806
-235.845130877864
-260.42803249111
-259.182902921886
-222.490533571755
-159.271732906075
-87.2700062775491
-21.1513164266082
30.4046816808055
65.4164267792416
84.1795663953999
85.5396489588963
73.4806498157915
58.2975205891808
44.4499124019157
27.5815582064664
10.2864083541867
9.11525709641675
36.5414448861747
86.7763180081055
142.932266567193
188.697569415651
218.406460583825
239.631588981729
259.355076448768
274.261715210165
278.298822303503
269.869766490641
253.026042751148
236.539436552526
228.60467982042
233.542270682682
253.226804523104
286.302816246081
323.855049833722
348.149537877171
342.334607019443
306.468989141895
261.936695049653
233.292762915999
220.86505251143
192.807704293277
111.263261362699
-29.6395466508065
-198.121558817523
-358.018000146687
-498.063314934902
-627.686824820588
-751.676804572743
-853.627070885553
-906.422841451132
-896.727463123541
-834.348862778636
-737.99322361632
-617.061174071176
-471.250901014213
-306.983651658814
-147.154040176548
-15.3917642375931
87.5676412902617
178.734775568325
265.865015889818
341.515650618634
400.156327908266
444.831937616751
478.328320707292
497.875981741606
498.883973479424
479.835112490778
443.000060427144
392.163469261125
329.01662039797
247.822112306525
136.988981741365
-5.63220108063917
-163.097553595474
-309.884031724294
-422.596728582491
-482.937046264987
-486.181533652275
-442.773207932023
-366.588077643811
-272.695189747898
-181.20568471302
-107.831624512336
-52.9825155790356
-6.35647249066841
39.4970659992199
82.1193472077469
116.430663851453
143.755362542533
168.346392374501
191.963726873436
212.904629041322
224.770340317491
221.181974995058
204.398473636683
183.515336025219
163.303910424115
140.805656706488
112.087894975593
77.1036864538687
41.3815342409775
13.0947284950678
-5.73337178982336
-23.3792513767358
-53.5401407183027
-104.822588100775
-171.409754280948
-235.287716850999
-278.498439477606
-293.311702563068
-284.355662190244
-262.598620539872
-235.283481641464
-203.827247129298
-170.765661653476
-139.680365833026
-109.693667418021
-79.7106078897688
-52.3715706665359
-27.0238759980214
2.95418516273824
43.240337364207
93.6664832756969
148.533566329716
200.647590368573
245.344941126732
279.127548293182
297.788051537815
299.841332040152
288.559629764555
267.725251889661
237.906318791936
197.431781119535
146.018898093582
87.9119976689559
28.4491957713001
-34.3379566982967
-110.171787494157
-205.332801234293
-311.434030772695
-406.145177807137
-464.270468573348
-466.452017832133
-403.115318856174
-279.174213154473
-117.265314101419
47.7488116381119
186.542153474139
290.336724564706
366.749613667526
428.045260818333
485.899798012737
545.534695112068
596.895934108476
616.857394949387
587.889596610966
515.416747038091
421.021800786163
321.446301710692
221.057415391499
115.130919292014
-3.31354566123458
-128.931985169782
-239.505877344236
-312.59643545041
-342.123264183665
-340.875208534275
-334.837336339684
-351.122997259417
-400.249450883447
-467.71445834628
-527.013956363095
-562.294177098501
-578.737419926462
-591.832703337619
-604.684219638844
-598.11422945242
-550.132454205325
-460.720696885072
-349.403060190781
-236.267194421317
-135.118507438386
-56.9277539436866
-6.7699915425656
20.7239066116941
38.2402418079974
61.9483474144228
107.556401438622
180.484453819616
270.333654210612
360.876365866779
443.455911832291
516.553582241767
578.670414886951
629.622993974329
672.595006292894
705.537050898237
716.024360906597
692.856732343898
639.217182500438
572.863125024199
514.208600540124
465.775133844974
401.273232841806
286.093117737914
116.100532305753
-69.3269236800194
-221.546487915619
-326.279629383313
-404.351578631964
-471.799031901799
-513.307101024561
-504.725456417439
-449.355935005612
-376.760307934857
-317.972373244683
-290.575497284168
-289.708426887825
-290.527992417692
-273.519664434667
-241.980643962588
-208.494059892496
-176.271760802258
-141.315707974794
-104.066728986136
-69.1511912650299
-38.1845266229571
-10.1319593954057
14.3789040838062
32.7466669254055
42.1723303714198
42.9818300611199
44.6156157453771
62.175320727431
99.6760778124642
144.191927521079
179.961745822307
199.916092977621
203.49581985433
190.676661829055
160.964255484765
116.829760531914
65.3675280146524
16.080822646638
-22.9837955240138
-51.1138142299918
-74.7099383499048
-94.1318564414666
-99.6053480017859
-86.7027287748487
-62.8942976434876
-37.381294186056
-15.059897245548
2.35818908344305
15.0679382753393
23.1041792432151
25.3995415720063
22.9594862772326
20.3755344245273
21.3204004506262
24.7977925860107
27.1270184680299
24.1992338057189
10.2646686728781
-19.5166377404394
-61.4296011508132
-104.165544342449
-139.038862133723
-163.663095873652
-178.388507823521
-185.377895060668
-188.43906447488
-187.863267991144
-178.381219482333
-158.434955478308
-134.409697019959
-110.430607510705
-85.3395565656524
-59.6203748393238
-34.7848173761291
-11.2208161419034
10.6496270754366
32.447916556263
57.4505527099422
85.8588941805012
113.263450701238
135.725079263821
156.311416791698
181.617368887636
211.575635584105
239.214789028088
258.555222729786
267.632709445297
267.606464236214
264.133293589228
266.405720461802
276.469404385694
282.537523688273
269.106832145684
227.769525697438
161.448440267122
86.8537833592838
26.1480710441679
-9.91191747182549
-27.6249470203612
-39.476996478898
-52.5309054101213
-68.8788516612029
-92.3138685771487
-129.175505873958
-183.773534728648
-253.358245339317
-322.285189181825
-364.642278161136
-363.164908495462
-322.952929777228
-263.063108932086
-205.039068567619
-164.990953588113
-138.917308817413
-104.120140585266
-49.7909057605529
6.50076913174019
40.6229203827503
44.5639333139448
26.1951555530527
0.122978753191971
-21.6924782123979
-35.23120862264
-41.7772458118606
-41.6863417091504
-32.3094736496536
-13.4245276419026
10.7241884238717
36.2311038609466
58.2370785738395
69.4126731466104
70.2978730812002
73.4544322529963
88.7708684801854
113.248064469615
136.305836866972
146.407433035165
139.104713592347
123.251691076496
111.874246765626
108.811722509226
107.513020719125
100.901600484413
91.7348377507478
88.581475264842
91.7301977404722
93.4437719121881
91.8991856952115
91.6177462271936
92.6131215903737
89.6637034732386
75.0404992847931
40.120293759166
-15.326473164538
-77.9028790269363
-130.4219296868
-163.002190175332
-172.682506040277
-160.952104616825
-136.399808885158
-109.008020618458
-79.4933275929034
-45.7969649768567
-16.0594132277169
-2.26454665922504
-5.66154641752624
-18.3717448336046
-34.0242962174172
-48.349813780942
-56.1661544127165
-55.5748674732314
-47.8958982439349
-33.5289353020353
-16.1338703511696
-4.12803241687983
-3.26891329604935
-12.9523988334387
-28.0637582362979
-42.1127300954733
-52.1432841494377
-60.6781782904747
-69.6805980272162
-74.0008580785781
-63.0827618272311
-30.8872548623814
14.8265892111164
57.9150349853646
87.6379040120368
101.733330279019
103.882854449048
101.300587126725
94.2327585703581
73.4286696952209
38.7974179743471
9.69984092461285
7.20308816137477
33.2151033710562
72.1658629368115
107.468059546136
130.203801718299
135.33710592452
118.780974520488
80.9274152926064
29.6443643983763
-21.4729388001462
-59.304341579514
-78.4586194632842
-81.6051982526835
-71.5351464074648
-49.5057924458245
-23.3479746634358
-5.73016556748972
-3.82728262490521
-17.1472070349151
-39.0078707499668
-58.1349247591775
-65.9491825378898
-64.0712849307136
-61.5202024923999
-63.2230898526799
-65.7145121630357
-65.3336825464777
-63.5221137053296
-61.8686316375144
-58.6516593085548
-52.1826809266606
-40.8704864574591
-21.9376414894561
0.548697851615376
13.7766897088873
12.1454030117798
4.38962004878189
1.04335982336444
5.65125663494572
15.4811929421619
22.9127917271073
20.4729957819073
8.95501910239978
-2.00378510051486
-3.26894548749907
5.40725738119922
17.8279465969002
29.6561201691142
40.7111584833716
51.4322539928627
60.6067368157646
64.82746465027
58.6856182133894
38.675010849756
8.55031859561722
-21.7018670833023
-42.1477387144202
-48.5333506841928
-44.5891691447266
-37.1411087820553
-29.1833926044743
-21.085943194745
-14.0050583718241
-7.61758796384927
0.831169787450518
12.9244801813803
27.9688640770741
44.9267536582781
62.9024193416042
80.3728776546064
94.2143934363197
99.166607104386
89.8391489218671
65.5658584904323
34.4502922058881
9.67989195575717
-0.916392745577032
0.809438695310601
7.60768777876365
10.617280289967
3.14352035575118
-14.4057752987728
-36.2892861477084
-57.1779999498805
-71.6790587930354
-72.1464985140363
-53.4992593600771
-20.200747273132
15.27574307009
40.6693906427214
48.1614186691808
35.3365288889201
7.41637708440564
-23.2042424190855
-43.0305721210862
-47.2592827069684
-42.2242132631121
-35.469495598312
-31.2926699965405
-34.3181632355242
-45.8182759497934
-60.4685006178899
-72.1847174010903
-77.9803754002846
-76.2641641846595
-66.533560370955
-51.5043592334991
-35.9256364689608
-21.8923808422451
-8.28774232517308
6.08066032980037
21.1900738176493
35.4423526160458
45.3353297264337
48.4051109607587
46.9702404720113
44.782760016344
42.7769604327846
42.1137323594378
43.8199279803361
44.5526560503513
42.0974706193922
40.8536844935988
44.8491393451243
52.0559450548875
57.5597423776634
57.6626227962835
50.9929694521706
37.2270758364587
19.2601050027443
5.57809099029248
2.44884590121407
7.41375322338008
15.1303716727757
22.0197323597241
23.887046592956
17.6987837882324
6.06982026116432
-6.3701327227909
-18.5460135456817
-30.7392659791194
-41.0479719382732
-46.5030676963024
-46.0336218026293
-41.8126778698412
-37.9325434743231
-37.0240140267086
-36.6182558321902
-30.6930652231464
-16.7351027743852
1.83824631369178
20.5741882667256
36.0661585687304
44.2438833516985
43.2195492513124
36.0117013419609
27.0809479773456
20.0147083331778
18.2657236532464
22.3185846511233
25.1801441326505
17.0376488184855
-2.99722100958699
-26.2597015215217
-45.3382043075532
-57.5337953169535
-60.1723192997261
-51.4807986644579
-35.0639766988141
-17.6447277825939
-3.68426011864075
4.40774246411654
4.98395412853724
0.743864355802193
-2.36976025844395
-2.67574635799012
-2.12986078143377
-1.18790060955389
-0.300682358431707
-0.645796967345431
-2.1624470784972
-5.37696057414885
-11.9758619242149
-21.1147980731625
-29.3356912799242
-34.7013653708228
-37.5111779818413
-37.7913337372915
-34.1656426821536
-25.5753754879679
-14.0715043994248
-3.15347430497607
5.95424341146235
12.2340393705324
13.5744583169695
11.2959314506579
9.31904017887804
8.83273145011575
8.9912682355598
9.00127686833459
7.78336684069268
5.52531297295771
4.00002053293581
3.59917729942531
2.915205889871
0.65871767198849
-3.24146052777779
-6.57817550310346
-6.55597979034136
-3.07209574273837
2.35600716358009
8.32479986675482
13.2556218699207
16.9870879812816
19.6872166571945
18.9242119120859
14.0925165504522
8.7365488570076
4.68281457631363
1.64297176528123
0.35805595703945
0.245109880841157
-2.16965055134548
-10.1077697775821
-22.7242741007354
-34.844331840707
-41.9177809389726
-43.9490722042492
-42.0011652756142
-35.6935824988735
-26.6670247036227
-17.5108293800887
-7.90325952224272
2.17921902226333
10.0971852511603
15.4787523500384
21.3950198220354
30.3013820789522
43.2131137441739
58.6259542019849
72.5564854993527
83.7322242571854
93.7630158076483
102.466233623134
107.553320838424
106.825539473501
100.47927753357
90.835616415911
76.675024713319
52.7061128885442
19.3173925731686
-15.0723646271838
-44.4616030055853
-69.4349460466621
-91.6736392285366
-110.992114414703
-123.09544775614
-119.919869551754
-100.669079741356
-76.311741776335
-56.9034879292463
-43.3152878909984
-32.5438481929306
-23.6527808203885
-18.2585140962443
-18.9051896408321
-25.9535175302383
-34.2706571353787
-35.6907379503796
-26.5010123415506
-10.520026082435
6.9035214822349
23.4409864225133
35.6066520402946
40.7834948010399
45.0387984805215
54.8282401180461
65.2293952693654
68.2343227272392
63.4814961056118
54.7282867662381
45.0763434405377
36.7808727994214
30.054927106999
23.639122751485
18.2849095678278
16.4062415109172
16.888369352581
14.9720194615729
9.77385568200448
4.6259879336595
-1.24020625170254
-12.0993519742807
-27.7538799418549
-43.3951036214557
-54.98679052709
-60.238965170955
-58.8241768440581
-54.9016575604196
-53.140190182773
-52.7486555401577
-51.0161564819484
-48.0766548557296
-45.4230435040786
-43.8095586024536
-42.344358001055
-38.9083125328018
-32.2991159409517
-22.0214517499484
-6.99710236333693
12.3947541908299
32.9548071765347
51.1502352757106
63.8659234371011
67.9801480814547
64.4792353724791
58.8187580926881
54.1520669953426
49.8619965986072
44.8920347393829
38.1456995293399
28.1980322749264
14.4841787836681
-0.214441392814253
-9.71705763075053
-10.4850895026746
-5.7726184022103
-2.01607990708701
-2.62301262321842
-4.38174343061174
-1.33549081970305
6.34427293414892
11.8601850942217
10.7518378568449
4.51057543626808
-3.47414055202013
-9.63070940920385
-11.6868783173856
-12.7955475699759
-18.0859083371351
-26.6735287928691
-33.4990286369948
-36.3416047179555
-36.7723172050892
-36.4214183499448
-34.7086927723309
-31.2189755843572
-27.9168663070296
-25.7974795159782
-23.1001808099222
-18.65114345526
-11.8172004113376
-1.05425657488757
12.2838317775337
23.5998203451002
31.7423752061509
38.2759620110792
40.7707688303591
36.4001515486281
27.8425978482116
19.8060442270551
14.1446712213088
8.96901755942484
2.36698548597909
-3.57466534685093
-5.3170296320335
-1.62603654849729
6.16745945476993
14.6130100461146
20.7069698579394
24.3613632595135
24.9518160897133
20.1861186566686
12.2501267573507
5.80869041624623
-0.165808542216455
-7.49214636742058
-12.6721348287631
-14.381587760152
-16.15752653042
-19.0631877864566
-21.6931979112357
-24.7887227310228
-29.3765412644672
-34.2844449390747
-37.8876671704701
-39.8682023829533
-40.821810749169
-39.9224137886488
-34.7123169249582
-25.5682875053697
-15.5172110201613
-4.22877994945494
10.093727769633
24.878802174139
36.2244926814229
43.1270004136555
46.8847502438428
51.0918380020135
58.6950334422938
66.8073195672589
69.2659182979313
63.7228293269455
53.2684926035639
41.657748934128
28.9508281781474
14.2451302402348
0.534731472954309
-7.21189772220546
-6.92014029511007
-1.53097045014573
1.79373032429345
-3.33194358464471
-16.4876213278961
-31.2187279469674
-42.2669874055273
-48.3076661166874
-49.8484615897135
-49.8543756086141
-51.5979593977085
-54.431801167305
-56.5431030669549
-57.9426511621789
-57.7481735687063
-53.4531794241122
-45.163269674516
-37.6921921038522
-34.4553469768317
-31.9114844633564
-25.2109163190323
-15.1806050764565
-4.81994510309422
5.89467426102756
16.2664470216382
23.18376536546
28.1645090838236
36.5549732675454
48.2468145497689
57.9561789116434
61.3415093902019
55.895586994299
42.1523834303688
26.2933311731379
17.0098704650317
17.8123374699763
23.8295144045456
27.5759645226931
24.7007812043976
13.8515336483304
-2.12772104462139
-15.089335751142
-18.4876986043748
-14.3693697912045
-8.50359453640017
-2.58668293990544
3.85934945444724
10.0362416645635
14.4590274223819
16.1784102026282
17.8854983442922
24.1869487577142
34.8327128324775
45.3916889674707
52.9247190190193
57.1239960702985
56.9331861126224
49.5715097002563
36.343457943273
24.8328911799768
19.3692305212003
14.9877889509806
6.74298734199506
-2.43486559859014
-8.76547707882417
-14.5873214438694
-26.5677189771515
-52.3111332321083
-92.4104432184524
-133.313456334012
-155.929657117456
-150.245131850609
-119.546799865058
-75.1574335074017
-29.425620689332
6.69719147897629
25.7463676950152
29.8571296917115
30.2781598828021
35.8750526170882
44.4949720560142
47.1401411244668
37.7911570271786
18.9476357977692
-0.187230531577497
-11.928197939426
-16.2635875688338
-15.9989275093148
-10.6205024186403
-1.15697151553041
7.65193522870632
15.5896999470762
26.4832833169651
38.1952445820536
43.4915440145719
40.2051968111696
33.0685402705606
27.0727742598393
24.9353471252217
28.3310099628512
35.5736759040376
39.8394547033495
35.0041683034743
23.2385749845486
11.328435552186
1.51337420706052
-9.04232500869516
-25.1320650536447
-49.9104696636284
-79.3124663468314
-102.33680108355
-108.052497426335
-93.0603861094802
-65.0845446448408
-37.9703492189235
-20.416841080109
-10.9370810242792
-3.40043880953763
6.23961517447241
18.0589916430221
30.3889620208951
42.1840838031533
51.2579700677966
53.439500987813
46.9464792151201
34.8134001172425
22.4847921528542
15.3432275681145
15.1281710033782
17.1612738624511
15.7885258207214
9.68287703091774
-1.49294522479313
-18.3966726509843
-38.2377307040486
-54.9067483487772
-63.6129006081351
-64.4590042105043
-60.3545944050256
-51.8610671704683
-37.709797814686
-19.7022523106922
-2.61057463214233
10.2339573243683
18.6350353946615
24.6897557143473
31.2804042560683
38.7603312800523
44.2570541350055
46.0935765888025
45.3608555920172
42.8985453980859
38.7942816152486
34.2245854945274
30.4028565085636
26.7532144786865
23.1389486521039
21.0914535549115
19.4054260420443
13.0310760547974
0.782526188514109
-10.1142543823303
-11.4514728833321
-3.38289772427244
6.39263592113258
11.4400449779732
11.3657746556777
8.70992000368267
5.43622941247558
2.06503784101758
-2.29855636061281
-8.98258469835355
-18.2753713760097
-29.1238108319156
-40.3871512959473
-51.3778857366306
-60.180167469472
-63.7322820539469
-60.9118594029365
-52.2932402028339
-39.104558261299
-26.264805848283
-20.7502339658513
-24.6288454154825
-32.784086405109
-35.5374071157735
-25.8205658551988
-7.59141625081217
8.73781412653175
19.5951026516863
28.7285657590522
38.7441374324417
51.1525213241592
68.4784771771072
91.3517431475977
116.860434625316
138.620102708693
150.745312357685
152.449304419526
145.605926663292
134.148701662444
124.262740017796
116.165999555739
103.091775034565
81.7237169269933
52.0818510749939
9.4520128984103
-50.3012057802858
-119.928122238189
-184.858555929775
-231.783620469634
-248.271538394723
-228.679475428583
-185.397395098791
-140.534427692764
-105.649316952762
-78.7818773125881
-57.5129947927252
-43.5555408204875
-34.9183393709685
-23.8644368243927
-4.67180976186876
19.9923533115889
40.3503908415156
47.6319857512659
41.5330736619916
28.9864415447019
16.1505900388453
4.37798730278226
-5.77480812815057
-13.2452807648952
-20.5437987482293
-31.340972631827
-44.5503855362421
-56.3480033708646
-64.8068404381671
-68.4107884794747
-62.282805076545
-41.8627191483113
-10.8405653347251
22.1171862695028
53.0807547402672
80.8620389599522
100.735308482496
108.690308593694
105.680251789824
94.3712785174652
80.4735813203296
73.1331545113927
74.8644722659214
78.536283192353
76.0027532279904
63.2830134748701
41.3020470392459
15.3284867150947
-7.79055671553928
-22.9084899953113
-29.0663651862794
-28.8373475105123
-25.6769350211814
-23.0217369429496
-21.9491145815667
-19.197873595977
-11.9542313119968
-2.37857579583634
6.62820110642987
15.5190363942395
22.838334422339
23.2688914383096
16.1594704680124
6.92003898645889
-0.864392241206249
-5.45065931400383
-4.26487132775367
1.17236658979759
5.36101373742345
6.85097908285464
8.92209150909146
11.6180105223664
9.87595588484833
2.81676291855505
-2.86949514242246
-3.54435096528596
-2.72918156962337
-1.52662508495468
2.33036443335019
5.15130764570945
2.18000661767346
-1.37942824251745
1.46417571349895
7.60985423958731
9.25006641107259
3.69977862013505
-6.83325136825912
-21.653150792486
-42.4546067987371
-68.4456423675157
-96.7734103533598
-124.779289268817
-147.012565018426
-155.88172437791
-146.523485402168
-116.998399398081
-69.3483093360764
-14.5401907271595
31.3293209445954
59.1877350957878
70.7175179041574
73.4769479077476
77.6357393989358
89.2232856173295
103.856708020543
115.187840277576
123.249613374639
128.334706788379
126.032127638041
111.063718055836
82.4925466165121
46.7478028596725
16.6387177109541
5.17729396873462
15.2978064955533
34.360254451391
46.3794567694464
50.5141931184681
56.5770240362739
64.9515005561977
64.9387147342917
48.3071257984973
16.2661766105129
-20.7363468369763
-52.1996880286932
-80.4722064663643
-116.838523286
-165.528206016945
-218.300118178074
-263.079596267954
-294.722475483612
-315.592535773361
-325.332994577816
-315.121142408442
-274.687740034769
-203.436706841526
-116.002225658975
-34.6594748407334
29.7958185770192
86.2468714779273
146.285701716949
207.462725287847
260.758175575859
302.057758201636
329.097167503715
338.803786907423
330.306681801838
303.989531668886
262.882734414029
219.15140137503
189.413353978583
176.417186431554
161.522584447508
121.612226325641
47.3366068589198
-54.7499070186862
-164.34403968105
-255.406852194932
-314.211099167272
-344.651690269905
-353.847273991962
-342.854352084806
-312.59825703404
-268.188228565437
-216.069752498483
-164.134972457748
-121.600972908608
-92.1828364810977
-70.3793119973254
-48.7863552792537
-25.2965157201078
0.136447397067897
28.6309037342965
57.2049083331356
78.0467003255094
88.5208857411881
95.799671549086
106.707217181149
121.261071307741
140.695514336788
169.566816703587
206.449350887387
241.526698629503
262.744440236226
263.310358129445
246.54626293858
221.535568105798
194.779880198223
166.004164364338
128.198177723043
73.410531077893
-1.20252479534461
-89.9430983745019
-174.16523769418
-227.825030193656
-236.368339688989
-205.786641960493
-151.616815594655
-90.0058880993763
-38.3517452520404
-8.57200504149039
0.124262967847328
-5.2434686285243
-19.5101214918905
-41.5960909927569
-74.2195600732532
-116.817703010633
-157.188372062169
-177.080981199715
-168.563949684749
-141.004810383929
-107.271744168614
-65.9563998950356
-7.6249695485032
65.2333090538746
138.391075479546
202.651330221676
260.240260181814
317.028481646923
373.7197271487
418.271203543591
426.390799200818
383.410091761068
302.26308046603
209.264777990138
122.737927932042
51.756668478718
2.11788081497355
-27.3912394064692
-48.2823178600285
-71.920693613623
-101.057960700076
-139.258049462275
-194.390231229353
-257.32677722218
-294.495473026218
-281.333395738719
-231.020695629066
-182.036677430542
-166.638232955404
-188.063970642078
-222.055974386069
-241.949247822537
-238.657017786705
-218.026089226359
-189.900639637909
-162.50657454987
-142.706680860725
-137.853951310751
-154.164331029307
-190.072222426159
-227.832901611041
-237.179274661503
-199.458643732584
-125.487949799613
-40.6170168196796
38.3267769084694
103.145433770208
145.418946596108
158.541626555028
145.477413040321
122.416965384232
109.96173384909
112.256543336817
107.205379267717
64.51564287594
-23.027508774628
-121.525055140086
-174.082286863327
-147.812417155229
-56.7802124133028
64.0996856923012
190.117734813313
308.982276639184
409.707250065593
479.562697982642
512.560624847654
517.381028615769
511.852415422829
511.013716274807
519.989184313315
526.425771025108
501.145450306409
422.351516001972
298.307924190448
159.957790369868
39.6656717997604
-39.9124443163947
-71.7847994700129
-70.8445206621395
-68.1585854561351
-92.5484703612958
-155.052204640705
-250.236234848362
-366.62631963595
-484.726869333981
-573.984551973106
-609.578035977869
-591.294875489282
-543.337671480394
-497.637744198196
-470.871673167662
-454.092310006083
-428.308442934157
-384.88685890499
-327.837521195792
-267.802208132101
-216.197196511798
-176.083828506775
-139.698088434777
-99.1333721765056
-54.2744036664521
-6.51187923573443
47.3429380806386
107.708628365051
166.109647685387
213.851910598762
251.078112795188
283.81271827077
318.166067400947
355.114959758136
383.595155368309
387.276922921531
364.275473492326
329.386070222934
297.152164954909
272.50078503064
253.044977056369
233.765496866497
212.811064037503
190.267261048196
157.564156167573
97.5209784059883
1.23063634269593
-117.949531160048
-226.567448362164
-288.71103941077
-287.609346691831
-231.344784667693
-141.338091132135
-40.4461115101471
52.5746409652428
122.191581865808
155.810773638897
155.861701229273
149.397841298643
167.990696866023
215.745450479024
269.951050027364
308.026013626399
322.880300257682
321.34315612192
316.130619324644
314.596070322437
310.881801028835
292.059370305988
256.039490903857
217.200649487165
184.303218602328
138.174167152373
45.1952185132336
-109.642553685462
-310.686973426802
-524.097279846316
-714.067903244912
-851.96820752713
-923.19181003087
-933.861861848328
-903.928913548968
-849.514015726121
-780.666451663992
-711.697814230817
-657.253696216378
-620.82301139053
-594.778051241291
-561.990804424186
-496.554067624171
-380.690946873504
-225.963415990621
-65.4178438299361
76.9179773464755
199.362104565957
310.728719569105
418.272190862994
523.761691491517
620.179776963055
693.03308235062
730.234796371594
729.940964841564
699.489380725319
651.776834794162
600.455483621256
548.956003717658
485.772651822998
400.372685976106
300.599187171115
208.961724189541
143.950723258602
102.977495038259
62.2985972137969
0.778297056200294
-64.6819304775292
-76.3183617692095
5.19909050454303
152.437433847855
309.025329822032
446.918168343344
560.808959460311
643.937471883155
696.593653559888
723.093749055634
706.178757889578
621.912029980292
478.120001930651
303.333354571323
112.53873931982
-91.2659433946866
-302.407420676907
-512.035348087725
-709.541875780164
-884.666550691398
-1024.57201198761
-1108.30516133408
-1130.62095767979
-1125.57395765851
-1128.2704413985
-1127.10344457237
-1086.54382719678
-997.393622543273
-882.40621190491
-771.307465009265
-683.823840802018
-621.011999770357
-562.359897215078
-481.033309245983
-366.186863208272
-221.622649132533
-47.7717107421921
158.556724097255
390.617469649215
628.69094158182
843.502681252278
1004.03271074769
1097.99499880809
1140.84310541353
1158.60067118308
1174.56824722889
1204.15740495571
1239.14635458082
1244.29064999019
1189.43995694437
1082.67633626116
958.100605551922
833.195529992486
693.776893233488
516.479305598696
284.769178502651
-6.07614181651295
-328.351732777568
-614.751401303522
-800.792528466243
-874.254001379446
-870.608864605394
-827.367714793984
-756.400988925526
-655.213653236799
-533.135525857167
-422.826344717847
-362.401240379823
-362.207089298417
-390.627859786297
-400.94646997267
-373.56011593207
-324.40407577396
-280.800641120249
-258.657054145487
-250.980202969889
-235.048006505398
-201.504009319103
-168.920753438157
-159.974471865139
-179.413778300945
-222.636535399988
-285.13607531655
-357.270668135351
-424.719345010443
-476.402157272991
-503.442453725177
-491.09217866211
-423.324201317879
-303.382156564277
-158.529146356092
-13.3722917856109
127.854318149968
266.722744824697
399.675044932457
525.504222447707
643.199480510317
738.755360696896
787.772702185667
776.375060524961
717.334718659753
647.117289009569
605.093348703136
601.823356852771
599.475062912798
538.177942455096
395.37870251144
206.891125049162
27.4031292929184
-106.986755890994
-181.902209998451
-198.35553398773
-166.497091926754
-94.8395189855109
11.5247159865045
133.508381778549
229.169624260662
260.109677217208
224.526961607667
158.057352295976
103.943875420713
80.0562153274274
70.3394037928374
43.0279596852865
-25.4774990289745
-143.927502796708
-317.863802423896
-548.966962023087
-810.096597555826
-1032.85054256341
-1141.13832180431
-1108.3931526458
-974.72579791504
-802.121165261682
-623.921215256593
-440.980893420035
-251.144526810931
-61.9143153777081
129.873698864378
339.081349627416
559.783328299688
766.979502559613
950.138989610246
1107.88342390949
1218.92406403044
1249.55854986048
1182.53272192349
1020.68504268299
768.217762738322
424.132108256582
9.57552169383948
-402.338854368533
-715.628582381909
-883.645052544141
-934.815613284302
-924.645279945541
-882.259061996504
-805.003487492591
-684.061562004007
-528.494581115871
-370.499461617022
-244.753785445928
-162.590588135171
-109.26208493433
-60.6824140431474
-1.85048749036362
68.3233186172011
149.986266160181
248.252308028136
359.211057362831
465.73554029393
552.916600813614
615.96991242213
658.990727442346
690.944486255082
704.29389430749
664.654832417323
548.602980583136
377.210124711173
193.09893337293
25.5221042803798
-114.222683584069
-225.379980273386
-309.227271600353
-353.619109989902
-332.623472621493
-236.804314260726
-96.9351649322648
32.2758723577836
109.758704859774
126.214161333522
90.3921080413851
14.1550865702981
-91.0054304120498
-220.638511658363
-369.389888151285
-504.42807689029
-572.581345810047
-549.548062940384
-463.275307125485
-360.018447415472
-260.102595579924
-157.603390316066
-53.6086609118068
34.163740161001
93.1966129243503
129.133283213476
160.543433433248
205.475054994414
263.63766331212
312.252820092518
323.405916932323
278.44654239969
170.104439216183
8.70830644170568
-172.768470257049
-328.710591564265
-421.291512884276
-441.65856709092
-407.117079398714
-328.739284030436
-206.217737978452
-66.1860185771105
38.6354511068112
89.8443956507063
122.222653694444
169.949627011451
229.369880277555
277.046608715073
297.269134490745
292.823302506242
284.205953014608
298.85734754267
350.845050868496
420.196114348402
464.142933253873
466.314863384393
458.760448562722
484.343146188775
550.098016539791
618.030294968896
637.681489249581
586.970635063644
478.298366474633
333.389564536049
166.961297145547
-7.25501638225124
-172.780825602197
-321.677393573006
-463.029564230421
-611.444163693149
-766.497040418375
-909.955365842846
-1016.88058893279
-1059.67960873296
-1016.33441547142
-894.464328013127
-742.990554572386
-621.619626638059
-554.897683213526
-522.013764992677
-482.594889155755
-407.322176533211
-293.00265172632
-156.790762761612
-24.3896085423669
76.6909467436326
130.606608306863
153.129457407205
187.132500077184
263.71134351323
369.518205479887
455.48688876159
476.661292524108
427.497749586798
334.84364447804
214.427131803189
58.1115778539311
-124.128960821416
-279.161895546793
-348.675557986628
-320.687229905363
-235.3570370659
-144.972258740324
-66.2212533773955
33.4810549380445
200.018136222739
439.80387065494
703.151044633088
916.524648114345
1026.50118669064
1023.3875256924
942.593752255362
846.666041427098
788.978450070275
776.939788055322
772.079816930215
730.344925060367
630.69583840874
468.922349468543
250.512201281155
-11.0881670333177
-311.892254136563
-651.794651413453
-981.484029938424
-1199.3921252163
-1244.23222443626
-1151.40991530568
-994.942533920188
-816.124055348761
-626.750487135152
-442.438905219362
-282.395701901439
-155.854846928244
-67.1629114135553
-20.0629341776384
-14.0028695827906
-48.2534573153161
-125.397270347732
-242.219504253958
-376.963430502677
-484.090658919695
-508.377234745812
-421.363621423407
-248.691624445809
-54.7007579385937
104.024113013306
210.729312453729
280.913394445415
338.344108169107
401.937872502095
481.304423228559
574.366567177583
669.401865390079
755.066206110513
832.202755792083
909.446310274929
983.440594684438
1031.18268138203
1021.9619602022
929.562063337082
739.90343107622
460.172723694651
120.643020224628
-233.589956155861
-548.985262017967
-776.954688962555
-896.65594758722
-916.745392741305
-859.052440010061
-754.615642603054
-644.971041491977
-572.132693509119
-563.879421036837
-620.145924146037
-706.600047143148
-772.479602178386
-786.051779195557
-746.87638528751
-663.661920008309
-539.586058745787
-384.853550352785
-223.519921398959
-80.0181826919637
30.6499704679265
103.722682877497
147.562453493578
179.591506082735
213.323095168633
257.178453250964
321.618721319365
414.553765641475
532.737277837742
661.070242913494
779.032055012727
872.161995265822
936.464236829618
969.593929535653
967.415052850773
931.211108505507
861.722189119159
748.923168147323
587.42455232862
388.747501847507
164.935057119977
-73.5016492612048
-299.260492822907
-483.923354548413
-629.667690635361
-753.395482910406
-855.194187364787
-926.644955429945
-970.97113568066
-1001.30643018656
-1022.69537127985
-1018.24263352117
-961.393404581999
-839.111763442978
-656.345831067782
-429.664536588174
-183.994063692762
54.0483598291238
270.514063654461
469.907524459276
659.055633717023
831.851965187701
976.142824172547
1089.34246774682
1183.91877228784
1272.03020570747
1338.50583351992
1340.29132339477
1241.91351497296
1037.71291008502
738.165525775942
360.796556802228
-56.9051931064037
-453.785471664108
-769.297004414282
-975.271945317285
-1083.07413076173
-1121.45663078265
-1107.77329802181
-1039.90526662234
-918.879633474963
-771.641861480841
-637.376067811954
-533.1231382877
-442.875086995181
-344.51329558893
-241.981475278532
-158.463282357368
-103.998544691343
-69.3558837161941
-42.0843626924272
-10.982291031173
28.94273581205
68.706752580555
104.018897097267
156.493458693206
254.544404833255
400.802331879401
572.24296771372
747.49713338618
923.260549373302
1098.42351262227
1249.85530156114
1338.67534961079
1342.88661326165
1275.26472159685
1163.18347754142
1010.65070513913
786.986094398432
462.211542148647
51.1946644563832
-386.816073389519
-788.829590394201
-1109.29269410163
-1306.61422131318
-1357.03838932781
-1292.96953822351
-1180.24305862239
-1053.66418083545
-910.350794095897
-749.390326807798
-578.114525651059
-392.538975545868
-192.404811070122
-13.3327837413385
95.8012568946865
130.267565678084
128.523844731653
117.867175163975
92.2497940058658
35.7883567141265
-53.1889779891543
-158.19954681271
-256.794409051344
-330.449082890939
-363.741735382695
-350.901941315785
-302.413332691797
-232.515295221684
-151.831097431391
-74.1731221918472
-9.43485094305559
49.1719535037887
115.963039464394
196.289304839382
283.790859643065
362.255702748882
411.141723166218
419.785302198533
389.837478981653
319.388461931319
201.363283014812
49.158404623347
-91.5750174208012
-170.896541039545
-167.35764201523
-94.4985106176144
17.1232770969719
148.42208066046
295.37570795974
439.198444209607
533.817661384872
535.41099546869
438.79282442127
285.282378421541
138.017193035874
43.1519114330914
5.171780962722
-1.59255776643034
2.39819513810106
15.660312210011
33.0289408902039
29.1433705411223
-26.6876156770699
-148.0226605863
-316.201126540414
-475.955293968018
-555.482720122829
-507.805736792587
-341.815788225911
-112.739928033671
115.088101362931
298.963639968361
431.824879581263
530.971619706837
602.20011901873
620.449748590493
559.387010930019
430.230074537754
265.143972732009
69.0986910159262
-179.554024226221
-480.643696988877
-784.468011159304
-1016.22110307608
-1130.07292725575
-1141.12110855867
-1100.23326218536
-1039.51829258002
-941.977703573095
-768.917505203662
-523.984415695627
-265.449073508792
-37.5844958581936
177.755840944826
419.847142768877
686.407872535395
935.731203031831
1135.20991076947
1286.07521277765
1407.42459182806
