0.0918405544699542
0.863751877067061
2.17970050090354
2.60916967414722
2.77920618398117
3.14230299340356
2.75110050407001
3.51625377845266
7.67526663444995
12.5154107280867
14.6105682073511
14.1952076608601
13.1819096052901
13.0903647126567
14.0698621073523
15.3861503919966
16.5453570616008
16.6830470444468
15.077722956083
12.3167015141714
9.16930791034638
5.81328183801979
2.17224807955878
-2.24172796044537
-7.6611786997864
-12.4431400892724
-13.8887347541161
-12.2704160099861
-10.7914184747547
-10.5252116237728
-10.2917606871056
-9.55291251356877
-7.50745227044402
-3.78617359439643
-1.06730570574283
-2.53095678017804
-6.90604756222491
-8.94566545256747
-6.35641822243598
-3.5132642153373
-3.87181649532357
-4.07237274390996
-0.790445132197381
4.04823882781356
7.60528908537337
9.44935264746782
10.4352618253755
11.1409199562869
11.302498081713
10.4238656343227
8.70977784627282
7.04352169412571
5.12593046464861
1.2382661705472
-3.91187500607421
-7.19719695532183
-8.3442385972074
-9.73622987493557
-11.5529923190444
-11.8359682769086
-10.0044909517911
-7.21528066747799
-4.37656785815509
-1.9282218907119
-0.71817271275075
-0.916482380047117
-0.98782154174927
-0.109549887508372
0.710576485764686
0.639150012940401
-0.912156092814934
-3.81572983123359
-6.15836123934927
-6.7315276137419
-6.92980060594946
-8.16241037679538
-9.07422530079544
-8.06672567283159
-7.06303105100834
-8.37490541601385
-9.67838070889243
-7.32724068562132
-2.67715674659348
0.113328418021428
0.787785939174117
2.0750440895702
4.21805341512292
6.04433564444295
7.31585880044257
7.21616707720686
5.79192745867082
4.63165864165348
3.92465749229
2.88739532837615
1.83175895808339
1.89562944383913
3.5594838234501
5.78936826508761
7.5495579098935
8.81496376920242
8.9157451254995
8.07753255337542
9.32339662436625
12.5329721746004
13.2370252425391
11.5171502563658
11.1702285845579
10.8250140762182
7.07184180349296
1.58327640373106
-2.98744782822468
-6.94247308315474
-9.92948207756524
-10.9099300641658
-10.7121365965142
-9.7523802516537
-7.20661628793747
-4.04696511076012
-2.50294609844137
-2.75523400680026
-3.14007907421731
-3.26625574166026
-4.4845197297499
-6.0277501145818
-4.53386896803946
-1.07727060198814
-1.30106926821976
-4.10653809187867
-2.43340692133016
3.98014883805972
9.32257934650541
10.4939161230124
8.52753391644996
6.37881034991462
6.23894045193714
7.79848595320865
9.22528072923364
8.98193645810308
7.6175180696268
6.80749494532969
6.45294281006282
5.55488793921227
3.57142135741242
-0.34673666991103
-5.71046519125158
-9.81750925340095
-11.632492389803
-13.2212837166822
-15.0685926913152
-14.5115950766865
-11.0632153989518
-8.26868433031916
-8.36278935732093
-9.72455595160871
-10.3299667521268
-10.1668185577963
-9.62289460603755
-8.01733354802399
-5.39665095231329
-2.96977520493745
-0.944069132791167
0.502947944682272
-0.0590059793353257
-2.21058772040067
-2.46729123099083
0.727356976658048
4.03056484804512
4.4717146148492
3.33304279054571
2.4288316598753
2.43024109755491
4.16985144329833
6.58472108871851
7.48899629072059
7.74453575052461
9.23800817504753
10.3374546188262
8.33771667618625
4.81357248573255
3.56870987402748
3.68877131171808
1.34797364265654
-1.89998972677494
-1.87632582496667
0.0271421518427377
0.831114968614164
1.5216822421189
3.12738854406676
5.06494359786813
7.38060378696597
9.78796580219433
11.4346354016658
12.7808160815458
15.0015900707117
17.4962417215854
18.5344303533327
17.9417888730745
15.7285310640229
10.4897567614983
2.36806449343661
-5.77358434039507
-12.1605530271563
-17.9851306615836
-23.455862924662
-25.9458601203957
-24.7727907695573
-22.1425205913123
-18.4823412257723
-14.2504121152471
-12.7254633448187
-13.7841213579866
-12.3674277392492
-6.89099290368456
-0.927486321658973
3.5553796237787
7.55540146982173
10.2784677730258
8.96441411434056
3.803145463838
-1.21897201531596
-2.73026876279938
-0.831419637039404
2.71634435000653
6.38886924044184
8.42358851390613
7.88893720496069
5.62841980963572
3.2321019158789
2.67292084269664
4.38407715938134
6.02313080699171
5.62427156591758
3.67506413343672
1.94283171992124
1.30805970365337
1.05577265749429
0.79279782535343
0.855931025739175
0.901341048808371
0.0142608378747874
-2.05560464721389
-4.20310367244011
-5.27166544322251
-5.37410123424697
-4.89414368536865
-4.31519474275148
-4.92789660386893
-6.71366373766977
-7.97208990255323
-8.54573307263332
-8.44382452821823
-6.00864755137947
-2.00113334214685
0.489299967556201
0.779973849188965
0.113412535911849
-0.642881863777646
-0.721242957227455
0.0049333260133308
0.750784443600851
0.785466483860323
-0.494911559961002
-2.69742644368602
-4.46017298566592
-5.54604910220212
-6.046381594645
-4.94890226970393
-1.9549396491901
1.90560989999553
5.34612525544867
7.4510838333585
8.66171831514753
9.40604960533807
8.77044826960809
7.23684685156037
7.12836738598396
8.96285904223815
11.2842217661522
13.0936222620391
13.2036720129014
11.0790595290926
8.58706575276194
6.63110299573687
3.90386350030483
0.286361631313952
-2.92009616815048
-4.57029808966662
-3.93504086616
-2.04886203608922
-1.1943346341923
-1.69658346914412
-2.44654758895342
-3.02618212403714
-3.32756790153578
-3.64174563600861
-4.40637672848235
-5.18093114986679
-5.10876857071681
-3.37901379845845
-0.521695536557047
0.412442826458967
-2.04068060832092
-4.51150120309276
-4.31609720526334
-3.65530018349167
-4.20565507286382
-4.04188002109273
-2.918973874274
-2.82516415939756
-3.27651035712393
-3.16680264372431
-4.14988942967865
-7.76705792546495
-11.6805018133898
-11.9498632553591
-8.37984722567125
-3.52117306820101
1.09538569654785
4.38221545165268
5.74104192909385
6.11846737508372
6.1263008059574
4.92349239540182
2.71448714400968
1.648192763678
1.94741906024648
1.48263192116261
0.940193036718606
2.26718442246158
3.23654997433746
1.75560661621831
0.828343143157658
3.02879688821187
6.28660378117857
7.90327950709172
7.26653173998145
4.892611117734
2.19202929541912
1.12707564414245
2.19853387435021
2.92838026518364
0.974347648722163
-2.0811281171691
-3.88033775242967
-4.67396912582351
-4.70066022319742
-3.55345252178836
-2.52995651731727
-2.54996025084429
-2.3647904966933
-2.02448194302762
-2.48351326582035
-2.22420856551548
-0.087997573833356
2.11131211371409
2.35167939543557
1.0118121354711
0.333754741084004
1.62057623605773
3.85545313795127
5.40785752443762
5.5634441582001
4.05937416276204
1.31664467744035
-0.856921301164479
-1.24422081895804
-0.241985850765678
1.61601872013098
2.87938909730742
1.49508956035275
-1.45026256848521
-3.047672364529
-3.05958239894928
-2.65681218393951
-2.01945882942661
-0.8627189496421
0.865814494150756
1.98874117100195
1.11110863968688
-0.65539589166694
-1.25059703576018
-0.908761877378572
-1.28427484710677
-3.15970623722049
-5.92626817984666
-7.91116572686905
-7.71164839591891
-6.40884782791441
-5.95044946364771
-5.77512784489612
-4.76720302963678
-3.25005106683201
-1.72875367775162
-1.18659675895834
-2.67776872856499
-5.00959387926828
-5.7329239657666
-4.3717043116703
-2.11640809167514
0.10692953112948
2.20582317208875
4.65124456124683
6.98108029887693
8.35341315568269
9.97742708617772
12.2689973837535
11.8094454597916
7.61778513583313
4.22151446804346
4.02879726892289
4.67010348414864
3.81763490463971
1.77301454867412
0.665615954195652
1.70136870947155
3.5036800088295
4.04160955566025
3.51526953799258
4.06021704052157
5.9330215452543
6.25326402218186
3.44249369717232
-0.121779968343549
-2.07763766194297
-3.46509172187124
-5.9257637936534
-8.67083547343031
-10.0896769340452
-9.65289958748314
-8.34117297167647
-8.21427235177421
-9.60305775939214
-10.0391362085495
-8.024330969175
-5.19033927720551
-3.13175508643289
-1.97730865272387
-1.8381426220337
-1.94080608967942
-1.28138510213296
-0.163551864678943
1.71463326956424
4.99876089854728
8.69566635194272
11.7662521896895
13.6533730377106
13.8754979997533
14.0598845942281
15.3605666648679
15.2263622578883
12.7073444132931
10.9020830704878
10.9158804850458
10.1020935768359
7.63424408416523
6.45481965197514
7.30602947315476
6.83737225417499
4.2994632211576
1.95580953277959
-0.601204130114563
-4.21795598733561
-7.02276407918266
-8.51988985963085
-10.7400202423308
-13.766180035518
-15.4158534942402
-15.9536680121596
-17.1638277969326
-17.8382941857881
-17.0247907349094
-16.5683287750104
-16.5850555265466
-15.2993731344949
-12.6147748975585
-9.72060092643114
-7.51809291159845
-6.24756691962097
-5.20224803980816
-3.75750183877953
-1.98307737468382
0.527461388226501
3.53047618273923
5.74724726794259
7.45483641468253
8.89976940761458
8.19313734165987
4.92962901892847
1.32111972880074
-0.925147117354417
-1.11364670717269
0.715393276653296
3.19343283044722
4.84341876629121
5.6945317214027
6.70656023315821
7.82012581344043
7.85284044824025
7.45520368196835
9.03213451653821
11.4259902660769
10.7268789616158
7.54736844845847
5.33838839005898
3.85150338628729
2.31033172426319
2.34644381831612
3.18132262579714
2.76589760532868
1.92908504848124
1.32964037480601
0.237331758766684
-1.06004655135739
-2.07089872103918
-3.462399873826
-6.66636464399129
-11.9448557389436
-16.1434009743055
-15.9856357195632
-13.3514585996307
-11.4636953982633
-9.53667720216423
-6.95483567932166
-5.46929394532747
-4.51868805077263
-2.80717126903125
-1.94831586857606
-1.98006377691029
-0.565240436775005
1.50508839051855
2.77531114239335
5.23648589254225
9.07475355938316
10.4915903145157
8.64336944550234
7.22736856245325
7.75985438201959
8.37650980387459
8.67288484573643
8.96191108318949
7.60997636360044
4.64235374155599
2.87308756617964
2.55645018807589
0.868064382780372
-2.94838930223834
-6.85388525788549
-9.59472412819907
-11.0157748195555
-10.5644747023033
-8.73507834797951
-6.96046504056857
-5.23888438777391
-2.92688887771492
-0.33439298694763
1.55501656989285
1.67325784269509
0.372575226580625
-0.0565824538747674
1.36854615199934
2.92001577255611
3.28868842967122
2.28115753145562
0.50503658596948
0.439644933745467
2.77906052724181
4.14794641288513
3.17505602405526
2.23582878615372
1.71499744540557
0.925711436153816
1.74902994981484
4.75433843033466
6.94452851313544
6.76230161689691
6.36962283622311
7.22385680690696
7.69406034240181
6.43855783551549
4.64791222602574
3.55124089370782
3.02225146519065
2.94302261165543
2.58747115213541
1.38123298605554
1.15248884395056
2.16631704635823
0.781273247769805
-3.69724810464599
-7.22048504586109
-8.07961573635758
-8.37660211448141
-9.07639026497068
-8.72333796547307
-6.94637723871524
-6.10915415659922
-7.50711447445116
-8.64094204107059
-7.65912345583372
-6.51122932484306
-6.29932145653997
-5.2257585664859
-3.62111868489729
-3.60321917828568
-3.35745157541043
-0.737522052388128
1.98249883418104
4.05309647665906
7.36451285717302
10.8803241763042
12.4860510620112
12.3853430365551
12.1752881667535
13.0012511434424
13.6153681734673
12.2386651023126
9.30921016586254
5.74584870598998
2.87956674216946
2.79320858260039
4.41166789371344
4.03107352574895
0.855956816589936
-2.65079326078121
-4.65975927945021
-5.57082127307718
-6.83569045375218
-9.27756095457634
-11.8242332816532
-12.4073650175656
-11.5322806918332
-11.811331895084
-12.8942803406099
-12.3623529067684
-10.7473234552141
-9.95847387155504
-9.40779556628572
-7.92821491199418
-6.64882837969258
-6.81874181885695
-7.2542794537803
-6.99229085624991
-7.06557335405119
-6.77771661922701
-4.14274957688665
-1.57748479159303
-2.56716513644995
-3.99071606241155
-1.33513254078966
3.42802179479764
6.99457530086608
10.4850806072353
15.2396776730516
19.2713994234243
20.6023963160889
20.1430456324869
19.36106360613
18.3259100029116
17.6306777099944
17.3053144499914
14.809028014727
10.4131511553292
8.25681536748029
7.92250971646234
4.73529201049223
-1.54069082116792
-7.15838224604049
-10.7150588727672
-12.9553878791069
-14.0466764529402
-14.2292582382764
-14.5558180906629
-15.4604651769226
-15.5151029961762
-13.6568301802515
-11.2767871800638
-10.1031839415265
-10.5079681492449
-12.0311563186484
-13.3076783570356
-12.0336543311761
-7.04085506157627
-0.892212855389926
2.58727202847313
3.16685742121037
2.87762132030079
2.79872689440945
3.38176289786174
4.67408779168062
6.60335039212536
9.4468915635785
12.6533751520196
14.8688925876734
15.6841651388401
15.9259412480185
16.2841525634144
15.9212837515082
13.7039273748763
11.0487957414381
9.95952860555537
9.48150493451239
8.65185387314379
8.70120910797856
8.4847106165436
4.61247056105473
-1.07401662103792
-3.36278892393104
-3.40396142249586
-4.81664082628212
-5.73090461695014
-5.24120219221421
-6.78637222824167
-11.3704326470368
-16.5799613690111
-20.2051937113893
-21.4824490373973
-20.842570351677
-18.4919129042348
-14.4921617030193
-10.5300849282312
-8.45992328535199
-8.11915041404222
-8.60475651781303
-8.5907031497538
-6.43531742799905
-3.44871396075225
-2.00921689965092
-0.0646032167951709
4.75393175795242
9.82157173781064
12.4595519872104
13.4325356525601
14.3030853966849
16.5492794936095
20.3020966730631
22.5879543584008
21.1629736781084
18.3467626781648
17.4821868085502
18.1779301462859
17.4744454284783
13.9979029831136
8.96781408418998
3.91675971935876
-0.493767740345301
-4.41591168101943
-8.7229163614792
-13.3235896694704
-16.43199872558
-17.9247787595851
-20.4479749234497
-24.2182768208057
-25.5530546163627
-23.3008833023874
-20.8883202628249
-19.7481011841276
-17.3869702444339
-13.2458001516475
-10.0394492893067
-9.22106877480143
-8.77593865635695
-6.1985957668036
-2.29873014555107
1.19275472081282
5.08080363674816
9.25125962106658
11.8772272022748
13.6300905214241
15.0878192147119
14.0713899712754
10.9926374879518
9.77100000132452
12.0156802247265
15.9289097766817
19.9864879695314
24.1361533022585
27.4915952200324
27.556648461428
23.2742958153589
16.376150084652
8.70859838987839
1.62185324072375
-3.08714627247142
-5.58489585940001
-8.27107608409814
-11.4216137047094
-13.3157565852625
-14.4594335327298
-16.2558932157534
-17.6442882899951
-17.1805867888727
-15.7934727832171
-15.4030224624817
-15.9726367909706
-15.6218492021558
-13.9274199462064
-12.5697081079232
-12.8476018213414
-14.8086807771345
-16.7742986547466
-15.1048827001266
-8.89919676318044
-3.11389332816948
-1.07531311678332
0.735030563284511
4.81417260302862
8.70096694176644
11.581577349916
14.5015607667551
16.8134733642758
18.9467666709981
21.7738591629999
23.6173076143077
23.3691437876725
21.935906031803
20.0731060263774
18.4416955854568
17.3966731214506
16.3069313628184
14.506714019132
11.3397186077341
6.69061096567771
2.36320102254706
-0.742331573465549
-5.15157958335575
-11.850415595602
-17.0498798235581
-18.4102986712402
-18.120282124558
-18.0969337049816
-18.4588572280022
-18.6464381803321
-17.6043661797617
-15.4770056923652
-14.0067621251472
-14.2071011248373
-14.5563052117025
-12.7225574585148
-9.66505836472771
-8.71013964178109
-9.52094504839858
-8.37614417188423
-4.79358814458315
-1.37214883999614
1.9819255483332
6.74301045919197
11.5196116792847
14.672231139618
16.1057617656012
15.1905006924822
13.0262022572593
13.5736986162178
17.6930457756763
21.7657546727188
23.565930093738
23.234973898909
20.9269897397986
17.2401905018363
13.5615115971555
11.1524783049341
9.38170312898579
6.3741725902364
2.26710308812269
-1.35676120272592
-4.60706774125689
-8.73755308657635
-13.6692190684613
-19.0138057931921
-24.7368045781964
-28.449551123365
-27.6683023909132
-24.1956963240721
-20.8090426269206
-17.483011673876
-14.1646128052007
-12.6905856386339
-13.1669455088592
-12.7454213577817
-10.3867544837084
-8.05976897491728
-6.95588953447078
-6.65407949274804
-6.44233010039352
-5.38981379287767
-2.56487556633671
1.57386054721122
5.2610079269014
8.46310608702395
12.3863683292918
15.9356174064552
18.1885989619308
21.2651118596635
26.0692580030517
30.2265843736128
32.6263549906307
34.0168864382987
33.4359903805356
29.9338071671995
25.2270998857208
21.4247023801013
18.0932619113961
13.269075457862
7.16492323134696
1.04742510398956
-5.69883607045275
-12.6829172425621
-18.1461958284005
-22.6907530614947
-27.4340602796673
-31.254750398686
-32.9365107301765
-32.6878622540296
-31.4331783267028
-30.3666069170596
-29.8515271883811
-28.9582343986169
-27.1578580729794
-24.5525294862218
-21.581290689429
-18.9747008065081
-15.888069171626
-11.7597515938793
-8.52050827759281
-6.2192368629282
-2.3919508489011
2.46632834686889
5.81627678559255
7.99078176170083
10.8037409830816
15.0190237344474
21.1201234270045
28.4284757364257
34.1805041524334
36.120087331357
35.8325803297629
36.7796257894504
38.6926440924353
38.6188188199347
36.558967489944
34.619087162896
32.044150333438
26.1333086551604
17.5004547019481
9.49030382004581
2.99284426451698
-3.49680494516138
-10.5275426633749
-17.2179159935251
-22.08553186837
-24.6105500451281
-26.3671721394299
-28.6650307134513
-30.6450725943152
-31.3998016643482
-31.7135827965458
-32.1690260578509
-31.3183015351657
-27.8258822095624
-22.8130870360907
-18.0577835778701
-13.7144065697996
-9.20514604538649
-5.26659388991491
-2.94551180521611
-0.930641739704702
2.34944065650978
5.9396710793548
9.32357155447657
13.7598642763411
18.7607432935871
22.3550833532985
24.9117797741658
27.6687981095273
29.2614033145237
28.682343004427
27.8471696418819
27.7187301217371
26.8796855091056
25.1825142844666
23.8186035650349
21.9055521659898
17.6876670859057
11.709426042391
4.68559395909355
-4.09732283078536
-13.2807660613286
-20.3617462732316
-25.4733669512841
-28.5649067688189
-28.7640700991415
-28.5306420016122
-31.0348078046058
-34.6759658526362
-35.2983369393372
-31.9003542058189
-27.2597248786086
-24.0490375485773
-21.8306245143501
-18.8598077479302
-15.5213778599764
-12.9198150601959
-10.3595436084799
-7.30029382863211
-4.35419465148727
-0.885560369038212
3.9865369206582
8.94179821270753
12.8400815240349
16.2717307279404
19.3297539792776
22.2843985317785
26.8460414205821
32.6879843981802
36.9888807137841
38.7486846412523
39.1164674567054
38.9733322712482
37.8331956209119
35.0229314074107
31.6501944508944
28.1385175724205
22.5759729074445
14.4414947000569
5.20610929918645
-4.38729440305119
-14.4220240482843
-24.6782281203369
-33.7877746416109
-39.3247534501081
-40.0470272419357
-38.1171399067359
-37.484921537409
-39.4107138315305
-41.0342312976748
-39.2796798704447
-34.8879327790362
-31.3956462927988
-30.4677232640068
-29.8288472739371
-27.0257670646631
-22.3829203013397
-17.1625514663669
-12.1970856894447
-7.19970879473955
-0.784689602902732
6.37586062804396
11.9318517472665
16.5444341032982
22.5835185035338
29.323957589533
35.0566495941119
40.7506000011264
46.7395723827462
51.0171484192323
53.0266496928949
53.2113575259704
50.7034885435155
45.3757560242623
39.4363981352367
35.177286569685
31.7786584651775
26.3432116312384
17.8916541773521
7.45038578755613
-4.78021405306245
-18.2239939514904
-29.3851270584118
-36.0901575536912
-40.5273299100682
-43.9102886650738
-44.9210957622799
-43.6896309024267
-41.4890740551525
-39.0307435367704
-37.2865314789846
-36.3959299822796
-34.3146466704439
-30.2725364275963
-26.6470575130478
-24.6667894360551
-21.7301906510453
-15.2834061943394
-7.56567513145372
-2.11448026624734
2.71875190641013
9.84638812599339
17.5593693586073
24.1674882887517
30.7330845650228
36.8409549956702
42.1356420005181
48.1551846809269
54.3389582116925
58.857820713999
61.5139948997383
62.1849968675456
60.7168637416866
57.720476861339
53.613424092192
48.8012093428371
42.8239299801266
34.0106165295826
23.2121260396484
12.9356669481459
2.27739005882023
-10.6360503095309
-24.0109158702048
-34.2467911066675
-39.5927967034022
-41.4446475213378
-42.671625231389
-44.7300146310841
-46.6091932427387
-46.038625095875
-42.9246832428103
-40.3817947535837
-39.6504057436428
-37.8847790762844
-33.6154560783109
-29.1828531919032
-26.0127132570787
-22.4032553665
-16.9872886276062
-10.2007248794704
-2.49257715435397
5.24479777520478
11.4560356758435
16.3910033048031
20.9205675451149
24.4524302687859
28.4574961238936
36.1695621614957
46.6942700308238
55.5235628364312
59.3791129250667
57.8038812764579
52.0731313409519
43.3870206780463
33.1608727051804
23.5395931284241
14.3896850837546
2.80075436418089
-12.5014001252048
-30.4156073988495
-51.0004425712838
-73.9365408868406
-94.8625022557108
-109.767045928753
-118.573890115508
-122.103175148457
-122.644758063633
-122.948210356013
-121.118810631254
-114.637609202473
-106.649626659408
-101.812959624763
-100.738217387819
-100.247151864167
-96.4354368282395
-89.0057686638191
-80.6830115636643
-72.6461135211492
-65.8417809348802
-61.4157048701203
-57.0569643001754
-50.7031931548245
-44.3038931789246
-38.6194509733609
-31.4359570257946
-20.9010543435781
-5.19374119409621
16.0450498092135
39.2138345809409
61.5839859221446
86.1136588350972
118.179716612238
158.18638222002
198.464111607576
230.017082475023
249.374805131373
256.007682895763
251.156706136945
240.513152058516
228.962230990818
215.412519719933
198.173767779005
178.922379952391
159.018710003445
138.466040586309
118.575111617537
100.807875896507
86.374045331774
78.4134811540005
78.0636322451315
80.0112344143093
76.9711358107937
65.9951642776413
49.1082113315393
29.956427065593
10.6316400608595
-7.91303307512812
-25.0779329773784
-42.6543365695535
-63.543826392438
-88.4221935306487
-116.970591879151
-146.567559129727
-168.537685753009
-175.199431444929
-169.074152071243
-157.952907270091
-146.590408224603
-135.687457857122
-122.455291039717
-103.532661368616
-80.3449731922978
-59.2062006808633
-45.7502544972914
-40.1804530200691
-39.9230630175786
-46.1008403027963
-60.3062231307881
-77.7309765090815
-92.0732945524859
-101.695744705374
-106.497061104619
-106.678551842456
-106.297236135915
-110.077917220226
-117.065733472447
-123.227821375093
-126.711517353083
-126.570889994855
-119.759483822169
-101.769017662236
-70.0480469632894
-28.1584500434301
15.0958398538541
52.7884356411931
82.6532980650502
103.912251881321
116.128639295962
120.085086680076
117.412444433356
109.35503830553
96.6929765482946
82.4855573361877
73.0619097569085
71.9690300618856
77.177655914736
86.9015810023463
100.706639170832
116.37216817795
132.1133139648
147.459774810917
159.313679827474
162.9799922816
157.824274929018
147.701746578784
135.983205704364
122.957722541414
108.671949348654
93.8111850083076
76.6618737546178
55.2484240116921
30.4654463768989
2.06703178784194
-31.806973611694
-67.6842193878198
-98.2262914157723
-121.262105741124
-139.46755227142
-154.967282550828
-168.765322013676
-179.441947601593
-182.278858239554
-174.415790440593
-158.055324891354
-136.274665225515
-110.654187347094
-84.1367160677586
-61.3197935381122
-45.2069937281856
-34.0755944272437
-22.4090227405425
-8.08628582844363
4.99722001624462
15.0578943806689
26.1987487437093
41.6267654384182
59.8333901520746
76.1202514105563
84.9466579810964
84.9564123643317
81.0255792144176
79.1312265085141
80.6860704383439
82.7312292488254
82.6576566052001
79.4431178881867
71.7369623578064
60.0855957329333
48.4158831473273
38.0776209578597
24.2084889346749
3.58050536973197
-18.8186943939264
-36.0639088871395
-46.4395225112509
-52.349524122781
-56.6895239092
-60.5501388464066
-62.8502506393515
-62.4458796692558
-60.8645631443392
-60.516795001324
-60.4474326932528
-57.9929091981368
-53.4156669509501
-48.8493611370298
-44.2188702827212
-38.9198277359741
-35.4408739179449
-35.4500513175913
-35.4222547273987
-31.8799033394792
-26.195106598353
-20.1690037261681
-13.7367663031357
-7.03187003858884
1.25053777123343
13.2027892767619
28.236895787063
43.854712606403
56.5438096377538
62.9823207587789
63.496174365116
60.6285369957141
55.6088429509621
48.2525808632812
37.2385866942397
22.8304984577484
8.86258494444658
-2.58640423043167
-14.4611006211457
-29.4071510109228
-45.9214071383775
-60.7505831090249
-71.0580908368647
-75.8904674446909
-77.6279012420893
-79.7825023765413
-83.9769351270492
-89.2403692716819
-93.2931980533899
-94.7643352989851
-92.7979832850697
-86.2197581368496
-76.0580956273535
-64.805331859418
-51.0838476777178
-31.3099675265454
-7.62245110750603
13.306241790627
29.7246296064268
45.3549482065125
62.5160369146316
81.0486719182643
99.3370783614818
115.158723736635
130.46561748633
150.422183175607
174.487814666839
195.018483087441
205.730781349084
206.492871842079
199.547964600424
185.658700304739
165.901038188986
143.172202571697
118.686182987587
90.3315802392531
56.4402649207475
17.5733786087792
-24.3909117882466
-65.4176157401554
-101.031591570037
-129.742995481791
-149.788582256717
-157.46343325234
-154.329943590041
-147.245134235365
-139.499808575617
-130.712735305507
-121.830391375648
-113.406881095004
-103.250904984772
-88.8185012636234
-69.7738338838422
-47.5434450859414
-23.3631496743733
1.75653793089279
26.0395268179706
48.0237344086535
67.5176342735581
83.5287351576052
93.64167170635
98.2332645608119
101.610536240696
107.102014640103
114.993291454217
124.732611566709
135.89997169645
146.826002961623
153.376167250564
151.685423929162
141.237650879381
122.611131233495
95.8845332754328
62.1528162392623
23.3897707176047
-16.9026175763145
-53.572773018336
-84.3904112476352
-111.17966714939
-133.630799719437
-148.396029095628
-154.839638206291
-154.192927753042
-147.864352164191
-141.215579033658
-139.797982229418
-141.670895025214
-140.53628818692
-133.963841465263
-124.296218016213
-113.395177379873
-101.27575439024
-90.0052923610264
-82.6497540310404
-77.604145785175
-70.5439740822185
-60.8903249487969
-50.0310179808067
-36.2705102068141
-18.0457462539152
2.1516477543007
22.0409280599593
41.4965897425648
60.3151242448227
79.897225231264
102.123111346869
125.82896454923
148.853405485664
169.106179676257
182.940672980721
187.719047340876
184.767089574439
176.430085345881
162.496553720358
141.635492130696
114.331191136543
83.666690768921
52.4308520759001
19.4348264831167
-17.3761521061717
-55.0723915005453
-87.5433829014754
-110.868518934737
-125.303875895662
-134.880218475856
-143.540922001511
-150.000727384188
-149.806129727269
-142.916459732643
-134.218617011589
-126.750116464111
-119.788560356919
-111.784582262818
-100.598573880492
-84.1991736582373
-64.0199408345137
-43.6912170577134
-24.6303202723049
-6.76824814868986
8.87595561916353
22.3344586810395
36.5294862440971
52.7263925860462
68.5527697229148
84.7196540970426
106.55961412772
134.963787794116
162.904535396214
183.359109650345
194.749732189203
198.107294377804
194.593557561618
185.691590426483
171.563980195037
149.500044702838
118.070229461458
81.8192064198081
45.3451643390248
6.39203403463024
-37.4941832154964
-80.989793516482
-115.887766959732
-139.095470809262
-152.645115535057
-160.903356111479
-167.664887772898
-171.897221163279
-169.471088648709
-160.351906279991
-149.033892561469
-138.085542327824
-126.489255032676
-113.371581520776
-98.6523907599423
-81.2911116066588
-61.7530003724402
-44.1284989231033
-30.4967895029593
-18.0880435911865
-5.40494548701422
6.77593498521437
20.1561440157868
36.6410694480083
54.8723522542475
74.7569398177373
99.8160290870951
131.474089004497
165.658270499643
195.938751584962
217.93912309567
230.893994824297
235.924363539377
233.991410530202
223.931302394161
202.312187182702
168.551715189523
127.687675860565
84.5902238076116
39.22073408263
-8.95218325569473
-56.1651940564516
-96.677885640116
-125.180023282852
-139.925250920065
-146.760453027538
-152.690307468634
-157.436300490262
-157.683331177917
-154.040888461433
-149.474835342104
-144.963926337365
-138.830062810252
-129.010502252158
-115.599193815658
-100.315621172597
-84.7655512498895
-70.5636896420934
-57.9978546157247
-44.8953299381315
-29.6453240685489
-12.9078835115166
5.15903903605383
25.2492004011091
46.7242989201213
69.9079204487277
97.3111911382463
129.162020890486
161.378576373853
188.44320388094
206.112525838463
211.60752721624
204.854110201607
190.641300831185
173.927238490307
152.695654554005
121.039278341236
77.8653998414726
27.9101126538184
-24.480066932575
-77.4563460183844
-126.475628899573
-163.669085279239
-184.852280510465
-193.371851625038
-197.730633320007
-203.939186271571
-209.16592488842
-207.246613967432
-197.470261671685
-182.695964706483
-164.933233039368
-148.584388686983
-139.823772590204
-137.771774407981
-134.945853820263
-127.389279136064
-116.420732731812
-102.986488069579
-87.2137563943275
-71.5403492962882
-57.3926364397125
-39.5336255313706
-12.5106063581756
20.987623945814
56.0446933360938
90.7511949754707
122.551041059182
148.602787619794
167.732064068965
176.873568232493
171.243488310704
151.769407966825
125.710857763311
95.8359912921598
56.9440877343566
9.83170309156146
-28.7923876151598
-38.5335487919619
-14.2805788608721
28.6056641463946
65.7591606765527
84.3980141495839
90.6463981031914
92.0688349255979
85.7360643148154
69.7388049193536
53.1546013100477
48.4057467286278
58.4121073305935
76.1889430296151
93.9832269343459
107.410070877607
115.676763618297
121.628822619621
129.576382675715
140.856393172684
152.488244349535
163.100863914416
174.457118963691
185.317800864419
191.498100562978
189.918764618766
177.902330943053
155.327381101367
130.357382774857
112.757654575672
100.011126524208
79.7911515945115
45.520445563805
3.30830693480825
-38.4392199432077
-83.8159626387077
-146.00679109389
-230.186517714596
-326.721949822372
-416.140370542393
-477.918813977642
-501.773132779809
-493.603615508334
-470.989766563838
-452.354472002769
-443.379629406371
-431.10363966675
-399.221972680726
-345.056345328549
-269.941672834362
-170.704016844229
-57.1316191862406
43.4537049648672
110.421968832422
144.720984463294
160.287124873696
170.550655540444
181.536993888646
191.745391608531
194.442502085113
183.403826637511
163.056212714723
147.929990795764
146.282913815722
151.44851030334
155.868313478577
165.676919204274
192.323198143191
236.853621432347
290.488590360476
344.681618086381
395.595513599451
443.545554044934
491.053649271163
536.568598559287
567.203137090792
564.941645555601
524.32575551342
455.593322349413
369.204081229375
271.121446109609
172.603525341872
84.1573257825543
-0.92486582674548
-98.1633851620369
-208.621253217081
-315.800000117675
-399.467295060448
-447.316661071213
-462.010536754428
-461.099455205056
-465.587236688223
-486.336120003451
-521.50683300399
-562.325135608993
-598.624129718044
-624.728955746236
-640.941938822318
-647.994007362276
-647.465058589699
-649.549797962559
-669.261736816456
-704.035267419735
-721.690117996085
-688.804353750972
-608.484313239809
-513.332783730435
-428.191463158334
-357.773318005175
-300.518102257971
-250.151141322329
-184.842392209974
-74.1264290006526
91.3643460031706
278.96113436995
438.400239014836
547.821466701531
619.505402887329
677.640320103918
753.728163729632
874.84408445491
1029.12742149012
1165.07298474909
1238.54110834396
1242.37655383602
1193.12106620065
1113.07332443598
1023.26018225418
937.95962451328
863.633277234704
798.720780694835
734.448261072147
664.081047138212
586.975486978772
502.287238251593
405.516185220931
288.386723751062
141.071787461783
-40.8700827189355
-250.934569843671
-470.707278724294
-671.495897762312
-821.024682981867
-896.548029084079
-897.09467429429
-847.080283512481
-791.813954368893
-783.036110172271
-851.635689699558
-987.8630197278
-1153.67542363628
-1311.65016745664
-1435.83326577218
-1501.13742674321
-1477.60811801278
-1348.34403469379
-1130.49216721167
-867.090299983476
-598.277660575777
-340.137378754127
-87.5161290762468
161.672684524562
393.044803596749
590.957048915397
751.652618219321
875.816854229662
961.336227323
1006.10054971247
1012.61437708105
993.578417256589
971.692349075646
966.813119936197
987.612635917219
1033.41503494625
1093.04405184684
1149.74809119945
1189.53805704354
1197.91102215336
1165.86259298349
1101.10081588619
1014.03582543978
904.061226244767
769.842204673228
618.09741391385
459.216576426774
298.417410484583
130.850826332766
-49.3848659012075
-237.110026316467
-424.15875911265
-614.45633492833
-814.318189443577
-1014.32471326141
-1195.93434505829
-1346.89759580043
-1460.79670441446
-1532.37244121006
-1563.15740930291
-1564.64527926954
-1547.30973865242
-1510.43870668064
-1439.79048280526
-1314.03361929035
-1133.61656859087
-940.889989453106
-786.706346752181
-685.917227471719
-621.245414373132
-570.244481028133
-514.97933111518
-441.211214962076
-332.455736400414
-165.401027065161
68.3053684382689
336.454757038143
582.433635997812
761.995875900214
861.173746888627
894.835126932014
892.154060371399
876.797001913289
857.363684169943
829.613785925907
784.498220866611
724.815257948189
676.261706928886
667.624843056286
699.435968606115
744.140432938726
778.744175781697
808.902765549181
849.1451532281
885.424503326033
884.57089168127
842.396342504025
789.687972831165
744.842901872065
693.971596243656
623.079146577277
537.519950751999
442.996592838943
334.333314316525
215.5573750433
108.48439379024
20.2638007450537
-76.0232575505959
-209.381885375569
-386.014170800738
-600.664956219353
-837.934306370137
-1060.54789366212
-1227.19657514892
-1333.26410553297
-1416.75245131152
-1512.59817125221
-1609.24598331556
-1652.42266230253
-1582.76881247099
-1375.39138805777
-1065.46702333577
-736.379674670292
-462.673797736923
-265.868133736606
-127.315996979262
-20.9758338564102
76.6714626374288
194.014268521777
361.09074490177
587.400198449089
845.262075141409
1083.71117549399
1268.91967477021
1410.16080414938
1534.10287868843
1640.93779337841
1705.37815781488
1714.79326789632
1683.46552134141
1626.09609450651
1536.60448712084
1400.39564077373
1210.78614661812
970.922673142292
695.617204864948
403.958473746893
101.635908633463
-209.347978909688
-501.147247954464
-720.522142824931
-828.022221450393
-839.001105439327
-817.243181457662
-823.629223853789
-886.705045799795
-1012.64800636515
-1183.92319225545
-1357.94090012777
-1508.71898136544
-1654.32544631418
-1817.76040932972
-1978.24188782907
-2068.72092710033
-2024.61165931038
-1848.64593783592
-1617.86321792888
-1416.3715609085
-1275.88085231466
-1180.67410721995
-1100.422439063
-1007.21785117399
-876.236254700511
-685.544176416781
-434.702979008896
-167.149209238001
58.4829311872
235.695982472557
422.418363520396
670.738834037664
962.066415504569
1228.78901958384
1426.78907140267
1566.08836405722
1689.08749043316
1841.09695033616
2034.8872358529
2224.74143387662
2339.92850055029
2345.52090998833
2254.78321602396
2100.31352971041
1908.78640775785
1695.76678442582
1480.70306022557
1299.50830639663
1181.34925651228
1112.51827289147
1049.68085438184
967.279485925044
868.534234755335
753.917431913738
599.661119570657
376.537308587944
78.2334494222927
-278.346065128754
-668.241299740612
-1069.89776316639
-1469.10111060812
-1848.8011786865
-2181.81926659234
-2443.03883521278
-2622.9504328223
-2728.69189625003
-2768.79812823488
-2731.86433858668
-2596.01336268595
-2356.60137041588
-2009.01699893036
-1518.67456954601
-870.628038293856
-143.675810509018
516.214224120613
992.42624434559
1254.59179959983
1346.85070389842
1339.10582972438
1284.7634391782
1208.53810397443
1112.84961737958
993.239853939677
854.409918505555
707.589408094224
562.608086180111
436.652123198924
353.473474086735
318.691549999003
310.479946782287
299.77479154377
266.273368039975
200.336032815382
109.77990503496
26.0081596064341
-12.3638233055504
10.5770414557959
75.867785152437
139.440547752755
149.300402271902
71.4869587863919
-85.9289313357569
-285.165669546665
-496.026133993108
-700.037077081215
-865.316464919808
-945.047056450258
-901.895502782465
-730.819054451441
-465.432200280724
-170.293399506836
73.8559676964891
203.893226930371
216.555426527945
170.296975162112
137.828113840516
158.798536580377
229.618992823637
327.039144812925
441.552765923461
583.282432167748
747.211319664113
888.699086093561
955.250288815109
932.03296271088
841.662097607994
714.274983914764
567.616851719593
404.036506588278
221.745735853224
33.6412503563919
-125.011213012202
-212.155507232957
-210.492132924769
-145.835225517895
-68.6817110619528
-22.3058863209472
-31.5631151732845
-103.650541243236
-225.730628174686
-370.494270565496
-509.352971301007
-622.209008685346
-704.102882680369
-761.91246338287
-802.991443513636
-835.356380731357
-873.394852163093
-928.376414194315
-997.849400450103
-1075.15710576945
-1163.55169773612
-1272.66446318024
-1403.75354665199
-1549.43348011628
-1706.98804053902
-1870.29035045864
-2003.3198080973
-2046.7366594161
-1963.12228042162
-1748.59151167738
-1391.96223260782
-878.001410460242
-253.147302274691
366.458838601373
874.062844898588
1231.21365220971
1458.27387576999
1611.67895662229
1767.51069105129
1974.92123464409
2212.96019508383
2420.23026704929
2563.75905898586
2662.15560272008
2748.8397498377
2828.49307114268
2877.19219886963
2878.97036892896
2842.02880523964
2771.93595653381
2655.23489685583
2485.13814289992
2275.60476991459
2032.63747640715
1736.03987588243
1368.15687893528
946.005430887092
504.862508593545
57.0007937161195
-408.057547075229
-884.558082359367
-1338.07953164557
-1735.14656670597
-2069.7105195824
-2349.05928782837
-2557.43614477817
-2658.58706217821
-2646.69062060491
-2571.35603332344
-2493.35229590621
-2432.34083490915
-2375.26303135904
-2317.72064816004
-2265.57928368632
-2199.09500712193
-2074.05520773528
-1872.25310307333
-1626.14311493623
-1383.84971937924
-1166.40305753277
-967.165105386496
-778.798491217175
-602.022680132136
-428.644352542765
-240.599472391094
-38.5434340189538
156.5483969608
345.262600558422
557.525077910341
803.434603148407
1053.86450860007
1279.13373522166
1464.78365311202
1585.80274239423
1610.59789497914
1534.25751840135
1377.82523985952
1162.19973100216
905.499146775105
637.659469342843
398.575627625672
212.269730076442
64.4046356502332
-72.1192579283559
-171.605978957027
-142.931625542427
73.3263758498706
406.289976563514
709.354190726664
907.60086184664
1035.40883680834
1150.67792522547
1266.75572167602
1347.37297734117
1336.91854667414
1206.0855795435
979.991820687866
727.867197358533
519.933443899562
379.662233572562
284.33252796756
208.036605057653
134.417352860794
44.2482446527842
-63.2100178551972
-149.684632266714
-174.50288289822
-138.538121695148
-72.0679383048187
0.0531136579798121
60.5640398085961
81.5283468780689
28.6388453897568
-109.139578116976
-307.00977511226
-528.094556196821
-746.787320486197
-953.766103013391
-1159.20197507329
-1373.10207409486
-1562.79844254265
-1661.78899746182
-1630.75756910625
-1480.69717705623
-1251.35755387944
-994.00255008834
-756.007399212866
-566.990381691034
-439.439595105707
-370.004988093665
-337.456937834705
-313.625901852707
-284.378820120047
-257.201464259529
-248.934114991222
-273.118501628874
-335.259720264241
-429.679437565453
-543.003739017092
-665.478982645324
-787.1653387146
-867.724503808103
-831.825885278471
-633.229657636639
-314.546781391788
26.4102372631164
319.939485763824
551.657920228496
726.05291679336
841.832893418421
903.195844919897
932.94057853226
968.82497292239
1042.10721202102
1151.84545811528
1264.84413342739
1343.27087227941
1364.61507624992
1318.884803501
1206.79912936628
1051.92390784834
909.084814218905
847.284610805902
904.552786781825
1049.62774392135
1205.16910761031
1316.49771294894
1372.95408733494
1370.07960640136
1291.07315388249
1123.88892266086
879.803474051074
594.246545402445
302.683752068144
18.3556200737718
-258.427256633521
-518.937300676696
-740.700143149611
-897.027865087677
-971.274349898338
-967.425011298546
-908.488284168706
-826.046569777559
-751.133844444024
-703.062345881632
-680.934114540478
-673.336254767013
-669.589166675294
-658.220509993861
-634.970042190634
-616.073186259022
-628.501019219441
-689.37445818962
-799.863750946405
-952.196826369213
-1137.75925905116
-1340.41406179094
-1519.37094310384
-1616.92506227157
-1595.35312274741
-1462.32919132513
-1262.60242775529
-1051.22835843719
-871.009155777582
-745.821599762726
-686.491498175588
-686.386301492412
-696.511779249363
-627.397141154347
-410.823478562294
-54.0799054852855
373.481650362415
787.428016030699
1127.42005847187
1372.98605287729
1534.90563745134
1639.64156657463
1709.82053948819
1747.55254387288
1738.91484352603
1674.27845107431
1563.61661357306
1428.79266250594
1285.0842896365
1141.52348643979
1008.22974505056
889.557157178217
777.844846154294
657.786791754176
515.052049381028
349.620870340587
185.081737227737
58.87422062072
3.44946029749913
27.2974242932563
92.107617986878
117.422588079799
35.0011679130939
-163.237315870532
-438.642161075702
-751.842792710387
-1083.14634304011
-1411.72836226704
-1684.95023440339
-1827.21957354177
-1797.00965151838
-1621.91457074258
-1362.72762600499
-1070.20635665056
-785.557388468558
-543.033386584896
-362.237255028553
-255.581904112748
-231.333378177379
-278.11913313014
-361.117600857075
-440.065750033756
-474.89098161628
-417.146169865675
-238.300269406575
25.9370294085227
296.73177646945
510.865153846393
637.454530242387
669.150545461898
623.300467738164
534.299412042658
435.575552614755
355.65241590799
318.559527549941
333.38584629316
393.139259882566
488.827810615606
611.363686847901
735.249820747367
820.394985434179
851.724622143899
865.980816579255
914.696530885285
1006.28600846382
1100.34012914931
1145.27548507622
1113.48446286004
1017.73100455075
895.336193923506
776.979422348579
678.579872350294
603.573967668664
541.498008227182
481.342949925611
427.515418543449
392.706875009291
379.658454367229
377.277406420944
374.058893659951
362.780000094128
323.62235366398
222.338257832589
39.5948888950715
-213.682836840886
-516.111672024354
-853.059601916777
-1208.32314162481
-1554.00162532959
-1858.57787754806
-2100.58846990551
-2270.20787948647
-2358.12861315363
-2347.00703468808
-2226.57032078165
-2018.75521162627
-1771.07360485618
-1526.89937331245
-1308.4846982176
-1110.02818058532
-902.397565867017
-662.142778131672
-399.460321477581
-155.721232890375
24.7856481170889
130.666638286457
194.704342824536
258.25714027608
326.388287121593
368.13371508288
360.710888086234
327.955149716734
327.06432757043
393.875330233997
508.420794289809
618.891209822458
691.708690810652
727.281205078032
739.730947680672
755.83468344159
822.978538317241
967.271369142215
1153.09746614663
1317.26426893998
1412.77638223224
1408.51048854327
1293.77710660099
1095.59006282997
872.116946157323
683.095227599148
552.852587360944
459.559298930642
384.563020173581
360.764175901344
430.643675017885
573.227479143482
720.905810755242
831.381520628437
900.289712175294
920.155222390468
867.838122945869
731.333870686677
529.776231152171
314.58464014756
157.188351166663
106.743290530771
138.478705575934
159.245242967882
78.0262949912073
-127.771287090548
-410.252120232425
-704.731028186905
-972.533058122155
-1203.22224818779
-1410.54973014279
-1621.42378931771
-1834.3671424987
-1998.52746859089
-2062.71782587374
-2027.72939241575
-1939.12398745201
-1858.58306372488
-1834.82470584558
-1873.14960424424
-1939.75299301876
-1978.70995550875
-1894.54814335424
-1571.00616440726
-978.794587274641
-239.127351113443
464.647942924549
1012.5119180692
1375.27865937322
1575.86800987811
1663.12542196778
1699.33195116836
1728.89711434454
1744.9583074227
1708.68295038268
1610.61780772557
1495.00127663655
1415.90507712591
1378.06244569953
1333.8143861445
1238.52469652475
1089.43584635353
908.982020792355
713.400532249708
499.603305725758
250.227328770998
-45.5146074169372
-375.373842915056
-712.259536548543
-1030.41842467187
-1304.19731050803
-1489.31063487423
-1522.492748508
-1380.5204037106
-1141.69351274911
-936.843468518683
-830.403352970706
-782.666635973692
-715.409308421154
-575.983724515307
-343.603789732431
-18.5782422537899
367.664994239432
743.059623119641
1018.43442449401
1140.03788477067
1122.92261941348
1026.87089845503
903.97248283585
774.643887681873
641.855626672993
509.647152406452
389.026523826607
299.823879395887
258.838892000779
247.025980715378
202.381118198379
67.9949287275049
-163.825734875491
-460.353384783958
-779.108791868961
-1082.30664957585
-1335.95233623416
-1505.87151683363
-1562.3717424266
-1505.74457358327
-1379.37046681959
-1208.61495320334
-930.9199820337
-466.027709832162
140.425330215579
718.678681974418
1116.66922055343
1292.79131081925
1293.31065681733
1193.15952573467
1063.57791016217
959.433764106803
908.066987981818
904.132384979485
916.215485138924
906.815502926548
857.080357731361
769.842488325843
648.662984282656
488.627291632354
290.468356736395
73.6918277203718
-127.927766430231
-291.489013300938
-430.346734925389
-572.812218269618
-708.454210115388
-796.197717377902
-828.127584216396
-833.459199494299
-835.223705494158
-843.330389507553
-852.080375267852
-831.048194293011
-761.802406541652
-667.592818679451
-572.947410646967
-469.558380426347
-341.485930978302
-186.836222009816
-12.849422974849
157.813586498668
280.180408779733
317.841018144049
288.997370236548
257.569653220784
273.8613622663
348.463817669379
473.521755114505
637.193541441707
816.366778776094
974.301368165946
1082.47550467018
1140.51787060714
1162.10355578946
1146.16222244733
1064.12565847324
874.907603725042
568.955433746901
203.247432244517
-135.692781874551
-418.738405839046
-694.170982894912
-1007.36338034035
-1331.97470133083
-1595.63580769835
-1754.42923668435
-1825.11613063839
-1838.6142273429
-1771.67804052127
-1552.91182788994
-1154.01152332854
-653.787750449467
-180.764474784226
194.793052474878
491.246989803309
763.389724177646
1037.96215548903
1286.89376492436
1453.38390075011
1498.42362805201
1423.39190170567
1255.78929236159
1019.13356735358
728.141561135743
411.230194414031
116.372062605854
-110.562467659244
-253.404792981559
-339.935452368239
-408.873954118899
-438.294581203819
-341.846643489969
-77.7424181709327
277.039337408923
596.336446858264
802.463955949003
873.881533179469
807.18706411225
607.391966535386
302.028687329465
-57.483952738086
-412.225665121003
-717.8851605873
-962.872547132643
-1164.63348950356
-1341.60085310618
-1494.11371778701
-1620.97186229241
-1730.27054544258
-1800.20852882065
-1759.23718228925
-1553.13964835975
-1202.27823823135
-748.788820665156
-198.434147749592
429.991009710901
1054.81954573928
1576.71622124075
1933.90130944908
2110.84867529706
2133.66198504439
2050.50583529851
1889.45125593147
1648.0997668227
1335.73508448878
994.048703533683
667.165268035915
383.944005796501
169.63317834109
38.9965978085578
-29.4649230872389
-83.5627564774571
-150.931923184785
-221.152583438444
-271.009409237736
-289.684339744226
-292.607259192162
-323.275799519386
-420.534385226725
-575.674358995059
-738.311143963835
-854.358747216084
-884.629711453658
-822.227339682143
-717.542474180215
-658.240096744462
-700.549747415446
-828.29382745055
-988.829885151394
-1147.67892285658
-1282.91441106419
-1353.61228525766
-1320.31607400395
-1191.8620159859
-1018.63620150232
-826.429436337343
-573.383947365879
-211.709223752994
218.555515442326
615.171485626563
905.388752229622
1070.24766991399
1139.445847878
1180.16466885976
1230.53206124083
1252.31901462933
1182.49298400889
1004.1458804911
749.003701018691
464.811647545983
208.759174167723
39.1051872528567
-38.6941533015024
-93.4759012063232
-186.524844029492
-298.855307917216
-365.904628840852
-330.778177618242
-152.530668055397
170.676635782482
570.756874900689
945.307613919073
1219.07735430592
1353.78878573475
1338.84204725139
1192.45237624238
945.707855801885
623.175005666547
245.401455822257
-166.352807708435
-580.666782944618
-926.743590622911
-1116.1046940713
-1141.34247230131
-1097.1114424421
-1057.11444507988
-988.972181351032
-817.360185043057
-514.568174966922
-113.519574625793
317.742817642919
699.616014387392
984.413586446509
1190.89835735669
1356.17837053012
1460.44862072127
1444.82321892777
1282.39299947077
996.234089402786
636.410841668596
258.650604512603
-103.05139489287
-446.055627677067
-763.381152557627
-1017.27329543695
-1169.38814641589
-1226.04105084777
-1240.40169933641
-1268.21251638307
-1316.37510673901
-1326.30172748696
-1215.70345083224
-957.665216854938
-619.250054914046
-314.575634670194
-129.637133425131
-78.0113620135263
-85.1658811767996
-21.540978469011
197.951166102685
535.659641079142
868.678082463556
1090.13635978252
1159.74886344847
1084.92111342982
891.756127609664
623.274428752034
341.656767050946
102.284431602196
-75.1776361549049
-200.37011344413
-290.239724238385
-362.058235771585
-429.563813592457
-493.074290214914
-538.752740022763
-549.48376568015
-498.205902043071
-326.133292871894
2.89267231980891
396.309117286429
673.20712193508
727.392540904833
578.452456694044
300.630268739336
-27.156899735947
-336.904263230192
-592.318323397853
-801.057505871805
-998.405519952391
-1202.70842028858
-1380.95730387453
-1474.01018897129
-1444.84374915931
-1276.43268812398
-948.786736870968
-458.899080296542
140.181687241345
739.824660744871
1228.06230694178
1543.40308605926
1679.98242354091
1663.8823583431
1536.08417673795
1335.50610614991
1079.16244605527
765.088174415331
396.640009398563
-12.8510390643841
-450.156281978239
-884.452811132051
-1250.24409627684
-1479.74284037017
-1551.84364424669
-1502.7094530753
-1384.92021292995
-1209.23509099997
-946.618842233769
-591.759878755695
-178.550723131669
251.321757133842
640.368971794879
922.516180000372
1079.12608183327
1136.90978721509
1112.2551297969
1027.09919818577
972.347038153195
1059.60993268407
1286.05468788141
1534.43284496136
1712.08341898791
1805.48306535426
1822.63494154528
1762.39021665622
1629.73256700682
1440.03306384751
1205.57049942144
927.150706242263
604.288221722415
256.774322720462
-70.9367111775008
-344.640308041296
-582.990938338025
-847.169694494327
-1184.68011338986
-1589.91758108656
-2003.92834764198
-2343.31092290066
-2549.27593840802
-2622.19831148269
-2601.51954198766
-2514.61103983099
-2363.97431476336
-2163.2790651995
-1950.05127597878
-1726.77716862638
-1406.61051673846
-887.022152246833
-198.387926911803
490.742171944523
1035.51202385581
1407.20485745181
1632.6350501132
1738.59024450393
1766.21238871174
1770.29022025189
1777.34110170389
1767.33320959779
1711.2219565206
1611.66473968674
1491.6442008488
1361.44965793891
1216.54430139353
1053.3492770628
872.472197994023
674.678909901046
463.098415935903
248.302262599208
47.342160344407
-125.383278944208
-268.727481414039
-397.99502181779
-532.371576104503
-666.476332192542
-765.083772222851
-805.260478852954
-805.410233636965
-801.174221322522
-808.691950162882
-806.119417830576
-744.804554960256
-589.880460326936
-354.383458905527
-104.055178296969
73.396859027184
131.47706422003
94.6429738540207
13.7984143168644
-80.5716958753615
-172.21176542747
-238.172072953855
-255.101883690623
-222.542693511044
-170.87870572666
-141.760441862802
-159.709799249793
-223.518034530143
-323.123173988269
-455.18263424335
-617.334141225753
-794.267273750437
-954.208291131045
-1050.38634604707
-1026.91837839987
-859.259280676426
-598.74147804047
-334.991484188553
-117.426091939919
48.5467898946108
155.102361792705
183.773245369509
125.855076311342
-9.57680050789525
-196.315665355675
-397.653216259048
-584.974930069833
-749.950809348566
-892.480278345122
-1000.29115027662
-1048.27431806826
-1019.33167867968
-913.188181316727
-731.26930933496
-480.711118083454
-193.310148961493
94.3029499177415
367.5710542874
618.050392134605
823.33324606853
959.391812890288
1023.64285511683
1033.86310497889
1002.24957803018
925.016221256999
798.592786666495
629.562625371361
442.694733392124
303.208038593138
300.192742994908
472.402271491965
775.28060978045
1129.1357121383
1463.90107008216
1729.15336207179
1906.66335846555
2013.64415909918
2069.79697643536
2069.85423217669
2015.61895536632
1950.20887546895
1908.62800414959
1865.66981151991
1782.87572076222
1662.75979604056
1521.23899709292
1348.93259703092
1124.27094699401
847.584003374314
549.561716219996
264.35682622905
3.59622232692235
-230.974984939024
-421.670281954343
-552.330583150938
-645.969853800325
-747.932145140971
-880.133750705223
-1038.97379680936
-1215.13883955648
-1397.27936202717
-1577.22071132584
-1753.52260445971
-1909.25259660103
-1993.61372533678
-1960.67586018726
-1835.6732259194
-1708.843565047
-1651.8030221116
-1669.74123296739
-1728.13348585092
-1790.25234722841
-1840.11461921925
-1892.22645848314
-1968.34090745947
-2059.73991828831
-2119.64420068152
-2088.70237145778
-1929.76308782416
-1645.39921311596
-1269.95483555998
-859.09781626588
-472.732247726824
-146.281359409478
107.307380814831
273.557973427032
344.125596644718
345.963490047306
343.38945249481
393.183425191035
502.159964598906
655.464067952641
861.984363651664
1126.00738738087
1403.29669845419
1627.61726280643
1760.14914883982
1796.86515492918
1759.5631138745
1686.13216569598
1596.68426503321
1475.79366415808
1304.32068907815
1085.78767037547
842.724932914011
614.440941457134
453.344314889776
401.183540750223
456.774999966573
559.565099202485
617.092363463907
575.263001417663
454.887099416144
304.136367139515
144.561605882562
-20.3128897245601
-181.558179167719
-330.787877053273
-467.131645386652
-580.96701010731
-652.513323940712
-687.55314223061
-713.254009600169
-726.24308783193
-697.008876808713
-612.033553075142
-478.917283463313
-320.710977865798
-165.041873127402
-22.6899593478514
92.3211125010559
134.240862155313
69.7295519751653
-61.292748604518
-161.389097125162
-137.278425085785
58.2299284374966
397.138987791369
770.033718181091
1053.24675270494
1193.25925699764
1207.12593480113
1131.78037355729
1001.83099664367
854.528625969959
723.224237927846
608.324480645245
468.855196432291
271.65618851514
36.9527385759309
-194.047319206507
-409.446562437089
-608.131812745285
-761.896948029806
-831.473737003751
-810.5549938507
-727.791343130473
-599.393666207848
-423.78947658984
-236.985901998648
-115.979675718776
-114.678082490826
-228.672427310981
-413.200967081877
-618.115663509217
-815.084739159679
-987.993470951063
-1091.6211806512
-1056.64984506137
-856.640233064748
-532.707553789364
-158.093796177171
181.828028946218
411.297617891651
506.500898491901
502.347817256247
455.283082320306
402.649494312781
347.441241213147
274.59800243715
179.490057757827
82.5333962193629
14.9143185064331
-9.33817080454279
2.31517677034731
37.7102754646109
81.7893951671489
113.333053237392
118.304781594984
95.2769111045905
47.2547577170062
-21.6077973922479
-108.381396264369
-211.360127003795
-326.813876476867
-452.615865004766
-589.27565414158
-732.922369960745
-871.880620764577
-995.197593313577
-1107.61258827256
-1223.86088639387
-1333.49895961267
-1368.03555219476
-1212.54806552316
-768.260038522957
-19.1093351588892
929.609755554334
1869.13804829204
2596.75849550873
3021.22017223492
3147.13671834363
3014.54945533023
2687.11489510781
2242.37736985308
1738.38435683264
1208.93281910403
691.764688804065
232.848631011821
-139.689414010331
-420.967728060696
-609.828107388271
-704.695820071128
-716.174099470703
-667.212838072586
-578.848399092463
-468.283211055029
-365.040412560508
-313.620454149047
-350.571534665316
-478.847279133306
-663.920665298342
-872.721353154078
-1118.84333505362
-1428.33424262428
-1760.27667040743
-2017.39002039387
-2144.24646399815
-2168.20527706521
-2131.1356436606
-2013.55524162211
-1738.00698260383
-1232.99810200338
-507.380734864199
305.068605910712
997.713401556358
1429.68605477839
1598.67976090442
1586.05524410969
1477.35891440163
1328.25770222142
1165.92165778872
1005.16556054989
862.530340719085
752.507059302762
673.758906078142
612.969232324886
563.830479250294
530.592097136682
509.946680994441
476.563870232671
394.262822688099
245.671729998653
41.5123743172298
-208.381319134486
-508.309819949352
-833.132521254493
-1093.33744162448
-1174.37821267651
-1016.40447782958
-668.427284336373
-261.350477697914
81.353332724331
291.670895663585
357.028525358235
325.050188901841
273.817764054029
251.797337025657
263.471539645163
293.04356428905
319.141143607192
322.854994258152
300.058937075234
263.172878603423
220.639782558951
165.458102853639
101.375166211324
72.6540081985061
156.036519142352
404.3684114905
774.694399253386
1139.55686152915
1384.17506849577
1458.8023240934
1370.38065717565
1171.11912126842
917.919728524327
620.008801917979
247.41307186632
-213.725992530533
-729.541105887471
-1235.19327163584
-1666.41157545022
-1970.13740685977
-2109.02466301629
-2089.64351439093
-1981.17970908306
-1862.6085981424
-1733.48823935263
-1504.90712206093
-1093.00534990993
-505.773510969817
157.731981118495
769.75004128052
1236.9225989574
1527.86127457446
1661.4558789319
1675.87170161661
1599.65139387726
1434.49960949055
1161.88859717475
777.355027304073
314.452658989536
-176.270246723156
-649.996290099209
-1040.77720923733
-1243.29288528262
-1182.06638248474
-906.224732293085
-573.044065125988
-319.532701904857
-178.592017130738
-120.193148668301
-116.614432655467
-151.538298809429
-216.702788077323
-321.045518867534
-482.258716727604
-701.385099748938
-947.103692105052
-1165.82862591908
-1311.16763068777
-1356.56924292834
-1284.72551202801
-1094.29841186622
-805.260661925621
-421.836038705573
84.0527544807254
708.12557349597
1346.93869619212
1839.94847780037
2086.10662796674
2101.6306632562
1978.85467094093
1807.04480962555
1612.63469685413
1374.75378056284
1110.50075572155
892.520558078975
757.785609263785
679.765000194278
650.261351822892
700.191349541344
822.253213816791
939.921342941926
966.445542549657
861.628514442179
635.314818675919
325.116532232266
-17.4411176831462
-337.036871477578
-602.41564518192
-823.540632901477
-1023.59784582802
-1206.98845432251
-1366.00354386769
-1497.71141908291
-1602.85389266052
-1684.69029998898
-1733.55925489121
-1683.82626229552
-1442.57253338901
-1011.86365310569
-521.640183673937
-113.141918678388
151.991630916682
277.84993383408
302.812517407089
274.733809961741
210.165540637127
90.639957512169
-81.2131852292653
-251.108410443063
-361.688442868696
-397.789918946717
-359.47047105946
-245.129671422657
-88.6521277495203
65.811242983658
259.060499772705
590.753524828554
1063.1146755384
1547.90444871391
1924.61489722321
2162.30824161847
2266.7494084418
2226.96250791006
2033.30080180796
1705.51878047308
1283.22139326688
806.897495604574
312.526090456135
-164.869955900145
-577.911448784773
-867.153683817814
-1001.18840528252
-1004.51003234232
-929.196976328782
-827.639256015765
-751.132039073668
-730.327244886835
-757.08965211878
-808.274244596952
-878.380770202734
-982.524598218199
-1133.47906668374
-1318.81608557513
-1507.64051911395
-1672.38772636614
-1792.99091979521
-1864.11877276243
-1911.47989157501
-1964.02243878431
-1985.61607571373
-1861.33006731252
-1498.38298508043
-929.986446176284
-272.637588293312
367.953583170158
902.162962381654
1257.01364263745
1429.49749213616
1504.21159801761
1584.95210689221
1700.05425704904
1799.69316387532
1844.41373170445
1843.66556896535
1812.05582616205
1742.48250055641
1626.8112534764
1471.94992036278
1295.72898380032
1123.3478343878
982.908766300472
897.177079936542
867.085624048382
849.079420751175
769.860764712445
579.507323968892
275.77133214666
-110.663055022395
-527.891921066107
-914.62359982946
-1231.48842088854
-1495.85314817568
-1775.94489106177
-2109.36811441895
-2414.52017282901
-2538.55818138439
-2428.40164393928
-2195.64751376681
-1962.91265563033
-1711.41763855779
-1339.83685663121
-819.059310436222
-233.762930600673
301.290390198828
722.161107364444
1019.80990164633
1206.80930376016
1305.31759344498
1350.31080374341
1368.02265839035
1347.87174337704
1267.16902169714
1139.33477251853
1005.13994152702
890.99325535649
806.549159597755
764.340788633845
771.27757051509
806.068878175774
819.800996256435
758.636326859324
586.166139152501
295.07622282058
-89.6696056302387
-513.61887648545
-897.793150890332
-1153.12966745768
-1225.33746032152
-1125.79675661902
-885.419721236784
-524.195910324521
-117.266028765024
184.686520284163
264.454035774537
130.537636783373
-105.070544052686
-294.950015480879
-317.70448060132
-148.54411586127
116.174646085666
349.791609405583
494.307624380728
545.782724875548
503.766265807215
376.490958821389
205.159943502052
61.103880232361
13.7018516797683
85.2811263550317
232.688281719543
388.779993531978
530.43610159015
693.144988119803
908.438091229251
1141.05278086027
1300.0623483248
1290.08203454627
1048.42593219005
580.771074292236
-22.5603107254411
-640.152094515209
-1200.72381071114
-1697.345382589
-2128.1682779471
-2451.35634756978
-2610.8760659133
-2584.27548266718
-2393.51577025216
-2095.06368035619
-1759.66537316141
-1423.43304152312
-1047.16903882599
-557.71607630871
36.7818200676425
597.187638809116
963.142070758198
1100.27019368962
1110.04173916595
1111.58103013053
1142.95408129946
1164.40566856565
1121.55163953124
996.801529672871
813.276688995938
605.29834372562
401.332614839935
224.914483609906
82.8429359180334
-39.3174205474532
-140.931853887917
-172.527001359592
-72.5908283775239
152.242958443921
415.506862040077
627.311065201308
753.10178733482
809.863108335627
831.477375213315
825.601199797538
767.497318262418
653.596959288163
538.334606116783
477.076824070594
450.178319056305
395.74163726037
291.023729818
151.540462984707
-9.55858448704473
-179.179870591357
-332.653881651528
-443.293816066327
-491.571954011415
-472.278743601668
-394.615010797781
-267.707219413761
-104.092292081407
60.6111823315241
184.661766322443
251.910471008983
258.45843932073
192.534025871075
50.9144275466488
-151.292906468001
-391.223968028987
-629.597199917642
-797.018788792829
-824.411731755384
-697.811772749286
-471.212618486816
-224.973760452241
-20.3232127321229
107.111212600789
136.426295779083
70.6930308941621
-61.662508806689
-239.796256361302
-462.69213774456
-702.365735170479
-874.139666403805
-897.207733377853
-774.32544305565
-582.404133659897
-393.694715733195
-227.713847405908
-78.3626741361813
37.7321289045476
84.5600748258025
51.764246000833
-18.3222569472274
-49.1115809497078
13.0785119190166
146.109548329688
263.473885549649
281.401471161783
164.316201325386
-81.9881782480772
-426.780789247805
-804.682348564653
-1096.02163400853
-1161.96754738218
-950.104452733633
-551.3034800465
-121.283228582495
237.48027420612
504.330508307238
681.342999076258
752.007447340082
708.5237386287
577.839372362399
400.800750795699
206.490533026728
21.7745094918466
-104.704997777896
-133.313426860369
-98.1604362225459
-82.5444892714131
-124.810263399446
-197.179221504633
-258.641487360106
-287.802341016931
-276.719638646392
-206.72003177224
-33.280651858776
286.076566362837
745.280557999751
1280.85860081216
1793.2814345501
2167.64948043913
2315.61178731812
2229.1521235512
1977.35889103844
1651.98674538425
1321.02991998794
1012.82320480693
738.70203244615
521.686983884351
383.542291387681
318.344810221185
295.070242544639
273.80747497797
223.93414548755
144.702268977198
57.1876831342825
-33.5203543113732
-156.885570421759
-362.444849449229
-679.703142909538
-1047.40558660925
-1299.74050095654
-1315.90429100948
-1175.20536108649
-1071.77421877736
-1110.65742416276
-1266.69985469737
-1478.27965654683
-1696.6556277326
-1877.62054385635
-1986.80786212313
-2017.66919386138
-1984.21943427345
-1899.09955475465
-1773.36265416519
-1625.10342597794
-1459.00251450156
-1243.76109333295
-941.931674428139
-553.227827661795
-109.891331261927
336.207059385098
721.566312987954
1022.79698542024
1295.29991354734
1618.05942032954
2007.49397251568
2401.98422853236
2709.30343324646
2855.54495366979
2810.99544878635
2588.49743237373
2220.38207865744
1740.03715209901
1187.25931045761
629.422747338161
163.279630694916
-127.437852480414
-220.273385777241
-163.688388973545
-50.1853041736024
38.6380007610949
73.1228564596334
51.0311748907694
-49.7062048369276
-261.069429940421
-572.327002699716
-911.493944649589
-1183.42913692584
-1326.481733419
-1334.0586874506
-1233.4040445146
-1080.86127696927
-960.466731672369
-923.207969604711
-937.520776075908
-935.988012754722
-891.720172244641
-832.281875957531
-800.777453658078
-817.624494716671
-868.249249397925
-918.924620088209
-937.345893890228
-898.397340729246
-796.742097734165
-663.310329312454
-545.501332108538
-462.064061700496
-389.078826404911
-294.554295278481
-177.696792050503
-57.1177701539869
81.6581024761785
298.916424216119
638.381825823634
1067.81806082975
1506.32789372077
1886.62974353223
2156.30373123524
2257.93037002035
2154.6489791406
1855.67486098948
1411.99024205761
916.34581555281
490.463835657048
222.863949287469
119.217010615485
129.499336940047
197.816739863821
283.354777798385
360.842895544254
405.019779362091
392.338488240338
341.755419140809
315.003976451378
339.849986008506
374.027857134863
366.019360457185
316.927679510555
273.157257823093
270.862970897996
296.884151965633
309.033199639075
279.241549085212
196.738769393771
55.7247215499744
-124.159701474387
-296.803077792418
-432.641122410018
-533.307018849928
-606.909210067676
-654.897439506612
-674.494145201411
-664.062492052836
-633.420408851325
-602.628958143965
-580.680519819042
-553.352048269424
-500.563372684502
-423.909688796487
-353.086510684164
-321.871120529319
-345.85951884092
-437.157928540118
-630.207055595347
-961.606299272535
-1399.49234618718
-1800.96919131331
-1987.80201998347
-1900.133075657
-1641.21487697872
-1330.23409123025
-977.439581394624
-563.929905551201
-145.547528212149
196.549906295966
430.894143483998
567.358961324796
642.50612016943
721.17644519152
846.465585065459
984.488562567407
1061.4989357786
1042.08710864286
948.755322888044
826.713563682172
703.36852759857
582.39227361675
488.054906042341
491.825582217924
641.082955905316
875.106364404538
1068.11243503951
1133.83666664984
1046.35276365189
805.100844181992
437.768938348
16.79067620067
-379.677986274932
-734.653981238557
-1086.10667448465
-1426.6911881741
-1637.40447806463
-1577.05051316093
-1238.32718376958
-762.09707513386
-300.220588005898
82.1244949841293
384.73106889795
618.955524842592
793.661647271633
923.734555033093
1023.84216228836
1100.93939940555
1164.20886040374
1225.24525422387
1280.54635488837
1304.47710244199
1262.9868303618
1141.21896422325
960.964889266985
758.100010315157
549.205791010864
339.930517894702
149.170162473385
-4.05116427328662
-126.750909377926
-244.298791477879
-381.711716879865
-572.075444169832
-859.652608140206
-1253.78107575839
-1681.60566489839
-2024.2639174081
-2208.39972216167
-2235.90036479727
-2141.05865307205
-1969.36649316054
-1775.63954414436
-1582.52615960087
-1350.96718864995
-1026.56641536478
-607.389979600562
-152.73731231574
265.446789868517
602.741051674739
836.691539133164
960.760323408551
1001.38632104293
1003.26757359283
985.025198080359
935.484699331848
852.737727729054
762.519012795895
687.825827857576
618.285754306775
537.304019300696
473.395094960663
487.159509517022
595.036204195581
737.743258362782
839.594987999802
869.814811341284
841.234764953803
780.950645283089
706.945490840614
613.668042700479
472.094795672097
253.080690998531
-32.6981771718881
-319.445000340488
-532.624908694846
-646.655515898844
-675.209285639292
-635.794801611471
-549.90406857904
-426.821235115169
-242.758174221273
4.07865895527333
241.956272089647
378.084816487466
370.752079379744
230.213712855742
-10.6477337463545
-301.18384889597
-575.06592084299
-776.943707692193
-877.491715977204
-869.734101721987
-783.697881584415
-676.420492991536
-582.958555297638
-522.525148031039
-533.325845074372
-623.396646303118
-707.657782462463
-669.348386690475
-475.890990342603
-180.706115559769
150.697409774149
449.293724955809
642.614360900601
716.839247965727
723.896250707779
712.258316158328
705.594579010768
722.938835064631
770.655791925613
834.510173144238
889.304970152223
901.492091880101
841.006377650765
703.328347344073
508.302237744825
285.475990623321
64.9991101154277
-136.354903158817
-324.001132316803
-506.309856394848
-670.877110225422
-792.101404799009
-839.242474143932
-773.747347588966
-591.721729555901
-358.283544769741
-146.362233393911
24.6002277610247
159.968401062444
250.008815458995
290.637355956037
321.124156227279
401.713316768132
546.532148527133
701.222453810938
786.067663353852
754.06215996736
615.201432461918
412.266045505843
194.838061305301
20.5353572564564
-61.4443353986851
-51.2253108393527
-1.55985325239484
27.224555304492
-1.01803372832743
-101.918262560594
-271.062864365203
-472.322994954637
-648.701370200855
-765.621190829603
-837.318490588162
-900.137203395182
-976.815395213151
-1064.55273853669
-1132.48233275406
-1141.8035530536
-1078.23070914147
-946.684452861113
-751.721083169636
-513.054492837815
-279.419363648387
-108.90061330788
-43.8944188699482
-88.6346698413683
-194.357934718752
-277.776860201231
-263.268442176536
-116.966348833485
144.266044597356
474.617024702775
820.738578111435
1120.41167784917
1323.43235704348
1430.43928665725
1479.67841701399
1496.83147362461
1469.76309253352
1353.51348070319
1105.29713290868
741.910815903579
356.120791455764
57.1584803414734
-105.07032646787
-154.924891264174
-139.177458203257
-77.4683863780909
20.9969324340525
112.029290854732
133.749489687453
71.1970533798396
-30.2879661355224
-114.10228769933
-155.504400003485
-164.278525658625
-163.391655309682
-181.297734462364
-257.60052186575
-416.869811153351
-628.838086270214
-825.525829326772
-959.795386207105
-1027.20519368645
-1042.3240988599
-1015.9720333406
-948.291384131921
-835.449265779669
-686.543690972367
-526.630239310383
-382.407571543209
-271.91109531351
-189.121784674264
-90.6124413039946
58.2661284555607
214.445472159682
289.780030604475
257.014893352065
172.240093942804
92.7346928813966
23.4656769912675
-51.3659079886971
-126.938486304822
-166.923392460217
-116.92112909533
53.7833131380736
330.87304789393
686.066010643841
1093.65705985037
1512.97894209953
1896.58924037851
2208.32449329472
2407.01499943365
2444.58808469366
2309.57220498257
2051.01298901056
1742.77767750626
1427.24972956414
1090.97810390845
694.126949358576
220.881537475263
-301.826689859529
-819.397706892752
-1278.5120070857
-1651.38359468702
-1931.53241029647
-2121.16026395188
-2235.80874921429
-2303.00269264329
-2341.72306905159
-2343.92814042367
-2285.19116428737
-2158.58994171978
-1986.10832121256
-1804.17361411771
-1652.81921277513
-1558.32481117982
-1517.39137987196
-1504.74478923726
-1474.89665898692
-1359.75279420047
-1108.24788326167
-724.092382204014
-227.510455286334
379.395117675544
1059.65680002483
1714.56704932632
2251.98922215415
2632.0832119062
2847.42665536564
2909.39893909249
2852.72699802241
2726.00140588117
2564.68236280687
2372.23357068269
2134.61153821682
1854.29354540454
1561.72716281475
1287.89269580668
1030.21743945037
755.491636817139
435.703515184523
72.8531844106862
-298.231149291184
-622.016186698108
-860.488710548749
-1025.65082000499
-1166.80514004165
-1326.83396137188
-1481.85527084855
-1522.75060992709
-1357.59893032773
-1035.37838963388
-713.454123559605
-512.071539919726
-438.631562790751
-427.077455120359
-407.336242381464
-348.18367860179
-264.622856018863
-193.694559327065
-165.049836603918
-187.760365671013
-247.551482604483
-314.478019211362
-363.493362193859
-387.707035465083
-389.569146634985
-370.19408650399
-338.381063771211
-315.513974869248
-317.230513971583
-352.275697670062
-440.596889229695
-595.748487915902
-793.252919875928
-980.827795652498
-1112.94348988519
-1164.25994331918
-1103.29911500142
-881.744203855536
-504.964725517452
-73.0368684694696
314.185650221349
633.276713729208
899.395326395368
1135.99530578574
1364.81255311709
1566.89909630343
1684.01724099371
1675.24390890254
1552.08802376536
1370.00360802673
1196.99076381159
1073.33173384203
992.9936125376
936.449700460012
916.039132112823
957.657175654697
1047.63126779048
1141.6621882453
1205.65537903079
1206.21887120627
1094.4798009331
830.311178889986
407.554525503497
-134.034426643641
-714.075509748925
-1254.01984870309
-1720.95460368745
-2123.27613414508
-2457.96236095442
-2654.06066154485
-2593.81599761551
-2225.6509474716
-1642.94858216936
-1022.23607977644
-487.510198239877
-53.7799224342495
308.131376020068
597.868473746763
793.621011234047
898.86861594819
944.27311560615
942.843052493719
875.190707339178
733.775212566327
553.289732048857
377.240155041684
221.296202359109
89.5257523465325
-7.01045780830258
-68.9670004601513
-114.495348307938
-155.528400573534
-191.72490318201
-222.536650031468
-240.900206032156
-223.657108261826
-157.546546620934
-64.8509775083767
23.4397429982462
86.6594180264429
87.049097504984
-21.2172306634741
-243.885731640228
-543.923777055948
-866.890054345514
-1139.96730771994
-1271.82863807846
-1186.59066397854
-871.195576377089
-398.301892446572
106.230900998587
541.473133080679
879.422591951842
1135.32798864317
1319.66155371854
1435.74126280921
1501.88726374449
1551.11586608784
1602.331747308
1642.13433648796
1645.37107449145
1595.60794712428
1467.79049101953
1217.78820038057
828.472141994315
364.035353540689
-62.0291373947416
-393.941662294465
-678.267665729061
-985.483048585163
-1322.56004014412
-1643.06495096789
-1912.48539696402
-2129.26712072063
-2297.12459578128
-2415.22722441855
-2489.38932869073
-2529.97836186985
-2544.52035335346
-2524.96583677808
-2424.35387553018
-2173.98318467979
-1756.11331726155
-1238.9433871795
-720.35890438369
-259.235392374132
128.670427582276
447.848432873653
728.210083550497
1018.50675687511
1344.68602567162
1692.77611354485
2021.88186879944
2275.50548089832
2405.19474694364
2397.01711616381
2276.16817254422
2098.43942460932
1929.27262299021
1805.35159305769
1710.60464352192
1603.14718827305
1465.00874351101
1309.75934086084
1144.63133986561
948.467706591462
696.343888123429
395.6380724786
88.4542159737894
-183.177340734097
-409.661526182241
-604.102100673937
-760.662635546947
-841.049080598045
-818.390748876734
-715.808779282188
-585.808594667192
-474.586587992026
-409.104704567946
-387.776038297364
-380.585590210339
-353.783498439675
-295.695213870249
-222.33878771299
-165.515829016137
-151.750465773905
-188.319018661076
-269.258899613777
-385.294591003488
-525.163876543422
-681.589928891105
-855.812544925357
-1041.62188353516
-1205.76838922655
-1304.00786319097
-1329.15285084855
-1320.3212794804
-1309.37893769892
-1295.29818190779
-1280.34845477028
-1276.00423585182
-1256.11669917195
-1147.55496722747
-887.553549705548
-479.438166951141
9.69368261776191
503.634212144642
965.733260690767
1387.29377800154
1749.98346953476
2027.588071008
2210.71482207218
2305.48080519947
2306.16370706683
2187.16244877069
1944.84319397326
1634.86985561674
1337.60684865686
1091.32040113264
871.885767985232
620.782929027515
280.884277311458
-172.615745785665
-709.225425304896
-1244.69919287994
-1674.22265251032
-1922.1128991474
-1976.0589159036
-1874.17941255178
-1661.57534554408
-1376.17986877687
-1059.61822107127
-744.495062990412
-438.710146987172
-138.965190601348
150.076230943864
419.517228839781
665.310848240031
876.202857733363
1039.57670275061
1176.93778383022
1332.35857873776
1512.30963581281
1669.37110743752
1747.82042877051
1726.30402025805
1624.36152141591
1472.34950016178
1262.34195922811
951.806072531037
529.433639806834
38.7198664936634
-460.475527993446
-916.959026056245
-1292.36494753509
-1568.45748664719
-1749.39244498486
-1859.57515702576
-1934.78663434905
-1992.44398672607
-2009.83543801721
-1951.09559576818
-1808.98814928552
-1602.45322031415
-1346.13563289175
-1051.74543620877
-757.87071402199
-522.892045611504
-381.110764036378
-331.547726646432
-362.418597112976
-456.267893240747
-575.639318827592
-670.548018398888
-698.170823082441
-625.400915662711
-436.069055228526
-146.762088076012
204.496953825523
583.409928579403
952.392462448684
1249.18977129225
1416.56585177315
1462.23121769018
1450.20291837609
1425.58872926359
1378.40032342896
1277.80549744804
1116.83923238625
937.88878452897
827.092755634406
849.679592168495
985.823588066806
1159.59589726589
1311.85991637446
1424.41471991777
1503.82026165765
1562.69448640831
1606.21405778906
1623.5461761463
1588.08867811826
1470.56005819263
1256.31783050026
952.215838719715
582.652833874206
179.995850020184
-230.637036921486
-638.071447318007
-1030.2683224925
-1375.87322526947
-1624.98005328429
-1736.76318145225
-1719.52738586209
-1641.90341591905
-1590.94904662829
-1607.05413783715
-1658.93456030726
-1693.270074638
-1706.6115043952
-1751.39290083359
-1870.19818675748
-2029.26279890634
-2117.20469988217
-2026.24987890773
-1739.22182206389
-1321.53832485476
-845.321082560611
-350.293176390496
135.013781078095
571.73808319991
920.482260492802
1158.65391740422
1291.01742999023
1349.63134347982
1374.25156842531
1391.88827273535
1415.74571160759
1448.44189492582
1478.32777440954
1479.98630770283
1429.07628646797
1327.22737311592
1205.48477867129
1086.34013507363
951.989340262056
771.638706695136
556.007923338279
362.926687258915
235.52372429584
150.443039297845
51.4915888912531
-82.6383835029248
-230.218110734948
-366.899480437226
-486.561758372449
-583.511195651776
-636.928443664167
-630.24787855722
-572.50928245762
-481.300154664803
-360.789980518036
-221.035186043898
-99.6197863698183
-35.8732138508742
-39.3104306743492
-98.8806872834463
-203.582184394047
-344.564311329728
-511.174133203944
-690.977797653037
-871.973707415639
-1047.3611758827
-1214.62938881979
-1360.85205340875
-1454.77214272547
-1473.10722217633
-1430.72272459123
-1353.12225989895
-1223.43627642113
-998.884804563611
-676.065047871256
-300.292489357724
80.826972026043
436.912594345526
744.811680814107
997.647218023613
1211.02313089635
1399.1200935632
1562.07172898015
1700.77320498846
1818.21085453412
1905.19480770491
1949.82066015346
1960.58085781468
1958.71377432454
1942.10280368129
1864.51161978866
1661.58692573229
1301.74173760011
807.448461244692
239.78110801804
-324.320477910342
-813.994817855671
-1182.45695625396
-1417.47689595906
-1537.2293641456
-1563.38849807312
-1506.47131648056
-1387.35684882723
-1249.18366684434
-1130.52422910416
-1036.5558224001
-949.188609739345
-863.794583522083
-800.922147869821
-781.771471663666
-811.849357842335
-884.929313864644
-978.476433930103
-1052.89366000657
-1080.44029868567
-1064.03559455611
-1010.36720237524
-907.408700299676
-741.716510435247
-518.814540338784
-273.29580546349
-61.3812818531326
86.5554833187039
189.667211506365
273.474255880268
351.177009611764
451.124364945652
604.968138819433
807.800358212768
1023.91826421433
1229.08278094117
1430.62160175577
1647.44548002309
1876.64039960864
2083.12818521522
2229.15471661796
2304.66371486398
2313.36683591361
2240.5138150079
2047.59345465422
1700.19893727573
1202.327043802
601.210650620059
-26.9651404757272
-578.154970942687
-939.512712880413
-1056.67349303674
-978.694836418903
-817.624032458091
-675.233352061101
-601.808593459563
-588.108526305848
-586.564434831819
-561.016491848403
-523.403576233343
-514.639026737809
-554.649804291024
-617.498240285867
-648.104927579155
-605.737344057071
-504.75270934731
-408.000126720611
-367.346553304771
-376.073668131155
-387.298158205196
-366.036281235539
-305.78506021456
-210.087911960002
-89.1430612214849
27.2162599254608
88.2191773087315
48.3441870369391
-83.1242976305658
-227.31972324269
-301.326243027539
-293.336090734769
-250.797086918258
-210.133681950729
-162.517595433892
-78.8805909526394
48.5061050321744
192.21343454069
316.301068073947
414.394390255579
509.224599343545
607.776876869398
679.732427743579
691.52238312637
630.317205252826
486.127453132933
249.971010768036
-59.388861470202
-394.612684872314
-710.640710989135
-990.548164195452
-1239.1748558337
-1447.24743398846
-1582.23984930455
-1623.20517242514
-1568.64197974836
-1404.74641113766
-1107.61097932714
-684.972993739732
-192.771003798333
292.490768418303
714.882121661526
1049.12575312542
1267.81755183115
1333.19386460906
1249.70008848707
1094.35134642411
969.150898998771
929.92628828952
951.287637935553
950.673050046356
853.60226445386
637.042914838449
318.099244649928
-82.8100991213427
-551.531320741645
-1042.26863201554
-1457.51901438204
-1701.26725288394
-1737.65096037301
-1587.48364637898
-1299.26714984314
-931.888822813883
-542.947268392713
-179.025288515789
132.679695840809
389.165145728669
608.024729227261
815.994383054769
1035.80989778183
1276.8982333651
1529.77909739691
1767.64821546493
1956.00393980578
2064.68078792873
2077.32858285398
1992.485751157
1824.53354632992
1608.04400141555
1378.74955110036
1130.53226834695
805.301692023691
356.44885689766
-175.847412113229
-681.522369330058
-1071.73310176456
-1334.96289164013
-1522.59693395531
-1702.19045618941
-1916.81957009237
-2173.80752800869
-2455.73600787731
-2723.58195769904
-2908.40962637035
-2930.18843494781
-2756.57664825943
-2436.69107222774
-2057.71236808914
-1674.75879578544
-1288.68108392749
-876.683618274256
-429.907370634153
36.7224212594059
497.089214312266
932.106435249837
1342.36467836608
1737.45923793121
2109.8867202975
2433.05781650222
2679.35569353214
2825.6324908568
2864.06150198503
2823.30694041221
2755.96532006719
2696.93374281084
2641.3563272959
2554.22096215016
2392.69480836583
2132.56338865669
1791.56799148128
1420.24971275143
1057.83568587294
709.591586224028
369.176639523669
32.5293617797464
-317.676723235883
-712.432787929191
-1167.46127073501
-1651.89067218308
-2084.25915271913
-2372.93214902493
-2473.17270787749
-2410.0916123259
-2255.52123141981
-2089.25144751314
-1967.98912270062
-1901.02247019069
-1848.76259046849
-1766.1248013323
-1650.89651112992
-1537.07309459448
-1453.02314029622
-1404.00204832365
-1380.91118472886
-1366.18844344284
-1340.55905456744
-1295.77828980919
-1229.22813614134
-1126.58675097687
-972.258052415531
-773.115659701053
-550.142371024246
-313.996660543773
-63.7115990743429
203.231408473958
486.568652112782
771.248649531781
1019.71953918495
1195.03605951282
1289.77344701947
1324.44873858884
1328.86765292202
1327.19977805014
1327.61198985562
1326.11242134298
1325.29419636319
1339.09265174758
1374.3824137597
1424.96390790639
1491.85159525347
1585.8285848366
1694.71757922855
1778.38315574353
1815.80713346291
1823.23668641722
1811.3659955583
1759.67156654238
1637.87897897151
1423.16945883293
1111.52601965523
739.098827820179
374.879397594945
84.0867619030209
-99.9328682439355
-181.91789028751
-186.560499675739
-140.761007711957
-80.6344039854786
-58.2629882285215
-117.681209203149
-258.905711821302
-439.557856222238
-622.406095317843
-809.863461040692
-1021.15871949087
-1252.30658319048
-1476.95531746173
-1679.1263154215
-1865.2066256327
-2045.28720032347
-2221.45284801003
-2384.40854131272
-2508.14380190881
-2563.53750148617
-2538.61446164225
-2434.09908751544
-2248.51132300238
-1980.58605797777
-1640.84412299781
-1253.84707036857
-857.338287010494
-495.191821848245
-189.249068022498
80.9378242580012
354.272670213173
648.596415085734
952.049905349303
1238.71094804091
1480.24048541819
1655.7365727729
1760.90315715986
1797.67070989165
1760.105334539
1648.15317595826
1483.2113978064
1292.67767785258
1093.37134971011
899.815598374216
726.302935979015
573.083690609236
434.135156934704
315.142597122922
219.198694289693
123.033642111468
-3.1698571103937
-140.706420724534
-219.405646722922
-204.702155456193
-152.908441116596
-140.156221409916
-172.828899838052
-198.427049429863
-175.588133167128
-110.251305602688
-25.6100614444793
83.9027951865296
236.943068032436
412.74735649618
558.728810836947
652.144844451928
717.330521911237
777.609924004427
818.516377778079
803.334881950239
706.884023381012
528.609107538762
282.326076169625
-11.1946682191649
-311.765396760461
-560.04893109429
-718.029545168788
-790.460156372841
-788.274884237285
-712.110662272256
-583.295352158728
-442.190594040285
-317.364403917609
-230.447504039818
-206.975519274181
-253.513295646628
-341.963662266901
-424.09664607884
-452.793372846471
-405.920845415352
-301.254217554494
-174.35149111358
-40.3500563090306
109.148475432401
270.658605402516
407.685874773474
478.841617474288
480.441417443115
444.708233651918
395.055637134567
325.630084225492
227.543484362694
103.530175551442
-47.5229834737067
-221.687874783321
-374.822837116813
-442.377996194106
-417.912907724468
-371.341056349699
-368.698948441075
-406.055053597722
-431.809599340831
-405.719220865316
-327.574295613142
-226.189461652719
-128.292525230518
-37.4512420061856
47.3698331463578
103.740387812045
106.260475578345
64.3865155424469
16.3817854966922
-0.542804288958194
26.2458607771461
64.308671622561
44.3259901348863
-80.0793803745393
-277.929414790885
-465.602718124571
-579.383187694412
-604.689172433822
-552.192874855744
-443.124254101658
-312.082144103655
-179.161392586982
-16.1321278442772
219.293993419003
519.534008279244
829.29541146774
1097.72900007289
1304.82148004243
1451.28191702652
1544.25693524726
1585.71184021366
1560.4643295557
1449.53656514477
1263.12704816244
1037.46922359138
796.243236956428
535.474663971018
243.741910427477
-82.735822218474
-440.706322720651
-813.804435895646
-1174.22215685774
-1504.67089669653
-1794.9423108095
-2008.13621622933
-2086.33446202697
-2003.70143902202
-1790.32705378378
-1496.62825058248
-1152.93484051127
-773.688988206291
-381.651116471955
-3.80090808036559
346.985939872714
665.955110111054
938.159386789265
1139.28128009514
1254.87241801462
1293.41855631995
1278.11712167231
1224.44942459236
1118.45138175764
915.186391455663
575.729225600723
114.704830191745
-395.053249946574
-853.558350336953
-1173.3810250604
-1326.56247711683
-1357.43892384148
-1336.32022567384
-1311.21526151618
-1294.77104272753
-1266.50208149895
-1183.71371894063
-1014.60596531904
-768.095934944275
-477.845350523045
-169.302694676679
141.662210721745
434.920383889842
688.687963552788
897.065231779636
1072.05779455003
1218.16186765396
1327.11005194757
1404.84426231168
1468.46165967827
1517.66931185308
1540.83305524672
1534.53553590047
1497.8321871802
1427.92128265346
1328.9915238078
1206.40671112373
1050.43470231168
833.025858538311
520.854041733751
107.367759840284
-353.702035247567
-759.230707258768
-1025.12746208538
-1161.05795618079
-1267.11442421446
-1428.06718170207
-1618.69980699006
-1749.18194907765
-1779.46738920863
-1738.6214701732
-1665.77197977892
-1579.62156207957
-1477.4603112306
-1340.13739269144
-1147.25719477894
-881.08288198296
-524.656154793278
-84.1190330191522
394.397744735348
853.069011853444
1264.96255158613
1635.98324396127
1969.89976303368
2251.71288145128
2463.99739418036
2588.88864754153
2593.21712271937
2443.78278736129
2137.34122361539
1704.18304665667
1199.67785763637
696.105703119211
255.214738307483
-112.454786786907
-459.772000388575
-853.984671040514
-1296.96991231025
-1710.17623855273
-2011.27070271422
-2177.8254583849
-2230.35985400832
-2188.76279637658
-2057.50769934316
-1840.16728361095
-1561.85071500869
-1269.10076713149
-998.985212775213
-755.59283074217
-527.685138973704
-321.349001269336
-157.776340424725
-40.3943746926563
56.5363909421415
161.059042496542
279.484861345633
402.660098414861
519.905539850642
618.534541581992
681.603921931237
699.090154639997
682.024024515765
659.735695419781
659.067778328942
691.100546185082
761.022519092355
874.292551208288
1024.40563752162
1190.15675378131
1344.71773359205
1463.11891763414
1538.57883757544
1585.79465681277
1607.68573614112
1568.19673583841
1411.29849276105
1107.34986935543
684.695420103694
223.887361351223
-185.911279518687
-509.59141751884
-788.749385140733
-1080.06271661749
-1379.13086245811
-1630.18700544815
-1787.77920791117
-1840.45073853219
-1799.7143703028
-1691.60478572301
-1548.71550497616
-1396.83563019208
-1246.23696246065
-1093.3695167348
-928.827018789499
-746.84987539244
-552.671272681757
-363.159585763967
-195.869120290904
-57.064734463951
53.4690104207397
136.142680179219
199.496120186425
255.743338331544
300.296084034327
313.966883884202
285.602210722877
220.366210508506
133.662938736639
42.1151707983491
-46.9129670099303
-138.523494851295
-245.7971181503
-380.923115240827
-533.311449565792
-651.409845989546
-671.396609878542
-575.43831199614
-402.548900642579
-203.057462746489
-0.680605630952378
209.653343001533
440.93182293555
689.861966749245
935.197465982451
1155.53285905994
1341.22655281345
1494.31991006396
1614.29768212419
1684.60267523922
1690.883288726
1647.9297696015
1592.4883793782
1555.5082740794
1541.30012641086
1522.72692011177
1455.32169969978
1292.91751030865
997.515621527595
564.793262093694
46.1122661125926
-479.774973869721
-959.942359285464
-1380.3062041887
-1736.73165446373
-2013.68909480471
-2192.95192668676
-2268.0986488998
-2244.73101331317
-2136.98980820962
-1967.38136138164
-1762.59118269482
-1546.95070710239
-1339.89318465415
-1153.38105688844
-984.39565863047
-810.062767157691
-601.103210123902
-351.986900259106
-91.6083802347967
146.416267283049
352.7400612915
537.553116108608
719.919903815521
923.561806287276
1155.60533959491
1387.38301130732
1575.24377189651
1696.60175537114
1752.97438682804
1749.59495799036
1691.25635891191
1589.68183453356
1456.56024983946
1293.80691458018
1101.42159756711
888.272015831831
667.55532156716
449.605226282442
242.360921945666
47.1340591955875
-146.009437560194
-344.826055063232
-542.567253263224
-726.324794999134
-885.178424853
-1020.0373669526
-1159.42380816131
-1333.77491506236
-1512.1200326655
-1598.99985071176
-1522.49959799949
-1301.19700170857
-1006.79819953014
-693.791136233909
-388.921401864898
-122.163373830577
70.4259451167661
183.345197834883
257.025400584157
337.656749040592
431.718805108512
509.812420608695
549.038847021588
561.686991931781
577.353909418719
606.77859375617
634.112367717512
638.859713068377
616.600537054519
570.814725206983
489.509724570784
355.354282231504
178.340386866761
-7.76526738887975
-174.122170556496
-303.657922195776
-384.114762764837
-407.192917555936
-372.336930435388
-295.398586852388
-203.12004758762
-105.09124186434
11.1214531339908
148.431071802198
282.588072418887
375.458568395558
394.751939131417
328.512047082646
192.228375681501
21.3718677845835
-154.963965547405
-333.798316934223
-518.553914969295
-687.551917793873
-799.200071831037
-825.386857969286
-772.783697642023
-670.466147887371
-542.999881111587
-404.690232568337
-272.727220890552
-170.563000126571
-114.305304958731
-100.590341307252
-113.517276671992
-139.987116523234
-172.388750635455
-206.438373149583
-242.095947661967
-270.84212726293
-262.180175977544
-183.178561175327
-30.2761757680177
168.096852870989
369.108312685521
531.281779476977
630.69216359321
670.049004972524
670.058672218184
655.279072475306
642.274811639351
634.122139042977
626.257623473778
610.882924620922
581.159480055671
539.24111438959
486.322766755928
410.186687058481
302.709961021606
177.326651664317
54.841975630742
-54.2209772588877
-147.473046602478
-225.827254531853
-289.499231279332
-331.38923100974
-348.361449949913
-359.894623836117
-392.809024964396
-439.854809562915
-453.891148882092
-400.297948489435
-298.929980928891
-200.034558939047
-139.955259476662
-129.744957793982
-159.533514721641
-204.586471604836
-246.910762103262
-287.682496062013
-327.644208725
-352.418814043763
-345.480783939749
-302.355127592849
-231.986273886281
-155.521120700676
-100.351467067707
-79.6771798805611
-73.3699254490312
-42.0918175141609
34.5936377884428
148.575036689609
286.391290618812
438.76339398826
596.164490184475
750.939147759549
889.102079455857
977.805597567978
980.575205066071
884.430820315494
706.46178097267
486.998931326172
275.162775497568
101.482963371905
-33.1023816182495
-130.197261254096
-172.621839941083
-148.396835978192
-88.3768806066962
-63.0756899550784
-129.122857718507
-279.47369512951
-451.928494727159
-578.192765625042
-623.314379634575
-589.438551411525
-493.526955351429
-355.86459920752
-203.784582136587
-64.379758208101
45.3207125008873
113.638195826849
130.066770299122
96.0344135316094
32.3245215197531
-40.7145576113452
-122.960318069116
-211.342307287813
-268.40790459032
-243.95729429527
-125.757472909077
41.3451248699485
178.684581255623
219.31785443222
152.396731465284
37.4324656542047
-33.8655377860819
-5.38763175331665
110.133428099885
256.485550219653
380.771581018098
463.594468590254
514.549946231028
540.965268160744
528.926714913736
459.174615498812
334.277446988992
181.495763192659
28.0077939143582
-114.942092297242
-242.263704986802
-353.747449864618
-468.059922767137
-611.35595711524
-784.550529092482
-955.070837604363
-1075.50358323797
-1105.87811654484
-1031.78086261721
-867.535886454125
-641.89084935538
-382.948182054816
-114.516277083453
139.35666406527
354.718633604673
520.119071059638
644.07289966107
738.935218978094
804.12213894752
831.28826950637
813.318150403539
752.608027958961
671.830871211083
602.288465844285
553.818652242191
508.118857227756
441.945363827239
349.368028290757
247.299719257462
165.986765248029
123.619091814003
100.678304556807
52.8573955450633
-43.4922276884992
-177.435439012397
-327.471648316534
-467.653976792157
-563.390756586746
-591.061939100965
-551.47216958585
-460.783526416008
-348.358679109487
-254.487523432043
-205.813835103023
-195.042642240356
-193.35146623476
-176.884939345409
-140.34552164217
-93.5915179209039
-47.9505585456432
-5.29868592039032
38.3919693611838
81.5260283481451
113.770602726785
124.704444445339
112.832130709456
84.8151246725975
48.1433172218831
8.2040845959816
-30.2575976633354
-63.5109554653711
-87.8327956135414
-98.4231633473534
-93.773132748465
-77.585453414211
-55.2906982859094
-32.597868103587
-14.5712622449239
-3.53154143429452
-0.441614893073302
-7.04952226231574
-21.8876537482149
-36.7386291132497
-43.5277717386191
-42.159303960011
-36.6428348441912
-28.9789489176922
-21.1116915941923
-15.6134474510472
-11.6377337996375
-6.1958115387583
-0.378084844284164
-0.015185002125964
-9.11311375991967
-25.8999674704437
-45.9201045130747
-65.2472182017418
-81.1088917155249
-91.5090088165912
-92.3151705536805
-76.8547817899098
-42.5970810033942
2.6198832670174
42.460752899596
62.7889934827402
62.0209555713076
49.2163463178316
35.7831652639393
30.1005782535538
32.6392982808334
36.6911942013092
39.5481656741058
48.5131841010203
70.6015290284106
103.719062039353
141.963831138311
178.384294053765
200.294591713928
194.299572875666
158.94161861099
104.949794248192
46.5072945164901
3.09635867588858
-1.9863126549884
38.4969992400182
110.9476800902
203.817903771283
313.55997005767
422.882912580085
500.248785515328
527.518517952787
508.401091143632
457.462639170254
397.715138325127
350.174053619696
311.2145528418
256.238793876479
168.859552275253
48.9009673407091
-105.774861584528
-300.251075439981
-520.265461647028
-727.777369014389
-887.480627479631
-991.074787930395
-1050.08846122387
-1073.03807516121
-1058.64028607454
-1002.78026079179
-905.61340714841
-775.095919480037
-622.165977071026
-458.6735927421
-303.897765446487
-177.118792640574
-83.5383256643019
-20.5670422123752
16.8387445406857
46.2401473179043
94.9034765753928
183.082515665686
312.157390069478
460.200108727083
594.019687688872
696.546004896647
779.542336820519
867.383399266537
970.684807591364
1073.16134878452
1145.90580807073
1175.51249164516
1166.86276827757
1120.86362135341
1033.65425447601
916.731209594117
798.804641424544
712.982478159171
675.857818931391
657.265907861941
580.965633066878
373.111573206642
14.5307809044543
-438.869207093422
-873.102189573924
-1166.47338972735
-1253.03186030791
-1158.72929971274
-977.884900620532
-807.629370939586
-698.28275475279
-645.996946023011
-611.454743701812
-556.275795215301
-478.040609910269
-404.859959181294
-359.423612664286
-340.426220095339
-330.98705296927
-314.511672221744
-285.366338792353
-248.645491681766
-212.903129314264
-184.034039744216
-162.858318349693
-145.871921795442
-128.09602896921
-106.135808171591
-79.9381125450057
-53.5840529103767
-31.0749308981454
-9.693202612088
14.6312901833608
38.7719903503439
59.4547676171343
79.9180417487923
100.75780725037
114.613643959091
115.686725815306
108.360367208954
104.842176487939
116.066318321451
143.907038257608
178.903690831498
206.432465810144
218.610837594946
216.035818065066
200.68178150936
177.261116778257
155.774818330188
143.106145141491
135.136104916323
122.35138460898
101.588161215012
77.8923416815698
58.0876487440053
47.7216920769519
48.5292454810839
54.7170834982159
57.6921382786965
53.895987753689
43.7970576005366
28.3454345236832
9.82071239932469
-7.97882382464442
-21.6357961093109
-29.1621349176637
-29.6764826063544
-23.0555963321755
-12.3239306102586
-3.36421852449665
1.13553829559949
1.42761032043684
-4.09359479412179
-14.3743681350959
-22.2986169238372
-23.4257161504954
-20.3334757783553
-16.2638904246799
-11.9421172136631
-6.92873516396874
0.573179864164728
13.5679278997259
33.2889714346682
55.4093361211269
71.0870468793967
74.044669640755
64.9130391234854
49.1444885285221
33.0532451502457
19.0077517785051
4.62415462488982
-10.3794012963785
-21.3386497316346
-25.2905611826458
-24.070700424088
-20.0397441417595
-15.0682552934441
-11.4988231277142
-9.64583782168578
-9.08823966070906
-13.3776184838957
-27.8352095965408
-51.1976994161125
-72.8165885823085
-82.4392670697378
-81.0020699656238
-77.4339665373576
-78.3013469674439
-84.1595795133506
-91.6523890318911
-96.1203585622698
-94.9639444120801
-88.9806697255486
-78.6062167426156
-62.4624836259759
-42.3394143222867
-24.4514217299885
-14.5407333973764
-14.1948548557218
-19.3616064641155
-22.9011226622205
-19.0690455368117
-4.50937295952098
19.3386881570752
44.0738346021261
59.6607604079243
60.791800977339
48.9107670388373
31.9948653727148
19.0653493917928
12.7500595215446
10.5764347457907
10.5962208146268
10.9502674526082
8.859780042841
5.8426011449222
9.85183272424213
27.5273072736999
56.4046841615584
86.606745735222
109.5810236084
123.818986413618
130.082288303971
126.409002095996
116.220348798471
114.005687335116
129.250728923627
148.666539912731
146.687799027086
111.204765361976
51.0729106303564
-15.7464759938835
-71.4989602477573
-100.458694585907
-93.7813553891423
-55.3708674116924
-2.91330129655013
36.3073234320155
41.7945118995742
16.4816636901784
-21.4022794838253
-57.8417199901864
-86.411535476415
-102.527100234621
-104.303663391234
-94.7578694035252
-76.6457346276682
-44.7534108361915
10.0311373978345
84.9921683512219
161.89499111385
221.657912994907
255.238121270025
261.673384551482
243.770294301367
205.212422666883
147.854838907309
76.7691352011901
5.66314736591519
-56.0368737275296
-114.368575262566
-175.39651197879
-231.164425185252
-271.232592725907
-293.601374006201
-298.324907578634
-283.267370280332
-248.795785904837
-200.335049837985
-146.804929665299
-98.1092459488967
-63.7415420054034
-49.4786954842234
-50.8073583580618
-55.9640295305566
-57.5574100373848
-53.8275830179568
-44.2573486339651
-31.6509153189884
-19.8967787570667
-5.23771728723847
20.5944757340195
56.1330936559497
88.9024183266224
109.687078247355
118.437764570711
116.741597665741
105.051194265169
86.2448296067479
63.6124306886868
38.2347534243378
13.3833541859696
-4.60809757919945
-14.1044101939375
-19.4896490430268
-22.7942225809911
-21.9990892349625
-15.8869520053604
-4.01783040776093
12.9952461074541
29.9012314196425
39.6746750208207
40.1783278559994
34.0689742496086
25.438716457376
17.972553533593
12.6811374923083
7.86398435177731
2.04946037887876
-4.12564443189986
-8.41850257207059
-8.82522119080122
-4.33092656909235
5.51174558279325
18.7518953176117
29.3990093186516
31.5224209754148
24.4060614901569
12.9110379600328
4.87289704751246
6.84744019076722
19.9141691328048
38.6788985727673
54.7530585166874
62.3776188752662
60.4547795395154
49.949845142257
33.1581116785857
15.7816693143764
2.46255830307851
-9.35872768178501
-22.6093399097413
-32.8982628035099
-35.3189822775413
-31.3732030128771
-24.8644672242291
-18.045525925796
-12.7696561413549
-9.28421610748096
-5.4384461853695
-0.822628941713842
1.9922903568899
1.08698742838946
-2.67404740767324
-5.51864749497242
-3.86265026637255
0.939883152222657
4.47149461722937
4.52582408859579
2.12431092020294
0.26585450516852
0.593614396984437
0.892769860082616
-0.224734012489725
-0.601056100051692
0.114687437428453
-0.405385781131708
-2.87754357373119
-7.05334849595815
-12.8167583070797
-17.0558791719725
-13.6835195766618
-0.614701312590544
15.424489446731
25.1642056792352
25.7252766447662
20.5189293554212
13.8958276635171
8.07232532966527
2.47737685779265
-4.58841740768192
-11.9102623000969
-15.9413168259127
-16.4757887960039
-15.533413497981
-12.0023947084476
-5.20213072864595
1.1330427144446
3.65248162715347
0.442177668765927
-10.8819341303805
-29.1460110772622
-48.5691074773072
-62.7397848120221
-68.054622631358
-65.8502031054535
-59.399761851813
-50.130206957133
-40.4547647632565
-34.1489703553376
-30.2005038323049
-24.2943201958966
-15.9117303095327
-6.11316751013959
3.64857335423836
6.38642556251572
-2.87259714026999
-17.2320521445445
-27.2044953150494
-30.5326991324088
-28.6518481879326
-24.0340814553772
-20.5229594617406
-20.7201584129283
-23.7173298617871
-25.1259835653509
-21.2703935400035
-14.5947999225723
-10.1532989894195
-8.97713868637109
-10.1859356196715
-12.528019494611
-9.73084896512595
6.0431656547786
34.3187064468538
66.9276039147632
95.8396615478803
115.7036467994
122.328800304768
113.990373300709
95.546666422876
77.5775525816877
68.2371620154928
66.7636017446891
65.2937983142279
57.9011046451009
48.1604913821899
43.0040465139282
40.4415053209606
32.8545070926302
19.2286864192057
3.83274099776846
-11.7346441544115
-26.9474964231206
-38.0650820696755
-40.0928504656529
-30.2670774324881
-9.13368054201852
20.0057775762206
52.7822111477614
84.1774293272105
107.396884833352
114.884933197247
103.008830769938
77.9567902055324
54.011055237397
41.5362984647632
39.5124247912141
40.3998272747748
38.711646430612
36.27317913875
38.9833541039757
45.3203947230263
42.7441796597912
21.4083011459785
-16.0497605349997
-63.4478236983838
-115.660305516011
-161.020156919424
-186.655925559456
-192.764968811864
-189.595403910824
-182.338132497855
-168.041148270561
-146.132787802776
-121.409106153856
-97.1460248679153
-76.0088367288775
-63.4867652227759
-60.253306439047
-56.8767599253327
-44.2972173606525
-24.8888642120875
-7.7563583512994
1.48995067188811
2.79066742548515
0.263927662534955
-0.495856474310492
1.08841512436244
1.03256786919298
0.716930741245845
8.9949315261412
31.2397155001251
62.8283000503333
94.5474641702799
117.61842286699
126.163862016592
121.678237521156
112.86073595727
106.974645760206
102.387454418275
93.5670055503975
79.9377321495281
63.679449506041
44.5950906920219
21.8192063644124
-5.66014321867018
-38.9885743184307
-73.0252143557375
-96.4894975932739
-103.376704285086
-97.5646711080504
-86.2588108001493
-73.3624273782745
-58.9883161489646
-42.5759294663526
-24.155114101696
-5.06857438182744
10.084075021215
16.0195710971959
13.4678362008388
8.08581875748189
2.63802254604382
-2.15677641508211
-3.26774289866653
-0.308234114858335
3.14732401379755
6.29480397659337
9.45382544253006
11.098925949537
14.428489533914
26.0914781059996
45.1847364851443
63.255938947378
73.8439406730135
76.5472186442683
73.4669892006941
66.4817871747693
58.5617562013542
50.7002912350906
39.1546872238039
23.2530694079498
8.72378466829509
-2.77589859772943
-17.2726222895611
-37.0909834893938
-56.0124047605587
-67.5201694505247
-69.6705185736208
-64.7825067595108
-58.6370500539041
-55.0880454823198
-51.2679826078007
-41.9750438063434
-26.9812293073572
-10.1897879029499
5.94751421252354
20.4547914844112
29.9363471492131
29.0168817910852
17.1360392191473
2.34558153728468
-6.83306197167875
-9.27386718578216
-7.89153880085382
-6.04376023628185
-7.13515823368293
-12.1463976428917
-18.7586337726022
-23.0990151572462
-20.6503855279483
-7.51216856191206
14.6488549338316
36.116089243362
47.4748156992922
47.0395678607767
37.7517482086593
24.9042023834259
14.4653140377931
6.23091327825714
-5.25337835114934
-20.3920820219369
-33.1988830579669
-40.1681194776581
-42.7566886750475
-42.437511835548
-40.1534037622647
-38.6898085578788
-40.7811243199725
-46.0536309788556
-51.4040292142709
-53.348543295767
-50.0338771968082
-42.9160138859546
-35.6521885292674
-29.1509133164441
-20.4350694868959
-8.2631859429501
3.70492444625505
11.2717462592487
14.4950846616161
15.7156510746358
15.4347623959468
13.8635935566081
12.5654970363107
10.8764085077555
6.56986917073786
0.50641441629368
-4.95385954835733
-8.29225277653169
-6.92300147261921
1.49260811944005
15.6874895822361
31.1419174732529
41.6750034909154
41.4854436425139
28.4080778333525
6.21636270136359
-14.8284683626709
-22.7373674714206
-14.0454959602044
3.24134095686186
19.8951464007456
34.0385478160783
48.1025369428193
62.8316136059371
75.0374505507893
80.2291610452128
78.7763278753807
76.7312855444483
79.0243611259716
84.2855954226352
85.0016306823813
70.9924947319923
36.7086350809909
-12.6854640348018
-63.7374054802069
-103.214226653042
-124.701950883805
-126.973230067556
-110.458712954824
-82.2935536216781
-56.8925335894316
-41.4488003380897
-29.8359550137233
-15.0437500558744
4.75157713652486
29.4107645062555
54.6914600037979
75.1775705459296
92.4275295731592
110.577342389645
127.071484871822
135.851914956482
137.033405569052
135.615448646527
131.314372819751
118.338383282153
93.9746654323745
59.4319703344326
17.9466151631703
-21.400203810587
-48.5606170292723
-64.6536882395526
-77.8718377538245
-90.7032953451718
-101.435659886995
-108.046271412736
-104.776072914043
-90.2249826700508
-78.1124097063976
-82.6808376402736
-98.0181788345795
-106.503447753819
-101.838943635748
-91.8157204647629
-82.2324917100678
-69.7446898127871
-51.9950097467191
-33.7467837023407
-18.3740888786459
-3.89070288738009
9.48317554728342
18.7254914581851
24.2895039754443
28.5065817896645
30.8003637908503
29.113575146651
23.3684543055394
15.3555677284103
9.33783664909507
11.5826213623981
22.3704904904801
33.9155407098751
40.5919183992031
43.1164192279703
41.4356966893969
32.3924309141594
17.8074758549957
6.07336405156366
1.72719822751776
1.97767109016634
3.64590609102864
6.00090284933233
9.70284414867702
16.5074942927613
24.9994292777379
28.6237560242029
23.7109644524249
14.3176230063011
5.85705683525302
-0.253700098179376
-4.25541971722271
-5.91420613576835
-5.87330428151322
-5.72585404410731
-6.42062356251612
-6.79531249290343
-4.71223157456313
0.255624755343897
6.34724675182888
8.80312867363225
3.09479296167375
-7.26653362292891
-14.5635240909617
-17.5254647841621
-18.2563600934728
-15.3149507354647
-9.64050398640848
-8.04228072394308
-12.612677135327
-16.4031764625286
-14.2380202843031
-8.19670803462935
-1.04995586463709
6.8166143528555
13.481557831496
16.085009789018
15.3620885766662
13.3909404333477
9.68951533162495
5.49671449726833
5.74734033461514
11.338681920063
17.3809857425618
20.0935570759361
17.625016950773
9.21091506047642
-1.75487635092621
-9.19724156591562
-9.57515905216774
-4.82102505224887
-0.35352736691421
0.89436267418641
0.179529675785059
-0.481774815542302
0.678407615544314
4.39687294179293
7.78154094368123
5.82425531433765
-4.09618694817205
-20.2299119571205
-36.6184280572096
-44.9559195297477
-40.7422675143553
-28.3363550692272
-15.415427525537
-5.14636161981177
2.16356923409103
6.63048151784374
11.0402718516994
19.7495645324168
33.7054999148734
47.3307265276608
51.9057321070243
43.6604396928884
26.5797711244055
8.2157337248855
-4.83883635797921
-10.8625638229667
-14.5812106237576
-20.8698018973556
-28.2417455583512
-33.8121746902987
-39.0041467293814
-45.3896242721675
-52.1140070062005
-58.8297765640106
-64.6602884751158
-65.9414270031446
-60.5411680630205
-52.7731866931119
-48.9829405829084
-49.4616902195136
-50.2430222336907
-49.5177920511954
-46.9174741065159
-41.7393192296417
-34.3616668482332
-25.7256376832747
-16.5658047547365
-8.50294061117463
-2.51927270617761
4.50367349525097
16.5692205551481
30.4871277943437
37.7564728604308
35.9150724494305
31.3664427349326
30.9432115113619
36.5139433398631
47.9892685377128
65.7571092397858
88.1170316011149
110.92091040116
130.457465136107
144.695039432447
153.756952397677
159.195753240704
160.621709042075
156.140798563481
148.546446467897
143.959815881631
141.979564912828
136.741324724411
127.246413507734
117.136061940342
108.452466880739
100.148237183478
85.1252493647846
50.48212209743
-10.8244000523051
-89.704084324462
-165.544100821059
-220.919496907552
-251.725221349807
-264.819993141719
-268.701782136856
-266.898530379136
-255.988061172572
-227.909098117197
-180.530125940084
-126.236866976048
-80.9585410541859
-47.1184096246937
-15.91609980367
17.8832517137664
48.9711227599368
67.7725021920653
71.8729013688515
68.4585354270913
65.8776710965646
66.4668610456217
66.8848818717028
62.56233090622
50.6825550857135
29.7990932195343
0.569825163734802
-31.2785124714044
-56.3054543709108
-66.8235072831249
-60.0856746182825
-39.4040903703694
-14.8689768754979
1.64865030833061
7.15388659146638
8.0258337327622
9.08326436772875
10.4669675118572
12.1821235153426
14.2904966499437
15.0771269094283
13.1239477929683
10.3034172557756
9.17818250078401
8.95519804466132
8.21177702147146
8.24944985821738
9.55664680203534
10.1792662036189
10.3383882433232
11.5825024108779
12.3378647184038
11.3646458421364
9.45997268493132
4.62887652597355
-4.69708382609246
-13.887906068835
-17.6809426478204
-16.4152468443239
-12.6085964168587
-6.30777682583071
2.75275642418182
12.236470140208
19.8746704322791
25.2117467512818
28.0090718932003
29.8813178297338
35.0105197340568
43.1876035820885
47.2972776289121
42.8203150127194
33.2194666617394
24.2650197894844
18.9958138021627
17.5040584901285
17.7130756429046
17.4538709671766
16.2774473355328
14.1184933234846
10.8621453391802
7.05626015070371
2.0461620442541
-6.35144687990375
-18.7154658502755
-33.1095625970799
-46.7009472851858
-56.9560874858861
-62.8088971848592
-63.8023782768539
-59.4586193193264
-52.3449310716718
-46.7546131165832
-42.5475475030359
-37.620915701379
-34.9873126104929
-39.4615041314853
-51.1902210676026
-66.2275778666047
-79.0890448707374
-83.9134495256584
-75.5823310662486
-53.6394286687414
-24.9879574367017
2.30589168983517
25.6078208261265
44.5734791841616
56.8875280268696
61.6932283983613
62.1408932727309
61.2390477329279
60.4414769961924
60.7911156606121
60.0674330357124
55.2313022296473
49.9119614732469
49.9743209671342
54.6844893889881
60.7599225831035
67.4277545961192
72.1568169082035
69.9163015376461
59.9125756460196
47.660348530667
39.5219093849179
38.0569857756181
42.3072816903285
50.4927471426853
61.0082148629073
72.8354205084755
85.8580905264751
97.4270991669177
100.876773456513
90.4241426903335
63.3798503905337
20.1188000356981
-29.0244462919134
-63.334971104256
-70.3371903709883
-60.110266866198
-54.2016301301418
-62.2694474138259
-74.1496431016173
-77.1913532266139
-73.4436125877084
-75.4909273690659
-93.1493174814269
-123.445118150075
-148.521796117016
-148.412641746825
-120.468976019728
-82.6258969126095
-55.4606076778719
-46.5466142987976
-50.8776385298934
-57.6487922888348
-58.2510011875257
-51.0402600147415
-38.9367208179907
-26.5013480562783
-17.299989831483
-12.3167251766739
-11.6914001031118
-13.8647548815671
-15.1715242067773
-14.5156492044368
-14.6683934796846
-19.3670322544203
-33.6867957071318
-61.520560665969
-97.1898130993219
-126.767640145742
-140.79363090973
-139.080377155135
-124.242699381259
-97.7900710679658
-58.5794322985228
-3.03561762079227
65.3801378332771
133.776636325997
192.234866941302
237.625380058054
267.757045966629
281.085892722606
279.216131435425
266.897521120882
249.890845596758
233.126451771135
219.879634391585
207.700430768573
187.492460374684
153.17816942738
107.329266270788
55.2793310431521
3.27661387901709
-38.7911915983583
-65.8311814595876
-85.9214619709429
-109.730651289799
-138.999624581931
-168.857576624527
-190.189106362147
-192.038485121683
-171.636568548283
-138.789338082086
-107.16350062365
-85.9779672326662
-78.332539629909
-79.3409543175706
-74.6075533419236
-50.5562045008093
-12.5960297206562
18.5218893662173
33.5366177312485
41.5117719868812
50.1037109458161
58.5122968428185
66.274640968546
75.3253551499065
87.8086747880079
105.32400219227
124.846330329084
137.777697124853
138.93038229526
131.162871990835
118.076284145167
99.0819235916929
73.1849102831247
44.2972441684993
19.0985461571187
-3.10459213978252
-33.9411142913824
-83.1438173842804
-142.619612965342
-189.066798727365
-204.340139576093
-190.382484349641
-164.703098557596
-143.572572917208
-131.15239976585
-124.255379756033
-119.620064956647
-112.994521393726
-100.559852558522
-83.8448277897534
-66.1989137408791
-45.8963604470945
-18.1618300465859
15.699601594577
44.7588286009418
57.0224839608244
49.9022643715916
32.5745924734533
19.7768489780397
19.5442837636733
26.9722203883856
33.3064491034969
35.1340856706016
32.9183004101312
29.4335697873606
29.6186752883843
36.2748198975361
45.9600900548616
51.3292240921541
47.8771802818251
37.2159738831376
25.5955528021912
20.612165993194
25.2262305963704
32.5759446803857
31.5580989947818
19.5644647993807
2.81428431473841
-15.0723971613195
-34.39233948351
-51.0526774115279
-58.8752547995931
-60.062444182384
-63.4044102290635
-72.244726790207
-80.652705042981
-80.561007915454
-68.5944446995472
-45.9532371796263
-16.5560058015328
13.9523374624768
42.6430046200822
69.8184435748511
92.2478753897652
105.241516693277
110.700026315241
112.269267801314
108.733522629249
99.1062648132756
84.5591019575709
64.5482699205694
40.1688790110761
16.2239512346292
-6.80387135010752
-34.1298497985586
-67.5377116168265
-102.818749060054
-132.885588532872
-148.017719449439
-139.21083506334
-107.558595472523
-67.516895565819
-34.3578007258798
-10.8162755503668
6.35153250454638
12.6656921562846
-0.219738375711785
-31.0577221280309
-66.550390431519
-90.2377426028102
-94.1003129535371
-84.6630030585553
-74.8108418797812
-69.6260785339997
-64.9181862574358
-54.9447800477332
-36.5683017812121
-11.6216367008475
13.5977096731992
36.4971087882372
62.6056202781848
96.5757247329961
132.356064462356
158.791276691449
176.038018517502
198.632063387395
238.432547136514
292.257323889166
347.371185488125
391.637957834131
419.494516833029
431.337668758165
423.435375928123
385.021862524874
313.689179412794
222.253158250073
123.512794302236
17.928517775779
-96.709153882685
-206.651381120984
-285.003495225848
-317.408014393691
-315.447260247732
-304.063062898257
-300.152950470438
-298.1122166414
-277.520622562846
-228.542978695925
-164.188634929472
-108.440204607877
-77.059222898046
-68.5525303747662
-71.0686817552304
-72.6903082562304
-65.0174999834832
-47.338816846521
-29.3455665164314
-22.5198456234183
-29.3663318797329
-45.2933234267985
-65.5919833089965
-83.1634418458792
-87.2419566249159
-75.0818547440469
-56.3959091331124
-38.9707596960724
-22.943655486335
-9.09022288721911
2.56312908436693
15.5964050979886
29.5672139533124
40.6406492278104
50.4112118754946
61.950808980514
70.7028728815625
66.2971663911715
41.416309165902
1.97451419299646
-32.5307225794205
-45.5342606613711
-36.3569372413992
-16.9898087136251
-5.06913896360193
-14.403855698785
-43.3163709644826
-76.4866159553748
-99.18286597484
-106.575503387384
-103.432981327375
-99.3388387033088
-100.731574820941
-103.708417808958
-98.0796938954893
-78.9198733381908
-50.9434556935519
-22.7405454102387
1.29266947475643
21.9132879522789
39.6744643916301
52.9359905212062
61.6591936176351
69.9704273734337
80.9224347853018
90.835812437125
96.2562489296826
102.365163755399
115.893816326009
135.12268764028
153.501544271227
168.146491397397
180.208064986355
190.564498510895
195.449776011752
184.213192358349
148.139777692279
98.3688962881282
66.866694845331
74.5912733172857
108.134183979227
144.192811851754
178.023839527322
213.429515785299
245.301835646932
260.914315352324
247.922531851976
202.390189968616
136.642232842296
72.3430975084895
17.8980890356395
-34.4660880070186
-88.0755082384815
-142.066170012983
-207.771613719136
-297.900870302883
-401.718816318472
-487.294582024894
-528.230249578288
-523.867677392235
-494.23525748754
-457.390924416032
-415.749756380093
-362.85390312381
-294.747045725154
-214.321605017073
-130.466893129883
-54.0352684169781
7.31239458271495
52.4107189721091
85.8289134482299
113.187596584027
136.221110915455
150.856762055181
148.515176587975
120.919817864479
66.0341253493294
-8.7957586547788
-85.6291438950897
-142.665488358873
-172.151463602161
-187.961919945196
-209.604218623085
-242.628981173292
-275.057727451721
-288.412130001511
-273.958267299267
-238.169153608997
-185.252961659752
-105.511195246366
2.60687774489569
117.766930344637
218.471878059261
300.81374355954
369.420368655145
429.529482914816
486.26399655353
540.602466386266
590.567349618073
637.256122468559
683.708111782086
727.805444602412
754.230373280733
736.462892810179
657.309648956475
523.767629292681
357.211020456893
178.786410970823
2.84003776988601
-162.958532375597
-305.278774290692
-397.44574554916
-419.504899837782
-377.676350444233
-291.36080979787
-176.416546533968
-48.4736232697339
67.9495399066474
133.065545795428
106.25037614372
-12.8111885347324
-171.159768659414
-310.897237117423
-417.275204638416
-506.303139275544
-586.744023207416
-652.671600766126
-695.682477635032
-710.711224374066
-698.108020890222
-656.769214401084
-571.764340738485
-424.30189181788
-217.144953169687
24.1416436169527
272.318108615992
508.800949125025
721.587836959588
904.024809534069
1048.24139878631
1133.08754809143
1126.17948183055
1008.0342308832
798.399516164418
556.121338164395
346.032971301819
201.861779119979
116.803235223255
63.6746279680899
22.8203473710735
-15.7621391108929
-78.9541828412249
-208.433733383004
-409.61032115469
-626.109188680561
-783.440094478256
-847.176555784212
-834.015672613916
-777.806543898025
-699.013836457892
-606.257432389123
-504.44491414811
-388.633394029018
-249.305485429883
-93.5809948476759
54.1673609194554
170.186551135115
241.095845465579
269.564101653968
274.714430024276
278.295165206271
290.674899689992
307.915426022975
316.739277099922
304.65046253476
267.76245466313
206.546037334234
115.44115256814
-12.9216163749365
-166.158832657118
-303.927168067732
-382.656106565712
-387.033834739421
-337.268394900983
-271.532150890653
-217.067897275414
-174.409628727853
-131.172629238086
-82.8467131215314
-32.9967580735096
16.7990057112078
62.237469710497
88.5098865406108
85.7627355671072
65.4846219466591
47.7774142904134
41.9662524186538
46.1317873898918
56.2104708717794
69.9311606254513
83.925142564262
93.4164230550932
97.018799922294
97.5975366173273
98.4542412813184
100.804204581004
103.796475314383
105.723489457247
106.235649352626
106.935790206662
107.412918842627
103.943185178011
95.312667133139
83.8890617892466
70.2635188215499
54.4262274609101
39.0160064504597
25.7058846983126
13.2499602525519
1.31180033108811
-8.65909265380906
-16.9047457155137
-25.2690520281672
-33.93210427547
-41.5797656680392
-47.4605542189173
-51.0267236918272
-50.9680716181255
-46.0469383181802
-36.7739464529241
-25.0373994993708
-12.357764535163
0.0922183754427956
12.2695137763357
24.3575921595211
31.1641729342206
25.8051526563341
12.5864861477006
4.67764235468593
7.77359403711611
15.7348685773759
20.5028362168707
18.3954240083974
8.67666442695267
-7.30379123211584
-24.6541198222958
-37.1196809220786
-43.2629275812464
-46.9839539616565
-51.699748914747
-58.408379802416
-66.293840402231
-72.0156411771912
-72.9379621412717
-71.4368879637974
-72.9583348358849
-80.0919416726509
-88.7583752035303
-91.565943770821
-85.2228126516349
-72.458791690194
-59.9423757997001
-54.7718977808782
-56.7322549057193
-57.5509352114578
-51.9818026647436
-41.194681818053
-26.187508256463
-9.23636749523179
3.34795021823898
9.41280339094648
13.8442075065403
18.9920207694256
22.6946153672592
25.5907838291069
30.7068529481483
39.4145545489106
50.2321256449944
56.0509670430914
50.2039721717989
39.8322484746074
39.5457352359202
49.1085786888791
52.2480254711258
42.1757032519044
33.5429708105762
41.8790143447376
69.006445834261
114.542848990672
178.329734670658
245.763179826915
291.603560577142
301.04000335843
275.987050208383
229.790456876153
182.646384998934
149.066588148321
127.198846788599
109.575592367238
98.497277225138
100.590078167854
114.041008740864
131.54098668415
150.644867845117
171.269685509835
184.550660870999
172.182953106588
116.46295074763
11.555205143642
-127.449853725148
-265.380235089849
-363.433949188668
-402.108549037886
-390.809592703821
-354.316829431218
-311.144835166453
-264.266963640816
-209.868510738867
-153.998958689412
-115.46870411381
-106.954810222606
-118.654519313926
-127.355831434476
-118.147348584462
-92.3290894386448
-58.648331256227
-25.5294084476455
0.927502364274398
20.0932158101545
35.3477994287424
46.5075375957674
49.8930127405091
45.1884039586741
36.181922807182
27.9220295544499
23.7139068157129
21.2432609458103
15.5008590052054
4.33958827794611
-12.1790950705677
-32.5184540960057
-52.6149241529079
-66.49883018931
-66.4363331957979
-47.0572693988597
-17.1405238139393
1.64923127157795
-0.77372545956343
-13.4303512402555
-26.1392862294745
-40.5729238171757
-58.3385543303687
-74.7907098989028
-81.1457748568357
-68.8600195004494
-39.6479223332212
-7.27841328632169
16.5636573614534
