0.366042476158186
0.460925551856808
0.539788867568729
0.487851761670756
0.360883743936185
0.261510553401802
0.146480048926795
-0.0809242915141692
-0.381659003856061
-0.640807836143763
-0.820550491596601
-0.92529086039603
-0.929102901562551
-0.851319385360309
-0.781448028327064
-0.742705872693097
-0.660768932830898
-0.512788797764355
-0.368040562195213
-0.269535196854403
-0.196336294518274
-0.120239363652999
-0.0254199287078406
0.0703992462101456
0.105211056327281
0.07604843609397
0.0995932336522422
0.250065561280366
0.430588121685688
0.522709846650125
0.540009717790916
0.542845586470214
0.54710944300315
0.568777777217506
0.607863050362235
0.59872775017845
0.525656464365466
0.498796340457763
0.557533931049717
0.545402159770222
0.339490061978007
0.0412871148471765
-0.184158348963411
-0.301844822667005
-0.375627480899972
-0.481685717417834
-0.65431405514865
-0.812258277597637
-0.804271583318025
-0.612616458475528
-0.396977906923519
-0.26955463268807
-0.181587873706252
-0.0888692533165233
-0.0438891221158347
-0.071451278251215
-0.132426515880587
-0.218968264990232
-0.312554467492419
-0.305106141275545
-0.140359161383169
0.060758060369615
0.164548672410926
0.191130445611791
0.219188608384528
0.269267862533462
0.336319596655808
0.407210634707484
0.442172747600156
0.431649380956367
0.413160652344203
0.378957351888966
0.282537423192994
0.158257396217612
0.0913608555275764
0.0870548705809604
0.107937717173996
0.158207755882021
0.198236771914171
0.118255091426177
-0.0852151854940134
-0.27867543916688
-0.401006684598446
-0.500810237008584
-0.557950149722023
-0.500885362290555
-0.388147242746086
-0.351993087499741
-0.391319512082247
-0.403492607973431
-0.363225719950386
-0.314049110458614
-0.258651636552277
-0.179399819825848
-0.0773008254199582
0.0735440043629696
0.283523322221435
0.446766145441992
0.439060109917022
0.288871593708309
0.105319861787974
-0.0726386053019219
-0.21851296034655
-0.247223588305727
-0.128513959846767
0.0536982485337307
0.214444254931337
0.317243786835313
0.326680924847352
0.249034804191284
0.178099628560526
0.196740259649099
0.298063655150766
0.438577956999805
0.555689140143292
0.549903600479719
0.39578031042185
0.219137188815258
0.1367067845467
0.12657510289814
0.146931532537905
0.204141992403375
0.232545117453819
0.12038090065343
-0.0914149411618298
-0.233970300172222
-0.244092980014342
-0.20132095062838
-0.169177588385139
-0.159081822548524
-0.195234450011296
-0.280382658572001
-0.367683450696599
-0.458086353003696
-0.609694114233126
-0.775609192559482
-0.78502891943081
-0.564117261417087
-0.244552752341746
-0.0152646582765387
0.035875581491842
-0.0380481160439081
-0.0860512663899857
-0.008615834321944
0.118843622058902
0.176224324479273
0.198897595838118
0.29155927563281
0.426826205635034
0.501569791900784
0.49840521045542
0.449991048678348
0.360525556746504
0.262871739709096
0.223065121727205
0.240535191900891
0.268368881679109
0.301327799925396
0.317745509301684
0.234780350370765
0.043567372964787
-0.146388865951132
-0.27535614712671
-0.380794164114444
-0.454274789706366
-0.439433452673976
-0.363168583944538
-0.29703519640722
-0.234853219796994
-0.153151687988464
-0.106936021862523
-0.135107776759484
-0.172071548697612
-0.155085489559617
-0.108041333480975
-0.0660211972916214
-0.0505346624242425
-0.115659167113627
-0.255753313647558
-0.319753310162036
-0.194525653459586
0.0134248459271849
0.136110471247854
0.159725179715174
0.154817635043999
0.134896818843738
0.0867788252100073
0.0294551976699204
0.0018673608049419
0.0579453836522946
0.220444255732805
0.389058100873869
0.41335102730521
0.292955085613891
0.159553091188488
0.0717106229462082
0.0011422958899155
-0.0342202404931681
-0.0108730742324445
0.009811864941002
-0.0148444265227021
-0.0350704713674107
-0.0397097717871061
-0.0977983705861307
-0.202899049832499
-0.248842253938182
-0.195111892498109
-0.105087556988895
-0.0290757160303241
0.0189149610356276
0.0150994306199193
-0.0259107101837583
-0.0298078040150976
0.0178859145749576
0.0388548207510322
0.0176837621254771
0.0437981982030106
0.142560385589645
0.223482796912587
0.228822589022562
0.195347914645052
0.178780030676295
0.215044463492837
0.298045275838425
0.349503431669643
0.308669118246429
0.239060921024651
0.220369439442507
0.203482428867087
0.11608730994282
0.0074143400622444
-0.0491737033325502
-0.0762495777383861
-0.116535253037721
-0.172865325673051
-0.267759051189483
-0.416710545359205
-0.552790508569429
-0.613459379327346
-0.630140383918243
-0.619070269510496
-0.511333023131754
-0.278896560439322
0.0118121128384888
0.29454258683971
0.496545349729953
0.488841419177071
0.2324106120256
-0.0904179472839447
-0.260749261406067
-0.257387258932571
-0.179510982899284
-0.0721019970246189
0.0381583973697917
0.0833630626509096
0.0585277324857153
0.0515559691278246
0.0994961964437635
0.153780238704252
0.192309276887849
0.215034752165752
0.172394129937729
0.0408539243514509
-0.100475621269451
-0.166099145366879
-0.147108749560019
-0.0654932594752151
0.0443148565120761
0.123810606419067
0.15827013616274
0.19271146523249
0.220625463525343
0.181233389724732
0.0983106666939475
0.0597828011650692
0.0649515471758857
0.0653832706462523
0.0934051725368936
0.166839295993813
0.179610597230983
0.0631979845361099
-0.0841130290122243
-0.162936263089105
-0.204663702142913
-0.258115179882333
-0.315477352199277
-0.379179988093638
-0.441946420207118
-0.421683458826596
-0.263692250996452
-0.05410135999065
0.0923719258132858
0.175239948341436
0.24072376384568
0.283097352752665
0.289819840949451
0.262860970930197
0.168605104135021
0.0062474446138706
-0.107843369701697
-0.0824546363367136
0.0035333157830567
0.0466033193521655
0.0763888682612325
0.138318920291847
0.183355507217706
0.180497500729795
0.180212942938279
0.210129559471659
0.243903399020686
0.263051216712782
0.239372840049601
0.132389786519938
-0.0121308988392013
-0.0888725456287551
-0.109930638406988
-0.194883410863612
-0.362840828537586
-0.495102205505053
-0.494769630939761
-0.364258935670214
-0.186365348628194
-0.0969436482337371
-0.16374720154782
-0.268381408894008
-0.243808356220576
-0.102547050370144
0.0165471834572958
0.0582403310480945
0.0581954324101512
0.0347726360680147
0.0157509823131435
0.0651453488368421
0.162899565486973
0.188749130376276
0.121571458336284
0.0920295860493071
0.159764288847332
0.219540197344068
0.186417077667356
0.105802010215183
0.0572856324373839
0.0792384226056673
0.162118149069746
0.232887683772698
0.212564993996654
0.117642511557681
0.0152699751558679
-0.0832994180098146
-0.173742815018965
-0.192803735420269
-0.119341390978115
-0.0317526204198812
0.0165289113493264
0.0434475290330339
0.0332337582913214
-0.0482810741743206
-0.148028045892396
-0.200274136179976
-0.237035525468476
-0.280224375294452
-0.257703346578105
-0.155465672362667
-0.08743121382192
-0.116937602300998
-0.178845642074494
-0.221831829019683
-0.25197474685253
-0.234540678823025
-0.129940620351972
-0.0062254238056793
0.0433667061737946
0.0481241370273924
0.0905342334650567
0.173271795989444
0.271912407290056
0.402969682817647
0.540587778252794
0.595125823950517
0.539797645964685
0.441624138531308
0.359598530260146
0.309545346119561
0.281716931573667
0.228942894953645
0.125689155325452
0.0490023351927034
0.0738454502606306
0.125568412684475
0.0870084006635818
-0.0151904109461811
-0.0743283744135035
-0.0633836366018514
-0.0218881062162329
0.0065259970893367
-0.0364110294321377
-0.170860225828891
-0.308297033358814
-0.354455997809406
-0.327923212079973
-0.277323534538652
-0.20632883657983
-0.16069549671743
-0.213681142979941
-0.308608971847207
-0.311570541181542
-0.239061371602388
-0.227713555541231
-0.290656776198215
-0.311709596976705
-0.255004196222144
-0.18813720537759
-0.13673082461839
-0.0836071747478222
-0.0565757622973038
-0.082777142130686
-0.125847088097535
-0.145317821533886
-0.124553134149512
-0.0327480174974408
0.114932013512376
0.206688178255117
0.181177529242658
0.142069621614006
0.206661791028109
0.345760365344534
0.454973264424062
0.474820256950617
0.412485858479502
0.345708594246534
0.372247871419746
0.471359348334318
0.5055921957244
0.419472278385031
0.296554778685349
0.188582670752326
0.0641915868000147
-0.0673653785507102
-0.162053649228449
-0.242844001776081
-0.345171049025488
-0.438237601313079
-0.511494911122061
-0.614877714648946
-0.738513214214394
-0.797241213723343
-0.767517160704863
-0.698021853473829
-0.603507113269177
-0.489665621115073
-0.423838429515519
-0.436832120577739
-0.432408102058593
-0.323205904230261
-0.162835371633479
-0.0508236430430822
-0.0271903724449511
-0.101581106926897
-0.22492394528948
-0.234031038437441
-0.0095974309581867
0.343091432686342
0.62758270749389
0.77498867625617
0.800464158953346
0.700245086770219
0.525569137553486
0.407627626434975
0.409292913942123
0.468076160079025
0.510281533898921
0.517604634081609
0.508563850547602
0.530222192235176
0.608997960147633
0.696790607625827
0.762386411257638
0.873307098186718
1.04968279976118
1.16219126978542
1.13329438073794
1.07051108775774
1.05195062708498
0.982252188528586
0.78915625789156
0.559746967258135
0.393068316118166
0.299749022617656
0.277853852337093
0.315450305823286
0.32873912027158
0.253613712678507
0.149618950913176
0.0778681177827237
-0.0251939902252073
-0.222514753376001
-0.457355199556253
-0.669526503637931
-0.878263152534513
-1.08101222082099
-1.2374332970648
-1.37926323639638
-1.57629375560241
-1.81017206734619
-2.00698536003506
-2.13394309946442
-2.18151085838418
-2.14310929866944
-2.05579625893756
-1.96797567196624
-1.87621601175906
-1.7712102338467
-1.67505287053462
-1.56756391098849
-1.38650410414661
-1.13802473741138
-0.877400207528441
-0.599291927998512
-0.296502252844617
-0.0545877110094692
0.0680262255499527
0.147028364501825
0.255360041907532
0.358192864744439
0.418700270340745
0.446678099220506
0.41989811704216
0.33104019500004
0.290974098954815
0.407692794719364
0.61087518643418
0.761425146039394
0.857694274059412
0.981585858520744
1.15075411064394
1.365040385801
1.65550058434883
1.95376146593704
2.06787199823145
1.89964060775214
1.55693514808998
1.21193085092359
0.971180453221778
0.866921976318491
0.8663954945259
0.920759686692168
1.03638610367474
1.22413262985248
1.41648154291872
1.54963897296148
1.65029997576557
1.73337377534302
1.74809251055474
1.72079977581334
1.76595793083013
1.87549546690851
1.90519607717356
1.80751301890221
1.65537347025268
1.44983695017892
1.13261079885371
0.74131955681824
0.359816123011561
-0.0016093947697152
-0.344441370621098
-0.630487523582835
-0.883489387013954
-1.2008578640701
-1.61346611486824
-2.0590939339456
-2.48481658613425
-2.84851443014052
-3.07976024507516
-3.18157166805189
-3.28669169390312
-3.47650828172008
-3.64559273178839
-3.64695764738313
-3.44257234691318
-3.05560894407528
-2.53188046900074
-1.97157066034177
-1.45529542298051
-0.962638717810195
-0.471654985535
-0.057535169317054
0.193581310664671
0.277975542742018
0.257205762823082
0.24839260834965
0.387561354642
0.68318160957269
0.979080942587323
1.15000827481986
1.21318177229694
1.19835808603052
1.08373811994405
0.895375781703814
0.69482615333326
0.47718509525834
0.231519129561987
0.0241504016355766
-0.108512926192327
-0.217334357490305
-0.288061750614743
-0.204720241198557
0.0449069125730727
0.295715634533801
0.400494531387816
0.358175112857838
0.239165643855756
0.126998994509662
0.11503495396361
0.224109920716614
0.361692928857529
0.459926447697214
0.557418357431202
0.669439511587563
0.728115849770851
0.714143982493206
0.683973915537696
0.643870121781915
0.558994613116359
0.466834250201651
0.443572762092163
0.513993521370555
0.679939218356954
0.936591621527099
1.21406418551944
1.41940823101253
1.54166659340662
1.61418181340389
1.62808852718948
1.57450923591836
1.47722696429993
1.31980632854049
1.05992996083952
0.73032783894996
0.389511882321725
0.0184279138395263
-0.388554474502072
-0.725695070860341
-0.900276887871585
-0.927471850529725
-0.826671238919051
-0.605992858166829
-0.392442927212884
-0.363999934271567
-0.52089022099619
-0.717261103123381
-0.904238350696505
-1.14256337878699
-1.41231773626728
-1.61143715827947
-1.70504235930434
-1.71002149438603
-1.59633437497527
-1.34348393793652
-1.02408970935667
-0.747584857200642
-0.590598308506494
-0.578079406836648
-0.639466026769252
-0.642347931249436
-0.552939048763806
-0.458639792887122
-0.385380881850245
-0.248627229758213
-0.0106985866399823
0.279518917123051
0.59234308512791
0.907739998858805
1.15387491132507
1.28332079713005
1.31948380706873
1.25220039679713
1.03535929450526
0.732325152076661
0.493479916273995
0.381382755543099
0.365576527340517
0.420532062100479
0.483832378291141
0.436335496836625
0.255245463036753
0.0617098584096367
-0.0538181839191537
-0.104110163840992
-0.0819254065154202
0.0558628606472502
0.259505329773399
0.40174587591026
0.43087553626888
0.388097669211332
0.308603874516878
0.209970726586249
0.109678168983753
-0.0248428526969992
-0.250824585525486
-0.544484815166647
-0.835808901603313
-1.12278000230256
-1.42229272794525
-1.67981692932646
-1.84699429500659
-1.94601905490272
-1.98121063128829
-1.92426094328473
-1.81995246003058
-1.7515219551914
-1.70612090873115
-1.61289146206434
-1.45410803892137
-1.22485678246686
-0.902009033954541
-0.541877671296985
-0.24567895059228
0.0202341754396209
0.374320357469164
0.797390233413045
1.18787509728694
1.59529154361704
2.15656039868243
2.83356611229682
3.39387717495473
3.61204538298192
3.41155222295404
2.90828719146367
2.35950030306899
1.96446628843951
1.70994389481079
1.49183904914733
1.29939241097443
1.1537126798937
0.998889117015656
0.8258588135346
0.773493215625338
0.942053606073719
1.22640914612388
1.43649842453755
1.4458484618494
1.18696284461513
0.666692982183898
0.001548774620959
-0.677435430125839
-1.30939104731172
-1.8377109020665
-2.18980533732895
-2.37353384443893
-2.45906747489668
-2.45863371122229
-2.34672386607519
-2.1370883816139
-1.81796278034786
-1.32555126027882
-0.694550522338208
-0.0921008991486868
0.377709566794699
0.744863911296498
1.01649908556973
1.10655307456763
0.914879220031493
0.375355597483142
-0.473731419997007
-1.3817827675044
-2.00359949608969
-2.20191289886807
-2.0959604544583
-1.82550923402689
-1.46651140431226
-1.1507522997528
-1.03023653659899
-1.10357781006587
-1.24551917735081
-1.38341022264168
-1.51408779410747
-1.63458505660117
-1.77799325818953
-1.990320443358
-2.16737726956465
-2.05685840878121
-1.49662300164949
-0.5384347277133
0.649531167358083
1.87223238821736
2.94308814015068
3.73730921851439
4.18045093239041
4.20034720412647
3.8110129976633
3.19552537505712
2.5435441376591
1.86605744216299
1.1215574488063
0.429219692870822
-0.0003626312172936
-0.0763479875667827
0.104771282249322
0.312684365441924
0.317512968886114
0.106216940536551
-0.0820822922372443
-0.0511454769739335
0.129702922330362
0.282305790053726
0.323568734878603
0.230565814766803
0.0033419468201454
-0.248262822706516
-0.352240287560745
-0.271158113048098
-0.119603503074751
0.0115136517306216
0.108267801751419
0.151091268549861
0.124463060486456
0.0611567115615921
-0.018897465725958
-0.120707532701736
-0.186418211225364
-0.146585379613599
-0.0571405027574739
-0.0149868286389627
0.0017535544376582
0.0375308722949841
0.0287819095065535
-0.0577532643389073
-0.112468395282225
-0.0611950623938552
0.0020964681201111
-0.0319826496344179
-0.147506410422655
-0.263889759460094
-0.318667157104496
-0.306400069135536
-0.320526992832537
-0.475314800337076
-0.731046888837182
-0.917267039989775
-0.940788409798245
-0.835318615941811
-0.659671541621929
-0.500234044797395
-0.474861345867128
-0.581275955173265
-0.653274651379628
-0.576762256539016
-0.420025612499179
-0.290464055794198
-0.21401233853165
-0.185885721325362
-0.183908975810026
-0.128180141725926
0.0235003257789248
0.167683471527867
0.173540365992741
0.0456557662636354
-0.12388914682195
-0.247492799813128
-0.227939450625646
-0.0190867638461796
0.261323897866514
0.438621351233264
0.483272717345478
0.469050885987282
0.420140954817683
0.335995938180067
0.257197393975006
0.20805861801542
0.184180645548014
0.220131425696094
0.340206907159093
0.47330563497008
0.542703510206685
0.559791070966228
0.528881569097635
0.399007414098219
0.196654147709371
0.0447855164906198
-0.0021292747247997
0.0085400112085183
0.0380246047576571
0.0516329712457371
-0.0143410887064612
-0.143647567367757
-0.214267422310143
-0.184134505110739
-0.157915557371851
-0.199905141677144
-0.244665701091277
-0.242449579856379
-0.22863825171076
-0.218355448559677
-0.18197734131053
-0.123998079447507
-0.05732780370325
0.0480902265688181
0.174446046448997
0.212598150559777
0.110629045509195
-0.0491028013488573
-0.175103819501751
-0.246523814644239
-0.268773999028167
-0.261581094757597
-0.248963680641308
-0.199521236853377
-0.0707892552518953
0.083330893130804
0.191390179227413
0.305615532534276
0.495768031171586
0.685817667450699
0.766357117900037
0.75622933043558
0.714643511290757
0.645794440122681
0.584242824714935
0.580532718167739
0.551167251153004
0.360777412326027
0.0625476044952867
-0.157963480305354
-0.244787844093694
-0.283099919897286
-0.316414402263415
-0.322583819191593
-0.306915349863937
-0.299750284168658
-0.318824928972425
-0.386218382726932
-0.507932351523658
-0.624378117863115
-0.662661571641457
-0.6148170412253
-0.493638600813473
-0.295368067413465
-0.0811702101037655
0.0381786992802084
0.0697671823924352
0.131682627389759
0.24302065895351
0.301758454925075
0.272246707002772
0.21209749749536
0.141080303493955
0.0416667793264774
-0.0583429496507346
-0.114319234642202
-0.117366281907521
-0.0798169643737082
-0.0460790161107546
-0.0940835925205139
-0.236753589756206
-0.387484424644077
-0.485742666028469
-0.537614640411845
-0.51032748424694
-0.368638245455919
-0.213787578301983
-0.181135870675289
-0.235533002155509
-0.259043848759261
-0.248593272299984
-0.247256024435505
-0.207740551766151
-0.0832488323520243
0.07204508404742
0.197917314314421
0.297080787285589
0.364661564200869
0.386535533857796
0.407725487793866
0.454973239537917
0.434138593084985
0.267852969627391
0.0659640923359536
0.0012523464506668
0.103850838227407
0.29361641454713
0.490102443345245
0.613226611270304
0.614730322094851
0.545055113194043
0.477082235336255
0.401516596116944
0.292151307660346
0.181410433589831
0.0983825578365785
0.0440462127802013
0.0449261553864234
0.0985193410558425
0.104710478461703
0.0010070834157507
-0.1095007404098
-0.104811324126066
-0.0166505276800725
0.0488901399834535
0.0432250841174758
-0.0284555844913672
-0.120549724568375
-0.159027876499004
-0.140703845863487
-0.147344894348255
-0.191779454498416
-0.196563723727928
-0.174694438225255
-0.235047878955443
-0.367991306241193
-0.43605063522204
-0.402352100860527
-0.357917939766863
-0.319639313442585
-0.219774232910698
-0.0913065380755518
-0.0519354868233721
-0.114423595816611
-0.18662127774987
-0.216624474571751
-0.207002028223923
-0.165594231127738
-0.128601386639877
-0.133712885047705
-0.142027015380504
-0.0899121017823782
0.0116906873493631
0.12161896399466
0.23240609182861
0.321574016413923
0.346692969503193
0.320150801170293
0.280586251324854
0.221079677509024
0.149050812740161
0.116750063810608
0.0936853413464511
-0.035785567076502
-0.264640385279506
-0.437636024278636
-0.476555207460178
-0.433996299419464
-0.336831827038081
-0.183538175993427
-0.0471034408882474
0.0047270130701082
0.016534008949682
0.0424417774213455
0.0524983131804609
0.0358946869491134
0.0556046479813336
0.12074541315497
0.142735825115697
0.0797472455368514
0.0054961327027152
0.0101245273759642
0.137519592390631
0.390556120448772
0.684326799159624
0.850068952687763
0.783937805815061
0.535558502833032
0.231027723098792
0.006198418952852
-0.032514937624667
0.0766198466880081
0.144109384175245
0.0586469972471038
-0.0855444425315505
-0.172802232384411
-0.219521691453042
-0.275656493464758
-0.331905275036088
-0.363216429330212
-0.340809145461561
-0.227975331834182
-0.0594249546847865
0.0620081262037203
0.105894590411999
0.118804878377328
0.088823493755767
-0.0124530902707165
-0.0936177205963827
-0.0472641139411244
0.07998030606776
0.186167866412158
0.263954024764836
0.317567661239992
0.281457346364608
0.134717499567879
-0.0445787346592851
-0.199694849520752
-0.327179156345176
-0.3800218098414
-0.302725933211906
-0.154765286870132
-0.0509797743179437
-0.0270147503224501
-0.0817159499219348
-0.228829808722292
-0.387904084804242
-0.391672585662203
-0.213260146107055
-0.02366891692227
0.0354508158344045
-0.0145804254886353
-0.0820631694154441
-0.0998253721274073
-0.0618766650641444
-0.0378609898483784
-0.0809329042830271
-0.121474537467511
-0.06503710728748
0.0572756967940659
0.165456056094471
0.254607277111773
0.314956756069018
0.273963632714162
0.134713306178036
0.0125212423020575
-0.0351148810295779
-0.0477891685266512
-0.0329243467651893
0.0210997535779391
0.0518124586552402
0.0086296007165976
-0.0531176034139886
-0.0826335200523245
-0.106938490005356
-0.11205943107973
-0.017254413459823
0.164324695642225
0.304213916427826
0.337378996751953
0.302951355261458
0.213536416765173
0.0680179908451082
-0.0308898310422705
0.032306612487909
0.196862791765033
0.278969525681709
0.175499857377852
-0.0721845426920129
-0.341971152780463
-0.513206263358748
-0.556567706736188
-0.53112455250153
-0.458342202789035
-0.305259658465789
-0.123571547799249
-0.0372421104451506
-0.0543645353824024
-0.0601187884204918
-0.0003547291292292
0.0829948470907009
0.153412516771854
0.186074041768171
0.165571844270497
0.159009379215161
0.245739056482732
0.348158202764927
0.323478420733366
0.200232059642113
0.117604395144589
0.105810163408854
0.12322060742368
0.185536031796442
0.277839033012932
0.286081804829518
0.161499817547814
0.0049063716591949
-0.0975686588419201
-0.156249663544195
-0.158596368951506
-0.0611049472919452
0.0808038225696754
0.161084227212406
0.184864606018886
0.217915601705009
0.248345027649634
0.243964619181462
0.227758293539061
0.188584424716457
0.0729480685277739
-0.0745814237002472
-0.138849254960678
-0.118206426156004
-0.118172409303078
-0.188290049303166
-0.290373862392066
-0.361941322712754
-0.339111063479284
-0.218312858650312
-0.109091867996312
-0.0992933755218617
-0.112754981420401
-0.0440123139172035
0.0551646502522996
0.06741930067872
-0.0173121216074005
-0.120758403737793
-0.1530191569362
-0.0463234174823385
0.148853524839239
0.239778432410113
0.111051966142662
-0.114618461702429
-0.265843478075784
-0.345728473948757
-0.440394811782684
-0.545587557789635
-0.607231157425566
-0.616559214489512
-0.576189800500543
-0.476824666897283
-0.35343590477197
-0.265553581037396
-0.223437753772877
-0.217024546378264
-0.246801510828759
-0.245724313313952
-0.0959818542588961
0.201773705570197
0.507584783141792
0.709213848463985
0.775812968419095
0.699309593122708
0.53087997145951
0.392861022594027
0.341700721565273
0.326456564503371
0.324510668263906
0.362191403949753
0.401750788173457
0.377606993694446
0.306775249642226
0.228552128698477
0.14305513572419
0.107033834048016
0.202171093237896
0.330818132527261
0.278817207136711
0.0385606540723597
-0.165603953595147
-0.18875929593078
-0.0911505507676663
0.0117088674651293
0.0422444001635347
-0.0312223024141467
-0.141605748959594
-0.161764962273208
-0.0800137308531165
-0.0216028345422311
-0.0452819548411062
-0.0660286500352042
-0.019871070739248
0.0479973847209035
0.079517191229857
0.0507686184810087
-0.0529128456758209
-0.190386317185634
-0.26114292042808
-0.238736118911162
-0.21432778257156
-0.262176322687188
-0.364813120640818
-0.464540371151228
-0.491550119735924
-0.392596487792109
-0.205910328815639
-0.0309069222874219
0.0942618541656428
0.179707793549084
0.198743231721476
0.158834062382714
0.162191919927762
0.23751953629179
0.24245632887362
0.0866972940107408
-0.101645986435639
-0.159211485234048
-0.081297945502931
0.0343443403595441
0.0819717056519237
-0.0122896209025028
-0.18921736249209
-0.246478780538441
-0.0686329903196562
0.215807562342296
0.406620581402486
0.438745414683019
0.342052019518055
0.150506163985715
-0.0670589122632692
-0.227832088797926
-0.340484681089358
-0.457318701969516
-0.520598523434996
-0.413924079447113
-0.156809068596685
0.0886300059313552
0.182066428635582
0.102715425218377
-0.0488094658032427
-0.115244162442577
-0.0310719382972826
0.111438788386055
0.209576168431867
0.272208968497429
0.326852741018507
0.339051296769729
0.293393886279427
0.226354357128289
0.147467374019782
0.0421386656898012
-0.0702127465794948
-0.173168097288757
-0.265759914660375
-0.281840729390548
-0.151432651252996
0.0259745378027916
0.0712585154924812
-0.0094002801716924
-0.0650613184886922
-0.0572779227366186
-0.0533588243166
-0.0442925717308858
0.0213941755777031
0.115391007689799
0.200753374011347
0.307503558274549
0.421359666493218
0.441197253951344
0.340178773697319
0.217781768823429
0.13324751746839
0.0527974340283755
-0.0165717408400839
-0.0253852477726714
-0.0126907046182731
-0.0676407786431087
-0.186285344691584
-0.291655158606961
-0.33484111206118
-0.306813222647511
-0.238436153109837
-0.202571569097163
-0.226050537117793
-0.246152037334337
-0.227066801377232
-0.209068205702995
-0.185073496152107
-0.0824787144273624
0.0885154254173485
0.224758589701019
0.274939366714921
0.258056967445286
0.188329671615986
0.0979917429804609
0.0372802452928703
-0.0225410521356751
-0.143549601608045
-0.257522301653033
-0.232190066372542
-0.0886758319900363
0.0297408609717911
0.053314075453874
-0.007414184847625
-0.150633628548526
-0.332830740849865
-0.439821554672896
-0.426469660875993
-0.377912033407052
-0.360698435531106
-0.33949617860231
-0.284011356531151
-0.221160117475014
-0.164475958355827
-0.116731804601091
-0.106982157354139
-0.110994539389037
-0.0265401463209724
0.167771312761644
0.349341670130484
0.417261091630203
0.391507362609777
0.331294763285648
0.289957795008983
0.32739253933948
0.452406593719384
0.599365838581595
0.713874760476702
0.773607139845405
0.736879439736483
0.605625258968707
0.488527822280263
0.458879566415538
0.448097580661751
0.407158769555213
0.412252948021228
0.491579931088133
0.542128447826379
0.507095546040321
0.43304338426709
0.321164069974496
0.134089935838529
-0.0649763179399931
-0.179399397675981
-0.236364809494202
-0.31403699517603
-0.396890181526528
-0.437396940952807
-0.453463328641746
-0.459874578054835
-0.429119010502768
-0.395251217790034
-0.457610338974293
-0.636950779351976
-0.853742370065884
-1.02989712853267
-1.09655167661611
-0.993446156478255
-0.778959051050831
-0.621144069573941
-0.597667975208972
-0.629536460275362
-0.621425376822998
-0.527470131134994
-0.328515871963236
-0.0850099682725702
0.0684770895585562
0.0796745817666877
0.0167998577051524
-0.0768511406402975
-0.196280749342324
-0.25802856544333
-0.176837306546698
-0.0246486993302431
0.0764370003728653
0.144763130185907
0.266395323240152
0.448012932927978
0.653303409479181
0.843009817385264
0.926201341399371
0.835367015723141
0.662021787774649
0.568917117754242
0.597100742321153
0.675725833145079
0.742253798882517
0.748006470970988
0.648087881012203
0.476717352176103
0.328434708113362
0.220516760772711
0.103441261599915
0.0052488328610104
-0.0030201197848291
0.0374251263529617
0.0199846512830323
-0.0748291360389311
-0.199893070558326
-0.312693549655893
-0.340784996521525
-0.223737235954023
-0.0470401728265507
0.0182823529334629
-0.071302028257351
-0.209310570164857
-0.298710988065061
-0.324529236699341
-0.319825557296168
-0.325112443972177
-0.329787732034927
-0.269065306830886
-0.146453319690068
-0.0679749916389382
-0.0711642741152086
-0.065829912751696
-0.0214396614987605
-0.0228158332330115
-0.0832647323145874
-0.118380402019156
-0.129194306248293
-0.190158527260308
-0.269023245966917
-0.268308109409929
-0.201402707423067
-0.147694978718578
-0.107303814267308
-0.0494951259203157
-0.0051648380230334
0.0115875626583364
0.0548215663854796
0.129076611581924
0.162757999841094
0.158054061111906
0.203618659131375
0.301823131598714
0.343433622480526
0.268815508573161
0.133184270660698
0.0266876145885946
-0.0045960916471672
0.0057053747944988
-0.0129279594213392
-0.0535550236262544
-0.0437511654728828
-0.0084682530579938
-0.05877244962559
-0.171956256563304
-0.188868160524161
-0.0745619852812019
0.0357972959807844
0.0705084330892636
0.0848695213213652
0.102435738275352
0.0929206700467018
0.0763428999676944
0.0976868077220371
0.156869457960854
0.244635898826692
0.34953736703888
0.409527376660435
0.38000014747046
0.318603574897388
0.277000839347255
0.191651225324916
0.016121577700253
-0.144558558049486
-0.169943221648306
-0.0984594045363461
-0.0539619378800405
-0.0913054007500748
-0.193665267674898
-0.328448242903237
-0.459986654884023
-0.581336003093704
-0.710066351515535
-0.794314959397867
-0.736692270774229
-0.570959046918562
-0.435334333085427
-0.322584561037947
-0.0855734657448712
0.267243407010927
0.519806342710301
0.528473535258067
0.365541244921475
0.187094574156902
0.0948420168325068
0.0881149385829216
0.0746324731817482
-0.0073976447506834
-0.0852817382347507
-0.0777506411737085
-0.0525084121087989
-0.110964101695379
-0.216436546439256
-0.2801234948023
-0.295101386420443
-0.272753192081455
-0.184341335411985
-0.042334053468537
0.0798005921791791
0.130235805920822
0.101529745675881
0.026016076213746
0.0065073911628962
0.140930752585242
0.368016793146883
0.519045327377993
0.547427521734049
0.554900410043238
0.586521832396157
0.578433751052877
0.509182854814802
0.425639551935274
0.340648340987334
0.262931182664729
0.25897370031139
0.34269309034185
0.406523523368612
0.3661469317563
0.251256418516096
0.114341279176833
-0.0050676196783839
-0.0425124094760045
0.0197399685323899
0.105670451716168
0.177429311383616
0.287573191261259
0.419993293637924
0.452257992460716
0.340217007137058
0.172095857390644
0.0248426304768165
-0.0863410364779928
-0.168555367261498
-0.28351900198429
-0.510138585528431
-0.795956464511732
-0.996307645208942
-1.08046958129304
-1.11770936340186
-1.10009866770337
-0.98855255605741
-0.869137329100138
-0.860276660481689
-0.931818078498004
-0.969604957537603
-0.927144795142428
-0.803704648459407
-0.599705129495867
-0.377691706222995
-0.221859184333969
-0.0943742465133685
0.10439625386858
0.341461100501824
0.498269155446538
0.563425550877116
0.605779743340782
0.633925836736993
0.618836441050094
0.560131140161518
0.454034729247313
0.303460427120322
0.172996429260453
0.125457530780542
0.137433109390328
0.155975840716762
0.157751939641568
0.116018290909757
0.0344827331647961
0.0134777926105559
0.140541684969992
0.357425031271221
0.55819639664163
0.706294728336104
0.753276005096569
0.632520770573616
0.432285380884584
0.355485344509737
0.437311043051312
0.517592390576266
0.501984720948123
0.432255859292771
0.332125484565116
0.196143633521175
0.0852790021999841
0.0579741509997106
0.0648284950855584
0.0369205619808069
-0.0088022688302754
-0.0378675577840667
-0.0536295624999764
-0.03648568620362
0.0258524421755353
0.038959591832859
-0.100493511239563
-0.328432215064289
-0.488599259776349
-0.53112342297083
-0.519928337314722
-0.521122769159421
-0.550228000485214
-0.552378393318115
-0.448581519904733
-0.28136960722215
-0.219272363873493
-0.321724390529429
-0.435461832810321
-0.413328029104986
-0.289752474424175
-0.184451448878325
-0.171611534055275
-0.242095490145102
-0.272385935395416
-0.108450135322226
0.205799765713796
0.417998254354968
0.376406896491729
0.185358340355485
0.0127819409519164
-0.0631286592105552
-0.0163034870393265
0.117644254150842
0.217449697816281
0.219778960685762
0.212857686642042
0.259313988994397
0.258177419438974
0.123748901401779
-0.0423447026773648
-0.101336522700584
-0.075387426016277
-0.0890999479658489
-0.215153519246524
-0.413042387766857
-0.533662277168222
-0.438277610833736
-0.195187924770694
-0.0309330051208646
-0.022643165305464
-0.0253198322923301
0.05498185263396
0.139468226786649
0.158551139746423
0.146368914319964
0.139747252684692
0.13746340080535
0.138970688143281
0.136903445327854
0.135694043681772
0.193521709261804
0.331689339425411
0.437905507292552
0.400742681265909
0.269095992168794
0.156151897933706
0.106946674894207
0.146646918729655
0.283265059765888
0.405486153498868
0.37744706855785
0.257941097592564
0.23172990346355
0.338280780856733
0.444218951694114
0.442546687451689
0.333165073885544
0.168282181506522
0.0266077756183634
-0.0410937540090613
-0.0998122060678476
-0.241141483106002
-0.396127337343989
-0.419013945735793
-0.347149483242827
-0.361622286762236
-0.50909549922697
-0.667653138217453
-0.749002783581147
-0.764574360847397
-0.744350773887672
-0.705675806627097
-0.655561937883861
-0.589963365481661
-0.531082050446527
-0.514072689055579
-0.496454065519071
-0.391777710284001
-0.223022863489229
-0.0983231521843026
-0.0343953761554316
0.0335255020725992
0.10866594877954
0.168008340382246
0.251681988290968
0.3588056309607
0.386445057635198
0.308257468771015
0.258336112151774
0.34554110258178
0.538826489766488
0.754724339654969
0.902099348910251
0.887358482839063
0.729022611395672
0.582034907026404
0.523799198317115
0.447060503160905
0.27272628926179
0.0947650052367645
-0.0004307485069373
-0.0666016414946129
-0.135857610121521
-0.121526344639823
0.0078615998909669
0.127911962048736
0.110948139945666
-0.03990894776967
-0.224371215937006
-0.332622690611388
-0.329907279148767
-0.281179330584951
-0.236019803847386
-0.14154560505554
0.0317419101669889
0.180936566154623
0.212854832127478
0.178029814446253
0.161670736131958
0.177066874079934
0.222583462003339
0.282162023338608
0.256900771280237
0.0718232295675473
-0.170335902561689
-0.292988646498479
-0.239780260317551
-0.0681577879984865
0.125436208470428
0.214637276082938
0.132371483682734
-0.0277565704013837
-0.138442124948216
-0.215174504434933
-0.3253585758623
-0.430264452175305
-0.47458912824579
-0.509843591890531
-0.574519422494818
-0.580997829573108
-0.466107781837366
-0.328308382478428
-0.295864120970564
-0.370747853839487
-0.464420401972858
-0.479200012796977
-0.360346068590349
-0.173886348297689
-0.0698734106965007
-0.0873714821813154
-0.115717151313722
-0.0997703194287003
-0.114058203237733
-0.190113307945501
-0.239582066744541
-0.181265066688452
-0.0263302451896162
0.146956092640766
0.234100953131953
0.18891319395899
0.0970235546565547
0.0705256966420395
0.102899660472994
0.150032774404623
0.254875548678348
0.438402082830887
0.598985076850511
0.662122927703533
0.674447321898343
0.655188027470385
0.547190650346904
0.378354222082003
0.274826217675272
0.27838404665132
0.314679374505313
0.329652850908877
0.314435361306064
0.242128743046324
0.106392525972026
-0.0365219444212522
-0.147630967955542
-0.231057681740483
-0.235128928840108
-0.0795077189522035
0.176773670389746
0.357515423701398
0.382499400108336
0.318185893235468
0.247750403957451
0.223076792968796
0.283729457031174
0.413056828617825
0.533318145135185
0.588111010065804
0.565419654255417
0.465735794105689
0.326452147170628
0.212671397592455
0.121168132498024
-0.011691365357516
-0.187200859229402
-0.360011252357761
-0.551658393921489
-0.790352819006239
-0.993852806078062
-1.06786191258896
-1.03878099632341
-0.975476970957736
-0.903802569379437
-0.866280860027159
-0.908580235011707
-0.976682495792643
-0.982225795816005
-0.942792326678372
-0.903157993228089
-0.793026630097397
-0.532249464208672
-0.201060056299992
0.0459384328731546
0.163370040216747
0.206510447282366
0.233523208863142
0.287974539936677
0.373991040983056
0.430630285606014
0.443181466513336
0.521331401443628
0.727362464768497
0.930801377296943
0.973727855800245
0.858256988627579
0.675691955606556
0.497988808638638
0.392398401538428
0.395840305061747
0.459396305329735
0.5177687935988
0.552976689059946
0.527081652957054
0.390700568641813
0.209452385234316
0.114926516929624
0.113890916005821
0.115082732292334
0.096029620195309
0.067670850174615
-0.0204181415413787
-0.169791846210685
-0.267668308898472
-0.262314499273523
-0.243829548533555
-0.281073666599275
-0.358813731544958
-0.494061273065536
-0.725112513373958
-0.993905312993542
-1.1985300842757
-1.30996934640944
-1.30647113104183
-1.10804650894803
-0.723329943461678
-0.330622557115082
-0.0744240866380293
0.0879913357165026
0.248900394163188
0.414765771400964
0.562825752934025
0.68575179080109
0.76760587162142
0.821692679681154
0.900420345335083
0.993589270924977
1.00983109845256
0.894245097550736
0.661969040093701
0.343571339204549
0.0154762426582652
-0.187157199985915
-0.20435162038171
-0.112157466318175
0.0108774524255498
0.148974231932608
0.263537856794641
0.299469400653963
0.267165771287434
0.192598369465273
0.0666257238811502
-0.0601406028432184
-0.0865951840099464
-0.0388700094480293
-0.0456149533531525
-0.103887091419952
-0.0902218790314477
-0.0052217806211105
0.0188201929311935
-0.0606473955029296
-0.165565693521295
-0.248316220450906
-0.307191119848032
-0.321092894187367
-0.31050513255553
-0.361898230357544
-0.472370176628309
-0.504430639662019
-0.398753405603351
-0.288247807308288
-0.323597690279514
-0.506926708147292
-0.722328226321934
-0.839664505455869
-0.817324179004089
-0.75106141469044
-0.750002032797661
-0.776300088574695
-0.723148086852915
-0.593028123119919
-0.457456511238615
-0.32240947984268
-0.159829394316767
0.0282622247052229
0.249989864322811
0.494197886899398
0.652920968105805
0.649123419623497
0.601641125197321
0.67005109079245
0.820590304884311
0.927281882406028
0.970038873393241
0.970287564001813
0.894812660529677
0.755991577170254
0.645629954988891
0.589834216542811
0.522601647372793
0.426055423441233
0.345180390786995
0.273445923671235
0.166480527691433
0.0431217556070164
-0.0381375267530309
-0.0482817984544575
0.0350958740908361
0.212825474116429
0.38292605097244
0.418192925510094
0.349565414158642
0.328160914098892
0.414787467279705
0.535109933722683
0.606227047372382
0.615470253009382
0.619291209353692
0.69156022951215
0.820983919376923
0.900888622594102
0.872463425325632
0.775335717301969
0.612769688733786
0.323215634588769
-0.0696819175741871
-0.442309374480897
-0.718603578127353
-0.888370824650751
-0.952352724515083
-1.0116961545197
-1.27559739251729
-1.8012135825156
-2.37573966287008
-2.78387074719965
-3.00839788197802
-3.09951094564619
-3.07164754968597
-2.96833725908504
-2.80661089557844
-2.45649813715006
-1.78704110270095
-0.902860908147771
-0.0434070607145775
0.692395732992689
1.33671682775229
1.84464047105542
2.07325205531165
1.92912697298513
1.45926338818265
0.866698878269939
0.425344594922855
0.253272207697966
0.209069359955155
0.113953669663454
-0.0309680864592634
-0.131031056982635
-0.137352030110609
-0.0232467240999547
0.216048268066476
0.500073046000438
0.735019863341278
0.923909656168833
1.09471634074868
1.21627921645689
1.29229613396465
1.40570311198477
1.57995902585049
1.73087235050597
1.7931715979668
1.76319626949739
1.64591244798745
1.48836214323166
1.38362545283028
1.33715266770211
1.25143026536504
1.10304418546139
0.970571032623407
0.853092537955507
0.640978056588206
0.292439918127686
-0.112284738636962
-0.485823336641036
-0.77540234419782
-0.938357936772898
-1.00019101888289
-1.06918445148243
-1.19368232978707
-1.30137066402237
-1.3409046674832
-1.3448385691857
-1.31995517553921
-1.23363553126523
-1.11604698636545
-1.03995348273478
-1.02902722591598
-1.06841425051624
-1.12242631199469
-1.10769256278283
-0.969809836335336
-0.779685513104702
-0.632675649632725
-0.516078286107119
-0.389338067766047
-0.278793271603095
-0.19362017455025
-0.0964226506638984
-0.0220196353514643
-0.0507399756818526
-0.134753245142361
-0.129517972516733
0.009980775765687
0.210938674357547
0.393480151036498
0.485875629048415
0.442097665040258
0.324615965096771
0.248450489529867
0.227166119666334
0.209915478994811
0.224167255293152
0.310891399421121
0.377326225347195
0.290083159179978
0.0586525101678862
-0.215446882174949
-0.479697382436731
-0.691770360805489
-0.765696003818708
-0.685795589157109
-0.560785585238165
-0.485630189711338
-0.453293811118064
-0.409716085158103
-0.294466715088551
-0.0798541068603459
0.147182074318424
0.241461352773189
0.189866118393928
0.124289653950807
0.144419959141402
0.262701114134297
0.472082360864747
0.721865728718131
0.903547821478198
0.974803373955729
0.990512144374569
0.955115953312696
0.802937563337093
0.548553233823052
0.288477978290513
0.0802269936430761
-0.0263460073566996
0.060780699360858
0.330911078554597
0.599777629926498
0.714855677932228
0.701319772009994
0.636788806111485
0.546299380092854
0.473334605365838
0.498060009743492
0.643657559399173
0.871274624229775
1.14540826827477
1.40361896316962
1.53568435389075
1.50627031390653
1.41225578975827
1.337520950204
1.26287655073658
1.15826624165786
1.03048756040001
0.879926258085477
0.736387254718417
0.690783185318945
0.779517807075232
0.900053349630827
0.898746404536494
0.670316675987795
0.194754301458047
-0.414667164222696
-0.956702817418497
-1.33305568923723
-1.61177069877748
-1.86893643652537
-2.12561506011114
-2.43748319639066
-2.82588576900387
-3.1395038168177
-3.21990666691878
-3.1534905069585
-3.14302571814812
-3.23209618249177
-3.3450025224312
-3.44941269586296
-3.51318830008998
-3.44988466923857
-3.22337264064379
-2.88613770321767
-2.48741968954353
-2.0659724806657
-1.69246867934281
-1.37843999273983
-1.01576301566942
-0.552066553669486
-0.126473110125851
0.122883846658969
0.275784856493467
0.506604060353336
0.846438814074053
1.17654271712411
1.36901775382279
1.38798706861768
1.33019433835631
1.35440311772749
1.5201275570135
1.76129665598564
2.02662914634761
2.31980592683331
2.60787761836509
2.83005974193423
2.97268768450927
3.02937904961415
2.96862641397446
2.82807604577482
2.71885236387568
2.67351048523774
2.61997344456163
2.5074576243463
2.31852795799875
2.02742699240969
1.69287996427256
1.46020552628078
1.34148801383028
1.18283367652162
0.95087747565514
0.808709112715047
0.816142318585866
0.815626056568632
0.704493737144535
0.579593791083059
0.537329059059089
0.539123188317956
0.530471166415256
0.52807031329264
0.564952601361294
0.656272099700068
0.785537365988227
0.875886351627475
0.881053523423441
0.902339317891241
1.03851218061054
1.14879538019302
0.975276411356231
0.465290501239013
-0.206959760338517
-0.87146637649072
-1.4680933079769
-1.9966671917269
-2.46346763748194
-2.84423213200336
-3.1145690610455
-3.36021428410979
-3.75340654885294
-4.3455181607241
-4.99659654247513
-5.5363407289417
-5.85286498616899
-5.86855194437824
-5.62655161582759
-5.32765840553444
-5.08706205009718
-4.77369257166494
-4.25112062054002
-3.58484108258721
-2.85120924204321
-1.96071577908399
-0.836236288461623
0.404640107712379
1.5530861203152
2.46083576453783
3.06249725273661
3.39686902373355
3.6152013338493
3.84365119941528
4.05723268423225
4.16271057414301
4.10632262437657
3.84104005873183
3.35499038210641
2.79859679279387
2.41014118621463
2.27546471537374
2.29821290802485
2.36490111117164
2.40702340017709
2.38836086854764
2.3376450566799
2.29201793040983
2.17121966733073
1.84583579394822
1.33101807267553
0.78550965579615
0.37204386958
0.218349514370609
0.377904168551397
0.696071789706229
0.843902342640889
0.590135454624081
-0.047154411217303
-0.906905252870555
-1.80148136878687
-2.55463974236596
-3.04857824075727
-3.2312826152723
-3.09668103144768
-2.76497857036719
-2.51418930752746
-2.54851567702719
-2.79425021434398
-3.09517993451324
-3.49434614334249
-4.10088102980259
-4.78624596478883
-5.26225387517635
-5.3945060756869
-5.23961928889583
-4.8733559755275
-4.36928995212381
-3.82973395352627
-3.26793594876803
-2.55012831827412
-1.53889798406323
-0.203066158321545
1.40441437430864
3.14580841702838
4.7967195215463
6.15017627821598
7.11528873835162
7.71658436574255
8.06825724051591
8.30647822017959
8.46092618431443
8.46953517708446
8.37076725852509
8.32765882504499
8.40892054311883
8.51811542884173
8.54071296937334
8.36153355435422
7.80102136276522
6.78333295365565
5.50028251265886
4.19831765109926
2.91359288946285
1.5846281536948
0.266079207283325
-0.92590483143437
-1.9401651290658
-2.76995442266782
-3.442171166878
-4.06201423766224
-4.73805646152803
-5.47806045205296
-6.26128700946814
-7.08674972504935
-7.78479592652504
-7.95511173551398
-7.34330710967726
-6.2083940340619
-5.18299629778047
-4.85016893447164
-5.45082490711599
-6.79342709788229
-8.3900565481526
-9.7972956561015
-10.8228716885809
-11.3988715891112
-11.4431417979882
-10.9312846422972
-9.94110219818313
-8.57435401228614
-6.96618726693955
-5.33219592933922
-3.84245304202202
-2.4886804183906
-1.17017294250219
0.183391743312113
1.59703595292642
2.97905022104274
4.06134546423709
4.62286574613188
4.78201688802326
4.92029574979396
5.36597179756051
6.22580452813436
7.36156896061731
8.42919501820746
9.10601024009478
9.35976136235654
9.35326422853264
9.08150648861313
8.31216268783356
6.94219955218409
5.25589766818612
3.7663631650834
2.8572818005217
2.5393265790771
2.50941171397343
2.53772157575164
2.80152418836487
3.67274330251465
5.16098079826702
6.72633893948014
7.65003052832045
7.52631030716794
6.52695156972896
5.29129355454908
4.40664810497754
3.89944578630821
3.34518744737272
2.4585233433337
1.40394382354659
0.554517359971855
0.090938594245199
-0.215816510744071
-0.904825041647516
-2.374770187249
-4.44651113811044
-6.48038987486101
-7.92320237746603
-8.62915861518349
-8.7694647942633
-8.64028270386481
-8.47755158907743
-8.29001476255956
-7.93347448443351
-7.40050472474037
-6.89797386006082
-6.59501972051063
-6.42059813053904
-6.11081046354607
-5.35718668918128
-4.0106866372782
-2.32464013364261
-0.917207748805641
-0.298324687805259
-0.462268132519794
-1.01160983853968
-1.51448943870921
-1.64703123449437
-1.21494115885913
-0.225557350248942
1.13122700452223
2.61639218707684
4.00560411183579
5.09833815869536
5.77851912582083
6.04339618583375
5.96539376092645
5.68185669237972
5.33802533418185
4.91544239760474
4.21302652504751
3.11704218423981
1.77222084109981
0.401306567724865
-0.899116502191511
-2.13605427588255
-3.33088947590753
-4.4164755557783
-5.10230121274846
-5.02110172427764
-4.21556219088232
-3.28671844176144
-2.84033229670543
-2.94643536951425
-3.28284808284024
-3.60144678195442
-3.90490775464619
-4.32883217629033
-4.96331732598988
-5.69199279045388
-6.19348619742548
-6.19754594102114
-5.65955105427415
-4.555103431028
-2.67785881196487
0.106878927307221
3.49401119767686
6.82291063112072
9.4934559832821
11.2499525409658
12.1910292491848
12.585739997641
12.6272724613436
12.3381054646331
11.6589602391429
10.5122879077996
8.84057141656892
6.78204710973885
4.77613166496202
3.30586909046209
2.55356636267172
2.37182116228736
2.42387653729973
2.30097608751895
1.79007338394788
1.11401751981232
0.598901530801434
0.06667695613933
-1.04774827738635
-2.87425197767589
-4.7396029726151
-5.75769443431672
-5.62305123679035
-4.78912529482923
-3.96445057439587
-3.43468852811653
-2.87517880692475
-1.85422147559321
-0.375078754932199
1.26116694798058
2.96614341320896
4.88209342079187
6.88370484643965
8.38267090844771
8.75810257347695
7.84497575035653
5.95130334711072
3.48527172936198
0.619801166400381
-2.63924883762028
-6.07692854649969
-9.1627929307147
-11.4565275187777
-12.9611361784539
-13.964447677854
-14.7328733667738
-15.461425793522
-16.277215376036
-17.1337587458524
-17.8335187294083
-18.1811472586432
-17.965449279564
-16.8496784716811
-14.5104300477503
-10.9202924773354
-6.40865997857084
-1.49193376467714
3.30554512024627
7.53556576730026
10.7879793919299
12.6480216590602
12.9076791904708
11.8964102240547
10.3600155736735
8.84751055938566
7.37325986084062
5.76398082134495
4.10944843256463
2.71340166782809
1.75275953813308
1.1426933579193
0.695296145324631
0.362687889752496
0.337952509413859
0.855907192149901
1.86802422628148
3.04965057318554
4.15231523942569
5.1484821392196
6.01419640102553
6.63051956423509
6.94630679019437
7.00494899402724
6.78221597061736
6.20563298975886
5.37302298492742
4.62426626535668
4.35349219535453
4.72481052077141
5.48956004029239
6.10563449896957
6.13124336289416
5.47586651634023
4.26403701129789
2.64384316125531
0.813364705783564
-0.961582399297814
-2.45919430801629
-3.50444347390889
-3.88181176888359
-3.43600783789657
-2.25767036279726
-0.649997752580123
1.04979029708482
2.59533804764904
3.93148051780718
5.20323299356115
6.48433523365512
7.45474610252893
7.52839675381725
6.36642606179329
4.14510965167931
1.32750645500236
-1.64586793923279
-4.40758493356154
-6.59284830180834
-7.87421481832694
-8.12298983274775
-7.55280431877159
-6.63314752725787
-5.80263015369782
-5.35816830996522
-5.60305087626399
-6.7753015912387
-8.64916516454118
-10.4782211314422
-11.561908555106
-11.7260099368842
-11.1708727107763
-10.0842008880531
-8.53891522011667
-6.63038103604849
-4.60654368381042
-2.84848737004117
-1.63748315724546
-0.921310389052644
-0.429682767650333
0.0010504061165446
0.350982482977128
0.552177558629016
0.530020410299813
0.285728844517633
0.136700296738991
0.654084249178789
2.09844666159358
4.02916198916926
5.61570577898024
6.21539675000318
5.61164223897647
3.9570798729601
1.71004993938828
-0.441868302302773
-1.76890077572825
-1.76115030264387
-0.406720767924652
1.68335010819385
3.5847545509694
4.64548524630241
4.69224036458839
3.70927572638408
1.66352192265047
-1.19134352333637
-4.11700343782271
-6.28221609962387
-7.36633257166653
-7.71803284603226
-7.91600531442073
-8.18056594388007
-8.23622471915266
-7.70761793986156
-6.48868036561528
-4.68514701214541
-2.40593662000314
0.273146943249224
3.28179152353753
6.52919205540396
9.76262139881134
12.5062723094157
14.3190354644959
15.0282758935596
14.6068072282312
13.0835746137032
10.800359838025
8.54607493686786
7.21984386759086
7.42003811025177
9.2788518111858
12.3779455296148
15.7796507441049
18.4268462472705
19.6374005755507
19.1578776321882
16.9378338369807
13.1701587671757
8.45567095079193
3.56644728527802
-1.01406207501344
-5.17630700629176
-8.90322781452338
-12.0798816425285
-14.5549988418113
-16.3190268539141
-17.6037774057022
-18.6805032550559
-19.4454856795168
-19.3316713455337
-17.7816525905733
-14.7529309117963
-10.7328420468301
-6.42360265897292
-2.49806306976663
0.482048245681542
2.10259610202982
2.21004866135562
1.1185998828495
-0.324764048888103
-1.0579379946122
-0.281624229959206
2.27650909643239
6.21825176607279
10.3202217489223
12.8062280815183
12.2842812410694
8.58429716898674
2.67721153067567
-4.05549192244642
-10.4079561833934
-15.5199257653566
-18.8388749320601
-20.1020179769621
-19.4523332913148
-17.5385378923676
-15.256612921154
-13.2539127545152
-11.8413507241923
-11.3440908989601
-12.0370882332273
-13.5149099861445
-14.5997361510133
-14.2186465005827
-12.0729168595551
-8.27538281852248
-2.79422871062631
4.36124784050585
12.6172614856078
20.8292477624791
27.8385368215734
32.9539902453699
35.8608544634556
36.1997650286726
33.6198930491572
28.4976640185777
22.2673055983002
16.5142291176924
11.7257652395631
7.18976394726359
2.02329153329179
-3.90174372969198
-9.83560015046994
-14.6165533621383
-17.2999504687056
-17.6125418892254
-16.0708329893045
-13.8245243933055
-12.2048315654051
-11.943121495569
-12.5955103263422
-12.9104118874665
-11.855471614504
-9.18282284666651
-5.19345328158028
-0.445565632072954
4.23283723952975
7.92647835831855
10.13730688343
10.9700885156343
10.7400727828024
9.57828616566188
7.54260784220446
5.0512735776955
3.02535593813503
2.32439660765445
2.90757327620124
3.77665539928976
3.94664262622581
3.30279909440228
2.4007883570714
1.74820711541881
1.52123894154531
1.73264858720707
2.36544525242789
3.35149102468877
4.52824528421069
5.66823336996276
6.62455266759912
7.43170690556074
8.14619316290177
8.66444385259316
8.87699602477434
8.85678492158388
8.65979025136587
8.15436079358623
7.36571532070217
6.79821952976573
7.07814066136521
8.35623620500992
10.2152256905847
11.9679970204624
12.8933116849079
12.4415583985821
10.4921897889149
7.3371815039808
3.27321966909424
-1.72291044609062
-7.85491099796457
-15.0790754588521
-22.7479419470481
-29.6412249163642
-34.5890877015248
-37.3049232607683
-38.5406546021916
-39.3271110245192
-40.1449308663261
-40.8361838142329
-41.1424533768839
-41.1864182031335
-41.3303027892055
-41.4668841350649
-40.5847365711797
-37.3547210062844
-31.2023322559802
-22.613247188419
-12.4698408757494
-1.40038039520973
10.2290477605877
21.9592380829444
32.9403125973322
41.9134981544981
47.6088365548314
49.3721866408385
47.5402666527397
43.3383104903586
38.4203913081061
34.1821421056894
31.0785202665887
28.436583249575
25.0630510825799
20.2799759671209
14.5688504209671
9.24547966630438
5.40609553701997
3.1307777594527
1.75081165630641
0.801157205471859
0.427656423829444
0.802296050682647
1.53518605052468
1.97344316266286
1.86068168475464
1.43836285878256
1.08303915700597
1.09185531311948
1.71886560453903
3.22899950662679
5.86935836023602
9.69197629259838
14.2156511811086
18.2021901952585
19.9418672551985
18.1443310976774
12.9395703639774
5.98317733471881
-0.816039547279208
-6.75057948980344
-12.1977112924566
-17.2407067084244
-21.1565143533244
-23.4125585619656
-24.4296163098982
-24.9802407172621
-25.3039608355511
-25.1346934173222
-24.2980645536
-23.0356307814284
-21.8412065025052
-21.0278919720682
-20.4091687733227
-19.492452610873
-18.0389326580429
-16.2591946310366
-14.3486019381858
-12.0305928041538
-8.76892880240445
-4.35410168823376
0.85525354282408
6.18712602439012
11.0058783240348
14.8580793520889
17.5018153712502
19.0178164895315
19.8717933191088
20.5744100570566
21.1274374106079
21.0421501571297
20.07417412217
18.6942530366815
17.6282996424602
17.1188124383948
16.7687530651529
15.8751476240673
13.7473094813639
9.90999249740935
4.29369521368829
-2.64314924763011
-9.9785524458582
-16.6550827020888
-21.9656918913076
-25.7570900675421
-28.0702980075278
-28.69856565641
-27.2952235967282
-23.8446013342141
-18.9064103230791
-13.5420097409226
-9.04555686226473
-6.36628347140905
-5.45155214397401
-5.25028642258652
-4.50642865152928
-2.47401710210319
0.980011900099481
5.40779745264455
9.71771639319313
12.6535699990633
13.8356209088057
14.1152076919553
14.6236689943192
15.7013143780105
16.9465976921023
17.9886024304274
18.8659281988146
19.7572316508065
20.6230637424157
21.1386616697928
20.7575588620055
18.738856921685
14.4022964393019
7.76120409612148
-0.0962475312731969
-7.52844838283108
-13.2551645120936
-16.6811189106599
-17.6988155189481
-16.6774942807023
-14.5393221645539
-12.3839706687118
-10.9099124605787
-10.2345970462044
-10.06227309073
-9.88613240352715
-9.22481369585627
-7.81232648142337
-5.55567200555916
-2.49501196801535
0.997479950365225
4.18814782561047
6.41779129300238
7.43458797586697
7.19465763559003
5.73188601577642
3.5667087900134
1.90533077025101
1.90471934608715
3.70722337493523
6.36796478038825
8.63509322228573
9.75538421331357
9.80144988447424
9.43361188094752
9.2647752415984
9.35432061897152
9.27858410743901
8.56872418518292
6.98845655564943
4.5067424348482
1.2284598360693
-2.51486825974839
-6.08411128827749
-8.79105275247848
-10.3800856868466
-11.1373038894162
-11.4931164774148
-11.7823999301379
-12.4310278665513
-13.8631428479373
-15.8803813575728
-17.5067576487926
-17.830506147572
-16.7739834156927
-14.8488105159645
-12.5554645489591
-10.3343322474542
-8.74131247884658
-8.1619015838805
-8.29420020489883
-8.15612713503724
-6.8307613334475
-4.3291276794346
-1.69254247133345
-0.129528964437726
-0.0092003093314846
-0.66321884752057
-0.9685939629179
0.0180777213680049
2.72892594808203
6.9505651291477
11.9192584674374
16.6610841622121
20.2704738386329
22.0190937339232
21.5710001935877
19.2405410028438
15.880757606524
12.4676071248481
9.77188054281516
8.12201148259018
7.26765509294632
6.74933068899932
6.59637827524976
7.31016132461552
8.92896798982236
10.5270334175352
11.0376081616446
10.3615982741538
9.3581341315254
8.90362398324679
9.27890384597046
10.4362670575787
12.4235552387875
15.071635023444
17.2771997093845
17.2060966909315
13.7251602830968
7.47464917272972
0.212804367021627
-6.6731353789961
-12.696057932037
-17.694341134934
-21.4371591834588
-23.9754769000879
-26.021376102378
-28.6630844426345
-32.5862037566624
-37.4606060519755
-42.0204577236939
-44.802478491561
-44.8999720048247
-42.1717782927546
-37.0409843054284
-30.2560510409363
-22.6453735845109
-14.8807788171138
-7.45487716428085
-0.776415755629636
4.95401323150854
9.96910816344563
14.7945622219867
19.7224201265634
24.4137727742762
28.0756862697587
30.1309931251109
30.7382534515662
30.5577994559447
30.0912543009509
29.5057426680272
28.9353326646053
28.3807960367889
27.2951124146177
24.9146629276418
21.1599831413518
16.6821084147837
11.9926231225811
7.18891265204777
2.60681416327039
-0.965952502797233
-3.02999023275471
-3.91286785328772
-4.34820264313136
-4.77643771744086
-5.15486288618066
-5.18652074671607
-4.58764188848133
-3.2849323441098
-1.52335672015637
0.149731226437486
1.01625103487965
0.491968648901741
-1.4390468856626
-4.08253364346329
-6.51796943134509
-8.31925249239279
-9.80741964077591
-11.6376579796374
-14.1242909712685
-16.9244336637161
-19.4303050677169
-21.4423314309109
-23.2552397045318
-25.0663207309661
-26.5741981651109
-27.2461880884079
-26.750673390719
-25.0813025585859
-22.5055415241778
-19.4686431918484
-16.3629846041734
-13.2955181670579
-10.1137302585749
-6.63678062393351
-2.83987681259801
1.16361713976092
5.34942471587283
9.96136063827594
15.2748447196405
21.1120884795373
26.7717512474162
31.5113292756431
34.9222380415385
36.7756997088707
36.7527540530273
34.594679614095
30.5638598909069
25.6533994704926
21.2234651789112
18.3379316147854
17.3930816158217
18.2537331839269
20.4236907396392
22.8674817842363
24.0291112639513
22.6840359189126
18.9432512607024
14.154943498705
9.80573377797175
6.65535638347368
4.65682178795546
3.28084338041431
1.93515513655176
0.300594804395753
-1.71754716650215
-4.27357644883523
-7.52675726611174
-11.3528534077795
-15.5255813823789
-20.2074081049685
-25.7973843695273
-32.17312485325
-38.4765641107425
-43.7756797658398
-47.5880848458694
-49.6096149768853
-49.2912479778351
-46.0842875217018
-40.1553419863504
-32.6881511513917
-25.3570338848097
-19.4719455628336
-15.5165227658169
-13.2253122350639
-11.894143414992
-10.753337194679
-9.37833740180537
-7.86683111535062
-6.49481805287582
-5.19268535827433
-3.52250915169022
-1.13202304604155
2.01164600435724
5.82510186465309
10.2497201205481
15.0696980076355
19.7429330298329
23.5567507150814
25.9921789701795
26.9683669917297
26.8043829964877
26.0523166731287
25.3736322721779
25.311251462315
25.8547118990318
26.2505831562738
25.5319462653887
23.380859953643
20.4529472515591
17.8901928047248
16.4840096946302
16.1122115453904
15.9283747141003
15.2627801055791
14.3167619048575
13.7295514996036
13.4880754774133
12.5942267088432
9.97826715223007
5.69105307343716
1.17378820131898
-1.7067706918391
-2.07068674958043
-0.598796154849556
1.24405823731031
2.40182556311055
2.62297641080049
2.08275525749059
1.05778819996496
-0.140144099179088
-1.30722740148513
-2.47525123221077
-3.76304909992594
-5.21176172115279
-6.82304816928293
-8.50118027613191
-9.90171088225262
-10.6634309088937
-10.8321965049329
-10.7245550365152
-10.4394955585191
-9.99298065798622
-9.96984355528201
-11.4828018691829
-15.0889033051282
-19.829125503637
-23.6049283843688
-24.7777350367927
-23.5779174253446
-21.8554078720096
-21.3116251628283
-22.1286418464308
-23.4218061952754
-24.5913697577191
-25.7461349545517
-26.9901932704937
-27.8054858934727
-27.2540086945673
-24.6326714901803
-19.9479144334833
-13.8756300100222
-7.28229693991876
-0.745223858796555
5.55423116445635
11.6383733291283
17.4806495328642
22.7407203456917
26.6109350428242
28.1199289515583
26.8639266147459
23.4944817947763
19.4377160018118
16.0971963889784
14.1782491078767
13.5529589145332
13.6237315941918
13.7183609664118
13.1695936830155
11.3727407877414
8.14392928689021
3.9516114222201
-0.391707237822047
-4.043483709683
-5.94668142110087
-4.80703843773416
0.0396117444241749
7.57482848118338
15.2386529245983
20.5031560817141
22.6032070285652
22.8245927550911
22.9853615435924
23.6263051403565
23.85257517719
22.807879142103
20.8302704570204
19.0556284184314
18.2680319047298
18.2796895386616
18.1640537823734
16.9981757028999
14.5578806175902
11.3175213486837
7.71572158113233
3.63910003134279
-1.16251511882127
-6.43195884047527
-11.5968010857599
-16.4894949674198
-21.4192246176566
-26.4543465013215
-31.0025073709262
-34.3664596816989
-36.6224067868045
-38.6689232493155
-41.1761233108472
-43.4855350358991
-43.7793681722257
-40.566528995935
-34.0555466953407
-25.9892468166066
-18.0853049620681
-10.8008156019101
-3.90619746427456
1.87320405784147
4.60132320031244
3.19990936264274
-0.540108628299747
-2.9174773392374
-1.67572292805716
1.90921058077657
4.54581813240404
4.35558543942394
2.54773729002052
1.74173708632045
3.00717401923549
4.95403573933799
5.6429445824238
4.76866334994034
3.62954610939212
3.46426190770151
4.50451911393479
6.57379489321712
9.90249425102397
14.8651709117087
21.0114344837431
26.7437230029581
30.2756031040809
30.9930779020031
29.7239399143267
27.6010537527843
24.9367590509772
21.4145654621776
17.0005644396041
12.1734707419696
7.39236996706419
2.73077465138276
-1.99436535815358
-6.90573721245308
-11.793120620108
-16.1686004664518
-19.821302940516
-23.2178324574336
-26.8921910241504
-30.2736117522019
-31.4122111192559
-28.1831099660497
-19.9585208735034
-8.28896786707
3.95475974788309
14.1877942802275
21.0939347411503
24.469450884394
24.6816638722298
22.4660529542484
18.8170458085445
14.6026656164753
10.2280875124584
5.75555653626554
1.32311860135254
-2.55917608517179
-5.14459422958184
-6.05456792754101
-5.84375361257625
-5.74950462090387
-6.65934809580781
-8.41153711780231
-10.2392112390453
-11.7277012134005
-13.1023802852249
-14.6606261897987
-16.1697756202125
-16.9113312541374
-16.2618888355726
-14.1740675127182
-11.1075556915873
-7.65199559835089
-4.33049103948009
-1.52247905270568
0.77597651127073
3.04254979983205
5.78526751822009
9.04819037374384
12.5309231221818
16.0138814065532
19.3692564415877
22.2137018700932
23.7975594675006
23.3385255140565
20.5087857050146
15.6686750931242
9.62640827341932
3.18114184936496
-3.02942565440967
-8.38702725638688
-12.3945556581225
-15.0670297136066
-16.9956731681223
-18.8372892770157
-20.7100622319337
-22.0110436892886
-21.7748364030569
-19.317290448504
-14.6118115523501
-8.09522518809484
-0.367017378754363
7.75926112219441
15.3598798919983
22.0970743140411
28.4397118197938
34.3818545444517
38.174258423966
37.4337664817148
31.7831285690432
23.6241524142566
16.0505394041347
10.5711797524563
6.87902430192128
3.91851618229267
0.65131915867838
-3.64663368003359
-9.01502389728495
-14.5805456878955
-19.1325902297656
-22.2976031950299
-25.0640544235169
-28.8921229543532
-34.3136721293312
-40.4580797421441
-45.6077191424632
-47.9518418591284
-46.3422642248258
-41.1145143074513
-34.1543202302657
-27.5735958517526
-22.0657151682328
-16.5633761316521
-9.3919891570682
0.152615240962722
10.9370500187644
20.4871300506173
26.5418096542721
28.3006227131521
26.3526352522974
21.9115433608345
16.5293323191733
12.1783028845899
10.7462826198219
12.9664013494445
17.8854514413226
23.4787765928564
27.8387648610763
30.005307998882
30.0170785224594
28.4518818472833
26.0165955481736
23.3895087683414
21.0780313288129
19.2167339046599
17.5320397588115
15.5259934594989
12.7490302105542
9.11628922863597
5.05907454832774
1.16555531035996
-2.43596650365385
-6.17232163160357
-10.4643638405864
-15.2063362275665
-19.6787829835732
-22.6821781910409
-22.8597828988716
-19.3451432045057
-12.3794731075971
-3.37242379921693
5.61958177299789
12.7595542859442
17.3337349470712
19.953687138094
21.5031344711169
21.7494221895342
19.3161242225452
13.1571994204663
3.80806298479777
-6.8378134709629
-16.6494255734034
-24.1555653499573
-28.8915395001825
-31.3089727468007
-32.2886827433805
-32.5019503368194
-32.0653140797942
-30.6697880486776
-28.0521918872278
-24.513412714642
-21.0389807172049
-18.8079046404229
-18.4602510783106
-19.6119264940691
-20.8081179724481
-20.1214645235063
-16.3995609563822
-10.2156678019122
-3.40005904965076
2.41727646063015
6.70391752784974
9.83688764707514
12.577561556603
15.6456806030461
19.2572702668574
22.9036773975221
25.811178601814
27.6714978566905
28.7514689409913
29.2439883983953
28.6381053997092
25.8238586885488
19.8587602373843
10.7757451083936
-0.0850732835463373
-10.4182394680405
-17.9395939581706
-21.5773659088198
-21.986422711146
-20.8760417503506
-19.7435163725403
-19.0669940004973
-18.2920209904672
-16.2433369905926
-11.7393878486452
-4.35452447593609
5.13089992584483
15.0999565183421
24.0080441484405
31.0368241472034
36.0534250988391
38.9514262888069
38.9248452214475
34.685214029971
25.9559681349929
14.7346387024053
4.50227680530342
-2.017314298101
-4.09161191734214
-2.27961847184487
2.61423063441748
9.4993571896113
16.5345736482192
21.6029880935008
23.6022155902421
23.0605346075622
21.2562200786639
18.8797239575136
15.8459859488269
12.248528142482
8.88722301142697
6.56852189648764
5.19876662775977
3.81822426895665
1.31392833564373
-3.09283978767771
-9.80180442556788
-18.8207376294923
-29.5389754162077
-40.5120779494221
-49.7195574706193
-55.5080502041547
-57.6876872074784
-57.7350594771971
-57.6970689434231
-58.6776027417143
-60.1522898261741
-60.5224982249488
-58.4183173055583
-53.7955773437641
-47.8119426998508
-41.34805258873
-33.6011172367658
-22.4938791328504
-6.8066242664975
12.0712622799397
30.6420830510512
45.5923205674188
55.5329086729931
60.6713794690951
61.5366607672076
58.7614464640607
53.7717999944975
48.5185889301854
43.990286496285
39.4811427427559
33.7274695020464
26.5247407634171
19.0130822420079
12.5663433698096
7.64679333029968
3.81921652943231
0.722255267541868
-1.40601594709894
-2.37521535708674
-2.71693664333585
-3.10719272834994
-3.27743564129124
-2.07505269897998
1.29718850573044
6.32717356487277
11.3521931251582
14.4476762748929
14.4388391068836
11.5006916802399
6.83780967744333
1.68981269964441
-3.28417985044212
-7.7701115347426
-11.3398790549446
-13.3241801586528
-12.9827245985582
-9.97896794758365
-5.07850259034279
-0.362783482590306
1.62644948707811
-0.694634989432718
-7.00657479293929
-15.1451723391837
-22.1109012355169
-25.5963593039723
-25.1711720686363
-22.2596025915529
-18.8663009007185
-15.998335889123
-13.0362460960689
-8.63974069410894
-2.41073324941077
4.35206475245785
9.55910752731778
11.7637666823676
10.6520937383721
6.62975342323884
0.47976389384368
-6.62716232833509
-13.2078316408665
-17.8279985573367
-19.5729220721333
-18.4274283700596
-15.2997003241063
-11.4400181596442
-7.57290107917391
-3.56252485031545
1.10563033497418
6.68513069738286
12.9787354290483
19.4572516802427
25.4054554524988
30.1708822261065
33.4681655190288
35.3229574592259
35.5783162890995
33.67560127012
29.3203160757792
23.384005063528
17.7018054168618
13.6445598496169
10.9766809623138
8.21595185264971
3.98719522082198
-1.93616643600051
-8.5830951508716
-14.5979092243146
-19.2245919625326
-22.5006885396642
-24.4897766657056
-24.7756614993365
-23.1711489788288
-20.5950518398937
-18.5868152381377
-17.9562782846583
-18.2340482282399
-18.1936231233304
-16.5224050764299
-12.3839593579969
-6.07941589624608
0.730014761141627
5.85815297271538
7.91327760092631
6.94938286209476
4.11673791733812
0.845885712111947
-1.83113374507293
-3.50153748794718
-4.17001800777059
-4.00770852463966
-3.30117440158267
-2.40563300577569
-1.54299770423041
-0.695293482069659
0.23506316137443
1.27373089970051
2.49135690486043
4.18798047453492
6.75584029368016
10.2126569046438
13.9224600082056
16.9492793277399
18.7125124867691
19.1892716369879
18.5705878564701
16.9764957641423
14.4742838963646
11.0803137957904
6.68896870052925
1.18022120063496
-5.3966479011681
-12.7785955203398
-20.37413996718
-27.0420229586388
-31.3249467556818
-32.2346788727687
-29.7200619373706
-24.3726520784422
-17.0492691588496
-8.85076327249813
-0.928837067647944
6.13303858770349
12.6781506275231
19.5503637681977
27.2118700812163
34.9546679898122
40.6796689625036
41.8061373513905
37.1338662235159
28.0390530130579
17.5685321438764
8.27806205160529
1.03271032673104
-4.38482717037744
-8.0808313591006
-9.78508646067204
-9.66649427684737
-9.03289018849973
-9.73976872774369
-12.6197908744093
-16.6180393801728
-19.7766309342645
-21.1436200400281
-21.4929184045966
-21.9932468911893
-22.3920087080318
-20.9968536753472
-16.614377044275
-10.1606438890613
-4.12105998658762
-0.674239551160529
-0.404433213010881
-2.19712042046973
-3.85712476678349
-3.27536233641013
0.205480016829775
5.32731929762925
9.8444305913282
11.8909793684845
10.8955270449549
8.03597579102557
5.83607927807254
6.25034425160869
8.57225717972266
9.88640865320317
8.06985981279034
3.86487855425546
-0.218465633016286
-2.34579239677801
-2.39721303833609
-1.30945953503175
-0.0506502302034144
0.857652302496491
1.19064543562977
0.782941887840759
-0.186004274317271
-0.749616967626241
0.389137172859243
3.6019564599634
7.82752292386682
11.6064661177204
14.3967897359938
16.5244372285785
17.9532207443948
17.6157102285662
14.3104954349376
8.12826516037936
0.698428830364563
-5.92942453377448
-10.4395071577015
-12.5431248068174
-12.7266247955047
-11.8583539763733
-10.6340131583113
-9.15923941348432
-7.18923706428021
-4.76296061464989
-2.40687390015281
-0.720080209919225
0.114945140557827
0.472389464151206
1.01969387423063
2.16590388071947
3.62179890616448
4.58299507562049
4.41114215638322
3.04043922529487
0.784453723728329
-1.91648903525004
-4.42567357681635
-5.96296756001908
-6.21838516844275
-6.01191400452876
-7.01021352086445
-10.4302999989826
-15.9742466667531
-22.0621023541235
-26.8438656170047
-28.8474425837786
-27.2165030413295
-22.0208583949317
-14.213723963108
-4.82995817578941
5.50161194518354
15.7858622301403
23.9788981261099
28.1591725852965
28.4265756703892
26.7918355046232
24.9404677457357
22.6986581441322
18.9540483688485
13.5633286230947
7.84767998343353
3.29676378280386
0.204782200926164
-2.17883582037067
-4.34117947424901
-5.7259965677013
-5.36880366325423
-3.11249958398555
-0.03802061174925
2.28829156591755
2.96338927465097
2.20494682112613
0.826497319424579
-0.463329068304011
-1.1414578709814
-0.775458879201501
0.414977851284757
1.03119929519588
-0.533631295481553
-4.25999123473018
-8.2781201617773
-10.7726799669405
-11.5240572137305
-11.2731063068989
-10.2549015176335
-8.10495456173601
-5.11045980791003
-2.89684702608765
-3.38788109250629
-6.99406993530003
-11.8446166996632
-14.7270095494854
-12.9717661529666
-6.19152778224225
3.1711652995545
11.3961475673896
16.4708927900707
19.6343769914242
23.4583668578505
28.545442892485
32.7911299675054
33.8340195116675
31.4504060654685
27.2945626176974
22.8638526269253
18.2104546238406
12.5146553861881
5.43970373758455
-2.38265804454972
-9.98360633349573
-16.6944147038404
-22.1715377655703
-26.3496112465272
-29.5946251275922
-32.4601030774852
-34.9983836557798
-36.6174964418547
-36.7831819977689
-35.4271553118985
-32.361972151386
-26.7103619043672
-17.5416780892441
-5.35466285924718
7.0914294950205
15.7522596965975
17.7943037775542
13.7038020886649
7.03045844621857
1.99910998207188
1.23503768128574
5.09807289464496
12.1122435055044
19.6182331370603
24.6850049524136
25.3621164195037
21.5779905267271
14.9472570510172
7.66844435972455
1.40085067553498
-3.24748307994445
-6.68168670375618
-9.91565946141036
-13.6767016174526
-17.3491512285942
-18.9985920784814
-17.0166677883323
-11.763938853571
-5.22733237193869
0.852347012072045
6.17693864302812
11.5056009751484
17.7288602241738
25.3072667273896
33.8919994687059
42.063917757058
47.8043543041824
49.7988263903358
48.4424910733882
45.3264344807563
41.4802547050044
36.1803415061258
27.7646752228449
15.6008927819213
0.877209690497931
-14.5511342591057
-29.5107340792974
-43.4700801352471
-55.7946998140489
-65.7398538034965
-73.1421970120612
-78.6448108260292
-82.9361399518913
-85.7236273021003
-85.4958633017818
-80.3130438120789
-68.9001509327016
-51.3381824926912
-29.3075633455545
-5.8373076493114
15.7903346123294
33.4965471590204
46.7378519847406
55.3486709651691
58.6427931093739
56.2346479126267
49.5370387920705
41.7641217107571
35.9593682925495
32.8646538378447
30.7846715267109
27.6104988558675
22.8848453050919
17.8456921617735
13.8168535338326
11.06172564374
9.15578617721373
7.89091378420585
7.53243015949662
8.49707021124982
10.959267052983
14.4796671129098
17.8640021778021
19.6804196276331
19.1576004855747
16.5447981864067
12.6249884163577
7.98354832593548
2.66499909351774
-3.59967175702592
-10.7928669344784
-18.1802808252885
-24.53980176913
-28.888421785677
-31.1168234961266
-32.1433212864108
-33.3997137018803
-35.6789186740261
-38.1266495480653
-38.5199880981382
-34.8387282186992
-26.7663921038616
-15.9431334286685
-4.94795034722761
4.23038106858083
11.1252409111247
16.295874248751
19.9847690697727
21.6571373367546
21.0298902986089
19.0663591178741
17.4679012680868
17.3414409699911
18.6190081804106
20.4086999437954
21.4199312976009
20.306822486909
16.2859950872558
9.66075840346836
1.5786183032476
-6.74941718335395
-14.51952206655
-21.1772755638504
-26.076206284151
-28.5055920679663
-28.1608524554398
-25.5725715913577
-21.9057041206412
-18.0849822516816
-13.9874560386084
-8.6814117599849
-1.79910010558404
5.37072595459467
10.7073236610696
13.5136725641903
15.5348007349149
19.1409801504162
24.4849589453483
28.7200543282848
28.0671603368147
20.8305742330427
8.92120199677892
-3.34603285680774
-12.3191496355462
-17.2848774251743
-19.9581206707355
-22.1414565130321
-24.1225394593266
-24.8226558817699
-22.7549113207774
-16.9847157583034
-8.04281782728824
1.76338762572878
9.59292411115835
14.2663377005198
17.0460508087784
19.7822248929027
22.4227692736218
22.8663267641104
19.2921819093103
12.131165651134
3.60510214310065
-4.13678535755353
-10.1243833274221
-14.3737081389372
-17.1510981468151
-18.1851503837456
-16.2839079738469
-10.1922833351285
-0.409780588447039
10.0944801810251
17.6094357799089
20.3124110933184
19.1874745922716
16.6534682205276
14.5576435681537
13.2799018008084
12.2746927123925
11.0843836801187
9.72725331675209
8.38906457066668
7.19397983844329
6.3560396624009
6.13671480532206
6.29736857993011
5.75226934269782
3.25254913172973
-1.31051474941445
-6.56013109536642
-11.0801655793466
-15.1972157011889
-20.7872645016821
-29.0659503545243
-38.9318732050461
-47.6757270880181
-52.8208599325487
-52.9419431456921
-47.446350897141
-36.67932140094
-22.3052618065348
-6.75631065230458
8.03066298558398
21.045899058505
31.6672521534786
39.6017398398785
45.4857208944624
50.4485290302538
54.2457097887308
54.4162366835258
48.4316085469483
36.8507513760502
23.632407285799
13.0481322117702
6.66618954263197
3.20465168296162
0.35327168462826
-3.62774629860562
-9.13520210977256
-15.0482687606918
-19.4044484954278
-20.7671400570015
-19.1913794200722
-16.0928757088905
-13.3471088131919
-12.1582805640806
-12.3069538752147
-12.6241214435021
-12.5926360739115
-13.3325805573244
-16.5810502840133
-22.6874275356633
-29.8030858644792
-34.9588770456003
-35.9186189069715
-32.4079720459614
-25.9238371119866
-18.2637892183503
-10.1415054995022
-1.42597119464239
7.32136368526921
14.1306720879517
16.9965593289344
16.0507015457093
14.0568082346919
14.3300473331343
18.0043737574637
23.4696583123665
28.3418820382786
31.4353672940877
32.7146120642073
32.1061491439403
29.1399057184847
23.7323500375251
16.8548358574158
10.1401900276967
4.78427673151718
0.868998139420291
-2.27883523002586
-5.29075154701369
-8.44915395399166
-11.832794908613
-15.2668470542077
-18.080954411094
-19.2132375828536
-17.7000682436258
-13.1491472696509
-6.01885732018074
2.40559578652605
10.5769421626241
17.5078142208856
22.9435719506275
26.6110027927904
27.581521146727
24.8017323156094
18.3343163341643
9.80393995246194
1.35181555719457
-5.85727011480704
-11.9300236840755
-17.1242400445746
-20.9184213559419
-22.5638226750373
-22.2647401202201
-21.3024666618946
-20.935378678208
-21.2167045054193
-20.6167661205611
-16.8799044749588
-9.0131765954386
1.16553277814446
9.93980078504568
14.5672753424543
15.1528216772178
13.8309453836893
12.5547236290888
11.6318618222463
9.99913004625216
6.81988907053792
2.71778090887387
-0.954172169780795
-3.98433091879969
-7.72914134844072
-13.4692099653564
-20.8452572364646
-27.9430315471545
-32.3541701997502
-32.2813564595233
-27.566614764216
-20.1176254122325
-12.8558493333388
-7.69668860088231
-4.40712599236053
-1.30181674148096
3.1435130655233
9.19383422104429
15.8508074152957
21.6741671365737
25.7149854146593
27.8010211361828
28.1199156311833
26.919055398567
24.7922472604256
22.7615041809639
21.3169163617228
19.2712315188219
14.2197100780815
4.69471129006817
-8.1397580110984
-20.9723213045666
-30.2935247282217
-34.0754551807552
-32.4732306690498
-27.5527185298311
-21.9162947650874
-16.818858955114
-11.5214470938386
-4.78173445577516
3.08925718250906
9.90815503510166
13.3276560864352
12.8232524859282
10.2149612154308
8.35363978785485
9.0721213996326
12.157792626774
16.123966927269
19.7051758644391
22.5395611636545
24.8123777303153
26.6461404853184
27.8044330006668
27.863777366545
26.7238832132631
24.8075564412393
22.408792785317
18.9111007505798
13.1637064726808
4.82568420015835
-4.91439668342612
-13.9857154812772
-20.6343031400294
-24.2738659844616
-25.6545577993746
-26.1025735909609
-26.1934587819744
-25.3466959043184
-23.1634564404889
-20.8284248632347
-20.2925965801896
-21.8968738168578
-23.6100203746441
-23.1600763160052
-20.4344483259193
-17.1905147670144
-14.7951641771895
-13.0288774906378
-10.9477782165289
-8.00116704666271
-4.06079150310545
0.925660098975473
6.83036266918005
13.2166850245462
19.6680090293316
26.1553408037261
32.8351228371309
39.2409899414502
43.6093535949835
43.5528282102382
38.1760837748717
29.4272169855717
20.5590623457084
13.0910798843869
5.79942331289502
-3.36550174020272
-15.0358378822257
-28.0594817646069
-40.4784488835136
-50.362856704706
-56.1061714804232
-56.70948191014
-52.3809370254044
-44.8587414893716
-36.4549352889159
-28.229818206276
-19.4846565574644
-9.53170595821635
0.555607338286514
8.6434042815447
13.6340669783513
16.2974907678285
18.4238960149995
21.691674449352
26.7957260091704
32.7245655307756
36.9051374288981
36.8279293330021
32.0153211013156
24.4185422001131
16.8639216483615
11.1132550220139
7.26405253984028
4.61190890763747
2.62691927236274
1.04492416620956
-0.436633128258486
-1.98604215222775
-3.20794550579319
-3.25842886235896
-1.53662445389657
1.71555042745212
5.35504550251664
7.85629198776653
8.17503605927126
6.34880033818399
3.29952907546631
0.186684238616285
-1.95686566157211
-2.39585786397179
-1.10807306593834
1.01747727204152
2.79270690057536
3.49570143066536
2.90118999561764
0.992941619345885
-1.93021410706974
-5.16664773475522
-8.08552102782226
-10.6083566787656
-13.0129308934158
-15.4061657848405
-17.5762896048325
-19.2568583407405
-20.3120034096033
-20.5627233426571
-19.5671767885583
-16.8926904062258
-12.6625480217299
-7.35682875983887
-0.785614011346384
8.09241176828055
19.4932739065156
31.1268370744428
39.057528916514
40.6400737999591
36.454825319761
29.4056856752707
22.2855407180623
16.2540829517308
11.0736364071651
6.12228639902392
1.12232723269512
-3.63857407082329
-7.57055790450786
-10.441400782655
-12.7095732505601
-14.851048366261
-16.5547491804743
-17.3363416690471
-18.0078902206552
-20.5707862779592
-26.0432526458529
-32.8780566131092
-38.0254159438354
-39.3709991968731
-37.0073512839611
-32.3810848872376
-26.2801533375973
-17.7280000812756
-5.42168828185837
9.46763780324235
22.7479574644363
30.2534886386468
31.0536647290356
27.172992293298
20.9874555671838
14.0048154801241
7.69943524551697
3.84439767630361
3.16245450534362
4.33395134781009
5.29813451542257
5.53582948629248
6.43789332814712
9.32501685718732
13.7100640371921
17.7570839466383
19.8713849852764
19.4414436686164
16.6016064941536
12.0479929454266
6.99374166878349
2.63258428496959
-0.616145663992753
-3.13258254596523
-5.40621784542407
-7.62796265539142
-9.91950286760625
-12.4700537878633
-15.0847988110083
-16.7132525915722
-15.838814154503
-11.754890350994
-5.64762361298898
-0.280680885267227
1.74967988800853
-0.135421271527105
-4.08880091670839
-7.31632022365527
-8.25330375114067
-7.44388673734795
-6.35979809185932
-5.6631197394852
-4.83566966271312
-3.11975595056979
-0.340915779686706
2.96152424119079
5.71720251538011
6.83263916597717
6.11295525003293
4.71933646406735
4.29420407766513
5.49142898006783
7.4801927960107
8.82613886469585
8.73949239672674
7.56047817961562
6.15177896030422
4.79321406239665
2.6747940677046
-1.39831870990183
-7.66476599094832
-14.6411321021542
-19.6212492644365
-20.156152190714
-15.5534155046635
-7.31070128300894
1.90069570300875
9.84746186773862
15.6414655837022
19.5478200058061
22.2525219095589
24.2182316998912
25.5307736345491
26.3024171277284
26.9797928470486
27.8368314177071
28.2023078743566
26.718995293432
22.6460396551679
16.719577003834
10.5869042375194
5.47990984634868
1.49407470862496
-1.91774291640118
-4.9640560610711
-7.38704795305858
-9.45800983619398
-12.6363616123365
-18.6033461440437
-27.5784135699081
-37.8363584275874
-46.7202717496914
-51.9347152297272
-52.4917414114196
-49.4405887648865
-45.8180167305897
-44.9165135919651
-47.5787411262314
-50.9179630844247
-50.0665117620104
-41.7858255406361
-26.9035693180282
-9.50970328309894
6.16236067514097
18.1644067430944
26.7152936313073
32.6626585708492
36.6705034497975
39.4325108139316
41.6366437151421
43.2339076028823
43.1335418965079
40.2935511638377
35.266956275322
30.0931675215908
26.1854464783447
22.7386659123787
17.8080182668039
10.6597592380113
2.52032655202487
-4.6244360468059
-9.32213933492159
-11.0485602291451
-10.1140436929841
-7.38196517859853
-3.78436011067866
0.104180312251718
4.17460794814788
8.60542197134145
13.473558201035
18.355569844684
22.2828114043163
24.014307232259
22.3053741465357
16.4038160527216
7.04434534188125
-3.04898009147554
-10.4942430720007
-13.7514737634457
-14.2683963840803
-14.8748770670218
-17.0104432173756
-19.6780453626185
-21.0668029116778
-20.725463501206
-19.6576040404693
-18.5598610434412
-16.9133203115173
-14.1548646854562
-10.8887499312106
-8.18070875213892
-6.154477769166
-4.06177350670128
-1.44323623189323
1.50637333093424
4.60224479772918
8.03953491785797
11.940775224007
15.8730210653852
19.0357182361189
20.8441908016548
21.154602872415
19.9187209669875
16.9127216729489
12.0770329170961
5.93319620589538
-0.743668828389386
-7.61548200995204
-14.7202215684172
-21.6783366890491
-27.3721835911861
-30.6218641160387
-31.0307739007247
-29.1043956420973
-25.6694197689458
-21.2565959008876
-15.9933042742882
-9.9059887686537
-3.12587514909599
4.06120466787959
10.9349091149838
16.0548028473537
17.7893202003018
15.5749773531876
10.5842839430369
4.98868265284095
0.599365486290879
-1.8964860266669
-2.80365225490709
-2.79771520179761
-2.26516061089579
-1.05112374977921
1.09770844608652
3.78215865427077
5.83275719497353
6.30574640074165
5.77102922163164
6.28215904054416
9.51364420611341
14.8267987088413
19.5523573171068
21.3280844296201
19.9690126970044
17.2150001740846
15.2323558006521
15.4777501768027
18.3422803477922
23.1385110059857
28.1724918936959
31.0257469684755
29.3080238660422
21.8401766982711
9.52184323625359
-4.98935819561665
-18.6299669299321
-29.2256368846652
-35.9817462238768
-39.2838806470433
-40.2044254976022
-39.9164901551681
-39.0937054688735
-37.5237687147023
-34.3266638766426
-28.7960404211676
-21.1407081111402
-12.420788869443
-3.94140390314045
3.17743905019545
8.21692271574846
11.1735781502203
12.7670607144203
13.6549478200936
13.7098631616664
12.5835308253242
10.8430603707655
9.75871465939858
9.76745882545293
9.77770337786359
8.35715632086158
5.35254588362831
2.23068095169359
0.985823886002174
2.49695796200944
5.52232733437315
7.39834338734649
6.17034017115739
2.14397352116865
-2.70515104191279
-6.59609687965665
-9.10325714967849
-10.9211226982275
-12.9405445442021
-15.4502271544258
-17.8168479468305
-18.6482095595168
-16.3691137540761
-10.2251685350292
-1.28590591499688
7.71990627362188
14.1875332234988
17.4498627639835
18.7100330405593
19.464737723056
20.3398283403029
21.0814154080705
20.9928239605386
19.3942595704363
16.138352473494
11.7242316340078
6.68191169682555
1.04536462696529
-5.18248014436583
-11.1311363776931
-15.0740564034729
-15.6517296411148
-13.1717528422087
-9.65013220263176
-7.40821238908366
-7.4197556682209
-8.84103099816569
-9.99069956181057
-9.73850688148586
-8.0978225562854
-5.73982603341857
-3.1515060667427
-0.322981091789148
2.90714619720078
6.43411643834479
9.80943554517892
12.3965463486182
13.6491392426663
13.4770247812112
12.3073842789311
10.5530082305235
8.11276267690456
4.66653131631379
0.31317496821482
-4.42738006473003
-9.08885329857953
-13.3084973978651
-16.4891384781518
-17.9101954833566
-17.3278192572847
-15.2051464045155
-12.2882532761668
-9.17756454090368
-6.26391486632721
-3.66713376583733
-1.03916144473825
2.28004587835127
6.51636698961441
10.7747805563651
13.337370570667
12.9677444050216
10.0091868702878
6.11140153637932
2.97032968102758
1.46767481118299
1.69835080586526
3.21073040852247
5.10568723370481
6.39479406638949
6.67152242131402
6.42593067509379
6.52803867454487
7.23591344974996
7.6216947523779
6.12266654285192
1.95103872343602
-3.94977875167754
-9.44804466400648
-12.731543514779
-13.2892862869682
-11.6720862668245
-8.6825493692778
-4.97403854432936
-1.2459356819825
1.64884905654879
3.22059861082083
3.95817174866261
5.08003008626395
7.46874989219442
10.8684927912692
14.0278545859466
15.4827740467434
14.418771472474
11.1353956449127
6.60836815958408
1.38544398874761
-4.79130843151422
-11.9197847720284
-18.7524473367434
-23.5974813141168
-25.9596987194395
-26.6875770209846
-26.4229966020144
-24.5366375460893
-19.9740099489652
-12.8246819522875
-4.53504663268043
3.43628076708754
10.6662062153744
17.2327527272883
22.5796195487925
25.37504403366
24.3594750964097
19.1455070235473
10.5671964405204
0.599874744390358
-8.43395132300298
-15.0962477963793
-19.214929023061
-20.9328218125788
-19.900494441147
-15.9655321936541
-10.339697733746
-5.21989568405487
-1.90133429479495
0.343776829349822
3.16171161472862
7.13496724307707
11.276694830337
14.3231539356841
15.9708616151733
16.6827033756908
16.7683802371778
16.1428089752218
14.8418746552602
13.2679889981076
11.7821925639892
10.3354625519584
8.65321009831993
6.65668544412396
4.63816538355205
3.04671536232072
2.02555018665987
1.13964496721725
-0.274516875916456
-2.42159470161435
-4.83902117653339
-6.88794341268121
-8.30665349641071
-9.27415480449469
-10.0505950920949
-10.5620245445314
-10.3149996190539
-8.81972034292117
-6.12837612773381
-2.8293930464902
0.490383112626208
3.61049885780887
6.50129896051691
8.94618881122929
10.3884061522267
10.1576910508642
7.98930918781212
4.42992801404885
0.67716180867753
-2.07915953655738
-3.33148200217293
-3.58769684988545
-4.12935390008147
-6.07488345821318
-9.33450413164324
-12.6071263859604
-14.6028090223887
-15.0932734005159
-14.6067853988946
-13.4202046092274
-11.2491636321563
-7.83984137116086
-3.52950098641192
0.855937324604921
4.4859982939419
6.81881351714942
7.63564934867573
7.16221771365017
6.1611774780979
5.41383199545646
4.867202522937
3.71731998127558
1.62615512751185
-0.592481007401004
-1.90196902567287
-2.29745194971299
-2.66869709802702
-3.60221358570928
-4.75651709253919
-5.41205459777018
-5.24826643518247
-4.32631822194259
-2.53619924548342
0.359746816297967
3.91081219835854
6.7807138423143
7.98257189520571
8.05170911825663
8.393925499868
9.60428245165013
10.952448774509
11.3879955218016
10.4532119044464
8.19524201676017
4.83586125131822
0.937462689343489
-2.38520953820409
-3.93400212427797
-3.34519755410453
-1.42698295480287
0.644032527645726
2.43363093547014
4.265023877732
6.18988470847415
7.58349972598204
8.01417980255829
7.77367065362175
6.94314192979963
4.55505393696724
-0.401437677529649
-7.3038332398557
-14.0064364671069
-18.7558124185003
-21.489665713687
-23.0386837933119
-23.5072942656963
-22.0123237786625
-17.9985404114257
-12.1901496079595
-5.85498427118543
0.443653935110685
6.823072066947
13.0812302986048
18.3481257100435
21.7646501869737
23.1173902898778
22.7003033297016
20.7148570323464
16.9086067395674
10.9031562275035
2.98810046805081
-5.5005419023706
-12.7948238056144
-17.7224919713418
-20.08739246396
-20.205992885355
-18.361409831065
-14.8044545780936
-10.1415525278026
-5.49728749386596
-2.04354998943689
-0.164145622288827
0.901436094738958
2.41920907735117
5.03886582836762
8.17764726065233
10.426495959284
10.7518609592815
9.55524574739323
8.4049157518704
8.44839978167618
9.26934046474646
9.56783787704539
8.63841352055675
6.76837929321582
4.51841939619598
2.22625831629355
0.173407927094989
-1.25982232632881
-1.81463494798338
-1.64260747473654
-1.31881311608179
-1.48561011120041
-2.35572581887909
-3.56873962772317
-4.5728739106543
-5.05623919632042
-4.97577603717481
-4.35022833851969
-3.22852027793723
-1.90819565556619
-1.06446746903243
-1.39902365516167
-2.96700768382132
-4.99719741431086
-6.63396721859514
-7.73397611280849
-8.60880549858852
-9.13548522247715
-8.65979081356034
-6.85650362619222
-4.21470649670538
-1.50130450084392
0.918879380585104
3.09558926101567
5.0998147685484
6.78893999416349
7.91494700975825
8.42451111063173
8.5413037293657
8.39041856752977
7.68276955164642
6.09987800790113
3.92132541010738
1.86029399075381
0.205032870197425
-1.5102316476689
-3.75236398339239
-6.08266387433079
-7.31752181743228
-6.73973346806698
-4.96310723849084
-3.29102878445123
-2.35200277614042
-1.84578257673974
-1.53947291922508
-1.75867337498778
-2.64479687203648
-3.51889177599568
-3.34095434663297
-1.5434253998877
1.6449454748352
5.38704328769727
8.75392749786491
11.3475509528205
13.3905829061628
15.0875824729794
16.2020533087166
16.5139380632811
16.3136938698566
16.0017094720892
15.3510068060847
13.4975506650461
9.69182516889122
4.0620335033345
-2.23386498646045
-7.61997462086595
-11.0184957812524
-12.286612896727
-11.9536029882909
-10.7918991729603
-9.62774166847122
-9.2256769817138
-10.0134767691268
-11.7315818349444
-13.3645453125626
-13.7571188675926
-12.6920993947211
-11.2580779669642
-10.7758923487833
-11.4475179362823
-12.3946066138357
-12.795256941153
-12.4746076107932
-11.4835520598128
-9.61160728979377
-6.50207303704367
-2.20894881407249
2.33260695318568
5.58100873134974
6.54021058914582
5.73361135634515
4.83797155273148
5.35175354710305
7.63905683074603
10.8730364189637
13.5502197684477
14.3624039430375
13.0207847444331
10.2094221790028
6.78615718339961
3.47613649503461
1.23582869005188
0.983875048818387
2.54067628475014
4.39677854383611
4.91274169380496
3.4981303169532
0.653213678394134
-2.57286743549565
-4.95072425477347
-5.39669451402051
-3.52310371898688
-0.0731683609046331
3.34031849414338
5.2419564166631
5.28545019817314
4.33745550387938
3.66252571193104
4.05031492809862
5.46048885768274
7.14144524316966
8.10857299879473
7.7827296472721
6.26306355608745
4.03948025636928
1.65068867439391
-0.407405937241883
-1.81530563451779
-2.61870118802944
-3.06179285246424
-3.19073161743888
-2.84968741393709
-2.06929000581962
-1.17706049364176
-0.434024512968057
0.215226875516441
0.847794125077509
1.05044210759812
-0.135547292891676
-3.50803878038757
-8.75873047269252
-14.3335389709262
-18.4188122493314
-20.0425508167785
-19.2829483067555
-16.841342006754
-13.6500040337686
-10.5300714446797
-7.86305115543201
-5.63647395804186
-3.7749922590706
-2.15896354158895
-0.370734233832185
2.18636205432287
5.76089681476727
9.91320843653829
13.6404395850305
15.8713131598664
16.1575214700458
15.034290231109
13.5220263889788
12.2334316101177
11.0994802555465
9.81871844067931
8.28447777917692
6.57754628903371
4.67642320564914
2.23570534192209
-1.14328081482221
-5.20628719954847
-8.82695303616841
-10.8613119179986
-11.1430116587146
-10.3901263994314
-9.34072428586378
-8.30367622727693
-7.29321372024307
-6.0850974962615
-4.18444696018863
-1.20891077585133
2.48275443274771
5.64892070429815
6.84630336817411
5.55848227334476
2.827291224732
0.500568913128929
-0.432472057898331
-0.583943251876497
-1.10857445082873
-2.26938453568405
-3.3448138448193
-3.65441335197956
-3.2923854524313
-2.87894263888007
-2.75787777470132
-2.50304262624998
-1.30061815885391
1.14587033687922
4.21932006193852
6.91916417265619
8.6097571487702
9.25840764204909
9.23817860476995
9.05450011621414
9.12195232202041
9.62795081321618
10.495937872644
11.4053587762449
11.8916009938442
11.5038979720216
9.86537470712682
6.72277416565021
2.26558372846256
-2.60721822714441
-6.81047166249559
-10.0723225545101
-13.0105430604994
-15.9763682060866
-18.2587850988063
-18.7882793286178
-17.2797547183206
-14.322912701066
-10.6715843433546
-6.90479993454805
-3.61348031761746
-1.32427569465204
0.0456589780646831
1.33984368128029
3.26605086147926
5.30104798792728
5.91976715394496
4.13391605328435
0.544848028231371
-3.2195574963035
-5.73915497576726
-6.38673650818082
-5.30661491336872
-3.3738020958857
-1.978887944615
-2.26691135652491
-4.22218435122248
-6.46502910158223
-7.1798408604407
-5.59513928574107
-2.64028371045463
0.0407553800215273
1.68085978097081
2.78363581680651
4.18242392089113
6.24578272265089
8.94239727697725
12.0364915495229
14.9588882759495
16.878271220016
17.2368980767142
16.1795042008303
14.4093701038161
12.6541503405146
11.143050551711
9.47766581354247
7.12360235636839
4.0937373121418
1.0045284640353
-1.52746262699723
-3.33649651139785
-4.59980128937553
-5.53456607671596
-6.24431367930989
-6.71803316584108
-6.86701997114475
-6.4741560426697
-5.18697220580873
-2.94414420665966
-0.588463688385433
0.397793948304055
-0.768356209869821
-3.27468097770582
-5.46288557218378
-6.32549157059777
-6.12123769781915
-5.79108182148882
-5.99847840237832
-6.64503208033504
-7.23137407186598
-7.59080986724306
-7.96822805483104
-8.32097090191825
-8.02097542050691
-6.58220860088121
-4.39448220260113
-2.43503026542372
-1.43147835013605
-1.47115681137251
-2.14558254533302
-2.77235954173184
-2.61527905338
-1.23968893848025
1.15991098837834
3.80406584460014
5.88080438160205
7.23114081996547
8.36615645514883
9.60388214942427
10.4261671023166
10.0498733396661
8.40171289357438
6.07780474137298
3.5362988003669
0.863506171139546
-1.68495936108721
-3.39346985604736
-3.58768366804468
-2.34916493155862
-0.600044347551149
0.606091168337759
0.869459555078154
0.501268277732279
0.0084909771970109
-0.199201386157194
0.2247689086736
1.37777088146449
2.79201564956601
3.64300428767542
3.41380188829619
2.27785744553999
0.912481362066167
0.0087881285620469
-0.205457586107424
-0.0526470140996776
0.0980664518178365
0.388713723587148
1.34567241490916
3.25123585265459
5.83064345078301
8.44525042747406
10.3258273632218
10.7309843574943
9.28587179437899
6.32336787091083
2.77115442541326
-0.381339775826068
-2.61917428210759
-4.1391183643592
-5.60654525870564
-7.52042740971121
-9.74976092095137
-11.6216010486611
-12.2533765651251
-10.9127977897342
-7.64078679059063
-3.77375319117742
-1.32781430133396
-1.3115516635858
-2.70894870636989
-3.48427337800165
-2.71891269689705
-1.57447671211772
-1.91260879196794
-4.08912806880865
-6.57659834442658
-7.79714235840811
-7.6464036326201
-6.89655697101373
-5.82853402838466
-4.09952567470932
-1.53674979966278
1.55102326420647
4.67937835979339
7.41915170274665
9.39651986762815
10.2176048444345
9.37567151222911
6.4553357999803
1.8102867202888
-3.06892935101588
-6.35323829945472
-7.16937822131299
-5.91572837087222
-3.46451889915938
-0.442757597990038
2.78716457489444
5.93258647495263
8.81998587904573
11.5032931395229
14.049742452951
16.0650466543316
16.6020890575943
14.8704276473887
11.0515022300493
6.18734492116252
1.32943899505845
-2.99467372103595
-6.68796955622191
-9.81564479650711
-12.3031956522749
-13.6562772520564
-13.2010948231704
-10.8398585515531
-7.32231929511255
-3.59250902780373
-0.161217073653158
2.75356553979021
4.86092295834234
5.858340364396
5.72388729114554
4.78786219978436
3.47827481362648
1.98372742477305
0.268459217759214
-1.50189696827053
-2.78602443590046
-3.15879790720684
-2.77879901111247
-2.12524350524002
-1.52802541826207
-1.24250266125265
-1.63406220038311
-2.79591770593082
-4.18033158511209
-5.08865265122456
-5.43538464222392
-5.64419128621762
-5.85174733192414
-5.54183235006472
-4.02396534855875
-1.15876819426812
2.39837514664898
5.60621626987828
7.62800360937122
8.07613774859575
6.99180580459011
4.87108221712692
2.52623278285705
0.555251901284509
-1.00806998641109
-2.31726978521721
-3.19571264226114
-3.29883220884622
-2.64207751163486
-1.67535976069214
-0.862205636496138
-0.273393053723446
0.491516119954057
1.94929053126623
4.11905950209247
6.27920313806831
7.47934689682801
7.26291152035775
5.83995717875257
3.73183213887322
1.43044351443605
-0.669965398040447
-2.22662616281175
-3.00366402001118
-3.03292062638677
-2.62683182008918
-2.0634328263783
-1.29786850061447
-0.222503013503376
0.841886164124334
1.32254292023752
1.14035862341725
0.866057484124769
0.978139791099073
1.28041621183118
1.16772881911516
0.244317402802296
-1.32686985041746
-2.8743398096068
-3.62721745150144
-3.24208971206337
-1.97513690145484
-0.39352997833732
0.953522174596927
1.63084166978772
1.32390392840428
-0.0818499986426126
-2.34632699432164
-4.7890556170742
-6.57770264013743
-7.3583694970454
-7.48369287073883
-7.41056115623585
-7.0986027181399
-6.23706974334244
-4.72226387721408
-2.59119335179047
0.158584525070637
3.33373511878349
6.44624614421728
9.12530165405768
11.2900690955563
12.6960054851049
12.7472863481065
11.1249631458463
8.35262536039495
5.46248635164244
3.21502309559308
1.70757965559249
0.556836192642113
-0.638177956367305
-2.02015946938979
-3.68288500134539
-5.88266242372297
-8.57418352555269
-10.8515778538599
-11.4906663674588
-10.1904771263928
-7.84421171546009
-5.53685447979362
-3.68921329736433
-2.16081962391881
-0.648745839802982
1.22589541544864
3.84784129698285
7.24122489549973
10.7557353572289
13.2954421582669
13.9841491683089
12.6400365561427
9.7061784712869
5.94880780698999
2.24474384218727
-0.718822353524254
-2.85774895370286
-4.66502069370787
-6.52120247274819
-8.06687310919893
-8.41044091172516
-7.01470961009911
-4.40538901026655
-1.97424742323347
-0.947211355337245
-1.49588549014401
-2.95493537694283
-4.803830876214
-7.01717287530344
-9.29449608765369
-10.4726170234343
-9.3019494196841
-5.7290731214414
-1.0351594594283
3.23344211612979
6.24877061820407
8.04895268724735
9.10894251566131
9.80720716934692
10.1165651436542
9.6782009607011
8.14607097269863
5.57355795049738
2.63463788014845
0.367646567523295
-0.63195415845148
-0.842465480657103
-1.38941672717577
-2.87139347872444
-4.74189586286276
-5.88003125305335
-5.61366852726084
-4.12331095268586
-2.00758420962052
0.271708521517673
2.39138249051327
3.93274565420407
4.64055195726858
4.86155351141957
5.17911531614302
5.5332598228007
5.24525797049255
4.06855142515997
2.66632279913308
1.74455374932335
1.133766695754
0.134719845677832
-1.40662160901574
-2.73363370870288
-3.00958778923793
-2.47140097605939
-2.5360494908085
-4.395101611455
-7.5194008078242
-10.0233702680276
-10.5600180835536
-9.33419150700883
-7.25779562165174
-4.89594650574778
-2.55247939495219
-0.726871318913415
0.100823438240944
-0.0042373336651252
-0.444258081984444
-0.654727574113088
-0.526568464433431
-0.203768564043414
0.373555669766931
1.4064223509261
2.71501936609713
3.71121607375003
4.08377344651313
4.1579891783742
4.38917840206221
4.83607882814995
5.31026066053845
5.72540499732687
6.06134438662226
6.13333965586891
5.61782215754782
4.41597058238937
2.98170899589163
2.08513933482695
2.05766791772249
2.4256238548538
2.54389065546616
2.41385744643879
2.49145683820117
2.81714230556821
2.8566864961014
2.2336123030647
1.1053079449135
-0.33507892775874
-2.28126333259101
-4.95382631373273
-8.02625945654434
-10.6769638303368
-12.2567236484576
-12.7997407129648
-12.7523402777163
-12.2632189649723
-11.0025139851511
-8.72569548293262
-5.70773577944191
-2.45490240040249
0.812549802572499
4.24388976091313
7.99540192776402
11.7962700726544
14.8705742701496
16.4323762257346
16.2737337063603
14.6989720652007
12.0303625991007
8.54851751605087
4.7442271700867
1.07468442433788
-2.51507558980349
-6.38011627746013
-10.4997587369781
-14.3402708366379
-17.3261139648143
-19.1870239584744
-19.8548808358948
-19.0981638728183
-16.2779058631963
-10.7877948382324
-3.13613856058864
4.67279177250393
10.4635136067473
13.5784707882286
14.8397439838318
15.0950874292178
14.4166985323354
12.5681884330474
9.59407403568699
5.8902562230847
2.13643606013656
-0.749956141197541
-1.92279127631403
-1.15857870959248
0.83838305627348
2.80815701834224
3.75646244656503
3.37351503433943
1.6666700165965
-1.40084080116445
-5.53272413783619
-9.64186971059468
-12.2788895596988
-12.5680481249366
-10.6243479624225
-7.29460929559042
-3.66252483234667
-0.53617628313507
1.86024510484795
3.75048134942059
5.47915029048742
7.30727810180759
9.12817444146374
10.1878772313002
9.55153369257025
7.21296287112752
4.38139983616698
2.30587482562444
1.12389083276483
0.181531819218967
-0.880543184841572
-1.77834541648622
-2.0730529986479
-1.61854326305536
-0.612009427757404
0.575699932762653
1.65252071414292
2.57382426604848
3.458841880679
4.32538915784545
4.81709866589634
4.14488329345873
1.55931245896956
-2.82206247163344
-7.76716119716686
-11.7450020718518
-13.9596203933421
-14.5935822041157
-14.3210332198511
-13.6756271071895
-12.6310203578093
-10.6871459699376
-7.49129191432563
-3.31242198127691
1.20697793668955
5.53968613356829
9.29577758954347
11.9558288863779
12.8522581674199
11.5054211395454
8.14915038945877
4.04026872840675
0.919412027747071
-0.236409833393404
0.140502130367274
0.955573101298152
1.58038840630426
2.00444792424332
2.20530927801509
1.9013070864089
1.003966028382
-0.0191902868027648
-0.513283127030849
-0.367870520479972
-0.142729393310989
-0.269459654214346
-0.371200841759733
0.189803632836954
1.25891462837432
2.00437235813973
2.07314376712257
2.00097581239786
2.37995406514835
3.16684947561036
3.96674250562376
4.6113868705749
5.30588106154739
6.37121032241026
7.83766113305808
9.16578270940788
9.40073574471794
7.6987927986702
3.81918690983325
-1.66970992326125
-7.5832577267413
-12.7715584681671
-16.7512586152234
-19.5805661071126
-21.1943683944694
-21.1939396694207
-19.2957220467496
-15.7331005886891
-11.2508582312873
-6.81805209919526
-3.12769529033976
-0.235021084044514
2.08413354012841
3.60916821458786
3.74264211291172
2.42326497622466
0.533322478311734
-0.768742431124278
-0.751052065674655
0.858768935308743
3.9280889485908
7.7522238922352
11.2509343516791
13.5972083808063
14.5517245068139
14.2973075153022
13.2176636389903
11.7347924885844
10.0732806125908
8.18661936828651
6.06261261426549
4.05004928126822
2.68920986160168
2.10282664818988
1.65046600688293
0.437890815467198
-1.75239033225579
-4.24362231026232
-6.20498147949755
-7.31558967816207
-7.7389377425403
-7.97490512195097
-8.81231367969029
-10.7496112530912
-13.1088672256463
-14.1736068229157
-12.5859821199478
-8.49180399771152
-3.26431212176783
1.66043828267159
5.5690261869554
8.33081957800342
9.92461319345308
10.5009969309337
10.792757655243
11.7806962586283
13.5496984616249
14.9128724548249
14.6723856470493
12.9738571917181
10.9671436813632
9.43053003707882
8.20428225442696
6.68274429828984
4.33144714677631
0.866980091881427
-3.61539183789384
-8.57560404522951
-13.1314357456986
-16.311075385462
-17.5586226719942
-17.2449242636132
-16.3719052120333
-15.4447631814443
-13.8840298729997
-10.8659217109194
-6.57126349822436
-2.35676458730482
0.236130011177829
0.570632285581182
-0.815692168171492
-2.82986753714899
-4.63056569249854
-5.93708362155246
-6.90340393328453
-7.90776457928636
-9.17036747796473
-10.259981619739
-10.2119527306134
-8.44896844333173
-5.38475908926999
-1.85885801936814
1.76097036017763
5.57051526097624
9.44829103382807
12.8585198883388
15.3800265864444
17.1158992477078
18.4339490368065
19.4048546440565
19.5813456749581
18.3506123276339
15.4946046959712
11.3624358152163
6.57346605273102
1.74511891739635
-2.52625381898107
-5.67707726131745
-7.26112935417422
-7.05766942105589
-5.37025587689174
-3.28264926331885
-2.11108755892218
-2.25254760827386
-2.90408993792937
-3.15690095281596
-2.99551256506452
-3.03045127887269
-3.68585862300126
-4.9207384063076
-6.43822087537457
-7.88890336789529
-8.89893878408319
-8.96071733984624
-7.47455349273783
-4.25115184332373
-0.0098971413618281
3.96976619739064
6.80430780238808
8.42304891841877
9.11511685381866
9.0237748001288
8.19904784149902
6.93939804802676
5.89620026750622
5.76304679701382
6.78504061715028
8.53417778245011
10.1494988769191
10.7384054802976
9.68414625044729
7.01923908983932
3.68240550867637
0.972761897041218
-0.569686503199043
-1.51195937579147
-2.73864394078544
-4.76305271496375
-7.82597616143722
-12.0271115442346
-17.0235996199726
-21.8894311438179
-25.5333740126198
-27.2828545134604
-27.1233058603661
-25.4203475241312
-22.433218642648
-18.2604435450192
-13.2145629926121
-7.68641405062549
-1.32884571714099
7.03376174521467
18.0603558773674
30.6034606798666
41.9416957827423
49.0166154094558
49.5910931825434
43.090760305944
30.9258964913692
15.8735328885228
0.900593583297723
-11.6863389865836
-20.5891659579782
-25.6024755380176
-27.2781211254937
-26.2790408280745
-23.2435720307943
-19.2839796138504
-15.8939995794294
-13.7265094905635
-11.7442968664084
-8.18944090961514
-2.45660671705699
4.26467149388855
10.1951985447899
14.5080689483142
17.5452003917116
19.8395157245794
21.3090533326109
21.1772501106426
18.2325046807017
11.6050522214349
2.18155277704306
-7.00101001019469
-12.8657044756188
-14.9054181107113
-14.9788189197386
-14.7958037450457
-14.60408226078
-14.1110529278536
-13.3709281686259
-12.3897967816926
-10.7310796127637
-8.08297790542223
-4.90420059561628
-2.04209976064856
0.405499127433015
3.59709663237841
8.92539895784206
16.4148607869967
24.3875530501409
30.6830072418248
33.9058574575295
33.695273646953
30.4606760498406
24.9906650670846
17.7895304186031
8.64110239322049
-2.70459571096161
-15.278829915918
-26.8081444137683
-35.1486443245514
-39.6539769213287
-41.1689041550894
-40.9030794339207
-39.2594011083898
-35.6962432865724
-29.8753929488516
-22.628659687621
-15.0019744119672
-6.41929429579112
4.89425043171764
18.8347759059817
31.5846973950023
38.1103445536524
36.6748577960481
30.3294954232641
23.9088382943066
20.1380548627588
18.7479855878155
18.298923381618
17.7116489682928
16.3375354556874
13.8660125779615
10.5885780250556
7.02771349674824
3.08062027192178
-1.81938060100154
-7.56475719454555
-13.0829545687019
-17.4198741072755
-20.5932040081888
-23.1123188151965
-25.0363845748632
-25.8077341617223
-24.7981161240146
-21.7192187324382
-16.6179993636368
-9.91687591014088
-2.6900837046879
3.44975608132481
7.30428428380105
8.96774394214502
9.34021785954509
8.79574142672696
6.91303841362025
3.69443361268889
0.59013027084296
0.0144281753284555
3.75763370654219
11.4400796197965
20.2099242162194
26.4714166364054
28.5759804448052
27.7724418758753
26.3733053517772
25.4275532332883
24.4269982938298
22.6062973776164
19.7054780163172
15.4308775743143
8.77317441868797
-1.43467415708445
-14.8203950264503
-28.4570882559625
-38.151270691959
-41.2219258146343
-38.2120712851968
-32.1063247328403
-25.9607538941061
-20.9684265147753
-16.5032772994523
-11.9683983984481
-8.3537784771597
-7.58241700885007
-10.4102055874378
-15.4371635580285
-20.1702654437665
-22.6237191137691
-22.1166576950758
-19.4371713981592
-16.4129701520946
-14.3481989590875
-12.2158151387021
-6.92529413632458
3.813020068237
18.7389712169164
33.3858132525442
43.272412817255
46.8000270067424
45.3634249989224
41.3644704577594
36.5503915506789
31.6778438468856
26.679206635525
20.8426486732707
13.4312979489159
4.53779216297237
-4.78736366317411
-13.2123473259668
-19.6948040047658
-23.584956398957
-24.6433029878446
-23.0858010219638
-19.5182074148683
-14.8249098737737
-9.98210772002013
-5.75394558000817
-2.65393649053869
-1.21398906978793
-1.71085108272889
-3.21323242716463
-3.51605913171521
-0.890063436981289
4.11614485633886
9.05248732253885
11.6359497368097
11.235399789178
8.81047560000653
6.01000468494695
4.10739841662695
3.1748288490313
2.13623116674885
-0.151542837292536
-3.68853129998603
-7.05096179466227
-8.3818231363099
-7.07672271764509
-4.68622906327572
-3.75346296682205
-5.37815037449284
-8.05548948477061
-9.15282881648812
-7.48442639038619
-4.26291702273501
-1.43783827251085
0.751488026503518
4.152167989925
10.3626627849233
18.3056047719364
24.5287207627843
25.8785495442739
21.8293819829783
14.6057596766197
7.37072874925026
2.10646196384174
-1.05755329781767
-2.80615939999626
-3.60471966979877
-3.97716925386607
-4.98135447493722
-7.36616262902451
-10.2658535061051
-11.4477365218065
-9.26935759673597
-4.45369029005956
0.0543537914988402
1.19978475636566
-1.81485322716086
-7.13378616980136
-12.1801102270926
-15.6234700279781
-17.4166067073489
-17.8436671314413
-17.2255403046573
-15.7984814446694
-12.9259815392599
-6.8440242786916
3.79550056660582
17.8056049232299
31.0828838855731
38.7382538006793
38.4174397506359
32.1953133247794
24.9820438215278
20.4805916186645
18.5021859217552
15.9794030125314
10.0539852035222
0.258418508799284
-11.3821092100777
-21.7724487945087
-28.5955215604099
-31.4739701960171
-31.9867808625383
-32.8161414341014
-36.1786624410363
-41.9024109997381
-46.7110613501315
-46.0552745028053
-37.3434650488017
-21.9275992448616
-4.51559167750725
9.38539539564198
16.5011454247388
17.4649738525048
15.8204496232053
15.0482746159491
16.0709444624135
17.0928850912755
15.6585116082276
11.4291057512546
7.43824449168788
7.98300032750671
14.3793468916995
23.0303486734347
28.3429250910527
27.4065567692479
21.6754812182407
14.9869927039605
10.7628214922452
10.4549808845831
13.2425941228602
16.5642366135266
17.3905995222684
13.8255092661303
6.06407237134746
-3.98256813970612
-13.8543017448689
-21.3015980442637
-24.5426544736436
-22.9703666072649
-17.9901742624434
-12.2208445180159
-7.10992188398758
-1.81007209229274
5.02617699474098
12.7704135538462
18.7567764116014
20.5918090464079
18.1499652357102
13.3075850922891
8.08066236201538
3.34143524595048
-0.717939833940341
-3.44075101732399
-3.67576267015826
-0.998274441711006
3.41811602296961
7.38429261936553
9.08501201070884
7.9875913091691
4.66946917695616
-0.1426269467582
-6.30659181338439
-13.8756184559708
-22.2187578910542
-30.1627271564178
-36.9727382654141
-42.4408668189892
-45.9486560127291
-46.3172389294987
-42.9076259215646
-36.2236167984421
-27.1119407967375
-15.9366036904626
-3.04059762711626
10.2557020651873
21.7804708550566
29.9887600827848
35.0977036495614
38.3509714610473
40.2495500922591
39.971435048206
36.5025459427061
29.8650413381096
21.3314967585391
12.9878721350099
6.90803715066759
3.93255332311887
3.01690593417717
2.16757374983521
0.122681730623519
-2.97505474009026
-6.23334576847699
-9.03487678387902
-11.7079097300814
-15.3421234445459
-20.4214999944456
-25.4960557810749
-28.0754206335408
-27.288804676468
-24.7414896024772
-22.0525451047396
-18.5149696789095
-12.4202075624827
-4.24717504726521
2.94163389623006
6.64119099349236
7.34416517679296
7.19443326163872
7.20509234299603
6.97977699871679
6.59455896797951
7.23346622215965
9.8121000851526
14.0399889215402
18.9803657944014
23.611488143188
26.7821676773347
27.6115801148489
26.2151612669331
23.4232358156749
19.7722304338336
15.3806112533164
10.7472132833871
6.9579945307726
4.76784729205289
3.61798274232824
1.79237513092282
-2.15332625435322
-7.97808875160992
-14.0233143466264
-18.996607808863
-22.9962025505813
-26.4364122043461
-28.5790864872964
-27.9556488625107
-24.0795667860445
-17.9210030952247
-10.5166564606235
-1.83271577861116
8.33759150739978
18.4708902037859
25.0813080664216
25.1746817100949
19.0991094005305
10.607469500528
3.95746955556406
1.02956034249998
0.865626630828427
1.22596734481384
0.364436673118588
-2.2597871800548
-6.43154195087487
-11.7212881556527
-17.164756333968
-20.9402049861389
-21.4880541424862
-19.1520073858943
-15.9675066655105
-13.6165755997808
-11.9760286978263
-9.56982528506176
-5.20695662296348
0.418611236559932
4.6051028146637
4.84121724743021
1.40243367880419
-2.8915956166588
-5.55082463789756
-6.22410374916006
-5.67137023378866
-4.08293454925594
-0.956591851393553
3.98586876640928
10.2686368687225
16.8651251813647
22.817101221914
27.8094493279774
32.033908432179
35.3024828982815
36.5645404753792
34.7219949770323
29.9454405726141
23.9196146321295
18.5128954934156
14.0184039911294
8.8154318790398
1.08276242374801
-9.15614565757732
-19.9734658933323
-29.4165926579509
-37.0485169975451
-43.7063589964582
-50.2597321181216
-56.6912899086796
-61.8389649849972
-63.5782319166028
-59.4866372633007
-48.1289015879748
-30.4020709747424
-9.61447194849707
10.2765406632576
26.776020795786
39.3110556270992
48.1610359195766
53.5224815852394
55.3289518198924
53.3822753663754
47.8243788444422
39.8578477031276
31.6258921088288
24.8876768108611
20.0283386401035
16.5820629811588
14.2072380607979
12.7299855243417
11.695993553676
10.4379328788958
8.46087112155093
5.58525915620532
1.93154640992012
-2.29351926370797
-7.3999971198848
-14.4596924010012
-24.3482834372281
-36.4281724671773
-48.421470804499
-57.5053136431047
-61.5050768768283
-59.587189824837
-52.4261966018385
-41.7147150499491
-29.0598967923178
-14.9722293962316
0.968888678473462
18.3926614625159
34.3818182265857
44.2648837498491
45.1165620504371
38.365072102283
28.4598162612504
19.3367495697665
12.6041647856023
8.3490482062557
6.42986620611213
6.70280066801904
8.51308964803671
10.4821724717816
11.1922414721601
10.2395079214157
8.31959023738927
6.02663428336631
2.84598670828627
-2.37516578236837
-10.1198817675133
-19.4160767415689
-27.9666926020795
-33.0605174166975
-33.1634049493454
-29.1967596261668
-23.9228524645412
-19.6340204437676
-16.4030160146759
-12.376255981196
-5.4593248503838
4.87611811944368
16.6435548479199
26.0915775858282
29.9450647172949
27.3967328458637
20.3926600020935
12.4451365931127
6.86559760234721
5.10821683557321
6.20846947444027
8.00147241970168
9.07359000543429
9.50412500952135
9.90588105898265
10.0791275123517
8.77704457228741
4.92828794981394
-0.882982449436135
-6.45258292078579
-9.66792895755204
-9.99819268258123
-8.36269740835042
-6.09256912427242
-4.19383474969344
-3.1085274778194
-2.80283146090257
-3.10725361238884
-3.89221709216705
-4.81539815557953
-5.24671334057852
-4.80712288246675
-3.72770987160301
-2.3387853293062
-0.48238564629862
2.2285313932121
5.76089682207079
9.42473243522914
12.06671388281
12.5606201231284
10.5205319467131
6.619337460382
2.04896591580091
-2.21901636409872
-5.57459017485825
-7.57197387270266
-8.00475662854423
-7.24086892141136
-6.40237826382091
-6.94559057873288
-9.51127274883886
-12.9549113207518
-14.9622775143301
-14.0154120167273
-10.5883191692191
-6.32281008125477
-2.3771018093813
1.19597316975371
4.59598271156483
7.10266246549565
7.23287888203101
4.44084036699079
0.234933413622222
-3.16349122371176
-5.15186098825991
-7.05839311387818
-10.1825051113229
-14.0738738967713
-16.6677573479171
-15.6713837003201
-10.0356738477469
-0.719261884066975
9.79707138806382
18.9149321464941
24.9554256982296
27.2656304595793
26.1941709021998
23.2605864752383
20.6102510049902
19.535441777459
19.4501939981931
18.5236120182243
15.484342496892
10.9482102991629
6.92201156446819
4.82859342032037
4.14960735176862
3.22320484754886
1.06634627908286
-2.05529137383021
-5.64635630139368
-9.92688391644023
-15.4986023740912
-22.1866498006057
-28.4237830731902
-32.1416456060295
-32.4777774941086
-30.3091341922616
-27.008506484951
-23.3011011107127
-19.5358379601719
-16.0853785506823
-12.7851736026531
-8.66673070360631
-2.92401519966895
4.27767484095737
12.2589096468148
20.3864262530545
27.7131590644154
32.7889860200412
34.6334233983629
33.6494435583306
30.9810511854282
27.0565890679959
21.2360524752865
13.0071140609126
3.24097652403176
-6.06090322711038
-13.276786439516
-18.0658795806505
-20.6358151782856
-20.681820009681
-17.6947228908359
-12.2363094817816
-6.35145765905644
-2.29619634186012
-0.722167118800107
-0.316911221139222
0.427881697895749
1.30065287040759
0.854554042711519
-1.32023041489004
-3.76699761693715
-4.8014528625315
-4.04874415787538
-2.05259446156946
0.641412661077551
3.4392002292506
5.53593757648357
6.55127436922793
6.98146711299295
7.48883040377251
7.9238670689657
7.47794305817785
5.77848372452994
3.45686144232378
1.43777670418483
-0.0790663164892531
-1.54260551642646
-3.03802535779005
-3.91717260347157
-3.70230252493229
-2.90500394612302
-2.56127890060946
-3.27025631418271
-4.97529254215799
-7.31945536975372
-9.92717177103454
-12.5779356856546
-15.1315897828877
-17.0264987505788
-17.1511913897299
-14.7678777391108
-10.3956373932309
-5.35345160439854
-0.675426481670137
3.20648392014058
6.17877699102742
8.42388827185744
10.4610625227554
12.6804556543887
14.7941970355537
16.0373646064927
16.0088587839434
15.1237357132663
14.0219484054016
12.6596592296578
10.4420522023232
7.35902634850953
4.44756785286331
2.80909973705088
2.57965554655366
3.12259122523657
3.81200742051991
4.37481203696298
4.78731053201038
5.00428281079326
4.62750205832878
2.94634192216856
-0.476357921878126
-5.48245936240922
-11.7103975976954
-18.6916413394325
-25.1398503428922
-28.9575023385092
-28.8943445153224
-25.8360022678259
-21.6425062398697
-16.931415023195
-10.6976084974789
-2.07484729505051
8.04451898936679
17.3232501020853
23.746466462736
26.892332155407
27.4701432096804
26.0055338381653
22.4277224792617
16.8438359064911
10.2616717884169
4.37020539027634
0.582016870746877
-0.914881789117856
-1.19493624188995
-1.4404836985441
-1.81001929745706
-1.7502187042892
-1.15563980516417
-0.64616611983012
-0.825062862468167
-1.76857810789733
-3.16669119894376
-4.63785848918787
-6.05085411763992
-7.73303170771587
-10.1286833108102
-13.0843667057171
-15.6902501308499
-16.967256833361
-16.5903384659613
-14.9756761961687
-12.9192397344738
-11.1743312904375
-10.0765686671481
-9.30532419771841
-7.9140110542751
-4.71879712751863
0.854165665459175
7.84939809521217
13.9318279665084
16.9947816292739
16.666647574421
14.1062882610189
10.6808906962376
7.15670647858297
3.80214482853575
0.790970697336048
-1.52392889585609
-2.69602821608444
-2.61592599060984
-1.6727045571082
-0.299764326605175
1.34083628277221
2.97482587727925
3.92073904604988
3.60839547807568
2.28466103652333
1.03811478375732
1.07833383567658
2.69620656706743
4.79988505066986
5.91787790014271
5.81687105882052
5.58849673893971
6.08630818247104
7.03949768210891
7.82104846831328
8.20268549179503
8.05778518529923
7.12975288975415
5.55410168941687
4.08565165330149
3.39947247015167
3.37248840859241
3.12814920547125
1.61408761322227
-1.65951452275115
-6.08523246272514
-10.2627373377825
-13.1261222526535
-14.7516291659532
-15.9663985791961
-17.261399319658
-18.2022996897533
-17.9557406948534
-16.3215890411995
-13.9331784977899
-11.2755327529196
-7.96236081022253
-3.47447452627012
1.706782562197
6.31455022590727
9.55478725382056
11.6858142484782
13.3391797792273
14.5745174112735
14.7662119601854
13.4341943902452
10.9639367939145
8.1130008337085
4.95944644176523
1.03948239391727
-3.44545215084959
-7.32577901056198
-9.48417723826692
-9.52137971513228
-7.45492088992475
-3.61375527136593
0.962952014016713
4.70039541803258
6.4345612651689
6.01122128170911
4.04169269840902
1.44264156810159
-0.870899610782022
-2.34275130941424
-3.10379131554694
-3.92299120238939
-5.67342004813575
-8.45563781498394
-10.9981432252576
-11.3359278837725
-8.58457207908359
-3.8372601894195
1.05698304021488
5.33132668136449
9.53811202864785
14.1446519944007
18.2973470866302
20.1636940292346
18.5385479289225
13.9747792580309
8.13225178884203
2.30313794555129
-2.92963608366266
-7.02241289545566
-9.52407844504079
-10.78930019265
-11.6653371966
-12.3394974524901
-12.2555149344778
-11.1771697854234
-9.56676262877628
-7.79711208613513
-5.60615473714587
-2.63566892311956
0.686427851619999
3.05611470492233
3.29121762083097
1.47437014306976
-1.11572215290027
-3.24828670412568
-4.49867420702598
-4.72070209894387
-3.59477186362877
-1.23018343577904
1.48252396555232
3.86157179470323
6.38055384969442
9.98092222592401
14.5735622515074
18.6067908363025
20.1691502315774
18.5350909709271
14.7242348982445
10.5595266382221
7.27946892107908
5.14852028289286
3.98998854080979
3.52743490333151
3.35837042154683
3.12291885599008
2.67797064847624
1.86063268886566
0.32306604882061
-2.1626620389726
-5.52249103430553
-9.63752969375253
-14.4108884509849
-19.4279261544664
-23.8109221111053
-26.4780842882346
-26.5200202524626
-23.6763732988838
-18.7427662402702
-13.2202633977864
-8.17332622685679
-3.48068960100122
1.61789841400174
7.2783559754379
12.3834563179397
15.0694932220562
14.0943284311398
9.93596598637424
4.49630052112447
-0.330677452800653
-3.58626540687932
-4.9467931839964
-4.35409415448921
-2.34527623193721
-0.1484548353813
