0.465328962530255
0.436563788398191
0.351119992824776
0.238234873394412
0.138403564635335
0.0486227469475505
-0.0113745567110739
-0.0269348221069795
-0.059626479112253
-0.141241971191491
-0.190542354308126
-0.177938270280163
-0.219273082687795
-0.363575999744982
-0.466603226564637
-0.411731042069113
-0.279392898556859
-0.184836125338328
-0.126587345362575
-0.0791987298271084
-0.0503970312524344
0.0034943040735483
0.130250984833167
0.245114546243617
0.223919388744565
0.0922784379448725
-0.0322040449780234
-0.0972175683355365
-0.0959353331217093
-0.0124728476590194
0.121628825620735
0.222518752317266
0.244505703772837
0.205828123774549
0.15119647654891
0.128131671227359
0.133684638298024
0.0925681703670668
-0.0220468029319706
-0.119286592362664
-0.151256179175847
-0.206850223076376
-0.325197585461775
-0.396709508054396
-0.358822234001451
-0.287094886540872
-0.229158309230577
-0.166294844651879
-0.140914323865715
-0.194052224871157
-0.22332454834917
-0.118558764223046
0.0439008336636561
0.12553058170239
0.127260034137368
0.11160606764781
0.0681665175700577
-0.0027715666159908
-0.0299672717429106
-0.0097320651323334
-0.0302571087614638
-0.0799875734848777
-0.0357807266469558
0.105627841686574
0.194089777604692
0.152374789597413
0.05843484947193
0.0034383625506066
-0.0074033105357853
-0.0312930677102777
-0.114489404017911
-0.21478360573814
-0.232760585223631
-0.156712441097477
-0.076482160629585
-0.0242382502287032
0.05254131115643
0.149569044761625
0.205391142754378
0.224144765660872
0.243803704214147
0.256420563225606
0.288835119386414
0.412383768025192
0.561786328085482
0.55333055531777
0.369077716549429
0.19105670978638
0.11853864528336
0.0895719324080517
0.060118205240011
0.0309088912121206
-0.0366060306645523
-0.132909904269411
-0.13997740377505
-0.0243922088627648
0.0566149103472064
-0.0113958887545403
-0.127551822005757
-0.160053122415348
-0.126594788785632
-0.101834322798039
-0.121752215571758
-0.216547442360361
-0.367504624834365
-0.451915708312692
-0.380806932207442
-0.222485934868852
-0.0886290613575973
-0.0142476852849745
-0.0019309631614791
-0.0444189993781861
-0.0911705012555686
-0.107516575583829
-0.120269561036353
-0.131735945765008
-0.100392161591274
-0.0437405972934328
-0.0094387889876665
0.0421972937014907
0.149346975790727
0.207800563417876
0.110494760167744
-0.0645437109048171
-0.162783101606599
-0.12850798322185
0.0133113587189298
0.186222335636763
0.255334914993913
0.175821388787057
0.0997333833672434
0.152091623704506
0.219779363206464
0.155457389961653
0.035576949136477
0.0143693409606138
0.0755971267654015
0.117361453466884
0.136394214225906
0.16504877398976
0.1633959179936
0.0952105326740581
-0.012331557241542
-0.129797531813797
-0.221903158540951
-0.21868148599713
-0.120235992513182
-0.0413893009659215
-0.0455940551745969
-0.0637991737462505
-0.0480115650138841
-0.053395337498038
-0.127306562848801
-0.246349655578079
-0.358387525891181
-0.399428019457933
-0.3285419117488
-0.194007844399179
-0.0723308736987772
0.0465923640503784
0.191135353938199
0.298139049266648
0.31455782992275
0.292500145831436
0.261167302030667
0.176312629584004
0.0842302275586109
0.109572841893021
0.219666639910184
0.243582593107204
0.146534459191122
0.0479478387571841
-0.0109807936192742
-0.0863858933003755
-0.161449302882873
-0.167545518001827
-0.125413011330591
-0.097024972241772
-0.079689500621145
-0.0849399382131373
-0.185394900397846
-0.343719840378878
-0.358691538197766
-0.124010810695103
0.199228474609902
0.36786651813048
0.305395932421206
0.124795750992347
-0.0140772566748212
-0.0527444804193598
-0.0572883864660606
-0.0887449824133263
-0.117341086998129
-0.113103431410193
-0.112537135440071
-0.134308747942308
-0.150273639938059
-0.168711338068481
-0.210457719846642
-0.225329342716709
-0.177752308419602
-0.131968870687783
-0.112165075889283
-0.0354941434698674
0.0865699630237544
0.108865204736076
0.0296979591957091
0.0368085729128224
0.191333407422103
0.347915505973214
0.426526765603086
0.480076026933355
0.490364595057797
0.368256632182046
0.15278765642691
-0.0098532698718894
-0.0636338712881249
-0.0578885066220405
-0.0320684119957635
-0.0170560181927968
-0.0527632045548444
-0.102719883953628
-0.0665357039835888
0.0761033358010484
0.26387179605968
0.469091501598388
0.664049236095975
0.752987163339941
0.691710243556883
0.575507383022382
0.493330414406406
0.407113552173851
0.244507615391834
0.0093268255184413
-0.221059197733658
-0.350589179508008
-0.364064006572276
-0.384063626559665
-0.518401484759719
-0.686873011008647
-0.758802401041497
-0.773415215679463
-0.827929746730126
-0.881345492380477
-0.872542492385527
-0.858185788464412
-0.85073737934426
-0.726061486245902
-0.437767409612642
-0.11568635702967
0.128700873591294
0.296246931816161
0.393710039014944
0.423390052286575
0.431642242730996
0.405048025243766
0.233547907893265
-0.0568271363995001
-0.200347407600298
-0.0143894616390313
0.338034027505583
0.578288679438279
0.623960198057652
0.534886961464484
0.352461986346039
0.129132155803712
-0.0298602515912054
-0.0444465485139291
0.080261957533211
0.261778489800462
0.385535724142172
0.405048137096009
0.38244254206124
0.358970246170004
0.259736356177054
0.0070985978047737
-0.372995793925928
-0.802829921799402
-1.18016197374642
-1.36721006154319
-1.31837405038558
-1.15736280693273
-0.969387617688817
-0.667954234457225
-0.228502455241975
0.180566402190607
0.466217334007133
0.738266821840185
1.03667882400771
1.22572593679205
1.25469888872518
1.24189429720918
1.25310070744446
1.25127223961053
1.25707134053804
1.31367524649704
1.32320723690431
1.14192083998114
0.795999036287632
0.425743156593366
0.0949874299681719
-0.206831446207181
-0.492182199800397
-0.799713414284881
-1.14806574109235
-1.43098516079617
-1.52028532909267
-1.46145999630928
-1.41214447777308
-1.42212158725342
-1.38701771590467
-1.18086746000667
-0.799801766279399
-0.415637810547992
-0.233457817849633
-0.24615993509837
-0.246336903627542
-0.116862893830921
0.0595747369117224
0.189891830637342
0.264308426149356
0.282819811011019
0.29405706247037
0.427518608523727
0.693349935967892
0.893533533846648
0.892537646814106
0.768842052926702
0.589840354319159
0.317556478022505
0.026951146391375
-0.0864572784167345
0.0035094389877153
0.119204150843703
0.160057983292519
0.176565212817289
0.183438233631153
0.137441792862339
0.0715335054711547
0.0465409770352562
0.0287497128643619
-0.0188377418516117
-0.0291716719880894
0.04390824459694
0.118879836904814
0.107982659674773
0.0309736603657127
-0.0367149325630237
-0.0409484369364556
0.0115057925868427
0.0426644272282802
-0.0058210227538268
-0.074514823023507
-0.0725871278521935
-0.0141017513223916
0.0294452514943216
0.0234526751475102
-0.0518885390853768
-0.179189653514695
-0.231075573162422
-0.108481440327301
0.0583576097425995
0.0647556866783444
-0.0654586073915493
-0.153134378987526
-0.140849830852337
-0.0922145386446638
-0.0442423372577634
-0.0185175563521662
-0.0387982964175605
-0.0609249892824693
-0.0395735271455502
-0.0544544909807363
-0.188890072202592
-0.34502434680753
-0.377660629709158
-0.327074959720331
-0.320727587977532
-0.343126316191511
-0.297417862615795
-0.191823420920913
-0.0955322603833297
-0.0192163257637965
0.0426559191957068
0.0765158144046012
0.112510328196043
0.18908784263145
0.266984909299475
0.305312009091298
0.347649919674953
0.420325114583467
0.457577679643899
0.409918108292761
0.310330188891963
0.206741947871621
0.138636486273709
0.144693627818397
0.195621786249487
0.202242460409134
0.154541841999202
0.128186836735981
0.13455232593508
0.121279995549269
0.0939949413055023
0.0752516180849886
0.022424787480634
-0.0737853981363484
-0.143840114301616
-0.18769522669895
-0.281002705855224
-0.385434069969061
-0.380421711068507
-0.299458049355881
-0.297293043401906
-0.390218686021048
-0.451279416262044
-0.427526706707016
-0.359230614058984
-0.252137612303601
-0.119011010067744
-0.0471672667504978
-0.0571353116594307
-0.0300457181977202
0.0891180647765393
0.187403409472041
0.183537864599307
0.148105841264494
0.161522974444916
0.213089557896999
0.261558774665153
0.284157731511241
0.283833327406859
0.29125482602435
0.307488677416384
0.272047753165795
0.165073433300501
0.0597170274102462
-0.0032516029157129
-0.066051274370106
-0.125606355733773
-0.11872581080155
-0.0567318096334569
-7.9838056625918e-05
0.062870521279781
0.136674938642675
0.132868789265734
0.0371993723313443
-0.0126992797524702
0.02706317284886
0.0015551270353083
-0.172632715443057
-0.360913001231115
-0.42547605625314
-0.36805223539966
-0.2156726307423
0.0189299982826232
0.238912976399054
0.317925650130071
0.2589183193551
0.156119394332662
0.0546298464610379
-0.0258651897080808
-0.0317032698268151
0.0430603047394652
0.120776363074176
0.141922265498801
0.0961428462903005
-0.023694540665628
-0.182409555236095
-0.289682695201515
-0.315592363049485
-0.315558516776873
-0.30535487752667
-0.238630710721393
-0.0906218597587132
0.154158823845717
0.504801068339655
0.841686190000309
0.9473885480262
0.769228776339196
0.474893848652096
0.18921649685659
-0.110187925049688
-0.417189877673616
-0.645710658353715
-0.75143134553981
-0.738520236801404
-0.619041267664809
-0.469484083147425
-0.37743938366976
-0.283910807029753
-0.085572824181595
0.112446572153268
0.105789251948975
-0.065485656621594
-0.149014156552505
-0.035170318617198
0.157805898896734
0.306479235252261
0.3693805008562
0.316660896337168
0.163405464602736
-0.0025264296161158
-0.142605522706481
-0.292433758889772
-0.413290549396704
-0.398151374953629
-0.248724290263392
-0.0724446484703757
0.0794605580688688
0.227348754561263
0.36944091863045
0.47299763115504
0.501265562011623
0.428133279334298
0.299510353042837
0.233664246503053
0.280314044410211
0.367381649272309
0.432214538298158
0.46207190420882
0.401841955028191
0.219263973394988
0.0328586696712326
-0.0372226375955223
-0.0639540435261687
-0.153266816807788
-0.238303074884218
-0.238845474736263
-0.244046507271717
-0.349604492490523
-0.487752357564193
-0.551487426981732
-0.529431841775652
-0.456334788728999
-0.384870551541685
-0.407149571216708
-0.538337228194465
-0.615219179193812
-0.484312206556407
-0.228989695136007
-0.0415473648026183
0.0383210695556121
0.101407129662722
0.197101707241767
0.312203925420815
0.41868767946645
0.472590903927354
0.447033868902443
0.366226512861359
0.256702351260213
0.133678216886546
0.0547641748046886
0.0714255477024734
0.13518935196372
0.172403908311386
0.195649184332098
0.228454362420136
0.227091884980739
0.177647975371308
0.138313053323095
0.135137003093039
0.172378559286485
0.314480855356282
0.553122571857591
0.682826281395833
0.53964934616594
0.245132587792609
0.016980150977081
-0.09916645714892
-0.159695148743448
-0.189096326366348
-0.234863017917666
-0.359114593095605
-0.506220482726089
-0.557590898107619
-0.523686855936903
-0.499883328331127
-0.476434104934468
-0.387770811665816
-0.274746678184909
-0.206506325448541
-0.151847659308369
-0.096736196946905
-0.133428107880722
-0.284310762232786
-0.408791826196269
-0.394611754616466
-0.285301677045209
-0.169557589394557
-0.0757131521002838
0.0247375139162742
0.190181500883754
0.439946118983023
0.685757291931155
0.804758214216616
0.758518616923521
0.578550653540139
0.328422056396573
0.131806455539989
0.0852142007352364
0.110826108634932
0.0735008591000298
0.0082774754922984
0.0161823551314798
0.035481060658536
-0.0412105365997573
-0.164967657788901
-0.26288579576836
-0.379037770875616
-0.505024643418724
-0.500965096212873
-0.328879252783354
-0.135052692578816
-0.0159195498816358
0.0635832875001779
0.087509175417554
-0.0178998115610779
-0.187414213563154
-0.257244973043391
-0.205021781007445
-0.13829291935066
-0.0868834417528184
-0.0019290501365008
0.0997641783727246
0.141426774282961
0.0794166971318539
-0.0667293403327142
-0.205421146269337
-0.219725036876398
-0.105584994293188
0.008109963688453
0.0335970913519849
0.0144092108491732
0.0310287744910664
0.137973334157351
0.352824440006573
0.585932062120226
0.678465788448078
0.618580218363145
0.571099944950371
0.61293470511817
0.632768449424012
0.540431443440483
0.368081305471727
0.170509367774209
0.0196312946241977
0.0113589013279137
0.0989662028810211
0.0777856197038075
-0.109301570434677
-0.263353421825821
-0.254351811499232
-0.205984796298268
-0.236763373978489
-0.270595598579986
-0.226600074234684
-0.174908556425967
-0.199190556004342
-0.280205600612567
-0.366563246467454
-0.414756743130791
-0.371987307821712
-0.24509501673525
-0.128632885131764
-0.08637580323622
-0.104569363103179
-0.180525245666058
-0.321210994451552
-0.471275130976882
-0.564227714329026
-0.591256452597148
-0.551347699798316
-0.44295362348507
-0.334120278473493
-0.300716650297294
-0.295751815747006
-0.203148218060041
0.0301558002618385
0.3954139137539
0.823419158907005
1.13672283561901
1.19841988706223
1.1204528041833
1.08761872349143
1.02806087458834
0.744269756686052
0.286668977289973
-0.0956128496319629
-0.286984097278162
-0.358448614965678
-0.406492947810164
-0.504383987645725
-0.677424574273021
-0.819162690253449
-0.771046158655677
-0.532644474137271
-0.248961124959137
-0.0052934078969321
0.187956855507381
0.260275983334876
0.149125353758581
-0.0405488011895959
-0.135731134783915
-0.0971953061823699
0.0066427012326521
0.121846184404205
0.208950977032811
0.230175139165434
0.192451151259999
0.139136622690902
0.116901691772801
0.171411294918324
0.289045416832656
0.357197087007778
0.30491361725933
0.223985794041777
0.215994818483196
0.232707469650823
0.205981980301189
0.176113608119542
0.162930044104368
0.0958693295652745
-0.0330371521961007
-0.136946154953865
-0.181282911279455
-0.178532988026649
-0.100768271311861
0.0159471282465695
0.0159153356628987
-0.148020825561406
-0.301851538491634
-0.308660357440149
-0.244688316404015
-0.215817476699405
-0.212915795564224
-0.233387604750089
-0.334288358665092
-0.489967425084107
-0.579612915635783
-0.557435287167409
-0.485677425814499
-0.418784395563049
-0.388065944993904
-0.427949129415436
-0.50370958968769
-0.507409645142936
-0.382355121888232
-0.14800542239126
0.172725430304412
0.524237294822358
0.787558957818264
0.895164447428668
0.892422805193451
0.835836007915689
0.751241266723242
0.686748445468723
0.66233345945495
0.609198966610398
0.483355194336755
0.346791177477753
0.253123130283604
0.202927285533848
0.241429387145055
0.390773351464235
0.503860616649569
0.427257475292086
0.244768009428038
0.12579122010001
0.0562259944800365
-0.0624043372949659
-0.209945059987085
-0.335839346388308
-0.483272559964201
-0.680224824208578
-0.860190035543694
-0.972680318290783
-1.0209728095749
-0.972559605772733
-0.808593685660665
-0.647211792214824
-0.631517064775052
-0.733596782108912
-0.825925291718516
-0.849208972599563
-0.77484364205564
-0.549686944472756
-0.19913682894916
0.153974097851546
0.427593278964842
0.613567926804764
0.702213987552412
0.701067808287322
0.669795540107582
0.652503314619357
0.651210273376832
0.673856649820841
0.701510605507473
0.661242921071061
0.549821773034464
0.475756788418399
0.469496953106543
0.417484832230367
0.283804251960858
0.199391633759211
0.253413001748254
0.388317006689495
0.52436403639606
0.611866182339727
0.600296075126884
0.507256430951587
0.428267475630937
0.37102463179677
0.222579834479079
-0.0416541838236279
-0.294795956359769
-0.464700171290822
-0.608534537140585
-0.736395973830652
-0.768757664706543
-0.709137059358056
-0.661112925476384
-0.65764415636781
-0.64599197926037
-0.61720911957908
-0.611425436371019
-0.650767169398665
-0.742313732212067
-0.855452232725196
-0.888686545384716
-0.780107989717351
-0.611735619786201
-0.488467713137119
-0.393240142720277
-0.25700374887641
-0.0728318306999409
0.119196324098159
0.272254032145913
0.366348455080128
0.479037796475698
0.737213929616004
1.12277008382892
1.45709234254076
1.61746051616498
1.5983668435637
1.38866285959568
1.0192052054291
0.664481937314403
0.451054429427906
0.268338245161057
-0.0146255221402033
-0.302136695406181
-0.434272291857389
-0.414233399722767
-0.314911074677049
-0.147674090736922
0.0498559585059189
0.173613936639055
0.183752668124655
0.113595106608225
-0.0613109005219008
-0.372950874758261
-0.708430008086451
-0.903776141862737
-0.935666098055292
-0.868602744556726
-0.728623866259274
-0.555417132034602
-0.435678729486679
-0.395741747534789
-0.387803654708828
-0.399034757808358
-0.461894182261367
-0.593310289247889
-0.797715752278602
-1.04964213143784
-1.25106220515774
-1.32204109497319
-1.3107607073113
-1.29516988982853
-1.25993498503821
-1.18347031821223
-1.10343986359662
-0.993634436981034
-0.747376797906798
-0.341774409742998
0.160747820261957
0.749134804319902
1.39883490486263
1.95683908421068
2.29602002846938
2.46764714625647
2.54736149035545
2.50524887238191
2.35967560597107
2.24929826580926
2.22190327712754
2.15338485695875
1.98228762440716
1.82887252598093
1.80739629308991
1.90886195153146
2.09271545812946
2.30013191908093
2.3901608330718
2.23709450012469
1.85234928023598
1.3103013964922
0.659087572460027
-0.0315789975253703
-0.658488379945099
-1.15577462951982
-1.50665098219906
-1.73551269225632
-1.93549044118602
-2.19715430618242
-2.48681305320499
-2.71466504286561
-2.89048683947544
-3.077920077741
-3.2669056921782
-3.40603021834689
-3.44870530280956
-3.30708556538795
-2.9379565838043
-2.49387315893272
-2.1714114249313
-1.93277975274764
-1.59808020085441
-1.13150584774739
-0.631773928222368
-0.178965317184946
0.131013210899428
0.193322535828793
0.109497383743525
0.199391000630374
0.644052793876731
1.28550910178801
1.86495522269003
2.25798382507844
2.42023057589902
2.3336940488381
2.07600263576029
1.77282445872026
1.48636468833602
1.27319931236669
1.23061232074944
1.32898949338611
1.32758822622773
0.998607416098447
0.363662088341085
-0.326664522747052
-0.782297524541041
-0.881416705764266
-0.750416232852556
-0.594092131396817
-0.478114340763513
-0.374196740065647
-0.30730536268241
-0.293797952476733
-0.272178995584862
-0.271831830314745
-0.482581259946111
-0.992050095896802
-1.63199423812654
-2.18497096639463
-2.5358320185825
-2.59715337776335
-2.33996129329407
-1.88997461316361
-1.35956615943883
-0.65148374363738
0.353302881817664
1.5152680262038
2.53781243836415
3.24161370748327
3.59959565202132
3.64939946869611
3.51508773125118
3.37927749033391
3.31588704890028
3.25884873258198
3.16524444175622
3.06332024630016
2.95418959116544
2.81784341885785
2.66496113778285
2.46486081562119
2.12509372418778
1.63276238092745
1.09466633431214
0.584585581421621
0.0625949918725483
-0.53418711697858
-1.18431569968406
-1.74983628348868
-2.06845427918161
-2.14936021872906
-2.19566962004718
-2.32950323663134
-2.44702133879634
-2.46579064629787
-2.49062096811075
-2.59490411257139
-2.69552997957691
-2.76277507382034
-2.87890723191563
-3.01822072609393
-3.046099761186
-2.9496578034981
-2.81205379290424
-2.60316200867842
-2.22763770895254
-1.71437311369383
-1.19734830400382
-0.8095300326365
-0.678186577563301
-0.850828214301589
-1.15104637411464
-1.30179455035238
-1.24361432470992
-1.12867855072393
-1.00092368440444
-0.738308768209212
-0.327822431957183
0.0396558012384192
0.187172025274765
0.138663236169862
0.102911917975062
0.306233245865979
0.774802395800867
1.31163576713935
1.7586712015827
2.16245389172186
2.59543504243691
3.00110606782308
3.3307896706485
3.64719135559726
3.98723147534652
4.26140704305526
4.32708859599193
4.07761041397984
3.53376700612061
2.91003020155077
2.42555039002652
2.01452510878162
1.45034044129807
0.737364925635176
0.0911182215546829
-0.418939664676847
-0.897122864447716
-1.3605584613967
-1.73057711590587
-1.99980886446043
-2.18306899961132
-2.21077761061729
-2.04693177736594
-1.78792287905344
-1.51882700555532
-1.21937536034055
-0.89269841602621
-0.611408140335205
-0.392156510152125
-0.212591942692262
-0.149771664363623
-0.305907376582938
-0.623107932719094
-0.926539113799841
-1.09547653014616
-1.10522699207065
-0.998082669757054
-0.860951586817361
-0.747849485370012
-0.63274177570858
-0.479647286210122
-0.27475436218247
0.0173011198377879
0.386327631048276
0.694263345960194
0.834081350997577
0.901362411385945
1.02655916602228
1.15798167070625
1.18994810969585
1.14597516357828
1.08332760750616
0.997495371722075
0.911235588272904
0.859432862494122
0.76539612624427
0.531760767312288
0.209397439678024
-0.102083712989355
-0.414584545683578
-0.756301205908416
-1.06869947263425
-1.33904550675294
-1.65707327687457
-2.00332743137885
-2.16353741155729
-1.98523311944094
-1.5688773345699
-1.13421881361559
-0.843389359275522
-0.749061269545009
-0.744603022275762
-0.595705044020747
-0.16163611446076
0.463017494654756
1.07860317202378
1.54590056186884
1.82184209736345
1.96193757731541
2.06887608064873
2.15801810732611
2.14250469456812
1.97003830485724
1.65034747338086
1.18847194927578
0.659690549812281
0.256336993359405
0.0631128791050093
-0.0873570207393386
-0.358064409424215
-0.679269808489793
-0.911960515484744
-1.02134497387435
-0.99977156331615
-0.857926377104919
-0.720958108734518
-0.695450418744748
-0.688914488619765
-0.595269595106577
-0.54011755756667
-0.689356766774267
-0.951396183506358
-1.1225276423924
-1.20191292002429
-1.33369833924315
-1.55321006561324
-1.78160376810052
-1.95653376333335
-2.019628494944
-1.88424812228662
-1.51717187869711
-0.983821757345496
-0.408194453943284
0.0533542102521699
0.265203051067161
0.202949225380924
-0.0506243123271448
-0.358822103122435
-0.510439436017087
-0.277595445141754
0.374070288224208
1.24373389052346
2.12706424401375
2.93349640398662
3.5686115437545
3.91795094227576
3.95667100226482
3.70929575601332
3.18203316180905
2.47550833842996
1.78340396544633
1.1441461420751
0.429632502713362
-0.328457451128487
-0.888175112544953
-1.13039164427436
-1.16019356805672
-1.0776769467052
-0.914495950334838
-0.749339323764533
-0.645687527357354
-0.538879918463356
-0.357131626634434
-0.147722003219809
0.0398563384425848
0.243852934830907
0.466831994011335
0.634474756327117
0.733312229788747
0.807290202790795
0.819572543549243
0.709742296011483
0.537905466523312
0.398015665971716
0.281125058328563
0.157949835060766
0.0722329547943282
0.0620270589843729
0.108964291870388
0.197732756875059
0.327171104331486
0.482220033939189
0.649141256259608
0.789473488364947
0.798507526490672
0.601272788286133
0.244629515435599
-0.2177864365763
-0.799416923030288
-1.41066428269159
-1.82792120788363
-1.99409423123533
-2.12509535531452
-2.39138029737193
-2.7283848995921
-3.01899508500172
-3.20722104217267
-3.22126572951523
-3.03044632710103
-2.75932532324004
-2.55397118051388
-2.40296138042199
-2.23287652366876
-2.05535560510671
-1.89477568672911
-1.73686547596594
-1.67008295016923
-1.88321418016279
-2.3914138492184
-2.9341496080633
-3.22591208034281
-3.15210058745812
-2.71105375615277
-1.94636892146455
-0.956033482619817
0.143495083032769
1.274191663363
2.42063543492332
3.63631157678637
4.94899174119079
6.19678034330854
7.08925034127958
7.49677938567708
7.52553778585706
7.29235952008804
6.83560130515846
6.23948973328828
5.60546092694795
4.90246669587415
4.02933236041571
2.96863114396951
1.76426707575515
0.499167662878716
-0.615741987660168
-1.33253808069722
-1.61234664994198
-1.60652586932789
-1.43045632638319
-1.15342694909556
-0.90908127141872
-0.778984214430735
-0.648813786870354
-0.372626088936216
0.0086468483012478
0.350509293836364
0.580938902766673
0.681659294671821
0.65058586568942
0.578861717672522
0.597062555031177
0.674962736891326
0.625504550945165
0.320869632820135
-0.214060846797595
-0.857231357594571
-1.44453294682465
-1.89788964469349
-2.37003228209546
-3.11940253103577
-4.21820334558565
-5.5128637191698
-6.81401076165252
-7.97841124451375
-8.88190058517286
-9.42398818590991
-9.48514998099619
-8.88327299884878
-7.52575513211315
-5.56832902388092
-3.27265592975686
-0.808075706223438
1.68131752558892
4.00334198695539
6.03506511610726
7.70429118704106
8.79946736336056
9.04825133736877
8.41000016770442
7.08096078555504
5.28953842561423
3.32085055237677
1.61257615263032
0.536335050597172
0.135636856569923
0.267736966969633
0.898509514539722
2.06638757716043
3.63101802770705
5.18984271414461
6.20194939977637
6.21346581222349
5.10698322348165
3.12526839761302
0.581066961480814
-2.32100483394154
-5.29471991678282
-7.84371253856027
-9.52069494591824
-10.2272300505524
-10.1874401877571
-9.69173648722403
-8.85148613346653
-7.56815909117641
-5.81161065692282
-3.87949518636479
-2.19009207306526
-0.854422016810979
0.346641077002005
1.65065175167819
3.18244849643385
4.96042089037815
6.78248075890392
8.25693263230937
9.1225462243213
9.38042647796391
9.08844123073114
8.31484726771884
7.29350813985743
6.2844366155911
5.26973860152121
4.08179689832749
2.78595314121657
1.63733915167015
0.709774540730798
-0.159507827881894
-1.11172732920737
-2.17659482846431
-3.3468906308665
-4.53626531420169
-5.54150536343428
-6.17590827955766
-6.3562709260378
-6.03238039906155
-5.17539507432283
-3.86621552300843
-2.31405593493209
-0.798720039457097
0.4179273596839
1.22725426749676
1.70547993051849
1.94414638043994
1.96688779527995
1.88835076414494
1.95365712086982
2.30246663562543
2.85755473084146
3.45939684802646
3.8883047089608
3.80926721674554
2.99347442789747
1.57187015923604
-0.133861623859815
-1.89833335951559
-3.54312636316638
-4.85229010946761
-5.75961221059875
-6.41911259472815
-6.94197409097136
-7.24409616637168
-7.22334411392896
-6.93064049778044
-6.56222802182741
-6.38741344312107
-6.56766155607565
-6.8966958687778
-6.85607266029813
-6.08036667838161
-4.63838591579878
-2.7925024341318
-0.728938680456778
1.3740225580287
3.28215280264942
4.85615011763229
6.11498895381261
7.11170200851101
7.84915650579816
8.26620019833991
8.24557122985493
7.75275243268847
6.98766068104967
6.24058969539911
5.59275309746183
4.88964944681278
3.96784530270974
2.81286282146892
1.57633489207667
0.485733730391025
-0.359641835476099
-1.05978574111344
-1.65954464963064
-1.97950125785072
-1.88744371315604
-1.53053618125169
-1.08857841880152
-0.522858405703632
0.255321954211134
1.21048691295219
2.30041085421344
3.52327290175375
4.77864881684822
5.90889754462697
6.90862934946114
7.91306222916958
8.99689983276688
10.0960637855964
10.9962685079447
11.2725978361703
10.4666555608593
8.55364852993246
6.08336148212966
3.68500335241883
1.56140851425592
-0.454098265177445
-2.52880805774062
-4.60798181328768
-6.44151781957426
-7.78542286198322
-8.60918842235839
-9.08915577771374
-9.4398692462421
-9.82697414342578
-10.3593569621745
-11.0553107788511
-11.8942981770856
-12.9369904710087
-14.2221726500545
-15.51573186531
-16.3819082812159
-16.5382094408619
-15.9664064223948
-14.7632747878568
-13.1224134742486
-11.3465980828116
-9.63750785102904
-7.98695909923025
-6.40157547482667
-4.99615809735608
-3.72374925762251
-2.26891067985991
-0.363943032459766
1.95287693358649
4.42571428754598
6.72556113986892
8.50388523911719
9.53955038483343
9.91411318779262
9.95411609813724
10.0329387638792
10.4705320491384
11.440127044394
12.8050322752503
14.1327731468362
14.9522868954599
14.9722521707389
14.1702492615655
12.8470191951432
11.5138873095119
10.54608799117
9.92747345540773
9.32853223792016
8.37617161591081
6.94657224817856
5.3380937787088
4.06791619665778
3.38352788612401
3.08539179582424
2.86006996490895
2.55855876415184
2.10239644037805
1.40062127739393
0.460488287345669
-0.613406328326949
-1.75260317113147
-2.91240334640586
-3.98345636298047
-4.82969514302689
-5.34825971395287
-5.50713572896643
-5.47486669504389
-5.61574557711255
-6.10935079319869
-6.67251653211547
-6.92978040712823
-6.95245598145428
-7.1297041975875
-7.58447116433763
-8.0275273864616
-8.18428989262613
-8.12962664095402
-8.15133195150917
-8.34918531941713
-8.35471231053504
-7.5198786967138
-5.54753629956946
-2.91972179773284
-0.609237525146746
0.570755991770843
0.372140590149087
-0.836464278219043
-2.31448038489919
-3.46846767702178
-4.24185600234699
-4.92757846672203
-5.68904801517969
-6.38146052803708
-6.69173442306712
-6.3256911908082
-5.20540283032416
-3.54022744332686
-1.54049071332602
0.887176971349173
3.9133257918757
7.31619413681925
10.48455094176
12.8420771789298
14.1332415937387
14.4445776450959
14.1208945990609
13.5802038668903
13.1125188626578
12.8483559685988
12.7993636122411
12.7989222397116
12.5253143677739
11.7575335909709
10.5275422454181
8.91939691949999
6.89912531228851
4.49055742699053
1.9139878278277
-0.620583586112074
-3.08291800994178
-5.48145542253711
-7.7375881071492
-9.74604045524301
-11.3883990220244
-12.5073891227944
-13.0272810201036
-13.0581817021971
-12.8005901468425
-12.4431824377278
-12.1660637789054
-12.0704210871634
-12.0549037249004
-11.8477066497105
-11.1341698498482
-9.64574314657755
-7.30704003232731
-4.39447671103203
-1.45440420754297
0.932838004837479
2.29915982895367
2.49387026720082
1.94961959354113
1.44585745104728
1.36269745797229
1.43530816865967
1.3878899067077
1.41649952338123
1.82098730139087
2.50953548145543
3.12313120792482
3.4131802164784
3.3128296441011
2.85100246184279
2.18440409427367
1.60678040801594
1.42336882253437
1.83372715384044
2.86102599347529
4.30536419002079
5.85553685581273
7.31421173474391
8.62941689422745
9.72593291104649
10.4425079455431
10.6182557461488
10.1700601901121
9.1638295962236
7.84113560744225
6.47762560193821
5.25436553947812
4.36455498373888
4.07385827027128
4.46814362000439
5.26728876754052
6.0276436804241
6.38214126181658
6.0617857599266
4.95801164645189
3.2097451870393
1.0026958703938
-1.62868376505904
-4.53052953989214
-7.14481787064111
-8.85760262118059
-9.55104463325569
-9.61315984044497
-9.57755186344687
-9.89378451030799
-10.7700025490307
-11.9822693365871
-12.9461501846644
-13.1050591465538
-12.2099345200204
-10.3075213970419
-7.66989294274193
-4.70983219134249
-1.79133593655889
0.811421070849015
2.6624616662153
3.11912933322707
1.83598406069671
-0.766171383190187
-3.7462072804552
-6.36155903262448
-8.46991432508358
-10.2332945614065
-11.5209130725417
-11.7770676463273
-10.5654903215306
-8.05620964227243
-4.80406755093606
-1.25271785967129
2.31126731293331
5.52407533951357
7.98417644807686
9.50207468322989
10.2214941965395
10.6000946990837
11.2526450094436
12.5905241709659
14.5625830667448
16.7980828549651
18.8352414557773
20.1399691680531
20.2257277895358
18.952644111444
16.4894929958328
12.9449131409845
8.37307404513363
3.17513076570757
-1.90898999244315
-6.33252635547502
-9.99096594438871
-12.9354256068441
-15.1700080947464
-16.7611590059761
-17.834460423746
-18.3891918549499
-18.2808329198686
-17.3739813500653
-15.648905893187
-13.2661397124416
-10.5117806042608
-7.49575175887019
-4.00873277249916
0.0068603363061417
3.91051635823309
6.67294602436074
7.83380391845153
7.91284829910523
7.73681063618287
7.51652351907673
6.82367762998353
5.46961779737194
4.0397590327686
3.23079466640539
2.88432193202556
2.16266785895261
0.645696780410239
-1.19269020905314
-2.61471932465636
-3.31754139210244
-3.43012839549516
-3.09868645336942
-2.15764961604688
-0.11419090426195
3.46776925765774
8.43050413680855
13.8767553511042
18.5955133285898
21.6447413647492
22.6664726004512
21.8735752923298
19.791620396432
16.8811189118184
13.316948368392
9.10344122737479
4.32260467971105
-0.737683980486781
-5.57351674586219
-9.60772082622483
-12.5580616196935
-14.6844529907077
-16.4900419208492
-18.1812082914081
-19.5523355903845
-20.3371253032592
-20.5548325915728
-20.5533743607098
-20.702311429576
-20.928764965809
-20.6437493578952
-19.3268357164835
-17.0943733166593
-14.4699262174414
-11.6676736546288
-8.3070214594304
-3.84200672458415
1.75858279916446
7.71059017450067
12.856534251641
16.4603360882358
18.4038402069096
18.6349008539783
16.8985179298719
13.2681674251362
8.59685290567367
4.14004860431188
0.840894005231655
-1.0148540582636
-1.75982205724217
-2.09355524827322
-2.63043070540694
-3.51351321983498
-4.47662436601236
-5.17859685648662
-5.30413629722505
-4.43438986013175
-2.08283823118336
2.03992289081054
7.762729645832
14.3249228700711
20.4954002705626
24.9901103472557
26.913338594179
25.9624101274802
22.5435475474958
17.8563329455108
13.5580278528219
10.9085881494414
10.0527557817176
10.0631987766995
9.62624470516798
7.82992598615445
4.58874200689674
0.494339549457809
-3.67756527579252
-7.30764404891657
-10.012568144042
-11.7430560013983
-12.8505430922799
-13.8359024836608
-14.9796797823235
-16.2676366034927
-17.5403934916191
-18.6435254706512
-19.6295463504629
-20.8792593326594
-22.783072126003
-25.1750746682642
-27.2065365687708
-27.8441836531473
-26.5150644012137
-23.4917365195862
-19.8512035518902
-16.8484526000061
-14.9928242123728
-13.7601315181818
-12.3146975908484
-10.2712059893373
-7.59171395299767
-4.12727339231499
0.330740475145074
5.67305296534567
11.4020401444291
16.8767679945003
21.5182060721825
24.9048776524834
26.9073717707687
27.8520688567209
28.4367988676405
29.2200766468097
30.1297392155637
30.6889533553689
30.7413181937619
30.6218638378354
30.5483864458414
30.2519875841275
29.3718083101003
27.8611705288445
25.8433673449303
23.3672594764233
20.4449103387394
17.1082520865397
13.321501775879
8.95090963425972
3.88334145440525
-1.79027878541948
-7.64530514413814
-13.0748033673597
-17.7536722328694
-21.8777822493977
-25.7297614728601
-29.1055055399618
-31.4579680470819
-32.555207166029
-32.7077103286361
-32.4034638462572
-32.0294844389677
-31.9030737826749
-32.1801826497466
-32.526350450989
-32.0207344649257
-29.6593989051079
-25.1360468609191
-19.0633391039438
-12.3228422630291
-5.46304421433069
0.957234283433737
5.86763396169991
8.35405057181332
8.85256585073701
8.95579572295263
9.78843495268129
11.0179533944497
11.5862400631388
10.9506851198879
9.38974362514293
7.43405948882071
5.35972374093233
3.2724100433167
1.48711975598887
0.579289373312555
1.01064545613162
2.8272121026445
5.63424438023906
8.60563001214451
10.6647241464293
11.1579332690111
10.4568718906757
9.55791632930173
9.0347501544348
8.7136805655471
8.40270234624785
8.49826601580701
9.59741792498341
11.6788617623006
13.8727750284153
15.0516229154362
14.6237841773486
12.7433407838509
9.82889232127911
6.20139712286126
2.40915678018495
-0.490527383665338
-1.57892264077965
-1.03675699633243
-0.115720571622063
-0.0915814038120468
-1.36419937134473
-3.46950793409503
-5.72747095959965
-7.78265599113585
-9.59920348029187
-11.1934632958018
-12.6303733385773
-14.1067630259056
-15.5772458815309
-16.3230842326105
-15.3930210298864
-12.5511514155037
-8.41762776649798
-3.76552638386021
0.831769152462512
4.7672473077986
7.45825057176428
8.82699786259282
9.42725091149518
10.0312090394305
11.230929286001
13.2554260261627
15.8029650570561
18.0383471566721
19.0487362993682
18.4635094596638
16.6248475722885
14.1945379025445
11.630727502074
8.99716470155787
6.22351058121837
3.45729473449748
1.03059565816459
-0.876020836407326
-2.3758684320279
-3.73554330300654
-5.21983609970069
-6.90987123415361
-8.47242408296419
-9.29983738692947
-9.16428023093902
-8.6565499424463
-8.74468952915175
-9.86130887273437
-11.4904901387074
-12.691546436402
-13.1120548517257
-13.5430896898997
-15.4062385038088
-19.6376869739335
-26.0413609113702
-33.4780260999305
-40.3912203811381
-45.3237808610609
-47.3990934114417
-46.4721572473812
-42.7541432812768
-36.4311793575142
-27.8236678602707
-17.7989521757753
-7.7813969726426
0.841774751219913
7.55000583538209
13.0135161756327
18.3273818482693
23.6995952198876
28.1296978690862
30.6040009680092
31.2742058674919
31.131585982112
30.8792903097026
30.565926733692
30.0445515197126
29.2794235248729
28.2594971075825
26.9598477972068
25.4426291271906
23.871468447108
22.4183620802182
21.194866256345
20.2387131124018
19.4475391260295
18.3699955505882
16.1174675938276
11.8935623219599
5.94234561849064
-0.210225524115123
-4.78614582275953
-7.04628114779303
-7.58590673308697
-7.63643534634761
-8.11660989070053
-8.98043554669988
-9.28635906020864
-8.06100305604878
-5.13437531121338
-1.0865292067695
3.36971977566282
7.75364572016681
11.8710366230799
15.7976120803216
19.5848785721995
22.7642082484809
24.4221339612774
24.0396505003054
22.0529775161797
19.3512074213396
16.3515693618089
12.6914565978608
7.69822391858506
1.10224743608604
-6.60751352092092
-14.5071508009946
-21.9098256934883
-28.6269069857091
-34.6364373398274
-39.7606455019855
-43.7421994321345
-46.438535354159
-47.8008326609246
-47.684999687335
-45.7530425501798
-41.6668851678425
-35.4763911846514
-27.8251151050121
-19.8101355706265
-12.6998387351036
-7.56239290703106
-4.71747145244152
-3.4432019984866
-2.50898940921659
-1.10799722911484
0.786497123587804
2.69153387027621
3.9109463468754
3.87105266892527
2.65793594402852
1.10715263857478
0.0226975223185188
-0.53381408680936
-0.903390812115384
-1.04199040323847
-0.502532958694384
0.854850667317257
2.48415646103964
3.57162474131759
3.74971552471148
3.51535360886728
4.08078169795217
6.62393289144237
11.3661184755351
17.2715299189813
22.6720175614243
26.2181322777763
27.3904136637747
26.449639938537
24.2255814176169
21.9307119601112
20.7027057211162
20.8041669877509
21.2088601127624
20.2396463461675
16.7346251613781
10.6929044932318
3.20463468125579
-3.93706642956803
-8.90557322335111
-10.7012695240368
-9.49889442797954
-6.1235920000608
-1.36104952756852
4.20490911567197
10.03582039145
15.5622427468656
20.1784516054656
23.2917364582858
24.4911763973187
23.6589884063803
20.8925937542947
16.4671230014836
10.9484833301849
5.15784229947381
-0.129074170253837
-4.39652719612007
-7.34822388943075
-8.91636345064631
-9.41869250280443
-9.5142862349677
-9.89063212478765
-11.0408554265863
-13.1816232575275
-16.1014918186333
-19.150423767154
-21.6420344103756
-23.2819435023266
-24.1302936999665
-24.3044973099759
-23.8906173251874
-23.0562739961217
-22.0033411176621
-20.5935897418719
-18.0267266387194
-13.2522189166247
-6.0962843284807
2.06046900120422
8.98314336760468
12.9706340977808
13.6111725396592
11.6554197682013
8.49826977315193
5.43709744672209
2.94881561685402
0.671573496337459
-1.84757087989557
-4.55766820522514
-7.00641078648879
-8.73618575637895
-9.58735918537185
-9.87996333742745
-10.2897427618595
-11.3471540267312
-13.0755695707796
-15.1641725021884
-17.2579267776022
-18.9094560102716
-19.5033458431021
-18.5286380699778
-15.8872634180773
-11.8759703158869
-7.04658228012742
-2.15625082383593
1.979067663171
4.83920301710409
6.55644796620085
7.99039473025166
10.2907108321386
14.0754425838468
18.9580061954786
23.9461225224485
28.12720017466
30.8153276342406
31.443646726845
29.9356313143672
27.230108127078
24.9770508557764
24.3863797631691
25.3504032059318
26.6954671794945
27.1932617592906
26.2523945503887
23.7857296832869
19.8511109088366
14.7326625075101
9.11927928285295
3.78260886835803
-0.878320411838373
-4.77511641804921
-7.82815175629933
-10.0002159993262
-11.4848592883751
-12.6521072388573
-13.8696869794385
-15.3646379402057
-17.0349738693163
-18.3897796206555
-18.9396601582254
-18.6941086997272
-18.0798197436435
-17.416738789836
-16.703532429005
-15.8245251229443
-14.6864952430158
-13.1885094446892
-11.2689466286448
-9.00483031029593
-6.65093811226206
-4.61774720483237
-3.24299644054797
-2.3900732095354
-1.46218747878555
-0.0783578948795773
1.43134180379138
2.46542799343597
2.94783301771646
3.44715803620267
4.55628890378676
6.28637407896622
8.06897580742505
9.3326909802999
10.007247124082
10.2877445770666
9.94859599678793
8.23864366593375
4.59333098891415
-0.751517515131166
-6.85989112645404
-12.5585569493675
-16.853740870969
-19.2668736020892
-19.9697268166372
-19.5844989914577
-18.8595653924494
-18.4135599825159
-18.4485751461315
-18.5793967084685
-18.175638097896
-16.8995774204167
-14.5889300947109
-10.7021231973004
-4.53055231790845
3.79979796076834
12.9791558088191
21.3288430852107
27.613505520334
31.1342610855618
31.8010052947761
30.5648571616173
29.2912002168024
29.4672640904828
30.880491283444
31.8544097224429
30.8316649278559
27.4807827996437
22.3590488903404
16.1146677943615
9.34590696581087
2.75464147575125
-3.14161429714143
-8.35120998527543
-13.1192683866052
-17.3537249748163
-20.4997186315541
-21.9116052185515
-21.4043851068921
-19.6497097414819
-17.851765242382
-16.6437451299956
-15.4033563424383
-12.9734712552398
-8.89220015600436
-3.67307392783753
1.75845607216868
6.49402587874953
9.85224003726062
11.707597941631
12.5142575783139
12.6536948608685
11.8711635413556
9.62441532002196
5.90086797172318
1.54491345696733
-2.14541350386446
-4.17692929732385
-4.44104031429173
-3.62591086225349
-2.58579902232933
-2.00176911895716
-2.66944158197705
-5.57744247398
-11.0861142070745
-17.9850294888554
-23.8209662378223
-26.5958788859188
-26.2498821344906
-24.3773662533523
-22.5248604938137
-20.954942294196
-18.9796008611181
-16.0276265652568
-12.1684879216277
-7.96499070436096
-4.1659223069132
-1.39397108378951
0.159855370836425
0.85721532238878
1.5004440364027
3.02436254037342
5.957217330601
9.98810863487456
14.245672104092
18.0856491477631
21.3897388758484
24.1047700878539
25.8872258309971
26.3871552183071
25.6317479452317
23.9913721281168
21.9913132971783
20.2531350893508
19.3460052285893
19.475784543633
20.3735865246936
21.5119419516153
22.330243416036
22.2587923848604
20.6844997154871
17.136304370489
11.7863765289403
5.81688287984918
0.932462627437433
-1.84677840236321
-2.9165778936185
-3.59252934715788
-5.04436458704599
-7.72465767058372
-11.5432418345847
-16.2696579248272
-21.5593863227391
-26.5931200408154
-30.115974506194
-31.356906978157
-30.7863558904224
-29.4128704087981
-27.414325989315
-24.1276005740039
-19.451021299692
-14.6118161504178
-11.2973940446792
-10.3611186040713
-11.4122917251138
-13.2305662883653
-14.38927269473
-13.8188029853172
-11.2110618681722
-7.08677447077331
-2.46019345622222
1.70861177150145
4.91533779492896
7.06828800216862
8.13879137395557
8.07791018044171
7.21360259351206
6.54809501353359
7.43408823684345
10.866327698714
16.8360546837172
24.0271204027523
30.2588388967139
33.7115236081696
33.9207417934735
31.5746735973681
27.6064212053694
22.6569295795528
17.0352715028333
10.8102200754564
4.11788924947132
-2.38615004487476
-7.61929668243154
-10.9064837094237
-12.6495663919876
-13.988562350872
-15.7314243835468
-17.5861680900703
-18.5242053055277
-18.048351364705
-17.0000352741069
-16.855184331872
-18.2675151165254
-20.5066480743165
-22.1536533619487
-21.9807775185109
-19.2621799156064
-13.8522199628322
-6.43088256158872
1.49299651598146
8.34660325764761
13.4888739743905
17.2083624950238
19.6233740908472
20.0576663192569
17.9800554473813
14.19959861888
10.3607381431932
7.2744850944347
4.45627688922769
1.40387429401418
-1.39339019099526
-3.05211155288525
-3.45417861069829
-3.47287725882942
-4.1727224992253
-5.86054457419679
-7.80096751709264
-8.80026419975468
-8.03999517511109
-5.38570607448104
-1.28144345416902
3.25744237266069
6.90060131616872
8.99692704917155
10.326227759107
12.2375323847853
14.9030660298259
16.891439564444
16.6364380053733
14.0205910785234
10.378881141843
7.19104701737114
4.97817562833841
3.35101734089028
1.76846467588315
-0.0152638722792099
-2.09878250785308
-4.58129753017894
-7.3220821076559
-9.72880276935968
-11.0411194558105
-10.8414213680712
-9.22622972204955
-6.58093028372819
-3.33765752513915
0.0341546451522777
2.90622554085474
4.55073264915549
4.51265397696513
2.9268956510641
0.365852091344048
-2.54321648075583
-5.24799951938868
-7.25553917374473
-8.28024519494182
-8.33721797563344
-7.55095314675911
-6.01656221371055
-3.92038520288056
-1.5381393818882
1.02439478283538
3.86955480604426
6.93569680795142
9.67735909348956
11.1573456864121
10.4645066450849
7.24285214521564
2.03368024093857
-3.87854369904635
-9.02190465636387
-12.2974546301532
-13.3463935389798
-12.6375687350034
-11.1323834720408
-9.7245394433843
-8.93568288430527
-8.91627821034913
-9.44042785870753
-9.96234376127001
-9.98026410232651
-9.37993653396503
-8.25456626555449
-6.50410854325889
-3.94539808861044
-0.834030414846842
2.05456527959829
4.05472711913879
5.23591407520885
6.3164841806528
7.97833930083753
10.3288768242288
13.0767098743162
16.0617115418996
19.2261496073039
21.9893271352234
23.132914899617
21.7055052895025
17.9167937084714
12.9945938761361
8.3000740917308
4.5087523961789
1.30752310208533
-2.11800924146166
-6.05615302611387
-9.83814075111906
-12.5888585892329
-14.0444277782885
-14.3347063271098
-13.3840812060229
-10.9945466517574
-7.35883193301272
-3.23720263517293
0.286201854489416
2.25272635835715
2.34139962037536
1.05543552527995
-0.672118089907799
-1.9911127260812
-2.30612576711812
-1.43348354678724
0.032890759476902
0.856553324215813
0.204522456330375
-1.47625336539632
-2.95535886950493
-3.54978210326018
-3.70610110445401
-4.27931857059456
-5.48301067707604
-6.71582992513755
-7.36493892448916
-7.52956481308902
-7.74299026269695
-8.08552420922797
-7.84746034303085
-6.13546960185468
-2.70287287157995
1.80144130148648
6.28182022713291
9.87177887548478
12.25049062545
13.4540455082765
13.6384659043747
13.1387407342713
12.4892096234935
12.1027542918168
12.0119956545648
12.0082419907583
11.8031707559008
10.9821872816292
9.16193769679854
6.42668765190777
3.41463407687362
0.84460871362122
-0.891573418174811
-1.67285240688667
-1.47318441355218
-0.373604483873776
1.412275026965
3.6289049333753
6.02821322448055
8.34476085094211
10.3206962972931
11.7137635436684
12.1949850161587
11.3024547827835
8.57972928869057
3.79991323090465
-2.77885500276611
-10.2401148447006
-17.3171902763063
-23.2257257271503
-28.1618788702598
-32.6929514134276
-36.6261929292955
-38.7753910080758
-38.1125906036408
-35.0994161461455
-31.5384830042196
-28.8844677162251
-26.9338354716545
-24.4408635526236
-20.6544436408031
-15.6897154301286
-9.6564246636747
-2.24589777578575
6.6469189782263
16.4168783730555
26.0790335329745
34.8191047864758
42.0829047481737
47.3491872851306
50.1026436398202
50.1787490935414
48.0597295472403
44.5773713158834
40.2106676833695
34.8624611146194
28.4396171860576
21.3841716328767
14.3634129017129
7.62823069823187
1.03261532388833
-5.3532833198669
-10.9390266883634
-14.9390846674448
-16.8143838396832
-16.5012956503397
-14.6851458225248
-13.1001330346918
-14.023328197733
-18.5800442848887
-25.4043761582072
-31.6602323705964
-35.6589280862995
-37.9130445883144
-39.5070859853535
-40.3971743660918
-39.9363558197322
-38.2724267592875
-36.1663701365734
-33.595337183641
-29.4857103762789
-23.2042735325361
-15.8304143237442
-9.36271193864231
-4.59917577997155
-0.20828315785169
5.82150798197635
14.0755683395227
23.3574811836395
32.0583677563076
39.2011816642455
44.1539060096186
46.1050897161609
44.459878040542
39.6857565625353
33.3400824004264
26.9929973194933
21.1309783443827
15.2372827132833
8.95121176629017
2.94304674840563
-1.50647111208152
-3.58057473955798
-3.31506098523523
-1.16405529975425
2.33321084831334
6.49091541441485
10.5448361168818
13.9646024189789
16.5743006992705
18.3469733713316
19.1502425897046
18.7021925796068
16.8360123095643
13.8761775092843
10.653785234716
8.02488484187279
6.36020456990756
5.38327633089903
4.2831825883999
2.091612266582
-1.64086762397062
-6.37687508546638
-10.919587496506
-14.2318440754279
-15.9822691154645
-16.5998400950752
-16.9775112901118
-17.896159629286
-19.5334358427755
-21.537684592441
-23.3981520258262
-24.4789887054593
-23.9561766176896
-21.3751388175765
-17.4757329145251
-14.0132768972235
-12.2784244255506
-11.7399535162977
-10.4196963182085
-6.9046224627705
-2.05963679344065
1.44093875993324
1.3712599245725
-2.44376440955951
-8.67380417974895
-15.9055885987662
-23.0766591592189
-29.1046466694932
-32.985470336072
-34.3769065295502
-33.6756168937454
-31.3741729875607
-27.4980992556381
-21.7577484717793
-14.1578286551695
-5.28703766870655
3.98688113919454
12.7770848701578
20.0039743401393
24.605775862799
26.6431121971016
27.8749783015851
30.3607927229408
34.3761937248257
38.1624024381742
39.6474972972806
38.0304146437325
33.9670431175811
28.8989317321099
24.3198243880166
21.2065403578599
19.6918583751826
19.1133078917282
18.4731398686529
17.1288092131328
15.2205420825401
13.3470766369026
11.7594639610911
10.0278081086754
7.57068847791239
4.33603669223779
0.905293964790473
-1.90879866530756
-3.60242103081004
-4.35960077252898
-4.89169452035517
-5.74512322604327
-6.80388986698191
-7.46310751497638
-7.05935110421753
-5.1824523809292
-2.02427674732662
1.40832216904387
3.73513790471854
4.03650613642004
2.21928991300281
-1.20388658543762
-5.38074822022044
-9.35868775251834
-12.5422643223116
-15.0747221482635
-17.6396924905277
-20.7839705444239
-24.3727247890208
-27.7113183145114
-30.284273916992
-32.2680612641373
-34.0421159245754
-35.2688241278816
-34.8634541345836
-31.9444674034293
-26.5243910060262
-19.2968546363521
-11.1302002742974
-2.81080006409566
5.13878792468104
12.6053339423505
19.5958647736817
25.592822516033
29.3486833079875
29.5538727882857
25.8353031206913
19.2472877653535
11.9082920675425
6.05724395813924
3.13395766270026
3.3308018076666
5.66658612573525
8.52563633280873
10.5541887391977
11.3646545007492
11.39050618937
11.1065555816257
10.5399518908731
9.45528762402929
7.76976346632191
5.78700471353454
4.18170675488027
3.68177544297629
4.54151968161419
6.25181183144199
7.78760093297039
8.15118162494522
6.82532781255711
3.99401423858556
0.509556428415376
-2.40974067512807
-3.70413501768736
-3.04495503225338
-1.08419167309226
0.918136141269048
1.76702275150221
0.646010910927938
-2.89247182344906
-8.66891369961351
-15.5379916643856
-21.8176791943828
-26.2524887182853
-28.2324749368923
-27.2388728273135
-22.9838150584986
-16.409005283337
-9.75316052693105
-5.10733392396023
-3.25946392320182
-3.90958076157114
-6.12938911342344
-8.36732878613177
-8.94724614724448
-7.23353089769894
-3.98076236179732
-0.288024494792687
3.40653621060916
7.15947475984905
10.9248563538967
14.6099447464575
18.5083199117895
23.1406945788317
28.4706216451255
33.5104494258256
36.8877507233217
37.6666628754166
35.5963702882946
31.0064193417814
24.774234651736
18.0038974202845
11.282739083869
4.42067122026596
-2.86458956966479
-10.2884517891391
-17.1598440179776
-22.8051090906234
-26.7012092969305
-28.6927647605724
-29.3552749497366
-29.73203896793
-30.3928125579911
-30.9975880716416
-30.9102217926663
-29.8487216761446
-27.7527680115649
-24.5049530952884
-20.2517888429844
-15.7622678537836
-11.8995482360834
-8.63390751266895
-5.01930326464112
-0.380904695982601
4.89220464271066
10.0994465914941
15.3360553339223
21.2549765931761
27.9445907332294
34.58108400054
40.0115343431946
43.1578441064642
43.0288435854707
39.043057698765
31.6795134471327
22.6985194623962
14.5177819122136
9.02553481390704
6.57972868847965
6.05898145346585
6.01276445839989
5.74293099923951
5.35706523523899
5.23349030275066
5.64683430733758
6.44348128935162
6.68890060981884
4.98293350370374
0.640378169493813
-5.4314059122628
-11.2256032472901
-15.0285179972711
-16.5067596200081
-16.889597626185
-18.2269728927261
-22.0106440308779
-28.0430697603998
-34.5366588880621
-39.3282476569647
-41.0837134669044
-39.6327503720928
-35.4736136367683
-29.1096042513948
-20.9372486022506
-11.7621675579072
-3.21229378264377
2.64660839638948
4.4121989464697
2.42322303850539
-1.17334711822375
-3.83125626068085
-4.43563214459441
-3.68840095169055
-2.81806264649734
-2.40804059445653
-2.43907750967578
-2.68280901686898
-2.71805195260958
-2.10518118637148
-0.878776687760005
0.431785078452854
1.39476248449555
2.068724600646
2.8730738107198
4.34601471666942
6.97328872256251
10.9935290048826
16.2618061402903
22.2211897713456
27.902652957484
32.1110806246427
33.9507793209372
33.2761651293597
30.5954461576429
26.7291401471783
22.7092379843892
19.6415012531589
18.1716588019034
18.0742876851916
18.5360346336564
18.739364302557
18.135083072463
16.4771214445018
13.8673475956868
10.7074631476439
7.4924327707418
4.61406591141414
2.28706092902329
0.599131067114455
-0.392922509655422
-0.73358857911623
-0.808760928758442
-1.32055629976083
-2.82951400276165
-5.42805395527648
-8.89953952265789
-12.8725128051452
-16.6846282657959
-19.4982901542213
-20.8476007694386
-20.8676012688143
-19.8639937372478
-17.9595794943392
-15.407091006285
-13.1088657747241
-12.4971336196021
-14.5813894382811
-18.977147749435
-24.0649511455407
-28.3670240610558
-31.7315019041598
-35.0043857698998
-38.6280031344427
-41.780813733034
-42.9422839883082
-41.2558710034108
-37.3346478122564
-32.6792809334896
-28.2875766823048
-23.9963353090083
-19.1352905854306
-13.2660465614981
-5.98004375733521
3.40935136007885
15.3112129605619
29.1924656654015
43.7557450618906
57.3639619328561
68.0067653227707
73.5128097340461
72.6472955928572
66.1360235585415
56.3346798677889
45.7635356708014
35.9038247094717
27.2021680158577
19.8564243854003
14.2116677477964
10.4082187234033
8.11964397299052
6.79173772221784
5.59285417510459
2.92630872793618
-3.12850031551278
-13.0195453482155
-24.5413954729473
-33.9590156766169
-38.3701624460429
-37.0893605608999
-31.3074941873966
-22.8539012859728
-13.2572304002262
-3.85011546030047
3.53002226167097
6.71383722771349
4.70068250019625
-1.20733765710397
-8.15828558837197
-13.4406750285066
-15.3758433300475
-13.4394630774491
-8.46959644734361
-2.62888161563834
1.64526980397031
3.12615115409273
2.28321993768879
0.353368507232594
-1.878696608802
-4.34488351540856
-7.1074440119905
-9.95438311976157
-12.4779784657069
-14.0144612458947
-13.4291647602342
-9.58716137424893
-2.48310625160519
6.30047806823025
14.5173613386413
20.5928219771491
24.0859781641072
25.1259515949932
23.6965239133967
19.7212221889357
13.8785847427963
7.86013294814176
3.30064583221657
0.606228644811788
-0.763999181463788
-1.11871089556765
-0.159414793134079
2.38828439667409
6.28463760711604
10.8314250136248
14.9858926128766
17.5309532420397
17.6110801416262
15.1587225577924
10.6138744615536
4.49259263673882
-2.39905020290646
-8.68924216800639
-13.2190852929644
-16.4550972924051
-20.7518678361688
-28.6007938277167
-40.2527003462623
-53.083582514914
-63.4586260775832
-69.1855489922733
-70.0447258628346
-66.2804972053377
-57.4428219861371
-43.3341670316692
-25.7928278618015
-8.59634129663113
5.00366635391087
14.4319550041057
21.1558482466476
26.3884317140583
30.290782713272
33.3188120268943
37.0530426999387
42.812078248999
49.94464331208
56.262432787213
60.0218255413708
61.0215821738877
59.9717479866865
57.3593270303924
53.0436403186326
46.7064127119387
38.5815533982508
29.7010733549138
21.2661648855615
13.757665189786
6.83566350800486
0.0497132531860068
-6.62718528114364
-12.8994074270975
-18.3904176507014
-22.6498142706155
-25.1435858819868
-25.4923806582039
-23.8893023841942
-21.3556368320788
-19.4722408435601
-19.5967773989665
-22.0426157733215
-25.7816787518557
-28.9854118264465
-30.1958414752156
-29.1522901565745
-26.3055083904454
-21.5810809426092
-14.1682120816183
-3.82216424730745
8.00780782828388
18.6850653023324
25.8436547029773
28.3170055181568
26.2075033635069
20.6390933162762
13.4020049516666
6.27417858807319
0.0806282629011955
-5.81737702551115
-12.8156862655246
-21.4047617055598
-30.1262987006445
-36.4287318712783
-38.7173917617676
-37.5526859943012
-34.861267098999
-32.0433153711729
-28.8022359940176
-23.6417709799394
-15.3768962381942
-4.32764938996085
7.4540687837407
16.7501145144819
20.4043861639429
17.1195920237131
8.78235193767779
-0.240277959148125
-5.80762373882071
-6.55274685624948
-4.1655162390522
-1.3744758270633
0.569417091772307
2.73534933021484
6.87603387235301
13.0114362690488
18.991650240024
22.4633707055947
22.6994629408946
20.3744344137642
16.3783801947637
11.4582181599598
6.50767009995427
2.41801244725828
-0.532146006792175
-2.99315917730317
-6.03187237132513
-9.810186703274
-12.4847427839384
-10.9367420781023
-3.31577266530803
9.03745921246641
22.3425262600247
32.8972304912047
38.9217873932715
40.695506010469
39.6807347832758
37.4390839960418
34.7166673098989
31.1738825027249
26.0908276969413
19.5274654628538
12.8384185203186
7.91961343788134
5.76007072638557
5.72453948843193
6.34730246965526
6.67045466759279
6.62479529170142
6.45064145837472
6.27032380214753
6.07622618918313
5.52154085790064
3.59527803964471
-1.02793975777874
-8.93794012001737
-19.2828021245254
-30.252489964591
-40.3597237692532
-49.1708605442114
-56.6424116410317
-61.9909238196622
-63.8551202597547
-61.7874174232395
-57.0259645341414
-51.2934794587919
-45.0322025569866
-37.2212386565496
-26.9702136773591
-15.129023934296
-4.19632992508301
3.46159794451527
7.31370133729172
8.62579180688756
9.04881783539413
9.55626919347655
10.4000757547345
11.3407243803611
11.8756790223127
11.940158073498
12.5538509074824
15.1068939957905
19.6712673766322
24.4861727015143
27.4507133721785
27.8617184724621
26.5092877166941
24.4367432872391
22.0418828629151
19.3007798135814
16.3209887491849
13.2976037090062
10.1568105899752
6.69141881727688
3.06057427752905
-0.138753732064
-2.33152863025945
-3.35588352698014
-3.48218195787968
-3.17937739149187
-2.82517373574109
-2.71675497667894
-3.44539070361208
-5.76197319683261
-9.4034082977528
-12.355733562062
-12.2785234997724
-8.94958713724037
-4.83517454509327
-3.13381243887976
-5.45720194359255
-11.0497429972798
-17.573910145356
-22.5878628832322
-24.7377858083831
-23.8249950989901
-19.8445237560856
-12.2361950132918
-0.32981856959271
15.4633269239004
32.9917452271916
49.0826455794824
61.2567129086441
68.8210713689367
72.0654913057466
70.6786621558195
63.8049380803042
51.810967080417
37.1058482734651
22.6180082556075
9.79275960997683
-1.60672581965829
-12.0684959129353
-21.1813839014789
-28.0645652863578
-32.793935963637
-36.9682929318755
-42.4356835488382
-49.5489849661651
-57.0618368514348
-63.6338586932486
-68.805468348108
-72.1485487843509
-71.8717654895021
-65.1268022009992
-50.3929011038063
-29.619192606289
-7.5234348615437
11.5765805493957
26.177228970691
37.0426566889578
45.0367729617416
50.0442983657673
51.5893050943744
49.6740405176438
44.8766135382956
38.14074200665
30.630355595394
23.3414490821903
16.5254857045627
9.61059082456342
1.86288168333091
-6.80831606548172
-15.5633689110864
-23.0280331597286
-28.1107734558823
-30.7506706764083
-32.0670074119572
-33.6238213425139
-36.1388658434504
-38.6899708321703
-39.3437446432445
-36.7607756179278
-31.2207257771398
-24.1576191518265
-16.7938979303737
-9.10015388216163
0.0492987078782869
11.5464847189302
24.7650187083469
37.7564182008711
48.6020144164175
56.0887012022615
59.2279443209595
57.1948278099326
50.3317760538978
40.5595219277765
30.1191227719441
20.1731492974835
10.9980987943911
3.06850703582346
-2.7423968234951
-5.96829294253126
-7.02669839828369
-6.78922488130937
-5.99015516640867
-5.09635145713426
-4.34377109995913
-3.56730715569685
-2.1579838352532
0.367042537354957
3.56233269073638
6.06243993998224
6.67432306096632
5.4677123196347
3.71485720170496
2.78659759468397
3.03848962579353
3.6168503136788
3.37179741655898
2.00972293681364
0.162393508842223
-1.74870128312845
-4.34449526383715
-8.69955594585809
-15.1534749872324
-22.9509134616775
-30.8449138258258
-37.7975063642376
-43.2400105195727
-46.9752253559726
-48.9910161639901
-49.3559754479731
-48.1315320616511
-45.2021094342265
-40.2569704171034
-33.1057846039277
-23.9187490240155
-13.0886911920875
-1.21161144426165
10.5515517281179
20.5213593831611
27.4438123097475
31.4067711558122
33.6910956156319
35.8002988091477
38.5184950660519
41.4368433489995
43.1561309302689
42.1961630535338
37.9504941215353
30.8636195951657
22.0028794453391
12.7196844858629
4.36436319855665
-2.21189429469463
-6.86503335538068
-9.69990940027994
-10.670268615711
-9.8810489137131
-8.00256695630115
-5.98398649448606
-4.27245366408198
-2.36489944919039
0.820937078959928
6.01670578154877
12.9604799161006
20.6070524708541
27.7345733674349
33.2740834548115
36.5692656980624
37.7953313833013
37.7453462136014
36.6167130820878
33.2232800130154
25.9340718286287
14.3439529216061
-0.189649104276495
-15.350101216103
-28.8249770928747
-38.7781696002773
-44.1952183160333
-45.3945517057266
-44.1410770102156
-42.6471550291348
-41.9774476882949
-41.5066174219108
-40.1762313471426
-38.1326701986367
-36.7947185158759
-37.3115567971032
-39.1794018042075
-40.3667518352538
-38.6802061790956
-33.2104093047018
-24.8312642308886
-15.4288757044014
-6.50297495559119
1.73716245451312
10.1564771324422
19.5379171031852
29.2809850250209
37.2238886071855
41.2886364671089
41.5464250413116
40.1872916234419
39.1410769973669
38.1368802590038
35.4393977185639
30.1425191116257
23.362569018802
17.3844995230983
13.9182200327617
12.9771137574879
13.1009243521564
12.7348635993289
11.7597714347014
11.7846571624362
14.5794496537252
19.8503264952158
24.6848868539513
25.5802976229734
21.1219993395103
12.6275651106088
2.47384405267684
-7.81500544800035
-18.0637071190938
-28.6950583541684
-39.6339899047383
-49.5669264717523
-56.2331298397824
-57.912023313628
-54.8524053816864
-49.0635964303751
-42.7090316219061
-36.7931427372533
-30.988540819169
-24.1652667742592
-15.2017144274094
-3.86383717016138
8.81399780480143
21.0298284947086
31.1318783695665
38.2030766817966
42.0574967350594
42.920147230845
41.2308094380704
37.6817275732661
33.0797926060198
27.8635749531855
21.903200358246
15.0178024701853
7.59792934215347
0.679593599182969
-4.37031745634653
-6.4125448516449
-5.41851923517557
-2.89780554565167
-0.853597720196169
-0.101709590104561
0.0189109603222874
0.354716308886741
0.948916990329062
1.33632457354336
1.13721070897423
0.161787318092365
-1.46724682372435
-2.96037063923514
-3.12681387925306
-1.52325182888668
0.770208270687224
1.8512338042957
0.520754732868348
-2.87723414448178
-6.81040718725801
-9.48384399539341
-9.88289568813627
-8.84282009359841
-9.25583615508333
-14.1875192784311
-23.8454347232136
-34.5828160776397
-41.4264892578548
-41.6868694727644
-36.3735838591552
-28.8563469840571
-22.3464930899065
-17.8759114297422
-14.0074326408287
-8.46718183326013
-0.0971375498238277
10.6862132550633
22.6453343063694
34.2094187216322
43.5047614916763
48.7826319699265
49.2659615437253
45.6153566336557
39.6266016258736
33.3972997215877
28.4410781205093
25.2624327886712
23.5234634857015
22.380356547732
20.6785755413655
17.2297335311251
11.3403778681545
3.24663037670019
-5.97826369132399
-15.0620130787674
-23.2874064190176
-30.6862884123532
-37.3817956717501
-42.8930244921334
-46.530489330525
-48.3977727552947
-49.1789591216715
-48.4877209843137
-44.0577996409091
-33.3830873677614
-16.2780220277692
4.31076502244991
23.840853465351
38.4543400985866
46.3064045878123
47.5318147121364
43.5130159783498
36.1719363444956
27.3685579042025
18.2627736290392
8.98644948153407
-0.916741423724091
-11.5297993582499
-21.8294404398773
-29.8028016911423
-33.6473698577246
-33.3795681921162
-31.1992125173706
-29.8325707061505
-30.4399973714444
-32.1032731982556
-32.7463424548545
-30.1430987284009
-22.7492574706723
-10.6572687445931
4.0199654109882
18.1310779840042
29.1223129802025
35.9625849072811
39.1132031905597
40.1254561952776
41.0099173537209
43.2928099753779
47.2305135648582
51.7661897630355
55.1571798434339
55.7437543773804
52.42967861589
44.8093194171854
33.2470671246456
19.0969869322536
4.61705291832289
-7.883051424702
-17.1310522822931
-23.2166702270759
-27.0275046605231
-29.4830732264479
-31.0004188468048
-31.2678136193834
-29.5165393928177
-25.2420117996341
-18.7234051562933
-10.9083842335817
-3.17517939648762
2.49264008693471
3.5909023274113
-1.54757636482408
-11.9191848277832
-23.90118646721
-33.8021972691186
-40.2369915163926
-43.7884841231151
-45.1378988819947
-44.5262765256271
-42.6578283087942
-40.7349914493509
-39.0771997865911
-36.4260350721824
-31.1186380086329
-22.6005445151388
-11.6529457972391
0.24283223394276
11.4099337067113
20.4152559871181
26.6724957642865
30.6812822794669
33.4879136186597
35.8380837778924
37.8191378210532
39.2428077141746
40.1773278816424
40.8350486088839
40.9921001489771
40.0044871086844
37.6770263090555
34.8454824275543
32.8130115850705
32.208885020533
32.308350701026
31.2981237895266
27.4006499138676
20.1188939597936
10.4505214122585
-0.122075550150528
-10.5907917351726
-20.3715609341418
-28.9017243594984
-35.7551518600928
-40.8843034801238
-44.3106810541717
-45.6903995954808
-44.6025797136476
-41.2967936876541
-36.692379166394
-31.3350896574853
-24.7961181395722
-16.7960955642839
-8.70816846034942
-2.84219079537226
0.224982694408729
2.71880638849872
7.22051548725856
13.5361118479106
18.7117418611742
19.9855021643078
17.2414819312214
12.7734165581737
9.14284038141201
7.24478049422378
6.13435661847327
4.55380593584223
2.46548849846748
1.00337293406236
1.23321725658881
3.33500694616899
6.80116448331053
10.8961731196573
14.7713078207691
17.4494065295257
18.1006728559082
16.6220487014238
13.9824388776638
11.735054515197
10.9740998624705
11.7502952464299
13.244334633866
14.0748421847226
12.6958867119512
8.3917342870131
2.15510205174457
-4.04191651621004
-9.19279707301925
-14.105122784668
-20.1257992401988
-27.3882624572033
-34.4593852941639
-39.23495656096
-39.8674912294454
-35.3810832923536
-26.3034486553678
-14.9319992429797
-4.34606156493368
3.55336890790904
9.14957403518681
14.028197184056
18.860534366125
22.7908128203807
24.9357221575254
25.6699898752596
25.6304898027899
23.7348297861694
17.2862137788832
4.76089977284363
-11.698072302456
-27.107064060821
-37.2049754139925
-41.1893454965403
-41.1415191776366
-39.3465144010975
-36.5939786436574
-32.7831499928336
-28.4032106866973
-24.8508637566405
-23.0918669685966
-22.0134275442277
-18.4448685662353
-9.46080847484631
4.9026784855515
21.1525505447147
34.4991289124285
41.6722889901962
42.3983740699554
38.999627424965
34.6389903546335
31.4140783815203
29.719627414477
29.1357837821464
29.4510864120445
30.6147693360175
32.208227467477
33.5794791854463
34.3702498976205
34.4200429245046
33.2631670817083
30.3181534608037
25.6549227891175
19.9723384537754
13.5106786117473
5.49872344802556
-4.78379259684685
-16.6331164464148
-28.1170853888366
-37.5285647110008
-44.193795655914
-47.9817179417448
-48.6878405185722
-46.1964882734469
-40.9694184025428
-34.1322449747452
-27.0062543933195
-20.2998003680761
-13.5487893268707
-5.62927578083452
3.8152874738876
13.5844567399427
21.7729939651851
27.1709496154549
29.5586746107059
28.9234259042761
24.9208236247997
17.2726637467739
6.50377854391768
-5.92361306949357
-18.2344103227928
-28.9548878246175
-36.8844708755332
-40.89415966773
-40.4066426031368
-36.2522935023283
-30.5960269530753
-25.5366673584687
-21.6112749035329
-17.5580803893899
-11.4827468260981
-2.58164080223627
7.85359771089978
17.1599977611011
23.2430192402452
25.7826489928277
25.698685371826
24.0767653011856
21.9057322409602
20.2088446074973
19.6468521016097
19.9513576303945
20.0805898319402
19.0320277126081
16.5926907821292
13.5917873732165
11.431126832061
10.8761375438482
11.0076408362916
9.73352226755675
5.79649067647422
0.174241420770225
-4.81775035334503
-7.57670309427875
-7.83983399055102
-5.56051293121738
-0.383098584497338
7.13302108315563
14.669160444386
19.6555399902531
21.4815668651672
21.4730443876243
20.7778876527152
18.8938386113098
14.2265322013056
5.58632051818026
-6.76972423582523
-21.0127718671391
-34.5477134415534
-45.2930554839428
-52.404947362881
-55.9408624141554
-56.1100170116114
-52.829857725713
-45.651208971902
-34.1185866696419
-18.7188439760105
-1.72556392025302
13.2915072361099
23.3013540428902
27.368789021099
26.5731633586631
22.7284695563514
17.310323986293
11.240935797522
5.11606521787994
-0.646754234948819
-5.75421422527791
-9.88160843529854
-12.4404396595129
-12.5088300031113
-9.15630411287872
-2.19871044722213
7.0428072379903
15.8859210212511
21.8045357467121
24.2648914399458
25.0299122772888
26.5338616963816
30.0227569733094
35.1204925907778
40.5652271599751
44.8340117999061
46.2472378943923
43.1622715536768
34.6705362848643
21.3991066106759
5.57623660493418
-10.0666830780289
-23.7749247030109
-35.1754695730463
-44.3644536500271
-51.0901619775588
-55.0110607388574
-56.3048189861311
-55.6286170531872
-53.439249713498
-49.1941626717604
-41.1409819631671
-27.584995415508
-9.27218839298573
9.65078540820124
24.0743652992778
31.7854002984542
34.5597872221672
35.4462722294371
35.7796697944469
35.2764504453471
34.0029324447315
32.6201410360132
30.5162725472802
25.2902594762296
15.3911914174431
2.83829619015677
-7.73134686204766
-12.8828285861615
-12.9330514549084
-10.9438640831859
-9.84365299414388
-10.7649291157427
-13.5854902916869
-17.9507646719519
-23.0456190945614
-26.8584926702021
-26.9140176802598
-22.4144932078191
-15.3672727150962
-9.20660499843438
-6.35361893036864
-7.00566551770107
-9.62321517244245
-12.0802594117388
-12.6273742152853
-10.4514799947456
-5.9010711652777
-0.396923335227281
4.28052189846361
7.33618934173442
9.6632751015578
12.6416202331281
16.2604556752027
19.1384096502481
20.3963045680848
20.6005357821135
20.5615196619978
19.9747061825934
17.7665639572689
13.4210095840274
7.61246727750685
1.71021527848984
-3.16231451554185
-6.7536843257235
-9.60834813120794
-12.3565342240126
-14.8838618964472
-16.1013863453148
-14.7021782766246
-10.3658862481939
-4.21496842460165
1.97864492491642
6.96208039712994
10.4712588376483
12.9633919572288
15.1474001068871
17.5314397486639
20.1022748617773
22.4512479105966
24.2577101195857
25.4552182621971
25.8730407036606
25.0447437069526
22.5848655150522
18.5851067979883
13.5991514649443
8.53456089404926
4.56577979590656
2.53003925228169
1.76516662548607
-0.388155517276892
-7.12596132217927
-19.3601296108605
-34.1865497559147
-46.6009269478839
-52.9491741272229
-52.6482883653863
-47.1822243096761
-38.5911888791438
-29.007001104713
-20.3382216204984
-13.4515070233855
-7.89845436801438
-2.76747913143109
2.34070424075724
7.05201193397204
10.4682585317146
11.6459065963755
10.1813971019862
6.53312925145497
1.92778185398782
-1.90319349751476
-3.28254007641739
-1.67779390417166
1.56214933344687
4.14321147984096
4.88776180493914
4.63223010884049
4.98321804278215
6.60736686995227
8.94875247467723
11.1849621407327
13.0108774802642
14.5016230061358
15.3921164972843
14.6549806378264
11.0640931577281
4.40693706998812
-3.91848263323081
-11.6406084006014
-16.8699142320487
-18.6181060661794
-16.6026682990954
-11.3758705814662
-4.85285564530067
0.168548896017942
2.11984876857497
2.51127321216081
5.08533981590717
12.581740081956
24.0916429444245
35.3964455554902
41.8644235643322
41.4221528126256
35.2842257351142
26.1243109149172
15.6588241576407
4.01623709076373
-8.85400503221509
-21.7183981720872
-32.2533729892257
-38.4956481566515
-39.9526738639181
-37.533267684208
-32.7478963753606
-26.9659840047968
-20.9862937026719
-14.7919545737244
-7.64040900195641
1.09892319087492
10.6974076475056
18.8547418927304
23.3055662298289
23.7103397756228
21.6774335244648
19.1320321129542
17.1027513287409
15.8457520200642
15.4425178039494
16.0040828427158
17.3871700408183
18.7546610658052
18.6759640614292
16.160725413038
11.6072985439104
6.18856814323083
0.143012285982364
-7.7979586906592
-18.88082224661
-32.3770766535422
-45.3859955205676
-54.6034628292256
-58.3347595747532
-57.0183394406576
-52.2011257857446
-45.3558646348163
-37.4952312444885
-29.1488053034042
-20.1988673587385
-10.0702470953136
1.36232299241819
12.9715274486102
22.6264257625561
28.3385202412976
29.5044319569345
27.5253137017845
25.1551930608892
24.5940540862229
25.8874252570965
27.4407672693314
28.1297240973997
28.4994360853294
29.8140004511294
32.3612734851427
34.9441512398725
35.8502395853416
34.1094142416315
29.8507678049304
23.7517165021884
16.5611692584889
9.21574165475733
2.9049643094461
-1.49617495199377
-4.0643132987753
-5.7045069016102
-7.38354825559998
-9.47458759100517
-11.6671241023624
-13.3558241036361
-14.1295876305879
-13.987277265059
-13.1922526596175
-11.9941365198907
-10.5696631977797
-9.40256615289821
-9.68253665124218
-12.6794068137746
-18.0818958318996
-23.4146505936378
-26.1513573841525
-26.475585389408
-27.141698048092
-30.4133899728145
-35.655767788676
-39.9927257302873
-40.8705435758091
-37.9073256595842
-32.5568449917713
-26.1713548817767
-18.6600291735312
-9.37284001155875
1.09865989676551
10.9728630273997
19.1832354610299
26.2453683110886
32.9425869318511
38.9865475897702
43.2502198915165
44.5447712470851
41.9619907680038
35.4318950426227
26.6247821763748
18.7088290927822
14.2282940135252
12.9649837930036
12.2955831605104
9.86155145473874
5.53971299047928
0.643855658253732
-3.99463417198882
-8.21133242194807
-11.2425326874097
-11.7229871467455
-9.3598312095843
-5.59348259558921
-1.98299552632789
1.37708915136956
5.20771253165393
9.29742261861845
12.1485438443357
12.4296113175377
10.4262300945846
7.81988266036794
5.98692579953213
4.62570954942002
2.22813899255701
-2.20250796509247
-8.21999752619623
-14.584717681571
-20.2121295377318
-24.2486300422892
-25.7764880474895
-24.0488405068189
-19.0535924901265
-11.670083495205
-3.34451553558159
4.22787864259042
9.31669128148148
10.7254086750507
8.68049761665256
4.958210856975
1.56332377732977
-0.794467451251273
-2.58150509633137
-3.95477311771457
-4.10096426180373
-2.39223263511598
0.258452044135709
1.82424254200582
1.10988450893059
-0.95665969998315
-2.18794670997866
-1.22947556553451
1.42713551359579
4.43440050838789
7.06009473051228
9.35662874121291
11.329445918773
12.6321693812381
13.1423680482726
13.3368160732095
13.7518845974508
14.187905598041
13.7396169433751
11.6788886485723
8.0478663725563
3.16352981834665
-3.19751929174239
-11.5352399075286
-21.3448931471837
-30.559622717559
-36.8167941792662
-39.3581005387316
-39.5420232513634
-39.4931259063685
-40.156576392231
-40.3392360118619
-37.5017950544468
-29.7307161296397
-17.2913034789431
-2.59359355925432
11.0905823044439
21.0513377906901
26.0335004458387
26.4650835601545
24.0963034881206
21.2894589592458
20.1882437380043
21.8798298208328
25.8947029120747
30.5254357664157
33.8314325576087
34.6089227171311
32.8410568924223
29.4692984621846
25.4671214795833
20.9353162006429
15.3738418103733
8.86351052885095
2.42704913854409
-2.95264591975217
-7.10319067141939
-10.1583169649717
-11.7350900431181
-11.0190233004121
-7.56166172654072
-1.8436117988867
4.84355584861293
10.9882709734171
15.4551215409024
17.6719903805884
17.4053263115606
14.6079340629754
9.66411439222677
3.59803665903028
-2.42534895370615
-8.07858136464902
-14.1108063997155
-21.1668213488283
-28.4006596771849
-33.7876439592588
-35.9341181729765
-35.0107415764616
-31.7645339616656
-26.531263256952
-19.8820117051953
-13.5135963513123
-9.4902362368431
-8.69478788172048
-10.517747781751
-13.7963417174066
-17.5659388766724
-21.1183368989452
-23.8489128202298
-25.1731045880251
-24.5143346593158
-21.3489787079283
-15.2654265415655
-6.2365298249971
4.78688496450764
15.8395332920174
25.2771652677594
33.1066190485129
40.1280014950301
45.7442150613109
47.7579879878989
44.8242050791486
38.2270557085513
30.6165539276233
23.6187060366722
17.2425666569074
10.9532421623896
4.36080413804457
-3.01890112601944
-11.6960219186518
-21.2676737118932
-29.8190236060639
-34.9375499188562
-35.6191485848603
-32.9440236918536
-28.7365205999578
-23.8551181820354
-17.9894670370194
-10.784246570715
-2.71840592709712
5.14414615995262
12.0440033076889
18.0074310534659
23.4168628312912
28.271602677001
32.094783115914
34.4304154530894
35.0690255147535
33.8743306729015
30.8421884412153
26.3694830503884
21.1470173236371
15.7959362904183
10.7616357597586
6.26926706560834
2.0145484108415
-2.8580114936537
-8.92709621291771
-15.529346894701
-20.9177927206821
-23.6042680794723
-23.5215085684427
-21.7906273262446
-19.4678012018554
-16.8352612848615
-14.0138896201131
-11.7035121467931
-10.5487631426621
-9.88299939687848
-8.06577078104924
-4.49592405393776
-0.604569986747009
1.7527803158185
2.45342242991143
2.95888758571962
4.16276000249299
5.18853715844236
4.7144725235312
2.95719202887723
1.57997194454812
1.69862094538742
2.74678337936107
3.49308627959708
3.34560357305539
2.14123525602539
-0.617261497832263
-5.42446079154789
-11.7879077730007
-18.0479065649213
-22.1870881075761
-22.9259442899994
-20.6319399505004
-17.4326950458299
-15.8451206927002
-16.531365278262
-17.2434671271432
-14.4416808738735
-6.6062981645913
3.79240736168458
11.9481229412045
14.6956247979822
12.8094770615872
9.47431040611109
7.13576556784147
6.19206233890903
6.04182162303198
6.39915904253621
7.42833864483832
9.1543319596011
11.2278308627769
13.4003213184271
16.0412999794787
19.7841185830932
24.5012566387746
28.9515624905907
31.6555592644877
31.8223907584448
29.2584104036663
23.8871297318554
15.9379274452843
6.52875246481006
-2.40317183801166
-9.07689993700586
-12.9562648935831
-14.9822952264539
-16.6978459257353
-19.0533061776522
-21.9535795185199
-24.6422948122945
-26.1976608801245
-25.8782324785295
-23.5672543485101
-20.0153857785282
-16.3353353150518
-13.179409318362
-10.5593148105396
-8.30156605074388
-6.31175862416511
-4.38819174462725
-2.08951129083403
1.05182566782619
5.20862628056358
10.0895376529863
14.9833319028784
19.0040746256089
21.4219833533078
21.8901429546652
20.4384831569922
17.2168131303644
12.274703501059
5.88816490183834
-0.797982930771724
-5.99623507720222
-8.66241109391164
-9.44054599677765
-9.89476114191234
-11.032427876128
-12.7431681572221
-14.2058680270466
-14.4504237820822
-12.8427815027591
-9.49262589983508
-5.26435406450007
-1.30957620492059
1.53925097166425
3.24922341239913
4.65143346918596
6.72446699827283
9.54394663781661
12.1277503987832
13.4525905803449
13.4072385613868
12.7140985767751
12.2117106516939
12.2678736834478
12.6178083467676
12.6571316926228
11.9815051038257
10.6293672842594
8.75905761734628
6.22805108296356
2.65124400731511
-2.10345061780316
-7.46836457151512
-12.2429760261895
-15.338338218196
-16.6604989562422
-17.0705980770346
-17.2319602627871
-16.6911623934067
-14.3962718671774
-10.0570970054206
-4.79882414618307
-0.380172455117099
2.39064034653986
4.52014290447743
7.79565793085424
12.6396755602369
17.2526676173403
19.1106611641526
17.0290149495121
11.6095248560601
4.23374895635632
-3.75143104867195
-11.0387449718891
-16.376060520942
-19.1903624298528
-20.0913074656401
-20.2017162208466
-19.8370152292589
-18.3537212033553
-15.4680495217629
-11.9925040332109
-8.86985643163549
-6.25389279281207
-4.11090539635482
-2.94469885557776
-3.08599926240049
-3.68615218338004
-3.1417115874126
-0.405668848387894
4.33618496743031
9.80435970141915
14.1015261738375
15.6425459110883
14.2989710851702
11.5590089440704
9.24216082497324
8.05840567514594
7.46254698493955
6.76317896962447
6.21198597705284
6.83836907207101
9.05870336662529
11.6077507676018
12.2587387930265
9.80154061933612
5.23842731705547
0.985349309584022
-1.11816386693811
-1.12859091835722
-0.508598273170126
-0.512522329318767
-1.21401222257573
-1.9140508061524
-1.93797661610626
-0.881172141699961
1.37503441065082
4.49483255021515
7.78550237905298
10.6824716230238
12.9841387028036
14.6199771068071
15.4584428152194
15.3774223350845
14.3700381790428
12.5854129144507
10.2439228271851
7.34962111187543
3.58805457458432
-1.15170728706972
-6.21243484317001
-10.5373382031182
-13.6090094579254
-15.7010183634051
-17.3600249621094
-19.0216441189174
-20.7832837587746
-21.9995091441702
-21.6333005381605
-19.9476959361875
-19.4608461811758
-22.9138901977504
-29.9622537981726
-36.6957340445565
-38.9149057518979
-35.5895890773863
-28.9951933235677
-22.055794292078
-16.104969969498
-10.8096893954001
-5.12821821910904
2.07189835214588
11.3390602643295
21.6143529029148
30.3739486612435
35.6829597804177
37.8328029606229
38.3086315718393
37.6044552598453
34.9067526694494
29.8061201292008
23.62907570546
18.762362330983
16.6076929029556
16.2042312631743
15.115499945658
11.8689154780264
7.26583287366954
3.11678828054821
0.199438116461718
-1.99144856657394
-3.87036638242308
-5.04426076797949
-5.13929247519209
-4.67019126389314
-4.58817903255725
-5.20137251047117
-6.01681841472997
-6.63332052002897
-7.25689396824037
-8.0657749238
-8.57467712966168
-8.17956724927326
-7.0379323179618
-5.84250481383456
-4.91097276425658
-4.00529838108057
-2.8779112820056
-1.50010114435348
0.150768734194821
2.0575387053327
3.82903709797747
4.69592522854486
4.11439429921627
2.44541577404226
0.821964699423252
0.0506074702189139
-0.213716389433992
-0.794729829994661
-1.70866653062357
-2.2985954635188
-2.74019977723257
-4.56515286800631
-9.06202012418675
-15.4609870945441
-21.2952829765791
-24.6369417228681
-25.5965946706125
-25.4505651423133
-24.7481253752764
-22.8958145131325
-19.4820864898488
-15.1095507580952
-10.4088267330435
-4.90951586803895
2.18070171457942
10.2540097811148
17.2495569297369
21.5205673490225
23.2188010969101
23.6199252114067
23.4502832235394
22.217407907951
19.1896265674383
14.7669851158674
10.5272151328495
7.8683125141842
6.95276757793415
7.08110764768065
7.59983181423534
8.11161327029727
8.26214640720509
7.93909566900628
7.62782552836768
8.10510118931434
9.5708372888302
11.2105873250991
11.7951129471134
10.7340076672974
8.41344748601252
5.55452015031989
2.62724675230394
0.0145962749000024
-1.79880660872119
-2.63770379974213
-2.87900088206166
-2.8871848598269
-2.53299781959088
-1.66483348067778
-0.752133381302663
-0.609345715050917
-1.61652692615843
-3.50848123580426
-5.76980847147323
-7.97140651517777
-9.84138964256222
-11.2539343275761
-12.2544129092064
-13.1836579682312
-14.6687089006469
-17.0277784769241
-19.5205497197489
-20.7516043213061
-20.2616676405033
-19.3224409473397
-19.6133443675188
-21.2344513636707
-22.4331572036299
-21.3166765747547
-17.5672966601382
-12.3673873388179
-6.93922520054886
-1.69256439048224
3.12028314379968
6.71627662215978
8.52312852996965
9.2393685131031
10.2733343084179
12.1479411324896
14.1692476023309
15.7461534362112
17.3792369080067
19.9855542276293
23.5247719371041
26.6588887529831
27.8252249461463
26.4841840742546
23.2621556862621
19.1800905735197
15.1499046586425
12.0842198794465
10.7584208616364
11.0876258924892
11.8373947297409
11.4703311865501
9.24108336012058
5.44122184832848
0.980875847690687
-3.00838786574653
-5.53014761108113
-6.25116037760484
-5.8753117257343
-5.77517042531391
-6.87422333499456
-8.78962280748896
-10.4036837007595
-11.4380104791696
-13.0368903685358
-16.4929835822212
-21.7645805696339
-27.4724047020881
-31.8297643200385
-33.278889608394
-30.9585222349069
-25.4304851403871
-18.9027593039436
-14.0398054652541
-11.9375264043911
-11.0813836955789
-8.63922724877646
-3.23193792278078
3.68581354664376
9.48826304134095
12.9762795365269
14.7198841449722
15.3875986928215
14.9611503585951
13.7125936338259
12.846468482848
13.4438271550132
15.1051381022112
16.1672608539433
15.3028150883345
12.7143890527295
9.72149233736254
7.39994639246192
5.96355784485999
5.42797639954858
6.18299403011702
8.33739145756582
10.8529761058817
12.0330063172613
10.95856217552
8.16352856918933
4.9439368764963
2.21846399210066
0.0124361476623896
-2.12326802268816
-4.28809028647368
-5.93126911221462
-6.4536725266326
-6.0432800694386
-5.78664773425175
-6.81952901495764
-9.20002652749019
-11.6454092600632
-12.6698105444244
-12.0360708662183
-10.7989581967244
-10.0145777903239
-9.90944382732191
-10.1754775394125
-10.2718097407679
-9.29991652210491
-6.33483396047967
-1.24039816156802
5.16785572237956
11.7594143862808
17.4812335964852
21.3206859256777
22.6131185980847
21.515862571555
18.6911108275308
14.5213440531708
9.16895736045478
3.39465222877702
-1.38206819010678
-4.23466606143321
-5.65632725209156
-6.94566886035295
-8.68903367169915
-10.2066803016046
-10.6531508527744
-10.2637803565375
-10.0638253007332
-10.5302446439043
-11.0186285804415
-10.5300947897265
-8.79125773056486
-6.6250426066077
-5.39460433987894
-5.94586098796704
-7.96369157341192
-10.365157617512
-12.1127473072015
-12.4583262039916
-10.858229774414
-7.34048088856883
-2.91103309332116
0.938972001907881
3.29727884878166
4.33299259359507
4.9181560142617
5.89989596108491
7.54714487861054
9.4492504760076
10.8365319315487
10.9657245265525
9.41775367599996
6.53443472276725
3.74645197009556
2.93172920690268
4.86557653903527
8.35851654029974
11.1802868294431
11.7606119858979
10.0382940383209
7.15304618136928
4.57206751353574
3.14617468122272
2.65766882856362
2.30599792535584
1.62154668575291
0.7705319913519
0.075403629627635
-0.439194369433313
-0.858767874291608
-0.886573408229283
0.0934085669449238
2.19471716260098
4.48361593294674
5.70409894047341
5.53319922030323
4.73067970005314
4.06985631872011
3.51738239835638
2.46848004531759
0.453612309918424
-2.3950423175912
-5.38847829896821
-7.87900181603414
-9.89847375843878
-12.0217300934016
-14.613743655984
-17.5071131284997
-20.35510288174
-22.8461047098533
-24.4690279917178
-24.454588113887
-22.2214036473998
-17.8636335652332
-12.1844843707139
-6.19052409904204
-0.335872854095511
5.74038984637174
12.4198681701277
19.0422158088683
24.0567344776571
26.3523019313296
26.1370497723286
24.4998308233854
22.4346969311486
20.3133427914658
18.0226693559274
15.4581076298275
12.8125629802441
10.3189013570665
7.8934518900595
5.3524364109378
2.99807454051802
1.7218149216545
2.24748845412633
4.05956827941233
5.16944877683804
3.52061588008042
-0.934593088149374
-5.86790791561846
-8.67594816205239
-8.69395178161852
-7.14810184549429
-5.56071617115355
-4.78377006441897
-5.1724774950112
-6.88572145456919
-9.71262133140568
-12.7644368859643
-14.6948784337651
-14.7273987764293
-13.7325584047993
-13.9996546001322
-17.5218629122718
-24.36198855576
-32.4726244619568
-38.6833891452098
-40.0608619765536
-35.3985373657768
-26.1685636661141
-15.7225680520149
-7.00522399506757
-0.888690951516541
3.55600794903991
7.78250859056412
12.9079185185325
19.4329630662184
27.0154876648567
34.3007655828644
39.3215504204621
40.5339193929315
37.7133412612262
31.9560488939832
24.9808608800122
18.4258045220639
13.3642333782816
9.99641029522219
7.7650303200378
5.8675333681148
3.52377692129811
-0.078216002535421
-5.33757938537841
-11.3740657905557
-16.1542106076718
-17.9578101289924
-16.5573133408859
-12.9467942271773
-8.34230661728915
-3.50257847975867
1.38696689152651
6.31940665627617
10.9161504177196
14.5272688973182
16.9776742978106
18.6459962784241
19.3999719438666
18.0276799647489
13.4274132473402
6.17612027002985
-1.54749567846548
-7.49778932042549
-10.6716499234253
-11.4813977344827
-11.0567699480944
-10.3851071869165
-9.93575961134757
-9.81492656632429
-9.88899108844611
-9.64575054330958
-8.22948993107462
-4.9237001649552
0.190186369487368
5.83821772550237
9.90470375375069
10.6965765081122
8.20603593152809
4.00253346428797
-0.191350976493017
-3.70903977332324
-6.93853092626939
-10.5081768166084
-14.5352342072068
-18.588763696976
-22.3251275579003
-25.719991959891
-28.2507344932185
-28.4743245869576
-25.4489320358382
-20.318934931823
-15.3842448578371
-11.6061026393416
-8.02884476797827
-3.71860864136461
0.822193780103015
4.64475929721701
7.96262662167009
11.9387141833219
16.914011352152
21.4215743417136
23.4051952950929
22.400615055195
20.1033306825181
18.5653441466777
18.1906400123316
17.7951498910381
16.2194245448554
13.4052686022277
10.1435401239335
7.26124264683078
5.07240899711814
3.4077665509946
2.08181584547126
1.17562104849351
0.734723106383312
0.414959551608436
-0.278112170395208
-1.45772935544859
-2.68739213128566
-3.24946956777818
-2.62564948173715
-0.966208899620486
0.92345464203713
2.27937662235722
3.01165939348644
3.50168948331869
3.92883895485592
3.9666399687062
3.04470502096078
0.851834510193433
-2.32308748487379
-5.73617367035249
-8.63159391660346
-10.3635841294256
-10.2544478894996
-8.0117118290152
-4.59188525088149
-2.06275553240942
-2.0014224387289
-4.16425817705748
-6.99075376554078
-9.12589502182977
-10.1394098377315
-9.98941085198478
-8.27244874610138
-4.40738948455733
1.25855620680003
6.87900081009963
10.3054082870962
10.9494538779652
9.99154843700463
8.74511782640453
7.34005481274601
5.05751144003826
1.46290402386923
-2.93746981513639
-6.91672105039053
-9.37236867427287
-10.0724829587923
-9.57728671585437
-8.57913178969512
-7.48950601016401
-6.33314853450678
-4.61887514082496
-1.6601278760105
2.35631805525643
5.81733027766719
6.85495189616201
5.12456660915503
2.02533922240281
-0.82970491504048
-2.99736524127994
-5.04828161676117
-7.41125337051949
-9.5854113718508
-10.3397448442826
-8.50513235554983
-3.68814130074539
3.41156864560257
11.1164487347322
17.4109500032063
20.9755264078637
21.8119264305448
20.7528524213509
18.4370061459921
14.9728452135535
10.4275388437422
5.20134694801849
-0.211256822173886
-5.60595279679389
-10.9779884228745
-15.982382649431
-19.7036110586009
-21.3328081935953
-21.0544822721836
-19.8253002301755
-18.222464475711
-15.9865311145374
-12.7316337231801
-8.45203181277485
-3.09164699309182
3.7184923874406
11.8486490698311
19.6926849853914
24.5493762169958
24.5064652352567
20.1643623999054
14.3170305456893
9.74658011729901
7.43688196745821
6.83659237201911
7.16366750933368
7.93018925634881
8.60667221676429
8.5090515250014
7.13696633777328
4.38668111344326
0.553518296964174
-3.61945763492352
-7.08723561415733
-9.057973213807
-9.43405831248041
-8.67614935645017
-7.41479574474991
-6.18993559195907
-5.24802545715977
-4.43633014486527
-3.42193127731283
-2.10276629450209
-0.840078708401835
-0.339281495769324
-1.16872033790291
-3.16089841426864
-5.31489032484542
-6.46605398855387
-6.07628002287402
-4.44878744018768
-2.44955165798757
-1.04783742527795
-0.782314982473537
-1.5088420203446
-2.79010028150996
-4.46216974246247
-6.63194315254766
-9.22182338270659
-11.6683316057207
-13.0136226839774
-12.4486576197849
-10.1336124626486
-7.36024661159423
-5.39477739501062
-4.16028907702026
-2.48340965231617
0.419209190153154
4.11814441688228
7.50781337673677
9.69558518617
10.4533992580271
10.2665980536513
9.94624845635818
9.89009704840236
9.75900489491014
9.00941944915933
7.56610750746165
5.88371935029047
4.54985090454173
3.8386060528065
3.46593770602253
2.8797156602169
1.98529039578217
1.41709777768808
1.86494829207481
3.24717892780508
4.69661062927098
5.2660871485512
4.60672399102439
3.13943538283301
1.7519784055927
1.35748602983127
2.51151385384692
4.96572733019413
7.42257848721519
8.33142832901545
7.49281630427413
6.4726673442432
6.8232974383839
8.23693703244585
9.07782766117681
8.41394958130333
6.79788178703995
5.17328485998533
3.73523427648371
2.03329629863026
-0.297169399308017
-3.228981217966
-6.57321964491579
-10.1995225162864
-13.9253807822107
-17.320452835987
-19.8428645028916
-21.2395093181498
-21.7427034573922
-21.956131229817
-22.6596223115572
-24.429969197171
-27.0008839340883
-28.993604342416
-28.5649467716591
-24.5193594196043
-17.140951474535
-8.38239695216413
-1.02274298389237
3.16276768949529
4.76262446885395
6.08247218433968
9.16242762517116
14.4790229059852
20.9998944444886
26.8237606068515
30.00072865803
29.5261707708683
25.9180047231231
20.7803253786716
15.7518562460869
11.739294799039
8.86974253982855
6.9490625828922
5.84858809741596
5.44291948477692
5.40286363999343
5.28593575310652
4.70962446569443
3.30488482090588
0.846367126326143
-2.24471405633123
-4.88515374877526
-6.2881038742243
-6.70647235324364
-6.84767466908188
-6.88047392706042
-6.44128240090966
-5.26955734048681
-3.37320424093488
-0.829673872580564
2.17127339882699
5.18972487754284
7.60003697726522
8.72442674034469
8.01848169211136
5.39540274245509
1.36384056169547
-3.29478011307344
-7.95485337807183
-12.2777795297747
-16.1388913635229
-19.4965720112288
-22.1390317612555
-23.4550619202186
-22.6119816669347
-19.180219843066
-13.6564601123924
-7.21594464969258
-0.736762172691304
5.80915261538648
12.6507106773844
19.0303907887707
23.3101886998552
24.4091316683144
22.7010782519595
19.3860542717442
15.4095613525575
11.149662929214
6.79189587857121
2.7423222414992
-0.298322802573742
-1.73668828268875
-1.71153026681451
-1.17739900469332
-1.10900607597651
-1.67821470894703
-2.35923378757615
-2.66106825165662
-2.55535336755455
-2.3436047281356
-2.2938674983899
-2.36097073578521
-2.26779110297598
-1.949045353242
-1.76663326588194
-2.05915722341763
-2.59331340849474
-2.79142424632705
-2.60729417094621
-2.93294527061183
-4.75166989038138
-7.73990647125013
-10.0550202315091
-9.9558371970366
-7.52096029994834
-4.34025216504533
-1.65860653672928
0.56187864260772
2.70925605127666
4.32586224596776
4.25546656174973
1.83153696582091
-2.26456581860602
-6.38165306179455
-9.22906896121148
-10.8179192687584
-11.8995564061761
-12.5360052175201
-11.6592854016192
-8.29569523201481
-2.95580247209714
2.53482872526992
6.54356377570631
8.77221012535874
9.94044700940815
10.5946536189089
10.5188827715926
9.39274087978309
7.60972430025105
5.93367059658369
4.56085283275954
3.13898561669677
1.60408003094571
0.365480978716648
-0.323488846310977
-0.661504357720422
-0.937002296955611
-1.11077305885074
-0.598485927535464
1.60814238606411
6.07811039730207
11.8125457040792
16.354149022239
17.5476943503201
15.2913322068117
11.5171392427166
8.52782958343252
7.31971152542636
7.29906478839058
7.31439816826802
6.7059755096521
5.47586829219791
3.96820363848338
2.65266321539677
1.88885924438707
1.5991903226088
1.27962246367921
0.388808247132528
-1.38783731051338
-4.06096764553234
-7.1595595639561
-9.78859479348333
-11.3294291187595
-12.0387151277536
-12.6297398550151
-13.4953789971315
-14.7499133937387
-16.663243956922
-19.3844188213495
-22.3590906401911
-24.5720554617395
-25.3629842402902
-24.6653922427817
-22.5288251505934
-18.8340836416514
-13.6691619163849
-7.74174234765219
-2.0334164505575
3.03364372824952
7.80070034504334
12.6155433581435
17.1249443206116
20.4083244213788
21.5206139814019
19.9242271407327
15.9263304304617
10.8570470810592
6.31884398054549
3.04082304333331
0.822534399382822
-0.410858710491976
-0.132890203708975
1.9056812164513
4.73579122800402
6.5973223363447
6.42707549962703
4.79101785843649
3.18809835521853
2.47281930041933
2.20064173291376
1.55445357570603
0.521260930574458
-0.143530536558618
0.148960231747516
1.28454738417596
2.7125070426918
3.99750407607831
5.22764345657429
6.968768656938
9.58714494127058
12.5936555799394
14.9216170519368
15.7735287369252
14.9358210912429
12.5558325931168
9.10649076351843
5.43660604362029
2.40975591334457
0.433988800862162
-0.581004145481484
-0.990061711501924
-1.2454749507718
-1.77856243275421
-2.9146638596932
-4.93764290612314
-8.21387395672032
-13.1442385392062
-19.8144043533331
-27.4317041905917
-34.1458235025444
-37.9700547417032
-38.2264369671711
-35.7687203060906
-31.6085959354441
-25.8058348049258
-17.9408684760908
-8.13317178464599
2.71259198086072
13.1326384984746
21.2502816818419
25.3415654121274
24.9607678895143
21.4182356044376
16.8438007935259
12.8546321999192
10.0941937656749
8.58497590632093
8.16507527675532
8.60821888919895
9.43868653391022
9.83586181277126
9.03954367813517
6.92772317704526
4.08735119101476
1.4505388453046
-0.0422517135342307
0.146860454211004
1.62475745922961
3.11557207175517
3.37497503110718
2.07683845809541
-0.129744387404195
-2.17601601642514
-3.26106326965583
-3.3515494585353
-3.06559954239435
-2.97200618378207
-3.13942953177597
-3.34019524385689
-3.30731019730877
-2.75085938251675
-1.55865287195458
-0.0878650035302617
1.02386302967274
1.30744236838332
0.540527850314517
-1.33720655904862
-4.00008688791784
-6.58269310940706
-8.08750284015084
-7.94107399686901
-6.16016316148476
-3.31766449863614
-0.468591475390645
1.30826122896775
1.60609339610522
0.801274702438684
-0.533796884028553
-2.05203231796996
-3.47112862732925
-4.36141124127743
-4.35048447050141
-3.52720097285003
-2.47346825370907
-1.66685897508994
-0.849568327671452
0.711477946576887
3.27054975505099
6.25682172566694
8.94634996512926
11.021986825871
12.305781615767
12.4370714516792
11.2022387872445
8.99655185289182
6.7018086839851
5.09850194754805
4.40069194184077
4.30769442877454
4.44608363121352
4.61915589551575
4.61502444060124
4.12868757120368
3.12508806071556
1.98130088199892
0.966653978241191
-0.190174656382549
-1.93331974442425
-4.23006098598908
-6.51476522361682
-8.22465838741768
-9.29656763048644
-10.17218770936
-11.2721212359368
-12.3697599917409
-12.6264750617781
-11.4468124259844
-9.17693378314144
-6.81271885349434
-5.24720502439169
-4.9256688598374
-5.80616196475608
-7.27862074383779
-8.36052400777926
-8.35679686123261
-7.36760725491588
-6.09750104912178
-5.23866127892416
-4.99266476132078
-4.92547736502215
-4.07101214767144
-1.31189275613537
3.81475513187153
10.225636755509
15.4305044073253
17.2799546955515
15.8298284932305
13.1256614284876
11.0983272121287
10.0485170448705
9.08368473303948
7.40939693081183
5.04524894624513
2.73434764571658
1.40397086757571
1.57810552365727
3.15436429524403
5.54627457453257
7.81653255584918
8.85675243374697
7.96722888605814
5.44805791112783
2.39162199922098
-0.138164216471544
-1.59725812302914
-1.95296992693615
-1.63438956179004
-1.31554655623182
-1.32511917621609
-1.35514692275784
-0.947259942983342
-0.039631783797249
1.07802715068151
2.02485660038908
2.42772456553082
2.0626948137282
1.07371889106146
-0.0084243546687108
-0.592903527220013
-0.746143152908709
-1.88813964600035
-6.25028903278673
-14.7341382463955
-25.2870188909385
-34.0628984694523
-38.3076557017125
-37.8170356348399
-33.8891733809545
-27.5479296566486
-18.9595441829415
-8.28075971132138
3.27346025604162
13.5579601173809
20.8332382432066
24.7546457795895
26.0029790879308
25.3744750604376
23.4180949822231
20.5160032360639
16.9567548826965
13.0865827593086
9.51572263237394
6.9647395330374
5.80359354846875
5.87221065127439
6.69732559530286
7.70902172851809
8.40758604030698
8.60143392175106
8.4243034071853
8.02131741243416
7.37082256193284
6.37548845243957
4.83518430150803
2.4191348309612
-0.941701033488828
-4.67545837614808
-7.91044424615569
-10.1405300989267
-11.351550122029
-11.6820954916963
-11.221330547128
-10.031407252663
-8.15731097123598
-5.55483002782214
-2.04304655226572
2.36046828387594
6.57819288512235
8.15658640086894
4.81929267376613
-3.12396750624753
-12.3860594242495
-19.1609990602501
-21.893242567119
-21.7093219293149
-20.6005330289495
-19.4334555959167
-17.5306263837903
-13.7529092738393
-7.56267215198386
0.876399749840107
10.7788537421755
20.2848273995243
26.6037215846451
27.7725834386302
24.4002299074782
19.0950628370505
14.2134134248472
10.5359095926854
7.73256773202955
5.3456802943017
3.2460163663841
1.50328606403142
-0.05614001053471
-2.09070429716145
-5.33679191975077
-9.90813627045364
-15.0638800213148
-19.6051389324437
-22.5102555474798
-23.3703106305249
-22.2330805354832
-18.983918152169
-13.2311838145232
-5.19403022468463
3.57341379621195
10.9350714001045
15.7457954721446
18.4397648853647
20.0594949448173
20.8569751880385
19.9569219351188
16.5456700175342
11.3569062825441
6.54542761019813
3.82986793981749
3.10319479437805
3.08388448865912
2.81758487529296
2.1227059837168
1.07803604161676
-0.184820033754705
-1.2514474939746
-1.55266838389188
-0.928518688232711
0.0493216852540258
0.373510702975012
-0.694300276160828
-3.07163574164168
-6.00106373472892
-8.71427022411086
-10.7935925033658
-12.008637983626
-12.2223020695106
-11.5310952641109
-10.2014821075561
-8.42898214273029
-6.31503479591037
-3.94711235968794
-1.32720033815922
1.60752347708059
4.72659521640376
7.57547141828845
9.56756872333374
10.3110401187536
9.93613069048416
9.16342673543448
8.74466287922099
8.73027319514265
8.56732602196235
7.85183145134124
6.54714126673468
4.5737382367286
1.7985532024629
-1.44495922006546
-4.22066582107043
-5.54984998278224
-5.10835463492925
-3.57741976268032
-2.39443738506365
-2.78849258456759
-4.70663243555459
-6.78364380344846
-7.53830082343984
-6.53094208630876
-4.43749462672742
-2.38202123288506
-1.28324300510435
-1.417419450766
-2.27839345199811
-2.98131001331946
-3.08238843643012
-3.116862641827
-4.16134022427947
-6.57714835543874
-9.24410010438026
-10.4462500381814
-9.5750789728913
-7.56441814344065
-5.64407080389203
-4.17847702236524
-2.80647261690553
-1.2001037310593
0.508878011850373
1.75675856834964
1.94561645892165
1.02289783386209
-0.336270390660098
-1.11218455128823
-0.311769705750883
2.80726745121339
8.19931001994976
14.5359172022026
19.7033327567295
22.0571783562454
21.2025239366538
17.8575963517156
13.2812778897941
8.60138304537179
4.27947475378583
0.169501966075684
-3.87301169702473
-7.60486927094293
-10.5748473593699
-12.3591297242297
-12.6076621185951
-11.2192735379657
-8.5530736589303
-5.29578022536801
-2.19219758392317
0.148060204934705
1.72727115501044
3.62543742263877
7.30665130340275
12.966639287634
18.8767678259482
22.6134837973142
22.750397652497
19.4690072584192
14.0474054754612
7.94843549235826
2.16276648881231
-2.80276268502866
-6.54879664326387
-8.69491676132045
-9.17817784443988
-8.44858386005382
-7.35109628007266
-6.77242560466048
-7.10441359377399
-7.90535969955664
-8.19183764851971
-7.01882688810178
-3.9202758348958
0.443066200711075
3.70340657801802
2.83512445129266
-3.13983043631771
-11.7451283488512
-19.0374417524237
-22.8578426002918
-23.8259424331492
-23.6587018299229
-23.1475384887574
-21.6261540333475
-17.9948774186065
-12.1666517500585
-5.41762100009508
0.727510310641008
5.54822180432967
8.85364419685767
10.3382653912945
9.87888926274882
8.13819067751703
6.30830969931411
5.38157525849556
5.88498699468545
7.93464364697184
11.065554871639
14.0715565483832
15.4579901432708
14.4586821476658
11.7259222191548
8.84713598352104
7.11316729189244
6.9570202666155
8.40660361289803
11.2625073436388
14.4886101334447
16.1669653693472
14.6954887181793
9.84345485571159
2.5942773781771
-5.50612743992092
-12.7563637127507
-17.723761949228
-19.7713026445782
-19.2498362735807
-17.1951916855285
-14.5992968715143
-11.4427901514794
-6.46584293235157
1.32443523540521
10.616749533231
17.9933349117313
20.6966775190313
18.8257299717689
14.6008460661251
10.1102285658714
6.18283822937797
2.86534435107521
0.156941250997072
-1.96272843780588
-3.87367785807207
-6.14317697962747
-8.80406075880546
-11.1165472747536
-12.3087956018074
-12.3116679395582
-11.5524312586272
-10.2972327969632
-8.43087484448465
-5.7452507775599
-2.405717850421
0.731552197077372
2.44658710556039
2.11725683691453
0.28724132439895
-1.84497650469578
-3.30321413692858
-3.7440012913928
-3.46565154291882
-3.1098716254453
-2.99034201306986
-2.6849641077084
-1.48481060635658
0.989511049522914
4.78002523371287
9.6053478128414
14.34520227069
16.9545675910105
15.6419042245558
10.264583605831
2.46493738606565
-5.38465316461305
-11.4408724768321
-15.1711034113936
-17.1849184100656
-18.1571134398213
-18.0222426698747
-16.3589533127613
-13.0313294312545
-7.92436807927876
-0.559009193952263
9.11922631586039
19.5019551130644
27.522448722402
30.6201583392835
28.6520187171461
23.8194824896782
18.6461665833553
14.0533613991467
9.36684478247303
3.80934242216061
-2.39816212861727
-8.19676109242848
-12.5202391803982
-15.0488996195402
-16.3927946902783
-17.4084829701677
-18.2772707050044
-18.5224957255908
-17.8057985963054
-16.1184276966179
-13.1998140276235
-8.5293934656172
-2.24251550525819
4.43592549118415
10.1422273138302
14.6464897273255
18.8392722350949
23.3248176252637
27.149651375042
28.1424464970916
24.6325917523249
16.7937215626208
6.39936519829548
-4.27595775500032
-13.1007991877789
-18.3751031915365
-19.5291858556977
-17.7516510010506
-15.3812400950004
-14.220673748901
-14.281719991304
-14.100946856421
-12.3059973655381
-8.95120854982852
-5.35618166231672
-2.80664588501679
-1.62735860421167
-1.2880052065951
-0.911852701531249
0.26792929951964
2.42817238094351
4.98760600123107
7.1324336582624
8.47678345966625
9.17185493434445
9.70891772479368
10.723141728428
12.5244972296442
14.5840940315731
15.7841303713506
15.2776142675773
12.947196928068
9.27130341339271
5.09500763641587
1.22204628714461
-2.24147359069984
-5.89900378158175
-10.0158474451759
-13.7662529313761
-15.9596452142243
-16.2457471132091
-15.2628948190018
-13.9383133837488
-12.9573129285758
-12.560547383511
-12.515569893747
-12.4272374268035
-12.166032491415
-11.8859257994767
-11.7283323341785
-11.6534596253869
-11.4117789122378
-10.546423806046
-8.49540866631484
-4.67960516345677
1.4847416408804
10.2461544860808
20.7656948522093
30.798771310053
37.5198510500804
39.0510207036184
35.6298998065405
29.527654238761
23.5197148738536
19.0491928609566
15.8616536362541
13.2224449595998
10.8979551757487
8.92803170827725
7.17320534824056
5.38550539153942
3.31077019932477
0.648141571191879
-2.69443129736038
-6.3728159788021
-10.0801716188425
-14.1144589127026
-18.9129996304743
-24.0378455027832
-28.1735058501031
-30.2799235512997
-30.4065482079822
-29.2738902693483
-27.3743820473347
-24.7403644806657
-21.4730463124742
-18.0254793606629
-14.5477207800342
-10.219786245549
-4.00237265736799
3.73421018044872
10.8930741817468
15.3354417855329
16.6968927620526
16.4123394989145
16.1139252420144
16.1357494427727
15.6609526123662
14.2957066658929
13.0603636001925
13.3848957986861
15.3990074960756
17.7316745613235
18.8131947667287
17.9964928593776
15.7810095794874
13.4367039084169
12.0592982803263
11.4426855637088
9.99081342850956
6.03247416288375
-0.777427342276317
-9.21555659244193
-17.3231302567833
-23.602520696618
-27.8417023794282
-30.8745290246347
-33.4265970814264
-35.393853426414
-36.3630178592404
-36.2387283519815
-34.7475558480633
-30.7869536157573
-23.2322215728201
-12.4911252229498
-0.620783073740538
10.2831220217067
19.3532635276398
26.4530283428141
31.079804427888
32.5775667838844
31.3784590450922
29.1668461978733
27.3346119100119
25.6767706660249
22.9496990966643
18.41360169934
12.6466701139773
7.16940545629314
3.34004300080004
1.25998252146425
-0.224473713381482
-2.10112877396178
-3.92076313729033
-4.31966149767534
-2.6442923329108
0.19946649455716
2.21759448079421
1.50841402523893
-2.40480661269149
-7.90799625337236
-12.2628697513207
-13.7376591963318
-12.9044964512166
-11.8422091006477
-12.1471451682439
-13.6815570322152
-15.0695179924001
-15.1650496791448
-13.7121404039812
-10.5161194184044
-4.76091744549884
3.79258317313401
13.0987555536686
19.6268987790257
21.4493495525538
19.8541970684904
17.5080266783272
15.6273469753137
13.4043773502746
9.81354891900819
5.37724574953945
1.93697459709992
0.861817698534233
1.78388299246943
3.04135213918329
2.90718346450324
0.355609505450333
-4.62258615620827
-10.8970779552634
-16.6713063650444
-20.5351771481391
-22.2025914330708
-22.4284468857734
-22.4069043685961
-22.9737233188254
-23.9680355528765
-24.2842163565148
-22.5082584356933
-17.5357896934009
-9.26887005925348
0.499146072901022
8.36321143476194
11.7647713613891
11.4788015544903
10.8696788514629
12.4268050486905
15.6514300896537
18.3842077495893
19.2162220339222
18.1119201967205
15.5630434144917
12.2078876238179
9.26014859572352
8.44181439840915
10.727618853787
15.0749854504006
18.8783546067178
20.0173847902167
18.3129577811978
14.9760355456254
11.1701943157649
7.42106836526231
3.93573586635044
0.860604248330116
-1.84068778072181
-4.45903981017938
-7.29676868201964
-10.4343128353243
-13.9349024546776
-18.1200838490539
-23.023041163163
-27.4223500474645
-29.3154321745732
-28.0496316799438
-25.3406124314184
-23.3286387347312
-21.9590354670279
-18.9846126552786
-12.4379730599671
-2.75292440512036
7.33260880608943
14.6480483593246
17.5120752217852
16.3207560919246
12.9062237018262
9.65453159882209
8.61965135598104
10.3750433348155
13.4823582095408
15.7509360948445
16.219783468449
15.4650983379675
14.187545647916
12.3778546166089
9.89535093418625
7.00055338638039
4.07995836226413
1.37285704948203
-0.958383266348738
-2.9276991247375
-4.94542761965279
-7.6082568657398
-11.0953425284072
-14.7693480455219
-17.4864238616865
-18.5380467602642
-18.236384672814
-17.1511351009998
-14.8232449253985
-10.0016556037298
-2.50364817869678
5.76275194784919
12.167529031227
15.5913456719219
17.0580898419921
18.1974072877647
19.151697589874
18.1098190686332
13.0909872303658
4.17080546319511
-6.11493920890232
-14.2981429687589
-17.8488764361538
-16.3639145206229
-11.8642522561377
-7.73146800123373
-6.24265202267821
-6.48317624603579
-4.96672228485742
1.13665024645612
11.0912479777385
20.7566347299656
25.6221175489825
23.8688789627559
16.8298256748561
7.11341443435392
-3.06906346435202
-12.0132111083537
-18.2424506031894
-20.9541741250308
-20.5174264369916
-18.2637188010662
-15.8312527995811
-14.2111372187002
-12.6998808805254
-9.13673590854031
-2.14996399011929
6.82427456792843
14.391432703807
17.9550364211583
17.2500215193479
13.6689318503412
8.85447498543636
3.81607619678588
-1.20577264565543
-6.25238751128166
-10.9462404838987
-14.1555863917307
-14.3342619152788
-10.5222747357244
-3.41566139612749
4.69699824012414
11.4052123328808
15.4653253853654
16.6942146720876
15.5263154005253
13.2828673809455
11.9103182184611
12.2136786401151
12.6847658543192
11.1409642917088
7.42144415973691
3.64543732826249
1.83171817647491
1.83724566451863
1.64382157365526
-0.654625546410206
-5.14452883934373
-10.1727273231043
-13.9370775999
-15.7734069320956
-16.0302398320418
-15.337754153611
-14.2759222349316
-13.2113956072928
-11.9624413274697
-9.81471543229947
-6.26154275445938
-1.86056751057589
1.70829417114621
2.6721961225017
0.537916594658652
-3.54725191153305
-7.85037088498369
-11.1851201222157
-12.9339261462328
-12.681027957463
-10.4810141814985
-7.11800623994786
-3.42988908566264
0.560362840542138
5.44917978011707
11.4356890194753
17.7849508235052
23.3506718412325
27.4471598407631
29.9987580519658
30.8286941054771
29.2240334337816
24.7452778534172
18.3709270315538
12.1621933501442
7.57153560521531
4.50658947338371
2.06960296955488
-0.386627658907508
-3.05523277679398
-5.95883205635926
-9.13353928887394
-12.6149891223302
-16.178126735224
-19.0939151251229
-20.4932777053954
-20.1132178381898
-18.3911612285289
-15.7923576557144
-12.4828282270327
-8.83042009071048
-5.79377636604387
-4.34378922941474
-4.46197411038988
-5.03019538182273
-5.02816443210244
-4.75823316232259
-5.50485780411578
-7.97547084238832
-11.4636986932974
-14.4380623552468
-15.3763094088391
-13.1909087144386
-7.76859867943461
-0.354120414083803
7.24319210374851
14.116218604902
20.598487267682
27.085575855382
32.8524508392431
36.1001802191026
35.0960189493299
29.5750282050318
21.2880052725089
12.8761698683256
5.93918738765587
0.395596455192842
-4.38677841334324
-8.51511085876867
-11.7862858215767
-14.3430647773795
-16.7031094635903
-19.2122097599751
-21.4344097970064
-22.0230945412513
-19.5000293074414
-13.5064582115633
-5.41465334556151
2.15866883097434
6.58561576613131
6.7658220417487
4.07482993262272
1.48355128380069
1.23102071170106
3.35758444005107
6.37653627586592
8.85542900051044
10.3506615389468
11.3655280888245
12.4888398086912
13.3094768663424
12.4374291266982
8.97221447112236
3.65331955342441
-1.78884214812191
-6.0872715319417
-8.97499047729434
-10.7576666547958
-11.7860326579388
-12.0115196742486
-10.691724001176
-6.85799172974516
-0.526969489351833
6.54929404810558
11.514371950819
12.0653987701594
8.04584178461238
1.7337559529538
-3.72576712474614
-6.50288252412829
-6.82388397313516
-5.96211071835933
-5.02983557389821
-4.62239928838168
-5.02296120744127
-6.44392480020093
-9.06859220871812
-12.833071411781
-17.2264417986659
-21.4069214140742
-24.4404994044504
-25.4667394955659
-23.9419938703871
-19.7335768197756
-12.7093165536399
-2.58713057208064
10.0807587453456
22.980951015191
32.9802638255048
38.1423170920348
38.5117729776483
35.372135290146
30.3641494899244
24.9191306101671
19.7918549571197
15.1525630930262
11.2854306375539
8.73559623060356
7.50107266873749
6.59456640692808
4.76861311943228
1.36569091631996
-3.58794516950498
-9.51951504707411
-15.3009212831951
-19.6373990286333
-21.9262684403827
-22.7163339578941
-23.1620746347331
-23.8234664663739
-23.8595610726301
-21.6102302179934
-16.2279941359766
-8.59975107781906
-0.596992448503166
6.18859598615159
10.8682269355928
13.0648246761023
12.8483937172359
10.8048391596422
8.00386647320284
5.74419455998851
4.89945455985005
5.26235893128763
5.88894950014041
6.38891832153327
7.62626106169265
10.8933720598234
16.3656764459578
22.1811204419834
24.9699365706257
21.8241138446361
12.3864054831627
-0.803237772068188
-13.9840247567456
-24.2748520402646
-30.7369873638847
-34.1242929144258
-35.6655156975218
-35.7263501786479
-33.5729012601699
-28.389850513736
-20.148975718938
-9.52372609542481
2.20715946171504
12.8736928176645
20.0350763553084
22.6796835602565
21.915569715863
19.6854258661625
17.3075121080728
15.3080610557882
13.787268836974
12.4401227376906
10.6220501705884
7.84162914525108
4.27089126352758
0.760213984560151
-1.73979756137206
-2.91072553665351
-3.18042227888627
-3.1053813568589
-2.98231107609547
-3.24676015678572
-4.7431496563051
-7.97643325771888
-12.0716264426462
-14.791329199557
-13.8363130260468
-8.40966292117034
0.241346504344204
9.710468581501
17.6683640980683
22.207935665357
21.8211131099043
16.2346746245926
7.32482744968159
-1.77135838904586
-8.83815680276893
-13.5296165656389
-16.4608489463126
-18.2603307295772
-19.4385103502185
-20.1423844176214
-19.6807152473873
-16.8645614648783
-11.115378267866
-3.19699532145337
4.84670911632554
10.3783636432996
11.5427106038925
8.73492062488604
4.67037092167066
2.59162392348877
4.08576568205085
8.28178226362874
12.8290333826912
15.6442581441742
16.0043327023807
14.4307691079221
12.0141963295985
9.84208754775106
8.49283242847046
7.76814591404397
7.1857134317243
6.74379156898555
6.80083775235437
7.34515486511936
7.97946724783947
8.51947857153572
9.00225247724794
9.22432743428999
8.86764224107754
7.98821727167505
6.80866711496829
4.9654258326789
1.33450825120262
-5.22640517474764
-14.9468617844878
-26.7678968983671
-38.6979237183341
-48.5878738443021
-54.8082367292016
-56.6007499055369
-54.2612293563933
-48.9712086667972
-41.7748130748147
-32.2912709873064
-18.8819988911066
-0.675272582582357
20.5216849818442
40.4042569529942
54.2951519894913
59.5569014287653
56.6524113526605
48.2564759605355
37.4524727791998
26.7046133631033
17.8559833261751
12.0265252735783
9.16416924941524
8.21302048749821
8.04528954738115
8.0678967209966
7.90803622566181
6.76002280507712
3.26970592358497
-3.65108784706805
-13.6376600870152
-24.5915275862447
-33.745948481955
-38.9949714497702
-39.5916777129266
-36.3975624476558
-31.4517225529842
-26.2843455963851
-20.3244385841129
-11.8265711430848
-0.722132098482539
10.2982569269912
18.0085511672421
21.259839611612
21.0338577471549
18.8123367562402
15.6883624268217
12.6151224404853
10.6106849605628
10.3413628782619
11.5325835724419
12.9652465215475
13.3404005050763
12.257171032828
10.2545405540738
8.05232105205668
6.04737749011957
4.4259214380527
3.36149647767754
2.95825057920597
3.06591176720723
3.1932462960077
2.72129188449483
1.2913689497212
-1.13042766502871
-4.49953193879214
-8.60842712241185
-12.7875977485897
-16.2490437921674
-18.7447232149734
-20.2844974592998
-20.2851163919716
-17.8299900554102
-12.9261043594219
-6.82460274201254
-0.898970777850423
4.24433059514889
8.30861997816721
10.5038171583721
9.88266805940622
6.66104196125425
2.77798324354612
0.521707975874652
0.467232437319784
1.23590904816702
1.46809185888395
1.41737298142365
2.17374255306452
3.89789932118091
5.46026948216132
5.56880900423751
3.88158543851656
1.24453668672606
-0.983010904599863
-2.07743493064605
-2.50170343648589
-3.18535404148228
-4.44670228914868
-5.87971010375591
-7.10333812877669
-8.25633847493831
-9.65193563577439
-11.0277060316011
-11.3514065555905
-9.65297247642101
-5.98645397763815
-1.25122585446386
3.72215566724959
8.33610079203833
11.7224851377233
12.9305399224155
11.6938033555387
8.47316364041396
3.88061762873514
-1.39422645263391
-6.25392393034181
-9.32610974752998
-9.55569172383206
-6.7922923573769
-2.13911991845497
2.46312948870186
5.67101897747588
7.80502551885093
9.93424400747405
12.0241639647754
12.7834738906124
11.3988538222672
8.65516101323226
6.12011267580309
4.71365327845241
4.19998764654836
3.71330329478517
2.62655042692255
1.03418798507453
-0.447942809846912
-1.14920332215273
-0.633568107476906
1.05992137444624
3.25970027927183
5.06018527332729
6.05038382477568
6.42431617738095
6.39878461891921
5.86393986513799
4.59677789125089
2.51694638069911
-0.285589571346811
-3.66954705813055
-7.67159932898801
-12.5109560091275
-18.0169467172694
-23.1070157214836
-26.25805848544
-26.6058423960214
-24.4939224141207
-21.1401089144521
-17.8262376870919
-14.9267584946009
-11.4229902609597
-5.83927933783192
1.84924271500859
9.48337547851364
14.2972184967951
15.0982437823763
12.7302450878628
8.8255748637175
4.56978319448243
0.493276306706378
-3.03353446302618
-5.36341357167073
-5.64578821369517
-3.27675345567622
1.64487355333089
7.97818384514673
13.5858593775065
16.3203390234685
15.52427298085
12.4375863580342
8.98212592967512
6.42230332928985
5.13271468737005
4.97283334044735
5.53157289896398
6.31956788839934
6.97996471365401
7.3655348715276
7.62462539164797
8.24549451059228
9.60124037904664
11.2807448800357
12.1868785846573
11.3350754075796
8.30188559585638
3.15355781653933
-3.54241535573095
-10.7455954561219
-17.3979766115526
-22.8339948752599
-26.6608683675264
-28.5269525210235
-28.1679754954553
-25.4698264729005
-20.4631883836033
-13.4782840358548
-5.20996987930586
3.561516164067
11.9762230563274
18.5461818774114
21.2755651719328
19.1680992557413
13.4668970276512
6.88160124482762
1.67232679349676
-1.40365462255252
-2.79325478419322
-3.28947131506816
-3.29325646816306
-2.54423410485997
-0.43104042834485
3.34558616177823
8.13254955877227
12.2108298988718
13.7109938766563
12.0489113571267
8.28214074207631
3.88277862756215
-0.449835768428706
-4.6586721421193
-8.74400082063445
-12.7778871603123
-17.0717656606886
-21.9027065572756
-27.0406540671671
-31.2819732106713
-32.2732513451617
-27.6012284484828
-17.1489931601978
-4.33590944104249
5.88096489502726
10.7516979267301
11.5260636476301
11.7529911683072
14.0815860756465
18.4817972340791
22.9676493355404
25.6125685920028
25.8274608869092
24.124013194177
21.3509929246565
18.319943059635
15.4806803749437
12.4798378417131
8.44368544941395
3.13070121281237
-2.36934172935719
-6.33926577394513
-7.88876735985998
-7.79487225151056
-7.86327655868929
-9.23013612302744
-11.319937816241
-12.6656337570942
-12.5374244982807
-11.4865770723892
-10.6434927140851
-10.9217908177693
-12.5949376303128
-15.0892663495285
-17.1499203780685
-17.3763623375601
-14.7124994827857
-8.90309530563677
-1.03514707543359
6.5906996572922
11.7550125581406
13.605964385107
12.6986385987203
10.3675597938
8.35807157416799
8.2434786358972
10.274499483899
12.9211611051997
14.0690327093093
12.6706484862274
9.21023521652177
5.05249519816654
1.62104314250059
-0.223641025019053
-0.476330163217294
0.239267743093897
1.14811004160105
1.67356935766566
1.72141441633914
1.78798850215719
2.48305299201734
3.80666998767054
5.0770239397047
5.53106990729948
4.83658234747349
3.18972609862288
1.1010064416186
-1.06641510495003
-3.41022087393542
-6.15274299618311
-9.07877750710751
-11.6600721870069
-13.7617144362503
-15.9635019197588
-19.035162670059
-22.9498453065067
-26.3209302046902
-27.1892590886575
-24.8154009242619
-20.4603843756723
-16.0200637492447
-12.1795821932904
-8.17670104860959
-2.94036352164359
3.75861170263118
10.7478607815736
15.9161078019323
17.9725785833985
17.9592039962069
18.2587315276799
19.911866377928
21.7353519261494
22.2112243692256
21.1592847145251
19.1284706887481
16.1561541738725
11.9115155850994
6.66150233929172
1.5172743911936
-2.31922502935948
-4.42910112194478
-5.25628199184839
-5.36994195753441
-4.86621763458319
-3.58927523156653
-1.64338141840967
0.548456726928345
2.52629454219764
3.99922783198685
4.88143407932967
5.15854324805978
4.77441701234327
3.91147164598675
3.27445095468177
3.42929145831019
3.6719411691339
2.22770378122812
-2.02483309598007
-8.31517022901795
-14.4672511753776
-18.2845541865068
-18.7393874800919
-16.4760004709959
-13.1861976770809
-10.0810406705882
-6.92495413412588
-2.70624997365849
2.87895690801238
8.69679489428451
12.7500319186854
13.5507280580491
11.3113657205204
7.8503002532115
5.07829128677987
3.61025883692432
2.92633382809334
2.41478389405042
1.82798042236876
1.08681205192618
0.184510911424559
-0.76090574028965
-1.58779320284156
-2.20293837746692
-2.63527307464709
-3.09701688414216
-3.93611194512335
-5.45030476402829
-7.77760844380252
-10.8320956609597
-14.1892518811771
-17.280312528011
-19.9136269563398
-22.2349877705285
-23.9283358878159
-23.9680856714029
-21.4911800026358
-16.4024782863063
-8.87883890603769
1.02612237766517
12.7853911171912
24.7505048726292
34.4232926324607
39.4268024856737
38.6647702278367
33.0985904220687
25.2196119369516
17.2802459133683
10.12937699135
3.90715022832447
-0.788053171589617
-3.14364682577395
-3.27438148834008
-2.45542304724407
-2.10488752219247
-2.69724369387015
-3.62116623399457
-3.99945522496041
-3.58598796598055
-2.7844268621463
-1.98451841540107
-1.25533942673103
-0.618117462567822
-0.232803160429146
-0.329191034703567
-1.17088508632148
-2.92039366844982
-5.35341995742493
-7.90167453886543
-10.0484330498549
-11.4897030576992
-12.0773876794322
-11.9434415266257
-11.3866009464447
-10.1736928499471
-7.28433832629674
-1.91245868637056
5.40633664151256
12.8908291681664
18.4346408651732
