0.900127921368673
0.586639588583917
0.314206003109156
0.0236300260017265
-0.245981776645758
-0.481046711915023
-0.741328484209819
-1.0182179219278
-1.22356248841103
-1.32499567513939
-1.33051176794965
-1.21362035067046
-1.00464720760805
-0.830567016255791
-0.745185943855605
-0.664899805616204
-0.530901659065671
-0.371393297393448
-0.191051730401066
0.0371313918871356
0.286423966407067
0.519585757412551
0.760701185541282
1.00652531278683
1.15958121668957
1.15354331677963
1.03522213806743
0.868424248859312
0.707555972990184
0.668394490150835
0.824760162068303
1.04994947688917
1.14421733871655
1.06343656352505
0.888558477468728
0.695256602982648
0.559004854842801
0.532753211173831
0.550358274876754
0.487462783381609
0.306706794752753
0.025131458828462
-0.364273277796424
-0.821644673204479
-1.24769420362507
-1.61932274311597
-1.98029879864431
-2.30270468759489
-2.564207282596
-2.89492031580619
-3.39852961774583
-3.90905069905622
-4.14912955930101
-4.03772563664228
-3.69328494934143
-3.26581552827147
-2.86882427158575
-2.54326320928935
-2.22709040566432
-1.85183745641477
-1.44888819862023
-1.07367780500401
-0.708013327029353
-0.344300668018479
-0.0592439819529682
0.110558615180561
0.257866295121532
0.485870326195837
0.811025492516215
1.20109680611616
1.57684394132748
1.82313100055468
1.94296992063129
2.10279885033341
2.40011501043149
2.72711581834026
2.94626734751117
3.02664194029956
2.97489707577524
2.81824205601215
2.64102636567581
2.48106326281337
2.27928877762114
2.05772132042602
1.96876694223962
2.03541727929054
2.05053534461715
1.85882678713973
1.55834296265015
1.35238593917853
1.33523224962544
1.41337510421268
1.36323752932907
1.07649086311773
0.78710331363701
0.874196430455657
1.41925525085837
2.15521162444874
2.83352892448261
3.42611687933159
3.99611885196584
4.58390085458336
5.20559090616705
5.8056966565773
6.25112180658405
6.46580303722396
6.45857364153711
6.14868955940982
5.33318649282832
3.90071009820517
1.95006941062045
-0.277951097405806
-2.46112314527948
-4.30973435241738
-5.77118291059828
-7.00284156487929
-8.08690336930601
-8.96165108906187
-9.63695666828644
-10.229769248916
-10.7734120285346
-11.1995405786982
-11.4992281895547
-11.7557576930923
-12.0429264825976
-12.3315774677298
-12.4265923457243
-12.0599543903614
-11.1821363436599
-10.0434227039942
-8.83650696810761
-7.43323576073881
-5.62739861588083
-3.44588080389957
-1.11098545822817
1.10446593394168
2.94019911322963
4.2822804957967
5.24506978883394
5.94166256452133
6.24178479366282
5.97228981377947
5.30327267443437
4.74572776624158
4.79902250602859
5.67228882784156
7.18402821132549
8.80660537978199
9.96586051595141
10.4209858228733
10.2937032638941
9.79555310842181
9.07794383120051
8.24314167088351
7.32389128642669
6.31700481516584
5.29840961922411
4.38882470864917
3.61844387204329
2.96471253870762
2.43814607288478
1.98386213388888
1.44976002920858
0.804826053120631
0.210820615600908
-0.239161657169361
-0.644660904340657
-1.08133148755825
-1.47740776102115
-1.75235259371805
-1.90005005166391
-1.94748610307793
-1.96093827864737
-2.02017123158288
-2.10463966841532
-2.11235511568462
-2.01704825272439
-1.88101651278409
-1.72998792428307
-1.53391326074211
-1.25677996058321
-0.832873859873782
-0.20620529906589
0.502262133801283
0.99507289275394
1.06668629254407
0.768691845412412
0.304158991723459
-0.0744595193694127
-0.111383779363217
0.265118521277343
0.80440496566889
1.13702338664417
1.05725467185399
0.5482450934386
-0.280584594557873
-1.20001094401462
-1.98936136836463
-2.60401339270331
-3.09583179945199
-3.45912611072718
-3.71061393600605
-3.97697574826582
-4.33384289808125
-4.69822146815245
-4.99622588602367
-5.2833272962374
-5.63274448096774
-6.04275138442277
-6.44348110098583
-6.67764133168133
-6.57224309737764
-6.14821267841364
-5.63148276126447
-5.17792601276327
-4.72338622377567
-4.10945381651046
-3.19096534780986
-1.85839762260153
-0.146031269078238
1.6993938323868
3.38346719087269
4.7426845106976
5.70076988883815
6.2129868835295
6.36431674356806
6.36252511995409
6.33738683912201
6.2775450422775
6.16245694009725
5.98397600279673
5.69234568666877
5.29908593215324
4.9393982494099
4.68780905009398
4.43931656172074
4.05667243035464
3.47716960979107
2.66009604943709
1.62601728508077
0.545525858229713
-0.375416730476339
-1.06965210122892
-1.58992906863652
-2.03074024201577
-2.51879736662585
-3.12764903260008
-3.765539011135
-4.25533110476725
-4.47274913606136
-4.33999833729325
-3.86896896972994
-3.30567394843442
-2.99440148500996
-2.99743403804909
-3.07388439509198
-3.0685191540564
-3.05498720960706
-3.05812121007805
-2.8976691204242
-2.39190175821636
-1.56563432806725
-0.624767365232847
0.190697399749657
0.772666686840503
1.24730044670908
1.86343503877073
2.7609058626529
3.91570741462349
5.22247852918493
6.47732884943692
7.40237097954367
7.87945205086831
8.06289368785748
8.16127740235159
8.2628547178353
8.40425906781222
8.58749233379817
8.71070790123859
8.6821793645698
8.57439522597156
8.51418760673888
8.51370119331089
8.51532040314414
8.45692214125989
8.23178657816993
7.75159617978908
7.03282433953578
6.01842091678098
4.39569491743265
1.84635268611198
-1.56514303063449
-5.41109000270602
-9.20824312820985
-12.6077932969061
-15.4375939511279
-17.6806790697987
-19.3590486476823
-20.4475621262858
-20.9626130717332
-21.0440812092715
-20.8521585540929
-20.4743495062942
-19.9858368012495
-19.4423940690679
-18.7558719988699
-17.7699029824485
-16.5079567501106
-15.129405765418
-13.5986779666883
-11.6004249554774
-8.81613268131826
-5.19428315609024
-1.04726049752369
3.04334949841261
6.58813643995224
9.53521088390634
12.1344356500467
14.5100983198326
16.5246621138119
17.9427904586826
18.5639769498171
18.359356914715
17.6354348134023
16.9047223101669
16.5086390213047
16.5010235002175
16.8119008608339
17.2653854767456
17.5457799804007
17.4366187543239
16.9913129720839
16.2380196186957
14.8673877401881
12.4414744689804
8.84738520899579
4.484359576355
0.111909066062138
-3.52797119597539
-6.14225384054971
-7.98103034901149
-9.4290697011895
-10.5818093854981
-11.3082064195283
-11.5858153131445
-11.6063418840791
-11.5828133221676
-11.5026667424523
-11.0612097353283
-9.95939975802968
-8.37170749360574
-6.93083734678142
-6.08251085236729
-5.64043518293581
-5.10856531683066
-4.22411990499595
-3.07872819095752
-1.92408658962574
-0.949638245674235
-0.121749761419434
0.750738292286989
1.72968673636497
2.65243669067268
3.35295909243358
3.7580155559058
3.75237157283968
3.25399586578128
2.48629218903412
1.91309493883772
1.84622423851704
2.26705135372743
2.96382571062765
3.68520066732151
4.24593735047372
4.60584267265321
4.79678557587439
4.75755071904093
4.28748639624219
3.10385497960043
0.954805113429704
-2.09830592127874
-5.42465787595681
-8.10180790061879
-9.62172595973885
-10.186561852598
-10.2817830776892
-10.2146860726568
-10.1185785364713
-10.0865879824456
-10.1342801091349
-10.1846543397152
-10.1557993162185
-9.99465079875558
-9.6770664423305
-9.21520089731051
-8.57049106603766
-7.60077410907558
-6.24439015229656
-4.65126109789364
-2.93724645637359
-0.943474350034583
1.55893107067985
4.55602228026476
7.81816411092557
11.0636647285769
13.9940805646135
16.35483453245
18.0335761459263
18.9657021999231
18.9953863568734
18.0206083060276
16.2567335419311
14.2794711937523
12.872547406861
12.7398439705257
14.054337138322
16.2120632355935
18.2319866369378
19.4546797905927
19.786895739586
19.4233618939594
18.5473588003755
17.210109664481
15.2937326331657
12.628438943858
9.24995540810267
5.44603445403537
1.47391649593277
-2.661571192112
-7.1223226694119
-12.0136095731756
-17.1732765573897
-22.0836292699329
-26.1158142776455
-28.9621170422616
-30.7418314187866
-31.7312994972932
-32.176328276045
-32.2772389937606
-32.1066731819576
-31.5861028704412
-30.6908866684462
-29.5425149864101
-28.1707726549228
-26.3726766362766
-23.9399550875477
-20.8732524954924
-17.3102661600557
-13.3860421401404
-9.16794866523075
-4.62437193230293
0.271387879631451
5.33208565979486
10.1653863019343
14.4212366335539
17.9037802099138
20.4899321647008
22.1436363091796
23.0137354779779
23.3676535053972
23.4125417102775
23.2270417528842
22.8025995769914
22.1142336050399
21.2336454367414
20.3534582684609
19.5555175338625
18.6090894592046
17.2108457654173
15.3833623600978
13.437475144597
11.6174073142133
9.95749701441274
8.37113548306375
6.73709954199544
5.02456196210151
3.39769868738861
2.04534241255966
0.915472569938041
-0.21173105190773
-1.445940210593
-2.73986012938702
-4.02042852167092
-5.23401520478014
-6.3616680109984
-7.43689068042445
-8.4253271140741
-9.14088326406541
-9.45940910456873
-9.51939659193276
-9.53664150453137
-9.55644466916977
-9.52253306600869
-9.40808708711965
-9.18012165479236
-8.82426475040198
-8.4485052797844
-8.17545519386845
-7.9305138895386
-7.49918482109776
-6.7593640513513
-5.74144331130572
-4.57295424627609
-3.50509945233924
-2.85427832899204
-2.72526490390101
-2.83788769602241
-2.71871938189261
-2.03996140315134
-0.819326881597374
0.608243445493104
1.8702891769886
2.8652558852516
3.69095173094385
4.31207261122872
4.54799172055357
4.37483662247324
3.96998134610078
3.47204771655083
2.925716167511
2.40436135364033
1.98784601600858
1.68065784187908
1.44823113973509
1.21995929299827
0.850820042346971
0.274703182241292
-0.30843492473945
-0.583495117633157
-0.44210351188668
-0.0767051168718061
0.106147510664367
-0.372396341505091
-1.73283555524408
-3.59902286934755
-5.15978558123807
-5.7662573442654
-5.31198322020847
-4.11977098311515
-2.63997220963878
-1.2144655140764
0.0581127531593764
1.29066037378619
2.62422676467256
4.09644133291096
5.62045689749487
6.94167760036136
7.67926269652601
7.62710373725047
6.9739294810059
6.05250383814011
5.00169409281539
3.87008722544989
2.86083332503344
2.22037897818907
1.99181621757086
2.02276157524062
2.1157340910258
2.12760023237779
2.03334978083173
1.88103715981698
1.6313708603413
1.17421624310486
0.566124361748304
0.0704947314022784
-0.0910112442923308
0.139570439465851
0.743130301806036
1.62937219294549
2.64226463685473
3.75282712955003
5.10848869850439
6.70991609457781
8.18725212149769
9.03376140346154
8.94171702061119
7.8893481775139
6.08032484497399
3.82013882035133
1.29201650793662
-1.57369447652554
-4.92230030263877
-8.67446415016525
-12.4168298842561
-15.5226182385413
-17.4467066159511
-18.1304942992589
-18.1349139495294
-18.1499199225846
-18.3367417315756
-18.3008420145356
-17.6392910449365
-16.3479106548771
-14.7978803138547
-13.4588072864608
-12.5235576988274
-11.6917428642066
-10.4031630333732
-8.30333261196393
-5.43340814248809
-2.09125365102635
1.36391177264104
4.68420431685115
7.82354975242228
10.7824593892599
13.3720125063547
15.259676780566
16.1948609697014
16.0756524542484
14.9534442090007
13.1640098925419
11.33265792391
10.0636511769357
9.59177180974875
9.64725830601047
9.56765959674063
8.73382393378766
7.12974448297333
5.38341218151256
4.13139118870327
3.49193287170735
3.22791849742261
3.14136207333225
3.1064109852466
2.93046956862428
2.44071348880268
1.68052695365905
0.948446837483189
0.657177770863929
1.04261732787644
1.88453108626656
2.63732581818488
2.9442386028895
2.8633145132899
2.55319007583643
2.011454819514
1.20781308328894
0.239470687734401
-0.713226578072857
-1.4507489056438
-1.83434895494674
-1.93821839444826
-2.02543488541426
-2.28059304966354
-2.67341269178301
-3.07736525070671
-3.34698228050879
-3.32127470969598
-2.94498491913552
-2.3458663138958
-1.69655686734234
-1.14080139435627
-0.893953028963638
-1.14895807355068
-1.78287034829519
-2.38590464647396
-2.66689423168625
-2.68280723987714
-2.68375751531648
-2.88575518675158
-3.34848990369263
-3.93451074450033
-4.43780990219797
-4.82371707221044
-5.22503288443857
-5.67278544818152
-6.04334586650931
-6.3158576937507
-6.6240986014708
-6.98424060003275
-7.20679118221983
-7.14145076069629
-6.82696817381601
-6.34716243349164
-5.64178751480716
-4.52538700767561
-2.95225715589265
-1.26539790618881
-0.0073736445170781
0.620470546088004
0.949046226513905
1.43010859884426
2.24431758544878
3.33609439023796
4.53649584939293
5.57374435696254
6.20177121188868
6.37148929011295
6.15845898556947
5.6396145181104
4.9756843216138
4.4203312029415
4.09203336221785
3.89258661736628
3.70491472633665
3.50116664896936
3.28594828246565
3.1304709859827
3.20255296910236
3.56858782958905
4.02313876100846
4.25975714622567
4.13977884676934
3.71819399615293
3.14664992819571
2.62140811206309
2.26550911034042
2.01275640068436
1.74024757405574
1.46547765866132
1.26085063884582
1.08998468016528
0.878839880696894
0.59884117262175
0.184036233634115
-0.433781072205871
-1.14529217366712
-1.71991668510393
-2.06115292142181
-2.24653723573333
-2.3632727958618
-2.43288741722881
-2.4095680647535
-2.18021316374209
-1.69340170174611
-1.11004279098829
-0.684550174407061
-0.526429689592271
-0.600990288547128
-0.855770774187132
-1.22277398845083
-1.63954919186748
-2.15327797683875
-2.83606208101382
-3.57259818568133
-4.1381333666434
-4.49996266619024
-4.85582918647854
-5.36808057047623
-5.97231509276161
-6.39555589149778
-6.29314870836331
-5.49533237192349
-4.21794975559767
-2.91981157615319
-1.89605042608754
-1.11892752753222
-0.440605320207441
0.231510931730909
0.918032369805585
1.54996379292419
2.02525151985363
2.37785331842714
2.75295167180228
3.16656558922103
3.48739177844514
3.68012888908027
3.86459782144073
4.14006456092652
4.50660816877968
4.89080805957748
5.13190188323895
5.06255715450466
4.68995046414942
4.17897825355262
3.66188863559434
3.21684815164699
2.95684297442528
2.94363796060063
3.08690271807102
3.25967633091956
3.39501610978443
3.41276155981244
3.24282183105188
2.96740845890513
2.77088809317716
2.75738712959226
2.94668770860221
3.34567140188911
3.86266155360438
4.26310894895418
4.36035901384435
4.14272682082968
3.61485145512296
2.68873747021503
1.37029947964759
-0.0940786367574632
-1.38607747008027
-2.35605883645938
-3.08093033868792
-3.77008564001874
-4.58530819739347
-5.50569086625385
-6.42725675895019
-7.33713529038299
-8.24427747316175
-9.05082174094263
-9.68596286184797
-10.2239036387618
-10.6870651530945
-10.9255439674033
-10.8515131258239
-10.5655321966492
-10.1351335894814
-9.50529920579107
-8.69550704398128
-7.8137275933817
-6.85320082376884
-5.74256239231572
-4.58979808620155
-3.63891155587345
-2.97442831148606
-2.38212123182195
-1.48313570783613
-0.0298163563310983
1.82911511065007
3.64431973500028
5.12744262390077
6.37857276440096
7.54228689949126
8.4529341668526
8.82233954580776
8.6245603624727
8.11335284165442
7.57351320519897
7.15963375368181
6.84124025148091
6.44617353476357
5.88665655309737
5.31973599971985
4.95748455724622
4.82989396104603
4.86716326828573
5.04087158959632
5.2778819891106
5.39274765397257
5.20069230078019
4.5901420000211
3.52850093493273
2.15185894476381
0.765312635445783
-0.396418332866942
-1.33291922832634
-2.15799229794303
-2.96213457326356
-3.78577408191478
-4.54186876660027
-5.00380484233077
-5.03536283909445
-4.73727341700734
-4.25307799655283
-3.62206061608883
-2.93174625301387
-2.37600842582412
-2.03252434244239
-1.76010755735224
-1.38857881523691
-0.886011899120591
-0.333657452027315
0.172626677870456
0.627918847382038
1.16697090414765
1.92535791618653
2.84237221245132
3.72479141337119
4.48315853981632
5.14858231024746
5.72859908356781
6.25362561055811
6.87730506388355
7.71346906654227
8.65091902829391
9.46669077439696
10.0042440801393
10.1911914039366
10.0713681363728
9.83736869068249
9.62845177365354
9.29469062394486
8.49912242415635
6.98318980032942
4.65593026283044
1.61561660649031
-1.77175591028334
-4.96802271514031
-7.58814547175032
-9.64212379186365
-11.5196002699138
-13.7417570470135
-16.5049029152412
-19.3611755928343
-21.555636214516
-22.7474611463204
-23.1918990376451
-23.238211110119
-22.9506122074275
-22.2439756704797
-21.1073756977079
-19.6019832465141
-17.7790488338213
-15.6405300088067
-13.1383219412801
-10.2676233366065
-7.18398274392234
-4.1196760810148
-1.18720030437093
1.58167704815967
4.0448305157578
6.00666147296312
7.43106916382165
8.4386521430855
9.20759229302407
10.0171992511146
11.1879841744718
12.7890937733988
14.538872726889
16.0864288934235
17.2624796963778
18.0525283561555
18.4885702610632
18.5926691071653
18.3678898487673
17.8656457614403
17.1892628171518
16.2813441083099
14.8247971586693
12.6115913975666
9.94466705797063
7.45496803711629
5.58241250142765
4.34171418931847
3.42117734849608
2.39780710046214
1.0337494859148
-0.541958780693767
-2.02478605993963
-3.24451710722063
-4.18566255421209
-4.86450546177617
-5.36111666731199
-5.83823169372742
-6.36639437569708
-6.83567503500336
-7.12915781857675
-7.2304409928123
-7.08687893736255
-6.55233188987548
-5.57053578570767
-4.31616205199133
-3.1265980978377
-2.32783638952231
-2.03660594455337
-2.08859413344727
-2.25184144653644
-2.46224829252229
-2.72396451341642
-2.93157543812801
-2.99889680591562
-3.01032256522263
-3.0552528881117
-3.08414352439704
-3.07094690123955
-3.11898666274829
-3.30107935190432
-3.57842153616827
-3.89758146541328
-4.18063375236053
-4.28158118751925
-4.15510444555555
-3.97194529244512
-3.89545495089723
-3.85713641933086
-3.65112927344494
-3.11951782425639
-2.23897313284687
-1.19688730247378
-0.353819471863926
0.0335467277510885
0.0212722698762414
-0.158075407032914
-0.310970866295315
-0.299226426699721
-0.0341991597858311
0.428045180099696
0.920192962705072
1.34578814965078
1.71017758163255
2.02373536326597
2.34492807372546
2.81762087974686
3.47346271111377
4.1110631880681
4.51751153535051
4.67582408431355
4.68495461849029
4.64354423804066
4.63200844613753
4.65794526913989
4.65583064336548
4.62842555239615
4.65320868668671
4.69076872579262
4.58694354477284
4.30268749243868
3.93446726474471
3.52630577310574
3.07095960863311
2.62676826151926
2.24710628734243
1.90442138181539
1.60454284534734
1.40506973956574
1.25201396596336
1.00266575134232
0.640019827799267
0.289026879975604
0.0729108726218931
0.111750793098738
0.515752403791972
1.1572855494131
1.56509962534522
1.26660997384622
0.201847493056328
-1.2900640983185
-2.79356674211905
-4.07194872781836
-5.14273133524904
-6.15753998317628
-7.13376388273181
-7.8623690470289
-8.15584573527725
-8.04534225800908
-7.66637622933973
-7.16035411579352
-6.7494207916989
-6.65892351236696
-6.87487135709997
-7.13467267042459
-7.15487339237984
-6.75829521191184
-5.89313360842572
-4.67790305881937
-3.33909328651636
-2.02486210948461
-0.763421129885621
0.425025112192715
1.51162906121897
2.48964905791077
3.30330038887101
3.8541431932464
4.15032597791543
4.30302404749696
4.38275038747588
4.47772627942901
4.80621854461706
5.48651447893243
6.2528454918255
6.65319956755959
6.49017683603904
5.9164162867039
5.21284424535891
4.62313064368286
4.27940416340479
4.13547769226039
4.02903265145774
3.85000578449301
3.5760635286525
3.21034298123898
2.82214584017016
2.54574354421889
2.390192762319
2.17075621679647
1.73434386945268
1.11522539062763
0.436728153820212
-0.179994180737605
-0.645310481656579
-1.00542916573545
-1.43523518713642
-1.99769570868531
-2.54091393381302
-2.91567713470063
-3.12906320471913
-3.25418609224565
-3.36834234724221
-3.55050273737504
-3.76966475702813
-3.87416682736549
-3.83662405170889
-3.8343858413183
-3.95397612030685
-4.0273986276559
-3.87549110841092
-3.52245309546419
-3.1171628178301
-2.80598891426923
-2.67190026007931
-2.66281516490344
-2.62194298851969
-2.45815025177342
-2.18985678516082
-1.80473468394569
-1.24194055181072
-0.511072828802287
0.391325505043371
1.66760706782191
3.53331007875432
5.80161054347006
7.88838250303469
9.27733619474285
9.86993358431802
9.96000429573682
9.97838547123657
10.167939623331
10.4467164853896
10.6300538014771
10.6549726351891
10.4467398224106
9.76497892162735
8.40168065293666
6.39725498546042
3.94976001699706
1.29919436592163
-1.25582057695834
-3.48759812968265
-5.44697525319331
-7.34057796367698
-9.21280273992616
-10.9166474918781
-12.3239919031521
-13.4292030815697
-14.3397529995215
-15.2132361727877
-16.0664651546846
-16.6627120806662
-16.7442783062905
-16.3187492619692
-15.5754655138649
-14.6186630443649
-13.4092640898251
-11.8553273832403
-9.85357622835159
-7.35546481615981
-4.48296199435406
-1.51557123317638
1.23503028146043
3.48669663156475
5.06869577245104
6.0938987607972
6.90453597510548
7.71300596596197
8.46515652252782
9.11574665949096
9.76506348719485
10.4281910596291
10.9082607533875
10.9817032244498
10.5909344934086
9.90363928683235
9.26189862191942
8.92614485322531
8.79387537591674
8.51983189589887
7.90563591226522
7.00196336912222
5.93285853117639
4.84793153682879
3.92574717915319
3.21106084508391
2.57254377134349
1.94280243526679
1.42126338589841
1.08054244651395
0.879945218918453
0.784683967061209
0.772791513705669
0.752488291784913
0.64183810418433
0.478969106816922
0.34022958754894
0.237968866678125
0.17743281113601
0.199724597584725
0.310753446413673
0.476253708509705
0.677391462599577
0.831407510258966
0.726805948152404
0.226430951923818
-0.53611639670917
-1.31734500089162
-2.01862762889137
-2.68656112744847
-3.40737892479604
-4.24842681575761
-5.15073149256771
-5.89340976534731
-6.3032476509487
-6.42925963866472
-6.41623698394709
-6.34213602188234
-6.23323807475022
-6.04841220090622
-5.608995966497
-4.7292815344474
-3.43125000261597
-1.92188648333773
-0.451091029252929
0.730289280567216
1.46301995909274
1.82754158025565
2.02526034327596
2.0838684867873
1.84448124786165
1.19554604349466
0.183096633328654
-0.991914871631795
-1.98811617991002
-2.53637981565472
-2.74568057552434
-2.99940640818441
-3.49303046605218
-4.10329423876438
-4.72141864478923
-5.40214101776767
-6.11521880486874
-6.63263181069373
-6.75644313038439
-6.49327462427404
-6.00683124866559
-5.5111651351948
-5.12501186349304
-4.74885658006369
-4.18350096822085
-3.3474578938087
-2.23308233211439
-0.7696268053144
1.03529500831769
2.91995191146366
4.55674323322543
5.85625881432211
6.96942491724324
8.06606166485414
9.13695687417757
9.93802886263425
10.2156402135548
10.0750764561416
9.94318147648043
10.0714637502461
10.3274306280964
10.5475560733869
10.7595940804248
10.942352290392
10.8738511591387
10.35026747711
9.38839142744677
8.19707511249758
7.06442239548205
6.20434526236229
5.61415766353476
5.15671850384542
4.78826632440307
4.53460460926474
4.2268383139009
3.46768750344418
1.91972628706917
-0.473717110647671
-3.46042103032667
-6.50871741862732
-9.01497630757014
-10.7125238215132
-11.8244577353297
-12.7452195791055
-13.6918141519296
-14.6411201756151
-15.3985247535887
-15.7171295717717
-15.4727406587377
-14.6894393253301
-13.4168766434265
-11.7868308773897
-10.1483761505494
-8.82226590806392
-7.69391262804483
-6.32594905699245
-4.46251677474024
-2.18915512484071
0.314047456294151
2.91727769230343
5.49086002742438
7.87264109921948
9.84512140636317
11.1443238350889
11.6235062420763
11.3756301320638
10.5898454149411
9.42559730381577
8.15891331908957
7.24356296680949
6.99939327972659
7.31936617429779
7.7704439060561
7.84906798063156
7.12754584824593
5.42787601719621
3.00507580125476
0.41726799058142
-1.8598912143916
-3.63730396772048
-4.95394466129816
-5.97339300965549
-6.84267287472801
-7.55011257606878
-8.01029427177024
-8.25659879694043
-8.379492888592
-8.35929529135794
-8.15764740310487
-7.85643859810804
-7.52289183771058
-7.07127768169894
-6.38866380817353
-5.45745808986949
-4.3089136081323
-3.01697105171154
-1.71626925839489
-0.467651784320136
0.817728895186412
2.19495910884405
3.54111850189623
4.64607086945529
5.30228224011804
5.38137548662964
5.07605285085233
4.9571664097333
5.46622087115825
6.40372120460333
7.17036452212477
7.41843035189999
7.23292196269258
6.79398969007315
6.13932850906961
5.25341249389355
4.23392996366727
3.35068642197325
2.92601940506031
3.04919113082133
3.42619038139226
3.62851837714279
3.45604377477391
3.01066555592433
2.56302503510768
2.40471636606987
2.63550185828618
3.00624333927672
3.08997861375976
2.62254927951861
1.63284508917079
0.373727457583973
-0.791054381377041
-1.59206409573824
-2.03569614673327
-2.30287300700816
-2.54615353803588
-2.9139493086899
-3.57516910360081
-4.49484595262269
-5.37267344227337
-5.99035810835433
-6.40280497572071
-6.6735774602057
-6.72321124699722
-6.56310567476498
-6.39836898954818
-6.39229541899745
-6.52811732286588
-6.73190640022425
-6.971544701605
-7.23207212900862
-7.47752052487185
-7.60627992693631
-7.45831546498782
-6.99462811974625
-6.43367508983208
-6.0141265759535
-5.65364028118167
-5.05461938282611
-4.08368386537143
-2.81127212969573
-1.26671754073836
0.576689675581661
2.59404088680796
4.4533145163033
5.78310953089469
6.41778133190897
6.55310424022758
6.58412900988903
6.71358702606399
6.84729512681752
6.88348615362352
6.849213624899
6.7172431668338
6.38639247759464
5.91001280501176
5.50131154117389
5.28474625717789
5.22132095491208
5.23274711925529
5.25210588030177
5.23150720613847
5.19102609603019
5.1754673026947
5.16176861733065
5.10469556787271
4.99786211449914
4.79828371355315
4.43122759500297
3.95921159681163
3.58055143311416
3.39389182881159
3.35020891788792
3.48510058768337
3.9769251038485
4.87793188325649
5.94059965803289
6.77835201489215
7.12577732702186
6.98400302901006
6.57326911814615
6.03097057111685
5.1444206489851
3.58944063769949
1.41722473471339
-0.963059132052534
-3.24154686499434
-5.37024004331993
-7.37295674192856
-9.30052753691376
-11.2917762984217
-13.4310861143319
-15.6032830401739
-17.5890730891176
-19.1824343098218
-20.2127611618394
-20.6464486245772
-20.6580239767964
-20.4497841892191
-20.074199757135
-19.5187758208919
-18.7773405862619
-17.7442067463378
-16.2489174522704
-14.2693171575452
-11.9481095492295
-9.42745948992573
-6.82484901640387
-4.26921709640362
-1.79764847292913
0.663943947985266
3.0902572147261
5.26698629457118
7.01727749554715
8.40320286662077
9.66875384720264
11.0926447648197
12.8252671991584
14.6958749410573
16.2715481370287
17.2621439324427
17.734784487587
17.851633197773
17.6550835493332
17.2058134806075
16.6434273565777
16.0078543159691
15.217384268162
14.2379945378654
13.105954848629
11.8590705630872
10.5867938019302
9.43402552442379
8.47117677464888
7.68407992894123
7.0798615263299
6.64672916626576
6.28422895761349
5.92972708642653
5.63105033910885
5.37604993485174
5.03174381767452
4.54316143496224
4.00223233310744
3.49148933408413
3.0509146359132
2.76739194981609
2.70684407524279
2.78612127752494
2.78962679030032
2.38655780966855
1.09834899017473
-1.5000020981505
-5.37697881916431
-9.93774750034803
-14.3659437028811
-18.003938226282
-20.5301838209943
-22.0284006445012
-22.8793284900818
-23.4135018034744
-23.6847107921147
-23.6093840099493
-23.147701576264
-22.2885012104654
-21.0485140800004
-19.5342332904427
-17.8678303017913
-16.0825973655815
-14.1826601745009
-12.190965456448
-10.0786206652552
-7.81414776010955
-5.50035336683777
-3.26818320967112
-1.07339221606475
1.18441489725971
3.41219620327025
5.39295140332615
7.00658120837721
8.2454410614442
9.16705357456827
9.93557509713144
10.7471234576976
11.6574983158078
12.599149874699
13.5069096635339
14.2861993200894
14.7522499212775
14.7427312250046
14.243221730807
13.3844294092619
12.4237151316854
11.6753850391137
11.2503496730453
10.8798443690554
10.1975413018192
9.16278224558088
8.02572214101789
6.97789654083667
6.04123384366861
5.18021190752262
4.33888243533389
3.48039679903403
2.68669490204145
2.08516728161942
1.66119994682187
1.28038549669243
0.835461860017066
0.252880682245056
-0.510024264815292
-1.36621553064835
-2.15642611631029
-2.85942309189304
-3.56567883032529
-4.2483280723874
-4.76399983366555
-5.06126701370239
-5.2382581766576
-5.46187165230018
-5.90281917153042
-6.59576372130724
-7.31819461641676
-7.78222193040159
-7.93421878420113
-7.89619210232956
-7.70957361466218
-7.33781700767888
-6.8147034526407
-6.20894670010246
-5.53093144082346
-4.77905591130442
-3.96305469591213
-3.02147856798606
-1.85871099398511
-0.513972821566914
0.828988485395353
2.00026779203314
2.90858808938278
3.53724104430146
4.00494272571434
4.51092228807823
5.1204377232168
5.74792160373213
6.35993068955071
6.97260495672997
7.47777648168512
7.72394602655611
7.72096702335165
7.54759475233349
7.15581494982509
6.45714030052836
5.4832387355524
4.30932512434807
2.91381660973334
1.18654712110291
-0.972474630653267
-3.48900797095381
-5.97520046326955
-7.92708406903343
-9.19138567292865
-10.0886138108088
-11.0122625894
-12.0690097882854
-13.0944123068286
-13.8118738287026
-13.9875360509368
-13.5788226487279
-12.6958923584456
-11.381052108596
-9.58084192591368
-7.37836071003417
-5.06510869720957
-2.93032876916081
-1.13878846138129
0.194535805140502
1.02482543730112
1.50333784982837
1.93711937361344
2.632064989949
3.8184851917944
5.55316233119849
7.57414138180304
9.40105712296555
10.6575816904758
11.2240143813215
11.1962839317015
10.8747542202557
10.6435876974649
10.6628452328132
10.788682900108
10.8533849185744
10.811353975872
10.5987818885506
10.1336816804134
9.48320609841301
8.79611461766391
8.09680354287659
7.32904742405274
6.50099865578717
5.63768965663828
4.72406923068902
3.77298898955871
2.79812558197937
1.74259729682292
0.620086818747282
-0.374069857561682
-1.12202914151514
-1.85399552825898
-2.94857658544257
-4.53071156127913
-6.38494675233974
-8.1601040497018
-9.58602977818189
-10.6246576211838
-11.4621804610481
-12.2323782433828
-12.7732505086373
-12.8159250397557
-12.3508426652079
-11.6352327645046
-10.9100495156421
-10.2287311577746
-9.46436476438121
-8.42921601707762
-7.09866726782456
-5.69267449692992
-4.42547760769848
-3.28004212678763
-2.1300051283426
-0.914931762421344
0.390508932764417
1.78102030469583
3.13174606347794
4.28511204658415
5.22053335190793
5.96492699959008
6.39611902543548
6.3027202943191
5.59276970312571
4.4055718630996
3.15464258202309
2.42066104916674
2.54643687656657
3.30256575582801
4.10044250369093
4.4864509946563
4.35465273264355
3.8695431131767
3.32508459166115
2.92060087894839
2.5700624381954
2.05759718047451
1.37564787740595
0.712094881572559
0.131261488268303
-0.485587391782199
-1.19302030886682
-1.90447459524608
-2.54246175361259
-3.08406674552462
-3.50086158846507
-3.76087406291839
-3.82056736199934
-3.61688892558697
-3.19032198572603
-2.73346666915618
-2.36722242717274
-2.00827027372953
-1.59279854777935
-1.22891530495019
-0.996271410269551
-0.796214226211528
-0.478979516516468
0.05815779540374
0.870031970294378
1.85780269081035
2.74766841608021
3.36824429784708
3.84086162704821
4.37335261068852
5.03205987862489
5.78284002269263
6.54715646727438
7.1739927365674
7.53180376250163
7.62303377746035
7.50707926966394
7.22007331406752
6.87059869270003
6.67142239289749
6.77300516326753
7.16588670500193
7.77370033645455
8.5211570803931
9.31131904266476
10.0402314353218
10.587978746971
10.7415117338801
10.2841848263673
9.20179618674342
7.53486055362329
5.00375736269989
1.18580995201339
-3.79851621832053
-9.10669377847964
-13.8030112896858
-17.4664369271379
-20.2134256699806
-22.369497574889
-24.1329003554172
-25.44112357243
-26.1550264103314
-26.2996870549935
-26.0038553339865
-25.3215153391222
-24.270819420121
-22.8895070976894
-21.1036538291547
-18.7562782820946
-15.9132763476882
-12.92204184482
-10.0629101413071
-7.34215635527357
-4.64071241079989
-1.8419749436478
1.16917465599141
4.42696529227659
7.815645411646
11.1825377009936
14.4288124936419
17.3998021905948
19.8049435496386
21.359687121662
21.9768539688551
21.8260952853655
21.2529818753698
20.5337266511094
19.6044944945889
18.1741490912379
16.2116003629556
14.138696172763
12.44523632974
11.2977446980196
10.5487048532008
9.90624531325722
9.0920242387412
8.02451681128877
6.83758977010971
5.65964338441835
4.5098381435021
3.41877972349552
2.41682257318392
1.39426376236378
0.22281818077079
-0.990677854337877
-1.98861684236557
-2.65128676102792
-3.03606212398025
-3.24796063008932
-3.42656449033337
-3.74112593223286
-4.29198160203276
-5.09180190499704
-6.10753719215394
-7.1945075224881
-8.07749089417552
-8.53966324080866
-8.55740305731802
-8.20132007285527
-7.56068497299975
-6.80792920750933
-6.1503940917596
-5.65305713648007
-5.23937126256602
-4.85645551265376
-4.49803928446796
-4.13745834140133
-3.81845290743154
-3.73109970128122
-4.02407704772544
-4.59561342018212
-5.13834728479808
-5.31114430381861
-4.92595544594096
-4.13051524988964
-3.31844367172103
-2.7156593389041
-2.21649517076392
-1.73309032673831
-1.4321076941364
-1.46031092547863
-1.67383485353432
-1.78568886873417
-1.62985921557534
-1.24110435906283
-0.78647404755656
-0.372406804543909
0.128033810401912
0.906116336273811
1.87514801560642
2.73650150239526
3.37308878410507
3.91478122701272
4.45858442470976
4.97511918703913
5.41131450007508
5.66442967348109
5.55667397800024
5.01632075811846
4.19646152095441
3.32924094893183
2.5902292804099
2.13630978943591
2.08863209130959
2.40919452562049
2.91066237761886
3.38536302370055
3.65485169664923
3.62193404091452
3.38698601542174
3.16361349109043
3.00441958719771
2.77814302809715
2.41488211885584
1.96649360367134
1.47070952449391
0.953443096894874
0.477357845939416
0.0333752542803936
-0.485199160717633
-1.10019421380457
-1.69852879525643
-2.20813333919494
-2.67061928738004
-3.17027830373481
-3.82691404965138
-4.73817051960337
-5.79176500197012
-6.70662679496136
-7.37998542541338
-8.00951199363034
-8.80346551225426
-9.7456544765323
-10.6418919401122
-11.2345488783012
-11.330365725606
-10.9461760006314
-10.2434569990178
-9.26389806176562
-7.86130414836844
-5.88673786069869
-3.25600886549798
0.111088742172457
4.13828078459626
8.36738502164706
12.1459718261678
15.0965931392491
17.2553983245824
18.7933866085421
19.7610700875259
20.0937482781548
19.8257167004611
19.3238632848497
19.1641270792753
19.5983658639019
20.2901142040836
20.7545295864937
20.8644905400285
20.7538491265092
20.4350370776719
19.636249793419
17.8149862932025
14.3582021841468
9.1267973802472
2.85186920790112
-3.32444697636551
-8.77539418610546
-13.6909534913902
-18.5260101763391
-23.3472165935839
-27.700195332382
-31.0147899151003
-33.1233093779236
-34.3281489112908
-34.9611379229218
-35.0558432135413
-34.4994838591399
-33.2729153004801
-31.4458452023044
-29.1310079355208
-26.5194049415054
-23.809413823824
-21.0585041692629
-18.1800262677509
-15.0071683677792
-11.2760799773741
-6.74802193934216
-1.53810877572773
3.85362439113152
8.98945123669546
13.7478164508614
18.0202815607916
21.4787329275558
23.8560280203007
25.2497829679483
25.9691336127619
26.1541317178783
25.6215002869263
24.1178924537351
21.7683688798491
19.1846942350824
17.0113407157229
15.4838014034505
14.5280635517376
14.0149862997822
13.6885707969853
13.1065421735082
11.9256997784584
10.1094483044725
7.78986712244835
5.18654851059954
2.68222191211991
0.651420117849768
-0.84387537416172
-1.97665253373332
-2.84320158864446
-3.43732592462505
-3.81774029526417
-4.09670631223416
-4.34724579939095
-4.63505699662321
-5.02819112707046
-5.50557510745961
-5.97255416080392
-6.38052900751559
-6.70658737503744
-6.86443797139919
-6.79193516173916
-6.56657000441574
-6.30999334871527
-6.0549618111046
-5.74994571887751
-5.27797301078345
-4.51759081348183
-3.55182456645313
-2.70721886650605
-2.20206884418203
-1.91055789267025
-1.63303506831045
-1.38306480083684
-1.25093238184803
-1.209252344434
-1.19706569199989
-1.22097191215135
-1.29561916405638
-1.40701838562899
-1.53418109688672
-1.64359752213284
-1.74511454124459
-1.96485278528255
-2.4227403150006
-3.07313471360109
-3.80600712855844
-4.57466037386324
-5.26090104365538
-5.60340550432059
-5.43870692906805
-4.84469841687863
-3.95432108485309
-2.84902527164065
-1.69789038842233
-0.741266132399512
-0.0398401520445438
0.567558388841541
1.21466514023843
1.88078593328759
2.49880454626338
3.04680251689362
3.58292119626108
4.26529494604479
5.21018952253157
6.2940746718752
7.25853321537434
7.99082771448486
8.53235941627174
8.89216770935098
9.00176902094655
8.72788150323055
7.84684786458946
6.20160114580926
3.94306374383617
1.45495574536784
-0.888564057361452
-2.70646923465931
-3.56897362067719
-3.30861748395008
-2.28126038368389
-1.11947152656014
-0.353904039335122
-0.324819819229285
-1.15464040233814
-2.6457856673231
-4.39036289368027
-6.05630895943799
-7.49302123413963
-8.66910571203234
-9.63180494492723
-10.4085395830828
-10.8883564233687
-10.9585998719198
-10.7508629175004
-10.5080281611879
-10.1701211747976
-9.30017476416537
-7.45610106761406
-4.5240750190365
-0.788558704590433
3.17602354987792
6.84575947720681
10.1585457510317
13.4387759394673
16.8242147208921
19.9940715455855
22.5483811363899
24.4260790597382
25.8584215843087
27.0433473726414
27.8753050220487
27.9337957459006
26.833423648667
24.6651581512009
22.0051289217667
19.394143989556
16.7331324957755
13.1122726830723
7.41244454457657
-0.535668154060065
-9.35152878671489
-16.9947496217305
-22.3176772926573
-25.5716264682055
-27.6574957865436
-29.3608251467897
-31.1620727797654
-33.1901246840745
-35.1520393568961
-36.4779847165847
-36.6043730332955
-35.1812656638434
-32.2427608464312
-28.2866420367667
-24.0335010298798
-19.9949794175183
-16.2769461440266
-12.6658653350869
-8.74376239998953
-4.08356136879596
1.36437431633688
7.07938353019707
12.3085791057287
16.5502304644223
19.6790576606806
21.7852332156936
22.9782873573578
23.2389027386808
22.4684403078196
20.7767058143003
18.6489786234599
16.7287745443891
15.4367185008415
14.7097991555988
14.0094554797298
12.7577065525279
10.9510352019054
9.17534046727867
7.87140222811057
6.83422513505921
5.5805030268888
3.90004561162997
1.87184686374458
-0.359462809080615
-2.6267712088561
-4.7688950214271
-6.75383286834453
-8.67812905334763
-10.6188817255565
-12.506371967948
-14.0589265074374
-14.8743038707359
-14.793458492647
-14.2078082406903
-13.8093328499743
-13.9597534362852
-14.3742973454501
-14.356878104697
-13.2523940688382
-10.8556779771357
-7.61303783412417
-4.34631905985151
-1.63812612394678
0.455585342905321
2.14764245157486
3.6312872627111
5.02839166237437
6.35404401793835
7.53040858273362
8.6178772859363
9.96245831678485
11.9650024267187
14.7634643476598
18.1337552667628
21.520392389176
24.2187129737655
25.8214073262084
26.5463432812035
26.9789606441193
27.503388684858
28.0233149805852
28.1079784639074
27.3993011791759
26.041929859169
24.6736928055825
23.8437520117306
23.5742850793962
23.5956769094549
23.6540044281178
23.2704687306375
21.4877084183107
17.3429411551443
10.7432867796854
2.85186692638945
-4.42422099945461
-9.67018286171232
-13.2789968653068
-17.6515932610045
-25.4828867772481
-37.268142094713
-50.5101884027196
-61.6027485605924
-68.5254749127259
-71.7761806933569
-73.0434364836941
-73.4121558401407
-72.945162653601
-71.5104519471644
-69.3146700242974
-66.5114729656815
-62.8014242142471
-57.6918116734986
-50.8982847995203
-42.4326337596715
-32.6539369797778
-22.3499594055532
-12.4854962505726
-3.71104013421602
3.88959185991225
10.752615694447
17.6539290321928
25.3224472371104
33.9784602505074
43.230819044706
52.2992420094114
60.1508853596869
65.6454584229112
67.9978406783295
67.2201248861907
64.0583530032418
59.6406513871411
55.2200124332586
51.8555942556667
49.8980597707186
48.7448026899525
47.3020058722657
44.8438366275806
41.5378700544676
38.1887110520053
35.3739859898857
32.7798010856885
29.5214161171979
25.1061205333561
19.7929166715362
13.9805811687985
7.67106629080079
0.776308833584742
-6.31871895195516
-12.8016418770293
-18.0479084123499
-22.102403685012
-25.5162778139322
-28.7476127474657
-31.8417898980024
-34.6746925258584
-37.1925073411482
-39.2215001649135
-40.3074191473814
-40.0153229829998
-38.2835762245803
-35.3973706256932
-31.7861374665828
-27.8413515287118
-23.6798898078332
-19.0821010754733
-13.8617969690592
-8.26205172686443
-2.93791351567695
1.19481944904033
3.04326607291394
1.80417335642696
-2.1872466072577
-7.22827926454661
-11.2052106453578
-12.8621023869494
-12.236876800135
-10.1920790912851
-7.7023546015036
-5.41366984709948
-3.65982918188644
-2.74948329414279
-2.99012998951414
-4.28279752758381
-5.8867452344075
-6.79843751796309
-6.33960966594141
-4.42861545048564
-1.5101498931659
1.75143805299866
4.89841117082347
7.84467008757563
10.5736957272664
12.8008440682698
14.0798057855835
14.2265222718998
13.5954426526068
12.8812118276502
12.4939730236726
12.1091630338237
11.0541313260283
9.20975961659713
7.31542829371466
6.29985336996632
6.41622992641779
6.94986436062324
6.61686763337933
4.41769924613941
0.400605901435851
-4.31610859149829
-8.24391269947624
-10.2831214972713
-10.173106658098
-8.62771142484046
-6.90519265939272
-5.78706050073556
-4.8966776950904
-3.24093703870481
-0.355389816835351
3.31209157624967
6.98779810695809
10.1964144518893
12.8538570207396
15.0161906619238
16.606177664515
17.3963096239846
17.3440801558301
16.8459380702589
16.4742833721375
16.5319748154111
16.9574084131078
17.4798800214778
17.7787965996724
17.725207802576
17.5264935204925
17.3731655835535
16.9285326871807
15.4774204117636
12.67114832763
8.97091611449364
5.34105997087276
2.5100219855883
0.328814366343349
-2.22233063054377
-6.13836458491412
-11.2842888084304
-16.1793183100606
-18.8956478095677
-18.3086541113729
-14.8897920150243
-10.6404313896113
-8.17108982071557
-9.4262329829702
-14.7857436461869
-22.9528023491569
-31.610960392203
-38.5530462193647
-42.6489421900724
-43.9729058899848
-43.1604063738394
-40.8432210942253
-37.6249040860494
-34.1307043486253
-30.7549098089908
-27.4688264781867
-23.9854228963814
-20.0227031967648
-15.457612921877
-10.3925327751612
-5.04484376503199
0.460392457054503
6.00638165835799
11.1897070471504
15.4413132916781
18.5872104580002
21.0869625225285
23.6292498145104
26.5763084967563
29.6993418685498
32.2766635088327
33.525043798847
33.1003570927644
31.2484037297687
28.624965768202
26.0795618466642
24.3108543653314
23.3462714049157
22.4450099524591
20.7638066830837
18.0693554472105
14.7701320426084
11.4942318329398
8.70743420039391
6.49727283029939
4.63685370031061
2.97488115778136
1.65862605315332
0.755683503146693
-0.189350978132793
-1.88290857162679
-4.58806156379419
-7.8948792989081
-11.0847789090827
-13.580197443206
-15.2006681586082
-16.1438166941067
-16.6669773307008
-16.8290137676303
-16.6540170806343
-16.3745739291969
-16.2636734941521
-16.2947249830173
-16.1153439559771
-15.3056527083547
-13.6593744296514
-11.3284476814672
-8.64822152286222
-5.7320002431743
-2.38878767972152
1.46113634733542
5.51951678995022
9.39640770378358
12.9754043304416
16.4222719316379
19.9725142539204
23.638592498087
26.9502218563328
29.1380320645324
29.8051479909849
29.3483716387235
28.6832365475241
28.7321440774499
30.0144446997487
32.1026968635212
33.1853060198435
30.6504977194065
22.7867155298218
10.212789978244
-4.32738686261098
-17.6110114392814
-27.6270024915366
-34.135345243937
-38.0463586506146
-40.512169204773
-42.4917022703616
-44.6572503161045
-47.2515020949793
-50.0531456862851
-52.6142468143718
-54.409583510049
-54.8044448408115
-53.2821049954807
-49.8226440510451
-44.7591273631459
-38.2606301674019
-30.293413125239
-21.0333940689407
-10.9457373283805
-0.505836609740299
9.83450517915284
19.4634645899059
27.6608170760731
33.8203043229169
37.5496352683257
38.728822818313
37.6554047841787
35.1567849867525
32.538162943573
31.2362080445214
32.095968198233
34.70680792373
37.5973547429163
39.3852764281961
39.853565134174
39.7872178401388
39.5537047290357
37.8799204403144
32.5378109825283
22.7781845528192
10.9076159521091
0.793764070075166
-5.29698086463083
-7.97526974903167
-9.1573289039211
-10.1800772319743
-11.5479842797025
-13.4763287609882
-16.0233119732684
-19.0409631613363
-22.3151557257141
-25.5780345845245
-28.3545675453534
-30.042713834034
-30.2130613313001
-28.7954575556864
-26.0916576539857
-22.6501047771765
-18.9769782774181
-15.2956721087916
-11.5923027560727
-7.79005532893571
-3.88111797884064
-0.129615339768618
2.81364208600851
4.32741633789923
4.55500557689283
4.5847188284939
5.74085516074252
8.63852842296985
12.8591242257264
17.4735225830023
21.7670844513285
25.2825849673459
27.3134259789573
27.0377713162337
24.6424656726516
21.9353869946819
21.1265047829642
22.8113998921888
25.3310079700978
26.1016684716114
23.6026755363621
18.4450250835588
12.7482598852923
8.28398375639958
5.06635979449462
1.73105658812924
-2.99406944053657
-9.42974844692413
-17.1289868284513
-25.3157750213932
-33.1243228803176
-39.7369580748836
-44.4868066247841
-47.0178758596119
-47.5435798537546
-46.803842222728
-45.4385188199308
-43.3888083566601
-40.0814613370539
-35.1479090689183
-28.8724977831147
-22.0522779784996
-15.4870804967853
-9.52751012120555
-4.12841441633249
0.667120367438461
4.51279295778853
7.10957383306807
8.56155785203817
9.34151468953669
10.1511293015773
11.8361758818968
15.1042767900729
20.0909835859024
26.2082202280847
32.3814752303756
37.3605551790789
39.9704834741957
39.4407341994062
35.7712344100814
29.8578782461122
23.1601949201476
16.9365754765065
11.552221941129
6.6669129088978
2.23922191468315
-1.00014468202462
-2.38105523090098
-2.26345776915166
-1.8256378976051
-2.21471265388578
-4.22346210495998
-8.29064887646109
-14.0750031910299
-20.0280242106109
-23.9448726551327
-24.3301155728734
-21.3209101794901
-16.2946674726884
-10.5953510274779
-4.67308773092952
1.59795459096212
8.09932689086456
14.317372914096
19.8888518153505
24.9002585434404
29.5725100112256
33.8869202222069
37.6366017672083
40.7655408088006
43.5403839443504
46.2845431926337
48.9213132429042
50.8581932594922
51.3460317132898
49.9155391124801
46.5547029845054
41.5988407424909
35.3211656172312
27.3520629788518
16.5859420364369
2.15655774960304
-15.192618220337
-32.9095411022786
-48.1423214322602
-59.6163112718916
-68.1080176799219
-75.2029352195642
-81.746923949368
-87.5439272102156
-92.2004917746797
-95.6368074751627
-97.6427146099434
-97.567914726781
-94.9343561390111
-90.04733893789
-83.6187829432237
-75.9921045874618
-66.9861269128377
-56.2887865444759
-43.8254708595532
-29.9536381042714
-15.4685823190815
-1.32562287511882
11.7417597593776
23.4365420050418
33.9227856803012
43.616507797271
52.7282454977169
61.0045069640629
68.0050072610252
73.3756827456862
76.6164884193435
76.9777497070379
74.142743875848
68.9110213075075
62.7717185802465
56.8465363599703
51.5213236984218
46.844402376822
42.757988716816
38.9711166503411
35.0567164920252
30.875757231737
26.8282119399468
23.5913900474305
21.5073153639961
20.2043704020869
18.9321718896809
17.2302551788686
15.1296109072535
12.9459173038373
11.2695653954931
10.8836655451859
11.9854150302068
13.3985958943834
13.0794907870933
9.66797645197959
3.47328409549225
-3.9527869943846
-11.0186637162201
-16.9547781503011
-21.729797365508
-25.4347473270398
-28.1576753821744
-30.4659769882524
-33.3523516159684
-37.2488655155677
-41.4467513879392
-44.8348284272285
-46.8845310129945
-47.62428820226
-47.0219156139901
-44.8329000764149
-40.9781967901602
-35.8378349323317
-30.1663702197331
-24.7157015852368
-19.7978369026077
-15.1410634227314
-10.1914493086256
-4.58335153918769
1.55111803859844
7.61590659756136
13.0442401405428
17.8874988352763
22.6845260006414
27.6560689625784
32.4272907967509
36.6813242905034
40.4584790695746
43.2472902108204
43.0724786914979
37.2726432964647
24.8015044730738
7.91571818741397
-8.79797722056796
-21.6578354690952
-30.3692461043012
-37.2234771506247
-44.0883272583944
-50.5882003425362
-55.0113702690991
-56.3074347550551
-55.0033501247326
-52.5668113517876
-50.1127570829001
-47.6089734382775
-44.2203862509566
-39.348656710574
-33.2263691420297
-26.5394723100944
-19.6416832192089
-12.1425036295461
-3.15954067990357
7.92018545262715
20.7251881142165
33.9661866222503
46.3166817383416
57.1251071835239
66.2121716669043
73.2528103611002
77.6188326269917
78.7809581965158
76.8235491876404
72.6946599791885
67.9486130071452
63.9951679850458
61.3121753492991
59.2177747164513
56.4692745623208
52.3305951077465
47.1000947202245
41.3800225587464
34.9758958466035
27.1181930748145
17.883346041625
8.70732963603258
1.07056113507485
-4.94678854641316
-10.5388760452765
-16.9355876833443
-24.3933183266751
-31.9866591405948
-38.2024011764699
-42.0640598811045
-44.0076345218921
-45.7637957102416
-49.2917270832996
-55.417469606497
-63.0714317468106
-69.9572154477621
-74.3675149940516
-76.3291209512528
-76.7669175977137
-75.8959967057563
-72.9838828912519
-67.526125952716
-60.0685301702099
-51.833467117451
-43.879338816241
-36.5593782728494
-29.4882277569416
-22.0237767967947
-13.8923547331615
-5.33772426606094
3.22836619929702
11.5431588474308
19.5597581713461
27.3951952647954
35.1877363414191
42.9526698328676
50.6636621023787
58.4519206723546
66.4910382080838
74.4428192601256
80.9381441394648
83.8949834831916
82.0132182265002
76.2931775937431
69.5523295828656
63.878709983491
58.8704390901255
52.7490827394882
44.5889203822708
34.8257763603531
24.2293640830836
13.3759783914353
2.93524296826891
-6.40423529637503
-14.4337784031418
-21.3306248803916
-26.9516587815845
-30.6941247992667
-32.3853953865796
-33.0518377881774
-34.3154587458862
-36.8880337758243
-39.9193300366687
-41.9537674155793
-42.2238389758553
-40.8305138067039
-38.1597299628899
-34.6976651521181
-31.1935587419217
-28.4017793424844
-26.5626654997139
-25.2812578641075
-23.791104560198
-21.3689918208372
-17.8731165813893
-13.8793913068431
-9.90934050202552
-5.72385312164064
-0.999383349904089
3.47727669377761
6.09641502981357
5.97203963996757
3.57472781804629
-0.184106710637931
-4.79353353385156
-9.82933083589514
-14.3500241942108
-17.1478541637835
-17.6382574519952
-16.2615166814849
-13.8912264161114
-11.0251972537305
-7.74648757569042
-4.25831072549423
-1.00715682766263
1.81082438499317
4.5928019813008
8.07545985542754
12.8409253841979
18.9371379073529
25.6337012399459
31.5104042621779
35.1747644853459
36.2778435069827
35.9289973205085
35.9717711658562
37.5524536470032
40.1760251909526
42.2360278003892
42.5992743312798
41.6243315229484
40.6846520402089
40.9380178962668
42.4769323047818
44.1763805687299
44.1217791112057
40.5119989880572
32.6604435432251
21.5216854298166
9.42453394791496
-1.00542514134347
-8.32196231585845
-13.0266958982998
-16.7318697022585
-20.5105874924041
-24.3019996574328
-27.8575734659709
-31.6843546644306
-36.5802621436931
-42.3050020518945
-47.1075834141099
-48.9172291558116
-47.0800910055647
-42.8444371871714
-38.2784480459553
-34.9839934943906
-33.6221466836952
-33.9062381901051
-34.6696234513687
-34.3807689504327
-32.0845186412004
-27.8220088599004
-22.1468129067494
-15.6490027406809
-9.07596579757139
-3.33176150871576
1.15800283732919
4.94252524490812
9.1460661459148
14.5527804954818
20.911561304531
26.7583307975668
29.9052103529391
28.6541629261282
23.1431356597872
15.6461872522426
9.19486110585198
5.47308594093224
3.914412915334
2.79285927922898
0.953136094230647
-1.55534799480168
-4.04262969353024
-6.01158315500166
-7.75988551400242
-10.3707216722988
-14.5653086852533
-19.2263890487746
-21.7086097399113
-20.2111276516896
-15.4970937160339
-9.93459662203462
-5.33470773443481
-2.10124241577856
0.107724113091862
1.69794524653791
3.13810809590455
5.08345927900895
8.0891523349049
12.1760627798475
16.8463897109553
21.5797230939537
26.1407170283326
30.3325811489269
33.8022285579909
36.4260723031676
38.6234130581806
40.8408125142924
42.7940747785809
43.4370455809145
41.5305676867542
36.2766864832158
27.9401508173959
18.0681240069406
8.66944694449588
0.955276660320187
-4.96872234925717
-9.47020564299304
-13.0240758810584
-16.3044349943548
-19.911945101388
-23.7543979780721
-26.9622886645292
-28.5540721810201
-28.1601633809254
-26.1868309264235
-23.3862930416997
-20.2860409581304
-16.9684440408789
-13.1434417734045
-8.18003168381779
-1.28885770820288
7.90931544611296
19.0628153993263
31.4327889231746
43.8823935356378
53.927671897067
57.6576512446
52.125384099374
38.117635951626
19.8518054964293
1.91685085131433
-13.0345243930688
-24.3010574508493
-32.4104391097863
-38.7492767644148
-44.9098925742789
-51.6116813379342
-58.2724079709625
-63.7970424908828
-67.7372142394805
-70.5421018640796
-72.6334832382715
-73.475239497547
-71.8874424032599
-67.2225051115222
-59.9293554950774
-51.0183971882316
-41.2657062657664
-30.8750636687095
-19.6490878923233
-7.52117133066954
4.95796831995829
16.7943604733081
27.32708281082
36.7540850247249
45.9123188866516
55.6036692975915
65.8523980783965
75.432174758621
82.159330885044
83.9422407655195
79.7119059173778
69.6301692620348
55.0110926865517
38.3739693654632
23.1026421086781
12.1753578252687
6.62118002902254
5.04514935029696
4.76685426584557
3.69573264712624
1.4022383331962
-1.36519636081107
-3.86081973553208
-5.81792035860501
-7.11230365875254
-7.61680064288486
-7.48007052584878
-7.0717522600797
-6.4747333056685
-5.30806277826984
-3.16560474977225
-0.0752505794763088
3.53841116090422
7.29683773396436
11.2223548681844
15.5484423154452
20.1699534306846
24.5257338508363
28.1566048783766
31.1153703250221
33.6433187569554
35.6938100313406
36.9206832268505
36.8113577404646
34.6199082678479
29.4390713516169
20.5799454323896
7.85825252437005
-8.3428591989835
-26.9400882242271
-46.025434799756
-63.198358104448
-76.4039286166894
-84.7634450729808
-88.7938246886608
-89.788687809935
-88.8285732853353
-86.3194533057508
-82.3627465944221
-77.2260290567462
-71.2399472189743
-64.4481462136488
-56.6075421666459
-47.4863914867406
-37.1173377772472
-25.8483129921911
-14.0975273155485
-2.00907873101836
10.4064781056049
22.6568984285536
33.6446251093588
42.4695837602065
49.1847184964241
54.5323295892958
59.0319103801342
62.4589549321408
64.126943089026
63.4911865572896
60.4151128004481
55.1290918042278
48.4424184702945
42.0326983976629
37.804770836884
36.4107171537253
36.6601210715559
36.6303539624844
35.0233025455769
31.4880544630107
26.5089237255883
21.4250594670765
17.8526283927156
16.3897502908364
16.0251691430404
15.0458441492308
12.30330447773
7.51115229460239
0.749427277324399
-7.8211316202907
-17.6243313286945
-27.2355720351432
-34.6714058242971
-38.5328109795423
-38.9939896504126
-37.5577384169047
-35.8977884501049
-35.0174224559053
-35.1334451495256
-35.7724170244493
-35.8702390499178
-34.122329453449
-29.6575706580755
-22.8613191293608
-15.7877511474838
-11.2183734907429
-10.5081075126525
-12.3310920071262
-13.9407230498802
-13.5129386166996
-11.0183201757637
-7.32664634414978
-3.08115264085517
1.71190621687551
7.34716132724408
13.589990082637
19.1775442793
22.503961874691
22.8998680425376
21.0272004944993
18.1460612185409
15.3452689253185
13.3450568512235
12.4627936465614
12.4132540193694
12.2495495683729
10.8246123723264
7.62591357712464
3.29995416622706
-0.746077818654578
-3.39370103284915
-4.44318611161583
-4.26869815095435
-3.1918115728044
-1.3977876806845
0.771741313696202
2.72869881867941
3.89119134531226
4.08941158602116
3.75371441846748
3.49736098247927
3.45165852359322
3.30713005763088
3.02535509295944
3.02310842491944
3.47546055316062
3.87379109587559
3.59413004263463
2.79877655218621
2.62940194577526
4.28131296556153
7.44033095028865
9.59502924092438
7.5972862704661
0.476694619089884
-9.44304533121617
-18.4350761707899
-24.2281333838031
-27.0700025213653
-28.4842467293697
-29.3681360251252
-29.2444703303095
-27.0533649763469
-22.3869296165401
-15.9565994924889
-9.1368059146817
-3.16223064038347
1.52573960661565
5.47401539028836
9.75935523681445
15.0851234838549
21.0613699571746
26.1896071652943
28.6142754208955
27.3199626178796
23.0794169015945
18.2671723039835
15.3974651983351
15.5389046415008
17.883478598914
20.5121033116081
21.5949152991579
20.4358882700534
17.8445756750228
15.4116108023357
14.1712284415797
13.8718048676983
13.4001327101353
11.7467640427841
8.67340300366769
4.71347315773186
0.597281071735174
-3.41517531511714
-7.71954814437265
-12.9815803326819
-19.5643819982829
-27.0884602360143
-34.3239968942351
-39.6430169737438
-41.8793558241627
-40.9347053998655
-37.7280355157973
-33.7258403378036
-30.3668727888116
-28.5185000430308
-28.2065302472168
-28.7896167211675
-29.3615217045985
-29.1148396336777
-27.6413013233546
-25.0397572110011
-21.5856061089392
-17.2250007255686
-11.5442734284462
-4.2353817283529
4.56353657702776
14.2128394323513
23.5075745740728
30.8673463209737
35.2047320789107
36.8194662496279
37.195387209939
37.8171575282448
39.2644723206755
41.3310911107181
43.6790200050609
46.088446411449
48.048809192375
48.4762870965207
46.3572061382987
41.752174949946
35.760150839034
29.3077935683815
22.2440083245434
13.7557489383213
3.49908337034115
-7.67686483463865
-17.9830058506567
-25.8304430982786
-30.9915374252192
-34.5954188024755
-37.8862660225222
-41.0933934419822
-43.5077183758303
-44.4002583438509
-43.7003983832865
-41.8548752806873
-39.168777867654
-35.4358447764971
-30.3253393913674
-24.0119260790444
-17.1708056704838
-10.3734127522339
-3.74063003256676
2.82328608543267
9.28723126521329
15.3275202907748
20.3460358076062
23.8843997720617
26.2653483891065
28.5983159588315
31.8891571427228
36.1240113164055
40.0043036322006
41.4011253386757
38.711975670436
32.5661476898157
25.8182718477586
20.9645242460934
17.7384760276144
13.9954854468256
8.68405069650723
3.0627708212766
-0.908456523862747
-2.51924727866918
-2.55684232748228
-2.35399060925832
-2.88852197034593
-4.19603005821252
-5.12424116617958
-4.27471703698336
-2.34401332598567
-3.36628685876562
-11.860123698264
-27.6579097972091
-44.6000814922646
-55.6342402776787
-58.820568010779
-57.5979604995381
-56.0179011774277
-55.0319750922676
-53.0573080487121
-48.6474270098349
-42.0093017917415
-34.4884859851073
-27.1681649926099
-20.1498869724402
-13.1050895947403
-6.13750167516023
0.203002661861952
5.48192114939318
9.59549620005958
12.6977294355553
15.3341763405165
18.4514436164105
22.8110984358734
28.35736779381
34.3868397511539
40.3161609972668
46.0144299553967
51.2402930239616
55.0221099334395
56.1240674401219
54.3043188520756
50.7409360369447
47.0406831684081
44.172448078207
42.2370220517688
40.3223125316449
36.3391913996271
28.2316481896878
16.3266048095614
3.89751035872532
-5.50798636440095
-11.2024775718886
-15.4565672506632
-20.782366025797
-27.5844278604924
-34.3118017032862
-39.3010561596374
-42.0942804604099
-43.1384757204677
-42.8127529937566
-41.2611187756275
-38.981757552522
-36.8870129466663
-35.4917715430878
-34.3426724567649
-32.4511231554466
-29.1802841545341
-24.7029584128622
-19.7079116388473
-14.6255406399521
-9.1047735012631
-2.38445531250893
5.74188216319689
14.4053092812185
22.1287272111431
27.8088542523719
31.3593276285547
33.5553447856296
35.346882834763
37.3378082029427
39.7140473206101
42.2311741751902
44.1024517497352
44.2667640334889
42.1260977862975
38.0065438277805
32.9138118892735
28.0069753019516
24.1452873005079
21.5086814075521
19.5569023408745
17.5495012863516
15.1252269211943
12.3564481093106
9.4457814182967
6.43684415293083
2.8992817167075
-2.28995159412914
-10.5025393767201
-22.2465155205475
-36.4180729042179
-50.7648286539354
-63.1540447700455
-72.5716210216577
-79.1822809463771
-83.5660567692026
-85.9034777318659
-85.8770242758409
-83.172062384448
-77.8263552389823
-70.1822856072594
-60.7795007932492
-50.2867065813555
-39.3666856229788
-28.594456617278
-18.4462599172591
-9.19563235766961
-0.899009249185304
6.40110638170922
12.8271216324855
19.2881582426512
27.2891555927227
37.3411670104287
47.8981139929935
56.6378163628725
62.6578025854895
66.8813161092818
70.6049501312865
74.317805355517
77.8058141237182
80.7022133493628
82.6857332746409
83.4471076622617
82.6932852196359
80.1537463586695
75.5794811608548
68.8441320898499
60.0908318999445
49.7190959942743
38.1901928419649
25.9172619238881
13.4494831054221
1.65891099798194
-8.62374078846978
-17.3685839595081
-25.5121317312124
-34.1374288271156
-43.615938209331
-53.6043682443585
-63.5476000591204
-72.9293067012445
-81.1506620346785
-87.3664517790968
-90.6322994631925
-90.4863170483888
-87.4358952386681
-82.5814520030246
-76.6710391392526
-69.7796487034779
-61.8699490810968
-53.2272799925269
-44.2529366307054
-35.174349809198
-26.0416482149955
-16.8035906334786
-7.44707761152664
1.72621010903045
10.0745358105264
17.1583420787377
23.3719577324655
29.8416416293776
37.4326434537804
45.7685020796862
53.4538462281251
59.4629561647925
64.081168724553
68.1676314594752
71.712816931635
73.6218882503977
72.9142688588797
69.6844645121222
64.7935840127927
59.0181765394388
52.6846532886856
45.8753476599237
38.7675157597173
31.7534945059398
25.1848640047335
18.9120271789053
12.0325709683213
3.13725013841684
-8.83025953111186
-23.347607474837
-37.8439616961208
-49.0941236743778
-55.5382379551971
-58.0227356122676
-58.2337750169236
-56.9790945423306
-54.2746873659121
-50.5349161358567
-46.9910651636939
-44.8013809028873
-43.9424194536845
-43.1969103213643
-41.3555082070632
-38.2953927475223
-34.697431670987
-30.9187640811882
-26.4938393583396
-20.6521226916559
-13.0686206543293
-4.24279597672405
4.63819224255519
12.383714415374
18.5898741467759
23.6981257458828
28.265283118718
32.4011842108881
35.9030408796442
38.552024483646
40.1476350429085
40.5753097184224
40.0407707124303
39.1175037312919
38.4599473039038
38.3461554823374
38.2546176633141
36.9679534730094
33.5701508229576
28.4522448941358
22.9052505351522
17.5986011608692
11.8683565879627
4.6833504875585
-3.91941953205178
-12.4286862210213
-18.8103652980757
-22.0835431623005
-23.1795642144156
-24.0641323940047
-25.8263551039595
-27.8019399106792
-28.669901882988
-28.1194646635472
-27.1645381764352
-26.9229857255896
-27.4120596047053
-27.7252337512168
-27.1929059306264
-25.9954547089115
-24.6269106586478
-23.1413810167669
-21.081182555959
-17.8920348087313
-13.3529152177512
-7.95739481097924
-2.99173379459646
0.20999236191217
1.43561540941884
1.84070898222411
2.88066402273796
5.18341477327561
8.39350887115219
11.6411592805946
14.0366468573858
15.0882783816385
14.8834556643028
13.8832264222715
12.6785858683982
11.9671107028005
12.4289769745422
14.3718528955249
17.5691942556743
21.4686319883502
25.4540406274249
28.9851036826325
31.6826049049273
33.3628043098263
34.0377964948044
33.881237660772
32.9972054513868
31.1380737531698
27.9250423975437
23.4559873013317
18.3745205296388
13.2866412284472
8.48826332380485
4.17685170403377
0.323538226713271
-3.6491574273
-8.34399734305078
-13.3821715097309
-17.564877625226
-20.338639761383
-22.6098643710233
-25.6937619741799
-29.670941482864
-33.167602224948
-34.8786150655807
-35.2185666256806
-36.2605671243139
-39.8246754067911
-45.5869485864542
-51.0905002620524
-53.4910422426208
-51.344263607985
-45.1851148429083
-36.8402717910449
-28.1960354605302
-20.3926253159093
-13.8496366594423
-8.55718579250598
-4.12027694992295
0.0819505988247023
4.38823144925647
8.65379620761368
12.696591681048
16.6569476574239
20.7770638616724
25.1309200494348
29.6770341175308
34.2660490696931
38.5210825812962
42.0231822340548
44.7271540475238
46.9740035191037
48.9296909260635
50.0193655673006
49.015682177883
44.8703415417243
37.5825103684643
28.2485994781359
18.3751350628256
9.3054578898262
2.03319151877903
-3.05184764287871
-6.38501672921247
-8.73361976752165
-10.2573949084323
-10.3420690709105
-8.44483131713851
-4.8413375872129
-0.623665354102628
2.68665272755976
3.71577218979727
1.99326609252935
-1.76729844393386
-6.33709023320381
-10.8388054327214
-14.973833339064
-18.8722114576462
-22.8931767010672
-27.0103600421072
-30.0522806035259
-30.1073815088866
-26.3170075551871
-20.1584193890627
-14.5226270944275
-11.4526613372386
-10.9348227206351
-11.7290041579905
-12.8095362100393
-13.6727197721013
-13.7801328239865
-12.6297328124692
-10.5192209136405
-8.52978149367139
-7.35444473479046
-6.51082519851974
-5.03778928669843
-2.73396761759898
-0.405667984572081
0.999085612904415
1.23287738027554
0.751607748406185
0.156202562594323
-0.202525034584363
-0.184158052036357
0.307433170637779
1.2906280382418
2.58205566608439
3.83127811227566
4.63659177943959
4.63071829015035
3.71112280651729
2.30903511351062
1.18678830094958
0.904539058849451
1.7915428786591
4.37613846659172
9.1915903175456
15.7969275325093
22.3215514951425
26.3640226419234
26.4457709765343
22.7626333530847
16.8394659420221
10.5777324325959
5.45604049651212
2.2696697995206
1.17032673893292
1.69534423462382
2.91599462702599
3.84194414600686
3.83874286562066
2.85849547820681
1.46704294747457
0.517900974287171
0.545562913417517
1.49299773960692
3.04775793805
4.98275797916048
7.08351197808339
9.09970442491002
11.0298548409667
13.3037697066283
16.5079925929911
20.8391962062868
25.5371172667206
28.7264306017319
28.4274640224024
24.4056451260143
18.727020836324
13.8123895877307
10.1276310250043
6.34883192787108
1.50681953169385
-3.78314017452249
-8.24788205959866
-11.5533570342718
-14.7271848766636
-19.1991349732617
-25.6904073924646
-33.9861169981198
-43.224066688184
-51.8627204801059
-57.7377822265837
-59.1337986805408
-56.1429481789096
-50.5838931086051
-44.5208520665571
-39.1463325279649
-34.8085458484383
-31.3493281382842
-28.1589171655709
-24.3164742944986
-19.1501888270733
-12.8835391024872
-6.63955277148177
-1.46885882029018
2.71429240547586
6.86633348277952
11.4115589523579
15.7112508980935
19.2533199633521
22.6631343336849
26.804140426231
31.2705434065274
34.5303284899859
35.4061476839902
33.8280589774796
30.2873576031978
25.2059174070061
19.0159979912919
12.5173145013878
6.84961398233023
3.0103284226745
1.36692659668242
1.55816149137068
2.74466163114564
4.03279005218571
4.98563220493794
5.85094899677436
7.08084751393503
8.62641670259722
9.98417303483164
10.8461015326797
11.3051205724487
11.521748853676
11.6638947973084
12.1362393014911
13.4358933571472
15.7143507597069
18.5838900655181
21.1606099941173
22.3078076905605
21.3828912117765
19.0341399211862
16.8681674353636
16.0118632606281
16.1784648315121
16.220141875503
15.2591373240193
13.099767279558
9.86513969409243
5.63397129487052
0.509567561472806
-5.0707722924918
-10.257148448653
-14.2570544101067
-17.0463847651417
-19.4918536127099
-22.483754471
-25.7852572538348
-27.8864622190013
-27.3766565131445
-24.6026092444776
-21.6095248066433
-20.1784034065283
-20.2224740311966
-20.2791575587129
-19.0759035458374
-16.3820365128371
-13.0484276203874
-10.8229432867291
-11.6913705076754
-16.7049097648322
-25.2879608145326
-35.5860166580838
-45.2511254640896
-52.1850317885569
-55.238486815941
-54.4377669756853
-50.3810023555349
-43.553915339319
-34.3907918146961
-23.6464086877409
-12.3361435158292
-1.43674113212887
8.23576682181889
16.1562977261801
22.3591724812718
27.4601590799707
32.2698301178361
37.3782318075036
42.9143051660045
48.32516044037
52.3548221588997
53.6963122575674
52.1394621549108
49.1659322020204
47.0681654434646
46.9822700128522
47.669626017711
46.561570105094
42.119207987488
34.9463289116159
26.7756583670088
18.9817688285177
12.1658755378438
6.57958429850118
2.5119287265448
0.288379609818101
-0.0095577347122486
1.28140271824976
3.63048597590023
6.52168316415909
9.09339454877055
9.75296571322324
6.78309250087504
-0.379888116367913
-10.5662665622503
-21.4884744142519
-30.890496740613
-37.5599912338044
-41.7429001612023
-44.5703683171001
-46.8701319974447
-48.5049715202859
-48.7906945946542
-47.3553727315006
-44.5672726567616
-41.249711646869
-38.0067456557859
-34.8763466795742
-31.7515509731807
-28.8867251490432
-26.3932468644335
-23.1469238271814
-16.9027149722916
-6.09552743626065
8.53066955619583
24.2215339336588
37.9891936137088
48.1465869067615
54.548004656312
57.8159532609457
58.5951056654457
57.4927622430789
55.2986405465918
52.8025660093964
50.3790945787309
47.8939829563355
44.7957343747989
40.0017309835206
31.9706403757662
19.5984633060801
3.47202866510214
-13.9188159109659
-29.6130353433063
-41.9998128368976
-51.131919517053
-57.3744109716781
-60.353367038147
-59.6028403060944
-55.7208546100191
-50.211940017908
-44.3709605655407
-38.828206728933
-33.9541094400107
-30.0425063492555
-26.9950877043559
-24.248954789609
-21.2134684593225
-17.5745346723785
-12.9748272644088
-6.55594652591914
2.65306021694526
14.415770261618
26.5398978350148
36.1568214696018
41.9655450480463
44.6603738457549
45.0584888679036
42.818125524562
37.7165026901567
31.4410263958166
26.9344280384992
25.7523176016005
26.5397492685252
26.3591834898195
23.4352434096688
18.5371174691234
13.8485967533029
10.8959131826767
9.76412516083703
9.79984191188723
10.3736598227252
11.1041372251883
11.9845853870186
13.2040782283093
14.2016449558002
12.995202936424
7.30602936955498
-3.20701844514507
-16.0787207307319
-27.6155429183695
-35.3219571199731
-38.9058918310593
-39.3601056391819
-37.6186982818436
-34.3291614751202
-30.4765409258156
-27.4304217329498
-26.0647238889491
-26.1357915332109
-26.670508230895
-26.6526270069751
-25.2971804548863
-22.2371580653943
-17.8425906874706
-13.0421050821687
-8.32038931401264
-2.73453370160241
5.77003876491135
18.337493688121
32.9895117177226
45.0037611293427
50.5014300728457
49.5902368489783
45.1956154400703
39.0713480818726
30.0942906789489
16.6408081353184
-0.333725104412974
-17.0897832015765
-29.5814931422489
-35.936177874191
-36.9546962763076
-34.7837316965016
-31.3006878939848
-27.4277901477216
-23.3482388820815
-19.0191464378091
-14.6119193480913
-10.6151214866002
-7.43571973168518
-4.91348644073776
-2.38239602309354
0.807356076201593
4.94975163537948
10.0635122608573
16.0636036920583
22.726291974484
29.5212863797855
35.6417168618931
40.4125737328446
43.6435210686642
45.2675870771398
44.6483416884675
40.8873047765773
34.2051357813306
26.4823472527934
19.8476136088989
14.9440217234375
10.8763897899244
6.4990396354225
1.39409248038255
-4.17108048019739
-9.88805633875875
-15.8968087647563
-22.5339308860927
-29.5723892993429
-35.9545734406543
-40.4034147125939
-42.1280417052886
-41.0140309053554
-37.566848822352
-32.7824706762594
-27.7362287005486
-23.1320797216837
-19.279655068064
-16.277376367066
-13.9510794204233
-11.7412930781198
-8.91688010875106
-5.05179749286994
-0.477934119659856
3.72593035551077
6.62314903965306
8.58425225066869
11.2375601829521
15.9265795114728
22.3213588528515
28.4949719413689
31.957733981283
30.7817567784046
24.6909248255568
15.6501592547413
6.97040314498725
1.23450390973061
-1.12694167161461
-1.50943954068783
-1.76892931501792
-3.02770245553707
-5.24935113416013
-7.60352981185094
-9.20532308017256
-9.64865344813107
-9.06657138389143
-7.74602059467871
-5.52419393656761
-1.66793767656878
4.21447949749789
11.1255845706466
17.0554012451052
20.5605701437139
21.6207426762296
20.9840085111424
19.2333586812659
16.6431681778155
13.5075031558344
10.3206672059927
7.6383165797421
5.65967647401257
3.90796672237436
1.58079720980127
-1.66168418269116
-5.50402940922318
-9.68047324668522
-14.5804614212991
-20.8643910180544
-28.4877398961139
-36.218104259428
-42.1616882518406
-44.8760349577885
-44.2213537282233
-41.3437574542827
-37.8257657951607
-34.5987419449592
-31.3102094406903
-26.6061864306424
-19.3165070130608
-9.71309652621408
0.365893344065293
8.72254471939049
14.1973377599426
17.1821555500864
19.1198556147272
21.3805966573988
24.2279272641554
26.8090255325805
28.2477936156428
28.5885054645519
28.5549684652655
28.6188254453014
28.4973801732109
27.4897426217029
25.297580122862
22.5970750587839
20.6499385586373
20.1483297062446
20.5338177526651
20.5645982472779
19.4551847485009
17.5044545784012
15.82734544558
15.4162529703485
16.2364163676941
17.2756792293736
17.5333929188838
16.7121525878494
14.8923022185678
12.0131014422442
7.9983303340276
3.06669383164033
-2.40183953777941
-8.07571124403918
-13.5415371323233
-18.3006237251213
-22.2502613929962
-26.0229056085933
-30.5332418178063
-36.1005835617216
-42.0568518897181
-47.2440506699468
-50.8779509665158
-52.8412167095971
-53.1816463605621
-51.6455939437751
-47.9065664230849
-42.0450225734192
-34.6209408730353
-26.4326309275481
-18.2830248085815
-10.7556943921877
-4.09482169673364
1.61977174535284
6.27357485820036
9.86749401389557
12.753819208857
15.554643172508
18.9449138082829
23.5018186608037
29.3471764931366
35.6314170509382
40.5998033022047
42.5812179130126
41.1151462182981
37.1554110708464
32.2042716712174
27.2909937359255
22.7644660797849
18.7938013057527
15.6080123015446
13.1406225515362
10.9191907380395
8.71542821567636
7.04109417021407
6.55642346911959
7.10899017145531
7.71314731476066
7.36921382317863
5.63044280080736
2.55851978279374
-1.49537490191247
-6.02284218767335
-10.4115874051192
-13.9552591164421
-16.013188263629
-16.4099063892236
-15.6873904056816
-14.8597639662178
-14.880748032389
-16.143754893674
-18.1514187102499
-19.6886017631355
-19.706926461887
-18.2229180909901
-16.2714912924311
-15.028411500579
-14.9972674460232
-15.7513968563205
-16.2453450454708
-15.5655797130172
-13.5687124879464
-10.7647332592456
-7.69273717448784
-4.60753677153993
-1.60947773218768
1.26013275258542
4.03084424088088
6.68140007451202
9.08283228980746
11.3390627351998
14.1556489732466
18.4907789925941
24.5415892946883
31.1142704091736
36.2180331185843
38.424909163991
37.6535020124744
34.7207649323134
30.486830915982
25.6466702917916
20.8977912426614
16.5931506757994
12.1361753871441
6.18385596518256
-2.26321220746792
-12.9032160252234
-24.0425978724413
-33.3564429015911
-39.0864999696392
-40.8942616503736
-39.6645973110471
-36.5904434357728
-32.5536414719815
-28.089270984498
-23.4700858475586
-18.7962116442877
-14.2325887950875
-10.1138355942291
-6.7249942716715
-4.11394773709206
-2.07187537487494
-0.0253534851094057
2.93865322078511
7.48961834049121
13.36308954177
19.3639293748553
23.9675711380677
25.9375290136093
24.8463810075571
21.4204535775517
17.1975466552323
13.4713687726941
10.4689363812602
7.49891083629064
3.7479458480277
-0.966451819900349
-5.91252883035792
-9.85906810427085
-11.9422508829279
-12.1723599760418
-11.1841874040283
-9.73982826721437
-8.43106574821321
-7.46499815787775
-6.54075472972922
-5.04360089018843
-2.41363442170693
1.58619830152581
6.66710921624772
11.9731147310561
16.5186480707884
19.8373875203195
22.1160125874952
23.767133017923
25.0412686230893
25.9100199509913
26.1076823478242
25.3636527211176
23.6172516085249
20.790273277211
16.4449045553063
10.1001981627498
1.91428039695658
-7.31929063071468
-16.8456690432738
-26.2521460150446
-35.0926542722506
-42.585266439415
-47.8767192307765
-50.5276266702655
-50.6856936690394
-48.8053056084392
-45.2131599559766
-40.0142895327532
-33.4493575239632
-26.1449523600326
-18.811632587607
-11.7902333823059
-5.00130141410108
1.82698245586077
8.96660067718977
16.5092803976148
24.2307576781779
31.618358705918
37.8732945202169
41.8717926397329
42.5893272780635
39.9575567046162
35.1559207078435
29.8494552339588
25.1373867228714
21.0000746191414
16.4081657827473
10.1889959398017
2.30798096496913
-5.71907976107965
-11.9651313613207
-15.5090470930587
-16.6274849602729
-16.0774168510641
-14.5848492970355
-12.6842775230373
-10.5419834293243
-7.87233084783922
-4.13419737319817
1.11095124207961
7.68160597572268
14.1811753535415
18.1181589226022
17.3878732848154
12.0668861583156
4.553309945077
-2.22049748889163
-6.5938710747852
-8.36738543319072
-7.84109240179435
-5.26887803238006
-1.29184527991384
2.66710400632454
5.0698124180111
5.41824712164274
4.51567761831096
3.62195044238214
3.52526421220282
4.25895794190825
5.41278828697772
6.67213530326352
7.97266571193908
8.90273127468202
8.19254871994162
4.5011271587329
-2.03959903466173
-9.46431860447585
-15.3921441572365
-18.7149210252083
-20.0521040241266
-20.9023312804486
-22.34665231374
-24.3059092492613
-25.8794192067348
-26.2742957551555
-25.3658102141722
-23.6025884964313
-21.6041085111813
-19.7036544945999
-17.6215359829818
-14.5139126218842
-9.34215871719307
-1.37305295153545
9.09596547830594
20.0740042119236
28.4234981555974
31.9567250796644
31.1236089606439
28.1664246875649
24.66802262621
20.4447579072432
14.7650396004316
7.98845943971733
1.71269655927701
-2.50122745628853
-4.46116894529471
-5.44882612458275
-6.89670456085754
-8.90615849133625
-10.1998539707128
-9.54529640706926
-7.03528890840299
-3.87603226676796
-1.04576738187272
1.61956683351491
4.88799828507435
8.84891576919213
12.5239242651664
14.7836669416018
15.2568941542975
14.2405922295782
12.2045125129989
9.65538462160489
7.12615816807035
4.99714809654539
3.44590838261684
2.59543407420214
2.50386306889392
2.99840201664771
3.67852539404606
4.08987372931317
3.89992062313502
3.10357008585851
2.15512963992989
1.69461035952733
1.97671065630762
2.6589645321882
3.2170739183365
3.4512342933554
3.51172421765584
3.48640506937615
3.06555215583042
1.79177628659085
-0.26643522910927
-2.37751380820937
-3.98646094433099
-5.41791911575844
-7.30114117572164
-9.48270208860257
-10.9883841405094
-11.002516330288
-9.50166388736585
-6.95094524595694
-3.77441533846107
-0.352214075537596
2.62782903405296
4.28207167898327
4.39934195624357
4.05858815115536
4.83686565307012
7.20800152825325
9.93459473899142
10.956360670199
8.64048239457838
2.56597445204785
-6.23834206825041
-15.8707259962996
-24.8224933410784
-32.6810805689115
-39.4887396658131
-44.8050163675556
-47.7765952020715
-47.9600172688659
-45.8115928002063
-42.3821381163555
-38.5243561554797
-34.3273692907742
-29.4506639864466
-23.9858630043434
-18.4560821537737
-12.7056272819901
-5.5285529007883
3.82132463186146
14.132491608679
23.1960733619597
30.4643277522502
38.0857830614468
48.559529431694
61.2044202149816
71.490518789211
74.5027699183335
69.0790006427289
58.304242398681
46.4122221183169
35.9274536935184
27.4087599881245
20.5934246677795
15.1257750478668
10.6955953225979
7.04956560882175
3.94863758482744
1.1558933015564
-1.41156222789793
-3.58725640186974
-5.13915246297028
-6.04046786039418
-6.54674323100254
-7.01165300963579
-7.56323932765256
-7.98536907252051
-8.05271823777336
-7.89290861150395
-7.72618951080624
-7.29364521037252
-5.98864497916748
-3.74357716958832
-1.51316080767595
-0.739520624867013
-2.50613576560383
-7.11629600812691
-14.0414987992889
-22.0612837711173
-29.6220163207667
-35.3104854411512
-38.3261759471427
-38.8923523093619
-38.1862426525726
-37.4173674558567
-36.7349389933833
-35.1626059644814
-31.649678451762
-26.1306145488037
-19.6742367617035
-13.6759298702273
-8.67990178783871
-3.81004344059507
2.46552664854916
10.7640916842634
19.9658248739971
28.0633056648534
33.8982121190546
38.0132893512749
41.6354242692262
44.8321632765235
46.0338396040517
43.6338269724435
37.8226451841644
30.5911006135087
24.1465002790996
19.5410613500252
16.5094408669446
14.1344726596169
11.603026258732
8.56349621253874
4.91282343182544
0.379132480697543
-5.4137279595502
-12.3397988556428
-19.4223955474
-25.3002273419368
-29.0750254405745
-30.7508822681685
-30.9754177385619
-30.4327508497241
-29.4846848564315
-28.262907754915
-26.8352585254361
-25.2219769872898
-23.5446569927121
-22.2478243920302
-21.7745611907101
-21.7691824225315
-20.8605693127832
-17.5146949870283
-11.1767300729139
-2.77284097873585
5.72373166152085
12.4572392820014
16.7860833390185
19.2846843738268
20.7528496217599
21.543713810174
21.8233734725386
21.9574879626047
22.3808371468224
23.2992059086155
24.5990274454663
25.9044515801465
26.7808028195941
27.0720960238366
27.0274860034266
26.9914791207069
26.9769951256899
26.5636957108783
25.2071348774121
22.7313551443862
19.5926609417047
16.5546073206125
14.0319181541033
11.8685766287794
9.6691492740877
6.97629620316196
3.18180172848862
-2.1667218768592
-8.8618343940616
-16.2847220392349
-24.0814151721582
-32.0028760152742
-39.1596115245662
-44.1857396128304
-46.374641840692
-46.2627462458544
-44.9688845986439
-43.187347448909
-40.8599141174493
-37.6558321205936
-33.6159754090917
-29.1549987630196
-24.418230774108
-19.0211613138116
-12.7397259258656
-6.14166149033078
-0.0177785793450509
5.75597316247701
12.2461170724511
19.9900395859371
27.6840452679373
32.8631111037938
34.1173566214924
32.2970513365674
29.2826762205531
25.9930818579132
22.0414813645236
16.9744160915623
11.1871546084729
5.65873852725117
1.27389917144415
-1.56705335728663
-3.01699694113756
-3.48451754467751
-3.10413886198886
-1.66949552452731
0.754953015086838
3.44192995902756
5.43330729043242
6.16795103615388
5.65710071542984
4.40312615700784
3.2931733862413
3.30811197803755
5.05403257440924
8.35573381624243
12.1025332779701
14.6068971038153
14.5277692104947
11.6750101887109
6.96883390677445
1.80825167492407
-2.51562019607274
-5.27564701701055
-6.56006301731696
-6.94752408847876
-6.91719297069757
-6.80971582047696
-7.10485250835941
-8.11945638291807
-9.50043013533154
-10.6567735520766
-11.7776127964598
-13.8818796017562
-17.6016745607485
-22.110554665298
-25.3848358553414
-25.5771173192236
-22.3976617229491
-17.3947295242416
-12.7998831430382
-9.89198348111631
-8.33245838486826
-6.84755470517876
-4.38798566333815
-0.85956016757952
2.9389564765973
6.09651986513844
8.43896098215271
10.6013768223605
13.3121395473408
16.7080809580733
20.2690272186084
23.2914868906
25.4073603088839
26.5506996422191
26.422092545017
24.4690669821031
20.8428792865387
16.9865200519234
14.5671642778442
13.8538405614821
13.613021647166
12.5354445333768
10.3714591691113
7.75141616571617
5.3193165831604
3.20861959909405
1.28188426230925
-0.246089772039736
-0.652563176709645
0.613524990615456
3.10320862728584
5.29833593765911
5.36299765583447
2.09025041410756
-4.50494273556204
-13.1717043239691
-21.9549953181319
-28.9610135574128
-32.9812500003464
-33.8771658079313
-32.6916352275788
-31.1832340684945
-30.7118221543013
-31.1926282849407
-31.0268764791473
-28.2099952259069
-21.9872942289203
-13.8252765922591
-6.58542278901705
-2.35374492321446
-0.999904963627338
-0.727009242078765
0.419799220990905
3.57248198097563
8.70464022468206
14.6130399193205
19.4712607823021
21.9030175142486
21.7186823338378
19.7417143739915
17.0091194135632
13.9575132975877
10.244737434054
5.52276163932492
0.369273267729002
-3.88637728484772
-6.30875751415148
-7.01285603198233
-6.66574599758419
-5.62536001432655
-3.59521269065977
0.0037336475825731
5.17305764248016
10.7119659356693
14.7323618937062
16.088684593642
15.2016157296417
13.4276071477763
11.906318339101
11.051213053739
10.6789050342692
10.3161907813955
9.54251236673198
8.20592293597662
6.36055694712937
4.17349978474714
1.98826062943064
0.273166060593583
-0.66603646691033
-0.896143386627291
-0.817298519432651
-0.965034825128104
-1.68649210456753
-2.86019470192225
-4.01430510426542
-4.78830393168962
-5.25333579929575
-5.8737553989237
-7.19358691040357
-9.29410036830029
-11.4019163999472
-12.331603051286
-11.5694150897115
-9.76557741127257
-8.05138141068276
-7.01174281538737
-6.29515271709928
-5.04542490771715
-2.76580318960619
0.133867930325057
2.73376891199568
4.50463921108302
5.58914554266251
6.31249620086792
6.84475776357309
7.3488544025096
7.99139447837651
8.6351636376911
8.80414224860978
8.06884063067926
6.3284205583451
3.8060698864924
0.97382496831048
-1.65981875983657
-3.91430319467072
-5.97432352552164
-7.93934544435249
-9.51603265822228
-10.2870387662478
-10.1813156635106
-9.64424656167211
-9.39100499345818
-9.89315404737547
-10.9930928073253
-12.0460700859954
-12.4120863882429
-11.7162585376719
-9.73747222812024
-6.2931245085667
-1.35243751098308
4.70146439425048
10.9026136475971
15.9561443213965
18.8780247659907
19.3996556167109
17.8817641567161
15.2780073781902
13.1132435586266
12.5368888224912
12.8125650785461
11.4300708216607
6.56854282782125
-0.669170498395437
-6.95935376820035
-9.68557098873893
-9.0341683651944
-7.41008562403004
-7.04196682583107
-8.12106358513973
-9.09682853897546
-8.52033908805408
-6.31587744936281
-3.43938845949679
-0.981560296766916
0.148177311656243
-0.724114227510311
-3.68471818870141
-7.92627152399582
-11.9433447233048
-14.1487915849426
-13.6640231206123
-10.845785159591
-6.92391025282327
-2.92470595641708
0.944437257599939
4.85930839010391
8.66801779456876
11.7171742933759
13.1230440928101
12.162404446182
8.6838455353235
3.39425139521105
-2.08667149906614
-5.46102781597409
-4.64074151604083
0.710444240134066
8.34444674432775
14.7206484171616
17.5641618125133
17.2120706213988
15.6304776697012
14.4010169357032
13.6333109045176
12.5031079618986
10.4973522172156
7.91186096351429
5.20871954677457
2.31701536560543
-1.11254175206052
-4.99974856062436
-8.75919195294089
-11.8087453654471
-13.8463111628363
-14.7629923465749
-14.6046384983309
-13.5844093313344
-11.9689510642593
-9.98859088865901
-7.86842417908509
-5.84360939523117
-4.17812813289199
-3.22070453802262
-3.26582103534487
-4.21710150906045
-5.48300787666769
-6.24738126235874
-5.81207263666109
-3.9053696951464
-0.940441170107171
2.1445498115902
4.53531195109329
5.96866640580573
6.5116713570918
6.22529319824744
5.16405269249151
3.46867336265709
1.38849049317233
-0.639639355841847
-2.01442194689695
-2.25790533302044
-1.2203965394166
1.01868979247884
4.15131571759142
7.39419336548775
9.63251673008382
10.2542698773272
9.79806106842097
9.50582287827141
10.2058743970575
11.7091137888014
13.1726453453772
13.8363908837102
13.3404106857092
11.5175050404956
8.29485988005073
4.04685463562901
-0.266817349859883
-3.7367682874481
-6.17995096765917
-7.98148335588613
-9.57995599159863
-11.4155380692665
-14.0203531565904
-17.6384928205793
-21.7539692081789
-25.23254153836
-27.0400443799859
-26.949703710651
-25.6422459400432
-23.9666522855795
-22.0108072946354
-19.1021509186422
-14.7641282042688
-9.36969870198763
-3.82321703832433
1.02740105547505
4.60792497314065
6.67480025448609
7.42370478326527
7.46613824515329
7.56904484796192
8.22741879045881
9.26515320802636
9.94034472510533
9.74570140868173
9.04137945552692
8.55120734792125
8.33915885284876
7.78104134925065
6.56390821480123
5.21555396672703
4.52877958858106
4.84935448721177
6.05929968990905
7.95977164188343
10.4349694628621
13.241301276689
15.7811011342004
17.3509432653123
17.7717863032036
17.6497599678332
17.925722496981
19.2481109640725
21.6083157246951
24.1783560079528
25.559299688633
24.7192877556183
21.881031328816
18.2106089477299
14.5446833410145
10.6104980574257
5.49705581948365
-1.24808177855987
-8.95264166724549
-16.1532761834242
-21.6080394398296
-24.9780311465128
-26.5902983103143
-26.8459283009068
-26.0544952501326
-24.6145225561652
-23.0501156171805
-21.8234374653085
-21.1198788248169
-20.7460757056748
-20.2523736347951
-19.2252107594732
-17.4636377938615
-15.0128232925586
-12.3401726264207
-10.4076724505722
-9.99206518710598
-10.7264583281804
-11.304568788689
-10.8459975563378
-9.62375085298244
-8.3708303141355
-7.46148135390842
-6.95107196200063
-6.83660385418464
-6.88995930156676
-6.46391451806883
-4.77261330036163
-1.49402691124436
2.8465469057453
7.16695793350967
10.615934206503
13.0310685839097
14.7338521279973
16.3226932479577
18.701551975573
22.5786389159207
27.4686512307207
31.5937028710567
33.1446249503912
31.5027279043873
27.307209409268
21.7635996662563
15.9171719690376
10.2341361656192
4.75247255890095
-0.355255554764025
-4.54676917710174
-7.29656840401793
-8.51214437526765
-8.53880709623085
-7.97462784012001
-7.43544288916207
-7.17809390622203
-6.93161207763722
-6.35308597574799
-5.60455872863561
-5.22718962609366
-5.50542988463404
-6.16046000695763
-6.61346902521874
-6.44209323019385
-5.65436752919992
-4.56925777244588
-3.43923131051964
-2.3089485001639
-1.23047030197899
-0.344401823212704
0.323797748782858
0.884086015075743
1.33981967651374
1.56446575399416
1.53308222890702
1.36658925219158
1.17360498041033
1.0030282785824
0.879561279221184
0.800326488647467
0.79437116757552
0.950497102160498
1.21826599690185
1.29548520961513
0.943792725787101
0.301176508332614
-0.315422448504396
-0.775682777192066
-1.1391682248996
-1.42981302244625
-1.52292114510403
-1.16088080229045
-0.0856584664097341
1.69346056742597
3.79272907627132
5.74552184561301
7.31539257133683
8.4426289865793
9.11624782892023
9.44302870138125
9.59917769113812
9.60100443698335
9.33954016478916
8.78385717604273
7.80205714499124
5.86084596742042
2.33147001732536
-2.84697885292074
-9.00710577029423
-15.1678379803946
-20.4656422234638
-24.3585576553818
-26.64108444882
-27.3203776934517
-26.5637768999921
-24.8041722225242
-22.6581201740886
-20.5353882121197
-18.439393906911
-16.1948992658544
-13.6484519189217
-10.6044157726233
-6.82814674184626
-2.2696537135184
2.71783777127341
7.37590022226781
10.9359879027517
13.3179821090518
15.3314060812708
17.7933510750079
20.5099173666782
22.5246948393512
23.2597077852717
22.9268024604062
21.8996520119695
20.2535492496332
18.0279629758348
15.547375401991
13.3261323081512
11.7244285552492
10.5968432019801
9.27736590500498
7.16814703093592
4.38076053889968
1.61297471955063
-0.495627385375145
-1.70928100187642
-2.18120336372159
-2.39243582425217
-2.91080084153038
-4.00732852885997
-5.6260681724772
-7.62800402306696
-9.69945674713607
-11.1491562618305
-11.3652894986187
-10.5617456940462
-9.62754199816598
-9.09557920178258
-8.56612904341311
-7.30596619031386
-5.233967411666
-3.09178626396724
-1.61218625508868
-0.74652462585163
0.0374906405824589
0.84770546885906
1.16094471137092
0.520251440194338
-0.938618086671544
-2.68614841908392
-4.15646453686939
-4.86472090022051
-4.57045662300787
-3.50419861462947
-2.22726695373742
-1.19259512245807
-0.539196265753423
-0.173552334675169
0.150220637665249
0.677161333828403
1.37553130698219
1.92132233491985
2.03929710488865
1.74353514422901
1.28448411911186
1.01649887495914
1.20329217932865
1.76208674904606
2.29764782616501
2.52288603293612
2.55181199022704
2.72351609392301
3.24030462508414
3.9815348393616
4.59221367225696
4.7791139554998
4.5138984590389
3.87434875007543
2.84552666879486
1.51333254945896
0.259210572757667
-0.597827466193843
-1.22273085214629
-2.00354347081018
-3.01280712602887
-4.02559953118189
-4.91467888430331
-5.70622384565068
-6.31319306395552
-6.51696661388953
-6.32825433657071
-6.26250279900277
-7.08281657466605
-9.10122499323867
-11.7035742989108
-13.7019879928008
-14.2139222028781
-13.1373845780213
-10.9372533831388
-8.26960878901081
-5.6643772790347
-3.13695055716506
-0.160333095668477
3.60738376047215
7.66306723624426
11.079609810565
13.5123181762783
15.5414885572354
18.1082982531334
21.7192277689753
26.0053108594457
29.9071071952524
32.3555670964784
32.8203649751756
31.3379986468334
28.3755371806878
24.7421747105337
21.1559284129199
17.565045982715
13.1054572638843
6.92913828889316
-0.947381225910041
-9.44479935133357
-16.8504017430751
-21.6960563221072
-23.6493180755057
-23.6171039671471
-22.8875055773759
-22.224350953282
-21.7086495888403
-21.0766020870748
-19.990739483832
-18.1784557552943
-15.5495456797087
-12.2291682293164
-8.53362509844725
-4.96275282709153
-2.01969434587355
0.169643505459468
1.88810405377832
3.19567607670941
3.36486560616611
1.35945591377684
-2.81275877913175
-7.3082519683511
-9.49391458038716
-8.24931224641542
-5.19747192951155
-3.37671809772904
-4.70556494840603
-8.76166596797376
-13.5544843497501
-17.0415345638326
-18.2224497800503
-17.4077655762325
-15.6245825605965
-13.723445323429
-12.0669226470962
-10.6894542959077
-9.09072364204094
-5.97393465370614
-0.107343528524562
8.08048602164268
16.166287132968
21.4408787020485
23.0785385225928
22.7313932273244
23.0382032233611
25.3226575485068
28.5025399028018
30.1797495951686
28.7220769630995
24.3046215508795
18.3680170786676
12.5474654194414
7.92988810365402
4.7244453188068
2.42395755425069
0.428543452957094
-1.45069325157046
-3.00815615873069
-3.86670591945165
-3.67389605252608
-2.41235500399959
-0.603793554063206
0.998273229384914
1.94900001018275
2.29907290951812
2.40846690528322
2.66292854397294
3.18280379411725
3.69785559029361
3.79569056948108
3.29544960519644
2.34685924934645
1.2880493534347
0.42016124122696
-0.295647267782537
-1.33339275086747
-3.16540013675213
-5.75481374606576
-8.66134101558485
-11.4725286564913
-13.8914002057941
-15.6492062292105
-16.6758383371273
-17.2336026770727
-17.6382416327684
-17.8969706096704
-17.6701129080938
-16.4456594728535
-13.7841303040839
-9.68962627656618
-4.84966604658135
-0.313576328329332
3.17578859879541
5.493797480758
6.88555018522333
7.57571778128101
7.63808316541111
7.2323019623158
6.91519206300369
7.40948070518714
8.79576410713345
10.1464618428245
10.27883332098
8.79138391161791
6.26559860458374
3.71556698971072
1.96077467842377
1.19871384291468
0.93671406728917
0.449661589780351
-0.634855992160608
-2.23738740671953
-4.08729365448427
-5.82919442563355
-7.01743761651015
-7.2916333063085
-6.60908247859873
-5.31285035612423
-4.03341364261878
-3.37591050481118
-3.47089488656614
-3.8754905366192
-4.06701674273848
-3.98108474037353
-3.96802916737008
-4.25697124938267
-4.49960013006204
-3.8572827448089
-1.6429707035737
2.03557677332656
6.28635556136361
10.0151418712822
12.3679194688994
12.8080965309457
11.2578265017339
8.29616593422823
4.89911698901597
1.86897256490142
-0.365211804945186
-1.62696603735733
-2.04858921609358
-2.07915754959698
-2.06776417166407
-1.9340780244887
-1.44952984587238
-0.653708454791952
0.143418914331953
0.542165548391796
0.174245230894667
-1.05168979386932
-2.68592794621796
-3.8774775570028
-3.8726005952132
-2.41986128248925
0.165382359685741
3.28208009877243
6.46283877169282
9.45982062042853
11.9094395335822
13.226906494448
13.0392037492727
11.4973567335568
9.05411309696676
6.23621398568771
3.72490351173699
2.26135239086719
2.17631822432647
3.09342671663207
4.1665740641212
4.59294135616891
4.07315020162005
2.9684912563554
1.89324428637388
1.03931924076928
0.100012290405061
-1.10346569046756
-2.29125404455296
-3.14647505741319
-3.73593487318225
-4.40455965937573
-5.51048775081839
-7.28753495369786
-9.72840063058366
-12.5382320059127
-15.2436353667958
-17.3341675511353
-18.4678205461636
-18.7751543563738
-18.8145792063212
-18.9722318763547
-19.102377729667
-18.9983147341913
-18.8780548733862
-19.0022224897551
-19.0393360795813
-18.2192879677888
-16.0997266434286
-13.0219895192632
-9.80115119265916
-6.88370059469553
-3.70874365147767
0.931393243306188
7.67052324448719
15.6927899779602
23.0550461272194
27.8094501493033
29.0458800524797
27.309876982116
24.1677576218651
21.1381702161598
18.8678546536679
17.2700022946476
16.1931776298614
15.6703276318636
15.6261870064648
15.6437551085732
15.1087559348868
13.6051942079203
11.2874763025993
8.84804418178891
6.97742899803907
5.86879140377139
5.28987110473965
4.97449295301845
4.84565146249638
5.00690205273013
5.58787374490737
6.50444104832031
7.41657980997406
8.02794232716858
8.32765031947164
8.49162100747321
8.73364421521454
9.20677004598539
9.6717635864896
9.2212557641167
6.71933793352128
1.65315595739107
-5.54553050418344
-13.8099806537223
-21.8745970314884
-28.7740968302011
-34.3038626325725
-38.8266854901898
-42.4598290390248
-44.7439246272882
-45.2695989856227
-44.2655438871783
-42.3198011000043
-39.8067407426798
-36.8350359202309
-33.5309248865718
-30.0734549775613
-26.4125623279087
-21.9946497590855
-15.8791007614134
-7.42769120717161
2.91622127715041
13.6330547943171
23.0558123021993
30.4065051657723
36.1180136961736
41.1699329617687
45.8204340815299
48.9124167077455
48.7908950402062
45.0641315350909
39.1755957667878
33.1687178161731
28.1915771240703
24.2143663794766
20.7612968864709
17.6076615377462
14.7994982560929
12.1779597564047
9.21426302712279
5.60426276696831
1.84722293786027
-1.18850716264827
-3.27838482893901
-5.12497928876795
-7.62269807252567
-11.0162669805831
-14.7342303929467
-17.8913345971268
-19.9442809002843
-20.9287267475854
-21.1726258446512
-20.9784646143235
-20.6236303763358
-20.3615102566643
-20.1671270821802
-19.6695806582629
-18.5889636578187
-17.1353775011826
-15.841754856558
-15.1121669770662
-14.9047275858981
-14.6077496634132
-13.2681772210158
-10.2831880335197
-5.98405890965376
-1.41585000943743
2.49440973198461
5.56601956243765
8.26895966816982
11.038260561481
13.7143743137293
15.7920800854384
17.1094915010712
17.8853559799278
18.0676059644647
17.1801646038802
15.0151173953139
12.096542059811
9.3402140309116
7.5496858753849
7.16151498425779
8.02822072247445
9.40431821447375
10.4531479307685
10.8232590087952
10.6689111772855
10.2990604733846
9.95319125907051
9.74646968220917
9.66816028770776
9.67943208053401
9.79895158478623
9.96369300254491
9.87121393465327
9.19035828597107
7.95157924915322
6.56773331496812
5.44470533219958
4.63164008191295
3.79049639919543
2.42405133064378
0.112929042872536
-3.47767922426673
-8.63430704759847
-15.2334433814789
-22.2689262814991
-28.1635473125423
-31.8137153720575
-33.1970695600682
-33.0280150852378
-32.1484186912312
-31.1595805998775
-30.188277024888
-28.9282925133564
-27.1318384458209
-24.972680090332
-22.7466672539402
-20.4684686773625
-18.0797086543968
-15.8542040440771
-14.1419691517081
-12.556562932635
-9.66059827675795
-3.88017939956502
5.00827895114339
15.3640843593953
24.6907987184646
30.98275930318
33.2496392069035
31.5289057323811
26.9771293083732
21.600961094925
17.2438598806437
14.676113461176
13.6501261430355
13.4712570141967
13.3687080270315
12.8383109903509
12.0536207626322
11.6991539820163
12.153227590484
13.0301047138383
13.6159662144675
13.5441292238258
13.0006090433747
12.3985604246111
11.8483324158569
10.9919188834575
9.53107683538702
7.8064680607106
6.53206494354312
6.00785416584474
5.87963482973736
5.57760058568937
4.71974206810109
3.21442696433551
1.24639956179989
-0.870929561578468
-2.92760375105404
-4.85359679374901
-6.62056564544968
-8.28875172725295
-10.0383145115994
-11.9599136491413
-13.9122819582628
-15.6783308872672
-17.0780270746891
-17.8689301025294
-17.8178561629104
-17.051525841276
-16.1726121857477
-15.8467579793988
-16.2606357608307
-16.9588213138995
-17.1589510918585
-16.3144209483544
-14.503324245131
-12.3050490630673
-10.3474687920225
-8.9664552887178
-8.01967760117558
-6.82482214401522
-4.61463875177335
-1.4247193698881
1.70471931552195
3.75258688419791
4.75860706406285
5.60627752444451
6.97869983072912
8.73384952175955
10.1545609120537
10.6754364155934
10.4182182480165
10.0079633812485
9.87909248559726
9.93701623817285
9.88027563197418
9.56608388373592
9.06258582657303
8.65421446256213
8.7644937772063
9.54531787373736
10.5362889343961
10.9338835722051
10.1730449587142
8.23426655977074
5.62637180867707
3.16353029365736
1.51085937126246
0.767746112131999
0.530870972654321
0.328811058131643
-0.0755942063674455
-0.633832498575726
-1.05020570091988
-1.01421890908988
-0.620667590712817
-0.454957691667009
-1.10172041819199
-2.65562742592176
-4.71904084088705
-6.65920000951497
-7.86400309442181
-8.03033858061493
-7.34185996615961
-6.31341868534543
-5.45738505421885
-5.05622361497243
-5.10173214633812
-5.38834725731571
-5.68599497507388
-5.80888794829257
-5.64527270636388
-5.35017447642413
-5.36204930475103
-5.81885425146334
-6.02627429169922
-4.95627650830363
-2.28585763453539
1.33875000764821
4.87758115355842
7.42858783426076
8.54444605943728
8.54072459875641
8.3654251170329
8.82206800713016
9.98142804104001
11.4434997018877
12.9161014880007
14.3412918536746
15.6090896942787
16.3270925263613
15.8933636123881
13.8473365104198
10.2302343889251
5.58438998487984
0.627881584047446
-3.97913164712161
-7.73616304982528
-10.5476874239421
-12.8476635900698
-15.146793910169
-17.4330245384752
-19.2055983043782
-19.999212203437
-19.7371296115173
-18.7606220607705
-17.6213887011519
-16.6157124689108
-15.4440521403106
-13.5305836861661
-10.6706703955161
-7.18551808920176
-3.55341192975583
-0.0988393360197161
3.07903690906543
6.05293170575065
8.86396162368292
11.3415187766567
13.2612622677682
14.6230468671476
15.5828746418459
16.1503027919461
16.0515966326188
14.8321247386931
12.181220145022
8.41264514045851
4.56507561176692
1.70513925758864
0.0989294291041708
-0.755314747502971
-1.42560948256491
-2.16481487480313
-3.05426163104328
-4.08535834381243
-5.0462611696378
-5.599098763075
-5.5492555499298
-4.96318397998883
-4.07740196071832
-3.15482809530449
-2.35923100641124
-1.69674463380102
-1.02147089812012
-0.0589632101210574
1.40472073655923
3.13561264185813
4.41578831102694
4.70163024876888
4.18715271303533
3.4420856474854
2.71887121616646
1.96020356253672
1.251189577124
0.822530268250769
0.652188076152929
0.3308983949543
-0.655589330311533
-2.51406183771434
-4.89666561709064
-7.12093708026271
-8.76542810419827
-9.92092311597108
-10.7533684084912
-11.0722952621232
-10.530234587528
-9.0619708304913
-6.93687326257894
-4.4584412382685
-1.70042165755118
1.48901180674982
5.19075943572132
9.08680352903852
12.540468384817
15.0485352159752
16.4604163323959
16.7963647253428
16.1875444453421
15.0036805440281
13.6326936403336
12.0765160079274
10.1086582379775
7.79458087845314
5.49396799773758
3.41376539716445
1.50652254578318
-0.241077005790939
-1.72069266421089
-2.92487403132708
-4.09757035681869
-5.60277078582421
-7.61009479009587
-9.86567412994706
-11.8124161508702
-12.9734741996264
-13.2169104951911
-12.7666561511179
-12.0711067893274
-11.4886484421577
-10.9374529490002
-10.0824759192454
-9.02458206945558
-8.44091661836204
-8.75085685776119
-9.41242609390086
-9.29698188494385
-7.59956320723362
-4.33639172561409
-0.245151803125343
3.71067299074184
7.02787177291584
10.0355597689252
13.4724186357059
17.621541581464
21.9065588898799
25.3002487956219
27.0987580867286
27.4230575383748
27.0363279850116
26.5769148960986
25.9078574772438
24.1527056266581
20.2105718498594
13.3480699477578
3.76633005941385
-7.20458509837273
-17.7496415143185
-26.5687444041436
-33.1854543892582
-37.5362621108093
-39.6928383661937
-39.9385058726744
-38.7513477015186
-36.6358285515674
-34.0450632918694
-31.3240918740478
-28.6154228705139
-25.8986776754882
-23.0309628041849
-19.5365312320427
-14.5301398433223
-7.2455019344285
2.27377684004954
13.0419387330428
23.508407055053
32.0571461421884
37.5327686234559
39.6214842690878
38.7711951072698
35.7762697792507
31.4441894234769
26.4130943056436
21.0442618188615
15.5644734323469
10.3888767776587
6.08995910544397
2.93952861921999
0.704094450874443
-1.02553454794273
-2.49330281050359
-3.718500748254
-4.51360970043518
-4.60876084321656
-3.96762499032864
-2.90790661627614
-1.82545405973119
-0.974164137420144
-0.523285031268825
-0.542060961817928
-0.876244656845707
-1.25071172102587
-1.47523357287414
-1.4450510733696
-1.15046070531633
-0.832842265049512
-0.834206660649308
-1.10218024490684
-1.1492587145596
-0.722545259443825
-0.293032732698009
-0.684123505194246
-2.25201023374014
-4.42083247122591
-6.00842381273137
-6.15767280246664
-5.0295431809808
-3.50929829570535
-2.31354704875597
-1.5626807600988
-1.07983244745657
-0.746060781371462
-0.519846690181931
-0.367331705512416
-0.2555204090759
-0.101564862558391
0.240569753242549
0.837301503924385
1.55259617932011
2.0722545860595
1.98795055670847
1.02178809913115
-0.593466652846409
-2.09370439434857
-2.80986258351482
-2.72713567560561
-2.27028215478891
-1.72870667050033
-1.07134658005379
-0.157558638571855
1.03884336527702
2.36090587156071
3.58409388539976
4.57388214713265
5.19233009367672
5.10861271232488
4.04666248596592
2.28030739572437
0.538161641642894
-0.651940717918057
-1.23756294969413
-1.35705606487533
-1.26811798450105
-1.63190857546255
-3.37883111607115
-6.89898358172079
-11.4076170506565
-15.3485485569655
-17.5704869872373
-18.1007658057337
-17.7565146652309
-17.1418075499512
-16.1717086433171
-14.4360819238146
-11.7160622923746
-8.12274430895346
-4.04312691344102
-0.0856773356259416
3.13468001868684
5.30238557821873
6.47355829014047
6.97725082442225
7.36690825232157
8.23414591592872
9.82952934999711
11.9741279044561
14.379335238575
16.8325735121151
19.1332263177837
21.174401940705
22.9813966949504
24.2940260839288
24.2907587937101
22.2490943314696
18.4801095394265
14.2321056824878
10.6329467052979
7.91982802450837
5.63823008703613
3.36876362729476
1.1618771544891
-0.701816194449055
-2.16958256556318
-3.37386304042075
-4.26956554637681
-4.76901002535419
-5.24644649663372
-6.38129284018052
-8.28414905597407
-10.1356426014154
-10.9350331309001
-10.4744534734664
-9.55765909998854
-9.43291559593997
-10.9041591181534
-13.6953642019262
-16.7023120210833
-19.0293104194173
-20.6234051793182
-21.7613543302107
-22.2575387007301
-21.5313030884767
-19.3289955911809
-16.1142960834244
-12.7189628101078
-9.67669082872132
-6.89782436999319
-3.91609533285069
-0.339956526542503
3.85939801971495
8.20686339903611
11.8520817376836
14.2320121221553
15.7076490265926
17.1743304356483
19.0070050748981
20.7903224916053
21.9812691223354
22.2302247308514
21.0671704471951
17.9672445251454
13.0182345536372
7.25953763311692
2.2285563325774
-0.872559653173419
-1.86580912109969
-1.66720766835564
-1.50232650327754
-1.90955664114152
-2.56174566745903
-2.92771365474155
-2.82670214697547
-2.39571936390424
-1.85183481423001
-1.36156289409075
-0.949099399909692
-0.492125692344178
0.107846190599006
0.795788450119015
1.42404619533002
1.84109782021463
1.95475050266029
1.825609438409
1.60408589921775
1.27893891725798
0.653106637414754
-0.370755113027627
-1.7138461678737
-3.36181882067481
-5.39816703372552
-7.745961759452
-10.1086100554959
-12.1819439617115
-13.7564767232463
-14.6708248345162
-14.8402951427012
-14.3186879901559
-13.2637275285193
-11.8299801511315
-10.0022749705201
-7.51497305752731
-4.17506353843878
-0.365343244393992
3.04923466223173
5.43807346821201
6.80143400364109
7.48184976901604
7.85049684029111
8.29290705826347
9.08224657452589
10.0985106376311
10.9089874365421
11.2459414366397
11.2888678803679
11.4591725112446
12.0076686897935
12.742120042372
13.1284561394137
12.7803840120624
11.8179650747693
10.5708287720023
9.06004035321072
7.06999123520134
4.63649433931945
2.16650679077545
0.0996044373373969
-1.41010799411276
-2.5580609287496
-3.67677212639756
-4.85314402932245
-5.82722045777032
-6.41039663475303
-6.86200280890367
-7.69488641027278
-9.24763647377434
-11.4980089923988
-14.0581457626013
-16.3142886869321
-17.8030464099844
-18.4449084413149
-18.3031800554723
-17.3936260658158
-15.9723749491993
-14.6601823386409
-13.8848477292937
-13.3361413659813
-12.2132281334012
-9.9915005826792
-6.96363125206621
-4.09459537493953
-2.14773140623452
-0.751818888689224
1.43264336782963
5.29331388140491
10.1206125185269
14.1351536280941
16.102697205375
16.3328989180798
16.2563793964589
17.1362175720559
19.0500849608902
20.9979365335321
21.9090323702821
21.3838531208547
19.5718494111268
16.8112485681378
13.5638846178516
10.3246303179413
7.36377586756989
4.73742536050724
2.57815650638179
1.14867536441167
0.592437462565958
0.773871379768555
1.32615925247937
1.82360357257612
2.06346105702286
2.19961659423621
2.43441544137619
2.63735449696934
2.46699321714297
1.76418123908197
0.604513289562423
-0.944433363244749
-2.92844226767656
-5.39641276938093
-8.22173580155684
-10.9793682885208
-13.0787247159198
-14.1601861014626
-14.3281296787548
-13.9504929655983
-13.3739977754303
-12.8816262569135
-12.6590992829042
-12.6121662995756
-12.4091897204023
-11.8837686377045
-11.2612463582694
-10.8986043645367
-10.9255539473807
-11.1136339957968
-10.915857004869
-9.68634232021624
-7.04373396375664
-3.04722437732054
1.87823507196528
6.92321754976635
10.8795403348054
12.6327831423007
11.937326026633
9.6025634603765
6.8771129603821
4.67021808737934
3.16512649815817
1.96397887519603
0.628924891320113
-0.872988254547933
-2.26200287726068
-3.29719775453614
-3.87486540893168
-3.98280159834017
-3.76484548891338
-3.44764616635688
-3.05809716146031
-2.42829356419589
-1.56816966123123
-0.756270897858043
-0.131437045556032
0.585032432313448
1.82219311274602
3.70732506833426
5.91013071991597
7.88365304925503
9.31172845702972
10.3343678242424
11.1999147417651
11.7577811512703
11.6214625090945
10.8707129431973
10.2368081361328
10.4525060397073
11.588222469352
13.0025368577469
13.7689893375894
13.2421053234522
11.4240453688784
8.84996404042286
6.18405061393641
3.95216424105283
2.39149415697552
1.30064629084493
0.225856404034878
-0.974864409280576
-1.92778832391828
-2.22384388679067
-1.84155274572632
-0.993458536495401
0.149139262554534
1.44798686157999
2.7074114268069
3.65804893490848
3.97207696370962
3.40214276605587
2.00916914528758
0.184189167734081
-1.58468659507256
-2.97649558916478
-4.07975235122852
-5.54410482943147
-8.30253327787745
-12.8553073405251
-18.7822356501343
-24.9728849758249
-30.2310917076301
-33.721219610151
-35.1694355983135
-34.8246626552804
-33.1269811690599
-30.4122200125667
-26.9969967375793
-23.2692910114904
-19.385111308358
-15.0939634072228
-10.197873368581
-5.02235504217853
-0.16526246265562
4.09425787901437
7.97361177140389
11.9083618602156
16.1984226278761
20.8082920769931
25.389149412238
29.4358497850996
32.4068855875167
33.8400702759224
33.5410328881059
31.6192824214644
28.2754417878416
23.7280446612195
18.3939481127079
12.8375952062066
7.45406251981489
2.50214162707631
-1.55905778831211
-4.20622074179312
-5.43232340410138
-5.86847674648254
-6.24339010020159
-6.91066625635054
-7.82738311910462
-8.70558881762829
-9.17716123964136
-9.02045886903293
-8.26797105237107
-7.06320142761239
-5.52645094655931
-3.77325226289319
-1.8806842798767
0.149716383167655
2.19268070662295
3.85515822104791
4.7935917577069
5.11035621543135
5.24371662946443
5.53625846101759
5.97441206143381
6.20886295239584
5.83589189444815
4.82417252301229
3.60479943788708
2.62288320502432
1.95774777279909
1.43947072479254
0.834124184829136
-0.156788216082699
-1.69756835398205
-3.49682258413647
-4.98814293960932
-5.87196019135266
-6.23448672830275
-6.21786711577287
-5.84850163567233
-5.12472736948008
-4.09490777198082
-2.92025993937905
-1.90671088604634
-1.33018973012394
-1.19334734365973
-1.24276656352256
-1.19049244853296
-0.888621107975234
-0.458545713967677
-0.344090709380862
-1.04190448302103
-2.64136897897607
-4.7524592284922
-6.90099924864545
-8.80638660301349
-10.3169874380043
-11.3518632600977
-11.9543194264665
-12.2798304214682
-12.5519266654471
-12.9711728255603
-13.4155727434285
-13.2613612732613
-11.8400748780254
-9.11942432866313
-5.72081760058351
-2.35438469020402
0.578268722767894
3.06173916603169
5.43193910968011
8.08977986314785
11.083349154236
14.1812389964514
17.3546321383985
20.7459028102668
24.0508751492454
26.3994077318246
27.1277687883877
26.459768056824
25.2308418000342
23.9811298361252
22.4189679155468
19.888686658803
16.3750924029665
12.7973951403424
10.1288141418139
8.45818453096899
7.15685792446538
5.71133665038442
4.04461659994735
2.20253978226685
0.138903403354856
-2.16351624422744
-4.58467413311612
-6.96442887834096
-9.34108091817832
-12.1193680868928
-15.8209278469166
-20.4882303388345
-25.4494833922429
-29.7595577878065
-32.7261315911843
-34.080758485952
-34.0041033572671
-33.0379339950124
-31.6997924993473
-30.1580711286874
-28.374338491386
-26.2990432576979
-23.6820415821904
-19.9658852856476
-14.7351692909923
-8.2695496229982
-1.55554857151882
4.28564823255558
8.77203450861624
12.3939206581537
15.9818297792438
19.6539326636546
22.6325346755084
24.1338576870471
24.1604207928383
23.4330916314675
22.8269677734091
22.8099253977799
23.1195654729108
22.9658857250454
21.7016545810188
19.2656927186769
16.0007122548854
12.3466724464464
8.83295791617012
6.01910904453522
4.16521716328855
3.08995981128514
2.428475426047
1.88068363477453
1.26358116231933
0.552749816503859
-0.144036239961372
-0.768687001521122
-1.37181224744651
-1.95551199369741
-2.43175528833705
-2.74916100317925
-2.90641285269417
-2.91171641504556
-2.88387645292458
-3.07462743543765
-3.67406977363169
-4.73164775193789
-6.25006113152422
-8.0730955317982
-9.69927000767255
-10.5504424815071
-10.4759166860512
-9.80251763825536
-8.97840080749317
-8.31953278477773
-7.89953572049856
-7.49354733085746
-6.80739855960301
-5.91275981366989
-5.30254990063178
-5.39246454109514
-6.05007161667066
-6.67222143908466
-6.66871572011492
-5.82624960349161
-4.20928631902761
-1.8087163866152
1.4563868043444
5.24829014846642
8.61685574522872
10.6585746683875
11.242517089952
10.8585848312536
10.0628906635635
9.39879626013073
9.46011956255577
10.4821266994544
11.9766396105371
13.0948001825599
13.2979726838203
12.588406515135
11.2692109465096
9.60690990843184
7.66864541037779
5.45145425970072
3.1069008904512
0.900682860986859
-1.02923020782379
-2.78793605163386
-4.7574556640305
-7.5931731218224
-11.7871007755823
-16.9426860455991
-21.8166895529704
-25.3378763991467
-27.271522215781
-27.7912547049683
-26.9369877497042
-24.7618618137587
-21.5855812356461
-17.7868030572932
-13.5533620604607
-9.01373296772874
-4.49173629780094
-0.55269235894698
2.18508894788606
3.43769144113755
3.63249124439958
3.78186437169679
4.7689456494858
6.7860040518037
9.58883642756689
13.1913344592701
17.9907509972897
23.9332746290867
29.6516128306471
32.9592700910187
32.5971973435266
29.2968808541585
24.8908874705636
20.7044335599305
17.06579945517
13.8704402889423
11.0340634240425
8.53943574705774
6.38852908796987
4.4346299282559
2.21817522638749
-0.721877818087929
-4.25587858166723
-7.61623891495256
-10.0038787262982
-11.1328622909211
-11.3088281613144
-11.1566298313971
-11.1756761886418
-11.4547136411407
-11.8694594688327
-12.4581481117847
-13.4077346483661
-14.7631113051158
-16.3526434519512
-17.8951699290429
-18.9832462498705
-19.08909813051
-17.847833089259
-15.3610164799062
-12.1522440820485
-8.85225494782663
-5.84949354200286
-3.06379557973589
-0.132758901721809
2.96873819291516
5.62482009187653
7.18591470668418
7.82795003369668
8.56647153556927
10.3508029373708
13.1282510026028
15.7634463112132
16.9945177735007
16.552967521083
15.1788918507067
13.5294296155737
11.4576498446803
8.53197310241253
4.90141637576513
1.38424181987172
-1.14607103858945
-2.39151490975568
-2.80270778368863
-3.1269774113728
-3.71975748330392
-4.39748461367878
-4.88840275457014
-5.09872952942174
-4.95912440847758
-4.42487539460561
-3.73687706013916
-3.42738088444777
-3.98805336561697
-5.56264433481911
-7.77231945932074
-9.74460135896705
-10.6183242652883
-10.2564012369624
-9.29770399775312
-8.43337390222709
-7.88242521383568
-7.5733981995553
-7.42657035459453
-7.30784462055369
-6.97214877039754
-6.16457632025079
-4.71332279272407
-2.67251785821283
-0.473742114283241
1.35108452595198
2.8109210139935
4.59863367468999
7.37753352800362
11.0114587101626
14.5974772643707
17.228187648839
18.7070899505517
19.4980379823655
19.9940362616401
20.0493246746307
19.3578728624583
17.9912688497983
16.2837003966488
14.4469641409389
12.5994387465523
10.9383439138981
9.58208718677804
8.37630837590391
7.03524541712151
5.41683522106327
3.68588469270561
2.32604598722326
1.86392034173505
2.37701880210062
3.36396139535654
4.26402342239755
4.98731532802173
5.75852743937693
6.52155339276839
6.63499253637166
5.12543646215353
1.26112030677959
-4.95014639934224
-12.7248226351682
-20.9306192339317
-28.5045578608479
-34.6322129462618
-38.9191566053658
-41.4816228610432
-42.632990786382
-42.5136114505872
-41.24888851033
-39.2508789053644
-36.9560825281686
-34.3762272458879
-31.2247899782702
-27.3521511118993
-22.8362597340068
-17.8477192139509
-12.5592687325769
-6.89524021012612
-0.313482123889161
7.70530271200669
16.753214591787
25.4258325776821
32.339621774394
37.0027242586062
39.6339920531801
40.4669164424742
39.5402637675459
37.1112249628
33.9355438868778
30.8739025337589
28.2688707017812
25.8684310767275
23.2762482845534
20.2767274888616
16.8365561574857
13.1309097499765
9.61329622638123
6.81851353643314
5.05532658391283
4.36573090125225
4.54151302901284
4.96248710392007
4.77169548221952
3.61867986583293
2.01418533601894
0.604766662596382
-0.742436999942385
-2.87988483792466
-6.5054154334278
-11.4345747159222
-16.599729331873
-20.7257301917378
-23.1332758330068
-23.9715927350611
-23.7965094461513
-23.1027581698492
-22.1757972108839
-21.0826839266504
-19.741509032757
-18.1473915055628
-16.4728666429014
-14.8212471184003
-12.9885523159605
-10.5432245833182
-7.06606596598081
-2.4856653066359
2.52164058607365
6.64815571010217
8.93601194632078
9.65989153163682
9.94816329880494
10.5921715620922
11.4809493732553
12.0691809080392
12.0637977775192
11.6680534276881
11.3684535466202
11.4793968032914
11.8376827392245
12.0263614303789
11.8445575171114
11.3591336879607
10.5656540718815
9.2622508452955
7.28541120896917
4.76766772268448
2.20148606340574
0.231660295651042
-0.783178047066914
-1.03509449200581
-1.03232195109037
-1.21280467588069
-1.84101599897086
-3.00877957099492
-4.52658957994141
-5.97889726159251
-7.04496303813742
-7.7115655172471
-8.21304640247673
-8.84677151045462
-9.66947282757403
-10.2581906592511
-10.0391327503709
-8.97825651097526
-7.61349300126263
-6.28126357320123
-4.71650771560737
-2.64704609633113
-0.480742121340478
0.867517644270695
0.750059713707869
-0.685766027251303
-2.63184446931684
-4.23527382866445
-5.16339875292245
-5.61674159697699
-5.88781394231915
-6.08925519739452
-6.27034399619909
-6.49669157460243
-6.7197415853396
-6.75802352900395
-6.44869198834009
-5.70579943386199
-4.49204950863556
-2.83182954428638
-0.77098706558865
1.68568419921198
4.47407665402675
7.39863235559676
10.3579404128567
13.5193622970064
17.0415985505013
20.7311615470213
24.1264368871797
26.7437710366229
28.1078371403222
27.7889284042827
25.6818755837671
22.2511490967869
18.3885072974862
14.8520046314622
11.6366805833994
7.93344732431868
2.93992731627115
-3.24707112852826
-9.59834292077286
-14.8550178055785
-18.2064344057152
-19.593801917619
-19.6073832835595
-18.9615561859978
-17.9576168336373
-16.5809200401509
-15.0569724364696
-13.9383202301897
-13.5149433360612
-13.4280205885357
-13.0198101255758
-11.8905464849381
-10.064474935995
-7.79206067610092
-5.26488876016125
-2.51861352956451
0.326112619285235
2.8476251721292
4.62516375900242
5.71263490761337
6.50374755048528
7.11910313935957
7.1716354536724
6.15981570002411
3.99142767110592
1.20142064338705
-1.29898373916097
-2.83134479418682
-3.3432136750222
-3.13200710677624
-2.37718296734713
-1.18659886625722
0.105438705899003
1.06155598600348
1.55649927005549
1.89838582323432
2.54594629654195
3.68635190309247
4.97366735790423
5.76029261935349
5.75375429663469
5.35159772575018
5.17018010966884
5.37222794094235
5.61790660690344
5.52215252463033
4.97547569842537
4.13909444316954
3.28745287851681
2.59482431969551
2.03484821836648
1.53388280151257
1.07744918712443
0.519012954893509
-0.471969130880667
-1.99440833040545
-3.61056713040867
-4.67795144769044
-4.88463322223378
-4.40053887122681
-3.67115307601079
-3.06968923834852
-2.59023800617905
-1.92153574852569
-0.912636813845819
0.191151945644807
1.06861692573889
1.67063593878744
2.13621019504594
2.51315999398481
2.61253332146044
2.08239248815779
0.756056881294525
-0.984283476820132
-2.40896207145459
-3.12528615290918
-3.36902500063126
-3.58076915883558
-3.90920021563594
-4.11774581121427
-3.78487477954869
-2.67471490841654
-1.0821904190702
0.326709337482259
1.16465216836138
1.61704008082479
1.97223705103913
2.16407971510527
1.98643157985314
1.50169463577948
1.03280532852815
0.907345614575837
1.26089189473539
1.90540057603009
2.37847736426325
2.24523726194707
1.31991919688354
-0.360189785614797
-2.50703089116927
-4.49247392649654
-5.60098176396514
-5.53377534655036
-4.58381749348768
-3.34477289447414
-2.3203861866707
-1.68949195347356
-1.32160745163074
-1.04089122821272
-0.8274981548745
-0.699968207490151
-0.583317847532249
-0.461315826917936
-0.510701452641662
-0.973765536480535
-2.01606497376817
-3.61125686438568
-5.28182309338818
-6.09812874426532
-5.34899313923817
-3.20091600535376
-0.450519484444067
2.23541865448027
4.59243327351123
6.48445050733225
7.72043098846011
8.16595523108649
7.91394216319209
7.34829243553221
6.96263942041546
6.9326014191333
6.9334632058305
6.60214602310173
6.10705664659834
6.07596756510163
7.08065133672065
9.29736132221706
12.4000053535213
15.5615456608948
17.7227834475396
18.075203097871
16.4032033842947
13.1630587185786
9.28008966846298
5.53568484072716
1.91735023022863
-2.24428190653969
-7.37776299225702
-13.0857113345236
-18.4552544566363
-22.7179217387729
-25.6092521729884
-27.2864790290025
-27.9357700402817
-27.4791716598678
-25.8086612461053
-23.2183085490792
-20.2922226556044
-17.3680573319698
-14.3808418926459
-11.2253017232857
-8.06140735668578
-5.2808293098737
-3.2640070352661
-2.0527548018156
-1.17794019315268
0.0847142456613239
2.28371227638303
5.66415476208296
10.1558054879723
15.0955013096049
19.196851255849
21.3554825032137
21.5226573890095
20.5394709152866
19.2597774631537
17.9968132395626
16.5060542102578
14.2644254267663
10.9911353197661
7.03450634760606
3.1224492022677
-0.185934480505566
-2.64876394124619
-4.18518127248549
-4.85646869022359
-4.87841996781744
-4.49668604391403
-3.94856753586425
-3.50259283893379
-3.30784538988828
-3.27243795510704
-3.30129200852228
-3.49468510970794
-3.89466356572589
-4.25070782711263
-4.26616013068233
-3.90343764595875
-3.31206155286307
-2.63990043839477
-1.9935433081951
-1.40873380388612
-0.785277325941035
0.0681440439302173
1.30315751962869
2.91120575612011
4.59794646852265
5.77859614153769
5.91358624143249
4.97163563736197
3.51553224575597
2.36093130227135
2.13975550316906
2.88911890498215
3.83657806189483
3.8496828663069
2.41426238117473
0.109298864030127
-1.93328180850505
-2.86422316413502
-2.51350769746123
-1.37599941448104
