0.724742931394557
1.27168423209606
2.0318772385295
2.8380739963052
3.35143202353366
3.37558177609003
3.03058384527513
2.62442557074985
2.35805000188409
2.1851093609506
1.97090036565621
1.70059510225697
1.45469113686318
1.26061306951715
1.08555945345461
0.938752916207746
0.880002398405398
0.935737394902865
1.05345971350559
1.12075629014982
1.03906926939215
0.834754633522253
0.65783567645493
0.593260852262114
0.537474392086497
0.347201739158938
0.0246402321988436
-0.328886908474835
-0.641546369265964
-0.873266334960503
-0.988903879143705
-0.996984537369151
-0.946030017354204
-0.868181284010995
-0.795270691041831
-0.804012453604376
-0.958297273580299
-1.21367240170532
-1.4199982149852
-1.42020211959749
-1.19069766853567
-0.923934717660854
-0.879503216250438
-1.08020297650388
-1.26950788854573
-1.25033498207776
-1.12693257398008
-1.11214368450387
-1.22974243500685
-1.3208231689547
-1.24688673016778
-0.990314916339444
-0.619808603443415
-0.226856761309747
0.130239064973964
0.431295032673547
0.629603572601283
0.642015575581995
0.454874768757803
0.169904934824509
-0.109499979531423
-0.368009972572561
-0.620134184154404
-0.830872733354366
-0.909148970822356
-0.740346462081804
-0.270648054475842
0.384599306612975
0.972787369926974
1.29630643325059
1.34013995453482
1.22485262801264
1.11012070340551
1.12362152260777
1.29668907359404
1.55918752310373
1.80966197362359
1.95756907267963
1.93286960552377
1.74761967153863
1.51694154853475
1.3286995026827
1.14756952245056
0.926599494261327
0.720767250717373
0.60364602054609
0.562600313779744
0.538085110269148
0.474206669878509
0.301355947408649
-0.0257187285099207
-0.449454611902873
-0.852700367117311
-1.17145548394191
-1.39400440792106
-1.50451442864332
-1.52491596802773
-1.55046412337309
-1.63396237178352
-1.67615728143644
-1.5161340615841
-1.10981775673131
-0.592530464786157
-0.195275653801158
-0.0802606667038232
-0.210640722251573
-0.405713483655202
-0.535135969670826
-0.596021353293408
-0.61545187483549
-0.586171905197301
-0.490131992479642
-0.286850814410618
0.0825157371670821
0.579912311867481
1.02066849284009
1.2354460094939
1.22102653582533
1.07598737902226
0.879944171531925
0.679240337290535
0.495366517698791
0.311377180011759
0.106088169331958
-0.110805386147474
-0.334460860056691
-0.58722501992057
-0.880293609808809
-1.20143254442374
-1.5166430135923
-1.70869417890742
-1.57206465326529
-0.997898886018933
-0.15744571404668
0.578656978180289
0.896596787222763
0.722877226528998
0.275496102691815
-0.0321810690647358
0.105200000419707
0.589030397124165
1.01254281386815
1.07034169244103
0.780387666124468
0.349606993440422
-0.0235903736443472
-0.224765124196596
-0.23211374261138
-0.0740143009985717
0.237120201198284
0.66977089648387
1.07616541945467
1.24343410288252
1.08155760254531
0.708775341181403
0.360673223767914
0.241938779386037
0.398821546455678
0.686743537158338
0.910541952829375
0.997232024963555
0.974687480518006
0.83575404234527
0.523699900007913
0.0103692552882961
-0.682603255770154
-1.47963503055928
-2.21885572520644
-2.69700109648012
-2.7886941490315
-2.48855670546048
-1.87640457364496
-1.11688995309916
-0.432024378985979
0.0429283758184526
0.357577945783785
0.633199762013843
0.895997759628963
1.0698229886183
1.06835562481914
0.861796215619108
0.520948651580965
0.194103149348128
-0.0362142031117326
-0.243098636115993
-0.529538612384411
-0.87456819425722
-1.17486894982056
-1.36252348690014
-1.42110662681765
-1.35885677267845
-1.20237265467016
-0.962699190059899
-0.624291802463394
-0.218875387687983
0.158663342464703
0.4708906234284
0.778617766641896
1.10010172560456
1.34463252272589
1.44944654927846
1.47766786528585
1.53310257786479
1.65518514867937
1.80324979010358
1.87685375883953
1.77222893658175
1.477611719798
1.09431532098653
0.742533139118904
0.478895741388474
0.300175932318369
0.175310199022241
0.0779662212915661
0.0224210781051708
0.0388372958901066
0.093027338674147
0.0998723780602033
0.0412813890566952
-0.0221527610304113
-0.0776243859437191
-0.185482951429085
-0.356718940442442
-0.5119525484376
-0.578854796055469
-0.557669240303812
-0.499731775942628
-0.457534704174688
-0.422343568279878
-0.322046116729759
-0.146337265745126
-0.0227166040538115
-0.0676516787764549
-0.225577523158725
-0.361169183111401
-0.436320911596128
-0.49716466973789
-0.564549561718847
-0.619019044015283
-0.634216055835334
-0.600954874747392
-0.581812058205438
-0.707655484611029
-1.03060509237329
-1.42321464689396
-1.68647335073308
-1.69015145179035
-1.38972191724828
-0.843729398539048
-0.259137965333726
0.121096909527794
0.231086085932874
0.181794563621372
0.0515246010421884
-0.18274679209951
-0.496941721836625
-0.750659281464415
-0.817636459137154
-0.717893862061533
-0.605978554825621
-0.641203440138694
-0.826128102264636
-0.969823398061337
-0.865569444601171
-0.489414727697729
0.0095751933898425
0.441230231137706
0.656134168324322
0.612608796149249
0.436303401151851
0.32797993365569
0.363359577085588
0.439072063487151
0.403044630197402
0.173621247227739
-0.221941098556342
-0.649502487664755
-0.949062348942883
-1.05508822406409
-0.996994138989448
-0.819210371748263
-0.603552746614427
-0.501021209764566
-0.568696505028551
-0.596313003707837
-0.245783467539764
0.625975423315769
1.84456758168115
3.05844821618985
3.93218420325005
4.2784128290365
4.11945199382134
3.65682000592508
3.17492367378397
2.94113193775882
3.09601024426771
3.55800760012489
4.08290375758154
4.47754769491363
4.71046923259351
4.8106003952451
4.78454355061739
4.6761960864068
4.5908763625255
4.61634666097409
4.78376416138647
5.06004601056095
5.26540531066627
5.04846402095347
4.08698143580112
2.34889204859742
0.137516328094105
-2.09469493403676
-3.99859674636527
-5.48865121088861
-6.69607291816169
-7.76614438165766
-8.74418659286675
-9.65491494922632
-10.568986103428
-11.4963158470022
-12.2526889820094
-12.5082431368789
-12.0223394072771
-10.879160590351
-9.47397243415653
-8.18998008672706
-7.09931780152859
-6.05505419224608
-5.00430584102463
-4.04335830215875
-3.1864505681184
-2.27490204249759
-1.17408950974033
0.0577753176692558
1.23378272696991
2.18423640790591
2.83936701740023
3.26070935734885
3.59711196497656
3.95205421250966
4.29654383770992
4.5137304996335
4.48829035187539
4.19246360057096
3.77967475770982
3.56697737197774
3.82561308906492
4.57462700879764
5.58151880261427
6.50611475144886
7.06210054351049
7.15628295930656
6.90755384114311
6.48961969790107
5.98556983642434
5.41987018854683
4.83234130702654
4.25720107917524
3.71286582330163
3.24745121968809
2.90642361082205
2.65081925206457
2.40005617959121
2.1328100452597
1.85140654102907
1.49256912743816
0.984751638602454
0.375823138918135
-0.179558992927465
-0.574029459202046
-0.878413649857153
-1.3189241062709
-2.07527111014003
-3.05596379143373
-3.93252601238672
-4.45625018761261
-4.67054462343119
-4.74701281128023
-4.70259807350778
-4.36595288652226
-3.56934896272898
-2.3326855917821
-0.921777082123649
0.249602121913106
0.833035706804753
0.710126044716294
0.0079738101827846
-0.961704273433496
-1.81448903715716
-2.2999902986516
-2.45360125064129
-2.48842451521802
-2.55907096318523
-2.68211451334557
-2.80565183561374
-2.86818580062743
-2.84699241871359
-2.78821712750874
-2.71966227682863
-2.56018377192731
-2.23358293050049
-1.81772943462405
-1.43767154577106
-1.08598926998873
-0.70287197102193
-0.35140414955748
-0.159737690488666
-0.147493018580698
-0.208170447762278
-0.190068335428932
0.0635396908568753
0.640615828982975
1.44209224442278
2.21137785721182
2.73310054244532
2.95402903784011
2.93134646726996
2.7693581433003
2.59848633175549
2.50206391896654
2.43840026627447
2.28853618308398
1.98494403411526
1.58161529203207
1.21985825417011
1.01696641992889
0.959217254331778
0.92313996733608
0.814464848870213
0.649687779288591
0.507308839661231
0.446130645226238
0.446427377947243
0.393377272410719
0.183478590229412
-0.115349217634961
-0.312537052999004
-0.347879776784534
-0.377392014763564
-0.567467825253698
-0.924168581051028
-1.34614181912493
-1.7178834329639
-1.92525810826814
-1.86939789216321
-1.48135985170095
-0.718124315334366
0.364670714058895
1.50113669025247
2.30224951533818
2.54625056241315
2.33128345853212
1.91909740365039
1.50839601368684
1.17364813005595
0.923113382967265
0.759367050807138
0.703442651387193
0.754359130375376
0.825659837414721
0.782771802796622
0.55854431193535
0.18045240874167
-0.296194631134795
-0.817059871196056
-1.32296716853901
-1.76507313386572
-2.08640738221667
-2.19369304219516
-2.04707521594806
-1.7756525076751
-1.58721885515159
-1.55253717931045
-1.55982727762208
-1.46228444242844
-1.2089035237684
-0.871728233027145
-0.578917499939712
-0.367723324978708
-0.122459715034495
0.253349521445291
0.661320852447357
0.927057394699934
1.01617683407518
0.990634120637956
0.839476779479935
0.515076324038899
0.0815903682989353
-0.305641040992635
-0.542888886765958
-0.640252042125744
-0.69550947393539
-0.834094821379518
-1.0978991255803
-1.37527367470226
-1.51303725043057
-1.48602823363052
-1.38254653615613
-1.26418015216651
-1.12247195194378
-0.927564049562904
-0.652640221367502
-0.29324691586346
0.110926663467236
0.521931881982864
0.954247016116694
1.41704171629468
1.84129519300937
2.11810621818312
2.16830863938619
1.97050596840637
1.60852179194529
1.28093632727237
1.15242553765566
1.20840039123374
1.34536232312209
1.53715557519517
1.7932246375244
2.02494076117955
2.09049643169726
1.9487928877232
1.6888233939256
1.42320155199729
1.18631646693457
0.925864801983702
0.590894946142937
0.2150877110586
-0.12304870727415
-0.394263423068161
-0.605198704919935
-0.729561676340236
-0.751775874186527
-0.752989314260125
-0.845836381883807
-1.03369922060231
-1.21941155522082
-1.32707563047126
-1.35127427150798
-1.35087206600229
-1.45609905563636
-1.78428396890112
-2.27550082725779
-2.70080958964452
-2.88247688348668
-2.83471586410149
-2.70009725170126
-2.63763664370976
-2.72020007065439
-2.81910715826462
-2.62746397510878
-1.90481696177964
-0.692495976796807
0.731433753084529
2.04131502822653
2.99379556118672
3.47254814271452
3.48973372416319
3.16484293534765
2.69416957083719
2.26357078878191
1.89970714590701
1.45707755244897
0.851322736040544
0.235090724856663
-0.176447053527513
-0.376313399541464
-0.526947579351068
-0.71131171063397
-0.849120556287043
-0.826918077966562
-0.617475635036557
-0.289088526234749
0.0522434531403537
0.348978888862905
0.624486659242227
0.889761165788074
1.05472264575459
1.01790406630891
0.818889240242105
0.618512298267356
0.542296247764309
0.581167163961166
0.602299585490885
0.442141817943462
0.0529700975447352
-0.431553593132544
-0.821289896104391
-1.04474077192187
-1.17944000719719
-1.35673113970647
-1.63861837191417
-1.91779146712366
-1.95742346430044
-1.61671520565501
-1.00985638949319
-0.375893434084984
0.135454007032693
0.484803339903814
0.67413113414817
0.765067166651318
0.882156503758567
1.1099241395956
1.41266471187274
1.65289574708743
1.65861322791448
1.34487399318853
0.837754131978376
0.409738041042904
0.23886412788729
0.297429830142947
0.485691592228322
0.756153171637572
1.06603621797634
1.31466172965947
1.39534532748451
1.27491966764456
1.01134804058988
0.707380872598446
0.413828199945124
0.0796734359987198
-0.333734092932692
-0.7117670802951
-0.871957843513514
-0.785120297786163
-0.618020875878187
-0.575436495654395
-0.757356603610325
-1.10259909940711
-1.40655922987571
-1.46310620421209
-1.24505278790211
-0.918216777224872
-0.702936671756423
-0.755792724448117
-1.08452800636714
-1.49143428735939
-1.70594317913339
-1.6615605020492
-1.54055150505847
-1.50034751052974
-1.49680497824687
-1.419900608895
-1.25639790099801
-1.06813713189249
-0.913821754675668
-0.816771284263845
-0.749527464403602
-0.662234781150302
-0.555083764163754
-0.478785641158712
-0.446188868370859
-0.391495502996612
-0.212804861865578
0.187914611804189
0.84926278151053
1.63540941793719
2.22321048994628
2.33741491833375
2.01348960237162
1.56142101130302
1.28508960273637
1.27651757290744
1.43345919751346
1.6123004384024
1.75924904831625
1.9005658776397
2.03734368315913
2.12451299058892
2.14629058122374
2.11090087220078
1.9755244102674
1.68969377815839
1.29543506070503
0.866766584227706
0.39126529092337
-0.160958628701513
-0.700505884260987
-1.07009645514906
-1.18609868303073
-1.05882122040593
-0.758135344190033
-0.422671199489204
-0.215181487008043
-0.211085280664244
-0.371556136969155
-0.61395365052363
-0.861366156545995
-1.07029221628421
-1.26385967754575
-1.4840773399178
-1.6776561903339
-1.71510652875948
-1.57746125657163
-1.44286060251319
-1.50104127454077
-1.6866240706321
-1.6360183976525
-0.968977440612632
0.306721148547213
1.68623149287009
2.56804103621527
2.75433708468591
2.46317216776289
1.95154860851876
1.3399521749921
0.748451985642365
0.347371301928907
0.221398011790633
0.305824147595675
0.448357454941965
0.466483149089791
0.23156737208731
-0.195883525317648
-0.562045812502159
-0.62857990892813
-0.38800787557904
-0.0782888389488313
0.005901542095759
-0.237862365117004
-0.635385855219195
-0.933904819730836
-1.05788342134132
-1.10431825937454
-1.14319337075415
-1.13692450821225
-1.03833727914426
-0.880849435029499
-0.769922913177112
-0.807817497730277
-0.996491015214854
-1.21793713325429
-1.35535065773544
-1.3997863740437
-1.3740385419311
-1.23131910840747
-0.962798042720667
-0.745718822792807
-0.811343911491323
-1.16278701998061
-1.5477817199782
-1.71593793886977
-1.62626021602537
-1.41740263690141
-1.23412281905135
-1.09055599100739
-0.903153839470603
-0.644622817406897
-0.396923921933791
-0.232910164341798
-0.124693316119163
0.0169833217956434
0.294926072039058
0.795056531274124
1.48837233591
2.18584266608502
2.70807261384702
3.07689253154068
3.44474155731957
3.87616186487097
4.28086824363425
4.52125684561656
4.52649143092171
4.32396991137419
3.98132266154949
3.53416380939382
3.03178547737459
2.64202383828716
2.57266993072171
2.82643156722613
3.13121076303382
3.17186575319426
2.83544597269975
2.2263419710374
1.52970420379293
0.882069717941336
0.306974756412615
-0.259735011425383
-0.886713754892992
-1.6143258157744
-2.46688097016569
-3.39346738440699
-4.20898753840186
-4.72018077192565
-4.92114976206651
-4.9736816323882
-5.01631583217324
-5.06233352301439
-5.02163851425692
-4.75294284230261
-4.16867901717399
-3.34968693248002
-2.510135957894
-1.8493265483565
-1.47576814866715
-1.38847222753314
-1.4353026613243
-1.38108980143727
-1.11940861501848
-0.737807446340247
-0.334570342373194
0.0849341834831254
0.492658111873056
0.799433788641107
0.998707422816479
1.20233534154547
1.47774607173072
1.75844001930062
1.94790623380337
2.03026206153491
2.05735273710262
2.07491122252385
2.06945492188738
1.97263904467361
1.7321487752717
1.37892184372352
1.00334953329819
0.686114741829879
0.476374343950943
0.384680993794318
0.356508097122783
0.31481871707062
0.270646773653619
0.344423197431605
0.674283891663404
1.33265028793685
2.24242654536702
3.08176130501368
3.38830775200136
2.91942855851961
1.87623374210391
0.70369375670063
-0.255567439886074
-0.889807881210709
-1.26288933135831
-1.52840006821425
-1.81281067365722
-2.11142272380217
-2.31991999895839
-2.36628164149655
-2.28915620946093
-2.19307645547338
-2.10478929615218
-1.86317848856384
-1.25642925237219
-0.350643333524928
0.42286510485853
0.620250157107355
0.170334036683156
-0.625992288375606
-1.36482961805144
-1.7661136855819
-1.78555504746158
-1.62214125104304
-1.56552262973061
-1.76759638479681
-2.15077106651734
-2.4806343982347
-2.47743184437109
-1.96270597324965
-1.02954466703613
-0.0221185776158384
0.747980177016784
1.23572815211252
1.60306014854502
2.02580489558292
2.58504201472361
3.24782671460387
3.90212741489243
4.42790595113154
4.72164648456847
4.67131397752147
4.20416511268339
3.39485324762353
2.47218224721894
1.70258391016131
1.25372202585561
1.08185562968772
0.940285054124641
0.630378124204089
0.256344025645661
0.0694055334672822
0.0709734513035999
-0.0090887350037586
-0.317542127265784
-0.672587473985998
-0.800443153165216
-0.629914213884148
-0.328882335553151
-0.151244541200739
-0.253637329487808
-0.602325708185814
-1.05247602205423
-1.4928243005531
-1.85286801569971
-2.03150136302499
-1.97052076008535
-1.79057840830538
-1.70804626149245
-1.80376191043944
-1.97526332331494
-2.09284936964434
-2.10449720437955
-2.02026260584089
-1.8815220492038
-1.73650676593139
-1.610831090131
-1.50153187287371
-1.37529270816415
-1.16629000722664
-0.836261079996093
-0.439456384311184
-0.0525460903650784
0.333032599982564
0.748709822551788
1.1314942417465
1.39527557953301
1.56556593142551
1.7213452307534
1.85958827655544
1.91903838031174
1.87982715448468
1.76687737775003
1.60149478600823
1.37420849132536
1.03161462676182
0.528055503598611
-0.0670259463359524
-0.58877061226196
-0.953634048504786
-1.2297427701672
-1.49209299095697
-1.70884484472207
-1.81237469902232
-1.7872709562149
-1.6488315086896
-1.41030527423256
-1.0957344348891
-0.734944323149078
-0.349169440639412
0.0357596794614551
0.407678199636222
0.807078421366265
1.26418961142828
1.69262235683918
1.9460864510519
1.98333098561154
1.88727784836879
1.74138175230735
1.57330555421562
1.39673577566652
1.24955625346415
1.20679868241016
1.33583753838204
1.56863431411115
1.67745153172277
1.50690996554799
1.18418696501413
0.962624839515042
0.897410243604039
0.80463805111507
0.516780104872071
0.0785949308513328
-0.314474232979284
-0.539031988188525
-0.695890235408197
-1.00217180040752
-1.51670622644538
-2.0495109493519
-2.38164382764346
-2.4851632235685
-2.47890800448267
-2.4648333664148
-2.46848735454572
-2.45583616597988
-2.35260009631731
-2.11632714489573
-1.81978893087925
-1.5903355114906
-1.45360828300067
-1.31226809822618
-1.08816755940625
-0.826388309696493
-0.64685565095719
-0.607119193726949
-0.610015933181723
-0.474990949814368
-0.114763942800994
0.424000204380168
1.0954635309634
1.88371592130746
2.64789010721821
3.10787854249187
3.10164639761056
2.77299733284083
2.43603911968799
2.29830380429333
2.31927125352137
2.29165132219143
2.06561738329406
1.68514018697499
1.25796725861107
0.763258607261854
0.12601540389508
-0.567817839405831
-1.09364997007745
-1.31124742513571
-1.25304642510631
-1.03746482104925
-0.803624287307004
-0.682135229173609
-0.714054311488143
-0.787317514301678
-0.688204676531214
-0.224320428060028
0.653076058002001
1.7769142389045
2.83483507588048
3.56463413112098
3.85231441821769
3.65299768995465
2.96483219162407
1.94000461533089
0.882390417143007
0.0546695071350584
-0.450219871859624
-0.679331202326133
-0.780695736396478
-0.950761425289899
-1.2915963178449
-1.73467822416974
-2.15296003370573
-2.47344446304707
-2.65643721535171
-2.68564359516247
-2.62141335182262
-2.56909135404451
-2.57279427723397
-2.59127959730499
-2.54446120790587
-2.35469994144235
-2.02674849053435
-1.70972940203913
-1.57241930868075
-1.59892217972809
-1.60311160836506
-1.43629029829527
-1.10192138246434
-0.712617441939336
-0.417482243768387
-0.318850099894625
-0.388164392877829
-0.511003176707784
-0.651753245306655
-0.903285390455907
-1.34256315522803
-1.90406057780543
-2.40302898494683
-2.6156769776532
-2.35943019036769
-1.58740452176913
-0.425519295973192
0.880514897275468
2.02331139844276
2.72170512122369
2.91070822460548
2.83472465962602
2.82655893767885
3.00919447258027
3.28445609604297
3.52244138039064
3.66233208094908
3.71115343331625
3.73347269666796
3.79859851697491
3.91943927676903
4.08280426695209
4.28384767863911
4.46129776778603
4.48270013272688
4.2762445466126
3.901116701214
3.43747420520798
2.8881567576631
2.2067830084463
1.34490353686313
0.286561707657078
-0.89277799497592
-2.03294629194187
-2.98925700091324
-3.65894067222707
-3.9097839879923
-3.63076108941429
-2.91642359412527
-2.08553628393625
-1.45661508387305
-1.17954318930001
-1.26923767565894
-1.65190631827812
-2.14089817734867
-2.48047414362525
-2.46807694990839
-2.03608780425306
-1.30060318597831
-0.589247566907577
-0.307921032653167
-0.635264176499889
-1.33039315806013
-1.89221740083347
-1.95805794491726
-1.5935218561347
-1.19591314544135
-1.09725944258728
-1.30756045125619
-1.65323005956365
-2.00771360877947
-2.28350288429716
-2.3784267760113
-2.3079755446439
-2.25489541715085
-2.32377392605262
-2.36847680650234
-2.1925167689728
-1.79585872263655
-1.3247656398347
-0.90346439183542
-0.595881659559967
-0.421337883048783
-0.328988161910255
-0.216342786489662
-0.0198726145445696
0.233071391771773
0.4661969231061
0.634988155108737
0.780450241843207
1.00281155965016
1.34592336684524
1.71330977342757
1.95081218795314
2.00577351044937
1.95223510363201
1.87823330217786
1.8084274626237
1.73465979769486
1.69546817338615
1.81828874985783
2.23297675599063
2.8904716508083
3.52895955202589
3.91120480911166
4.06659222636936
4.23821975220188
4.61418399019309
5.11564845466833
5.39613002042257
5.08051023386018
4.0975047480186
2.76774399452781
1.52791856382049
0.62907647668654
0.0932056659416684
-0.20882607138982
-0.494268142661516
-0.930075295403243
-1.49917837291256
-2.09345760681397
-2.69294542765105
-3.31187213078839
-3.82599790961602
-4.0255215289989
-3.83452525958403
-3.37258358303124
-2.81478785046066
-2.24326776367719
-1.5861517348797
-0.679356492665915
0.519480969774455
1.75567400823811
2.62699283646251
2.94034739517499
2.8285648164034
2.51269192148207
2.06019575899566
1.40811807359858
0.546258592437208
-0.394493941617235
-1.25925023005311
-2.03148799243162
-2.79202671827238
-3.53152817792127
-4.12986602319073
-4.51439342139822
-4.66997378661668
-4.48626660401953
-3.80833454157595
-2.71341927751141
-1.58680821828307
-0.853869655553346
-0.700638181094451
-1.02361144043908
-1.55430056062728
-2.05239332727667
-2.43301763029175
-2.70360054118669
-2.84288650239211
-2.84055594735642
-2.77980000487182
-2.74180516052857
-2.6823984416743
-2.51815552726165
-2.26848206724579
-2.00579180673265
-1.73106881794675
-1.40636893247389
-1.07159068504321
-0.829576861681669
-0.698507075768333
-0.529257302548795
-0.14349136156489
0.388279158015534
0.6810688131135
0.429228021241494
-0.113239555366808
-0.245427772465915
0.487610798797168
1.83261120679332
3.10975021245288
3.85321501797041
4.16297478523585
4.53651833527872
5.38204134925753
6.64919307280864
7.93299873851408
8.90046185672942
9.52767222567327
9.97410724485114
10.385749954638
10.8097229063813
11.1542925986724
11.2322780140209
10.9393400366556
10.3556125518819
9.61962815705523
8.79336382596531
7.89858377636208
6.95654771151069
5.90032768212064
4.52070004364882
2.58863725463383
0.0676178920385114
-2.77004212049339
-5.47518737040412
-7.76886108047817
-9.75764980336658
-11.6993292164884
-13.5674692687885
-14.9890803617871
-15.622534399472
-15.4634198528086
-14.7780069694687
-13.874364508017
-12.9421008799137
-11.9832110678802
-10.8554363543963
-9.41994122749316
-7.64913440053149
-5.63517566745155
-3.5980547665062
-1.86785844364017
-0.712481387993243
-0.118745374282725
0.212813020207535
0.635855784924208
1.29843528416265
2.04499342745636
2.56471851919326
2.68790228081033
2.52766304406313
2.31227053719701
2.157077014391
2.0414005553552
1.90010555593965
1.66478813178231
1.28756706471221
0.770899296708596
0.150022832473292
-0.505329015251101
-1.03016681866149
-1.2332429808365
-1.14242793483821
-1.06736106191898
-1.27467956317498
-1.66331499985602
-1.85031582303133
-1.50195993958714
-0.541019260122511
0.816465042596203
2.13020977678123
2.98426830166276
3.30989839257104
3.41039809928527
3.59084416272098
3.79666038971852
3.65447445157504
2.86210630050001
1.54276591937061
0.212863323149779
-0.610702619901546
-0.745716441825171
-0.311345132417996
0.503668972787997
1.57111626334379
2.83175249534593
4.25415781441835
5.73294876510051
7.04490705119682
8.0177219125233
8.71890122575786
9.36190296383597
10.0683487870789
10.8357647135084
11.6799850881991
12.6899344200128
13.9582845771176
15.4974653229752
17.1914286765605
18.8349577956308
20.2312489932833
21.1610484937056
21.2396788020755
20.0083767326269
17.3117767513695
13.4272593201857
8.6283953731475
2.72989827370315
-4.65728234292879
-13.3139602881843
-21.9872535786213
-28.974720763509
-33.2611353678542
-35.1137847387406
-35.5963824636024
-35.6073391913817
-35.4042998780304
-34.8068837835893
-33.5740429867843
-31.6359524582525
-29.2139643070057
-26.7649923823257
-24.6665620871667
-22.9039378476092
-21.0865319230958
-18.7198747352511
-15.457681512006
-11.2395839838724
-6.32048202864333
-1.17921260122936
3.61609263496125
7.51792011735275
10.1759685246738
11.6576981247306
12.4247291790788
12.9872153599132
13.5965372667063
14.2259178267224
14.6915609906885
14.8110074073181
14.6617873952013
14.7383857930926
15.6460969207273
17.4893758678791
19.637818113959
21.2222559418383
21.8802523373855
21.9606089839004
21.9732061117713
21.9079467761939
21.2086725940166
19.4210946592255
16.7376258109068
13.867195166998
11.4992503967907
9.90383269347232
8.82903681281486
7.6711046695411
5.9095688564901
3.52587299425963
0.97840907933748
-1.22059669222289
-2.85338959770817
-4.01930937219324
-4.94415796664945
-5.75388939675256
-6.39950973135499
-6.84327707395009
-7.27303098605227
-8.0023616990376
-9.1636976589188
-10.5911145797131
-11.9636022909026
-13.0001451121433
-13.6217477808551
-13.9999351455346
-14.311871967396
-14.3717126146491
-13.6718680694414
-11.9178811320727
-9.43456012872753
-6.96965297559683
-5.14886025254516
-4.1020166102935
-3.47799015755297
-2.75993305956157
-1.64800290683104
-0.226897307937249
1.19168499466232
2.35243589962627
3.20566867306865
3.86348672414976
4.43457459818242
4.85312770648606
4.87655022336154
4.29916265432531
3.14960000680576
1.65134711843878
0.035472033017415
-1.56603266266773
-3.05584938923607
-4.25298227215094
-4.97563451694158
-5.36633299585275
-5.96847950983125
-7.14872945530071
-8.47273625889643
-9.01379502554227
-8.33642875738154
-6.8733884127105
-5.30812244036353
-3.91944465339256
-2.61255033512459
-1.29055000651265
-0.0141666620281995
1.08991275992993
1.9604049427336
2.64414184057078
3.22627277935458
3.72278679874634
4.04861741190567
4.09849197760128
3.89770365938215
3.70401727094866
3.88127564896367
4.56165310527435
5.48459847516342
6.31810664529649
7.12442551152201
8.34171631021244
10.2604186987495
12.6331890369502
14.8426104523633
16.3697786203652
17.0674243978033
17.0499312861454
16.4327645640267
15.294824094155
13.8788884300687
12.5864484655733
11.5812083988875
10.5584145020984
9.17087952811091
7.59475806685044
6.32523381898945
5.28979101277634
3.4385573919553
-0.406739645331728
-6.18599766594925
-12.3080561580542
-16.9449967454168
-19.5107048273108
-20.6871415839712
-21.2674290482107
-21.4553444407463
-21.2303361139808
-20.8155149743476
-20.5281129209335
-20.4538932023125
-20.448659872186
-20.2758083794388
-19.6494240165442
-18.3439830695742
-16.412797754019
-14.2052488324729
-12.0366691528507
-9.82921355479857
-7.1282007960647
-3.5284367176685
0.864440794036057
5.38558386102924
9.23799587229685
11.965584919029
13.5621014628492
14.2956994190397
14.5378544829157
14.6274807358495
14.7026946775043
14.6449733629919
14.2666483246247
13.5605708013526
12.719651313435
11.8829013415266
10.8812056401509
9.33286400095037
7.09988420692234
4.61097541326861
2.59659691216847
1.49984157636745
1.25022357117604
1.56501854741085
2.27956515942025
3.33915981934081
4.61593997136468
5.81749356542254
6.51010777255365
6.20127092946777
4.52537265856277
1.54968664167592
-2.010450931467
-5.01950110518773
-6.61451856727968
-6.77338514057051
-6.1454986419075
-5.36014415671381
-4.62541603221756
-3.92988075419839
-3.35500882174273
-3.05792486706024
-3.08507055713224
-3.31800435600592
-3.54556157248218
-3.5585432055528
-3.25823024291237
-2.71212045732014
-2.06677465020014
-1.41743058738479
-0.79213430256524
-0.214698297402838
0.266877055192589
0.598860289152291
0.774478034086743
0.891672685664655
1.09515445742273
1.39192614190874
1.58475899143683
1.46118164329553
1.00289357766481
0.388571019532801
-0.107465343507113
-0.17833000976965
0.427610665681412
1.73978911925079
3.43358283843713
4.90594535381488
5.63616182284134
5.60293030527303
5.24086946434093
4.80954896338723
3.89614883021749
1.75055028496389
-1.9264576479221
-6.66188294979135
-11.5539219624897
-15.7497029069806
-18.7062994458578
-20.2868377800518
-20.7335827153774
-20.4860519073301
-19.932781226375
-19.2361935183801
-18.3039344259418
-16.9410907904601
-15.0869095371942
-12.877388046109
-10.454354760105
-7.79284684366096
-4.76010308159447
-1.2849838771501
2.53222574060351
6.40419663645128
9.97669061478555
13.0596212822216
15.7344513775672
18.1945177898619
20.5314225005619
22.6990776961557
24.5745332640878
25.962550838996
26.5822380200829
26.1350714099092
24.4777610952311
21.8465559397235
18.9412942642703
16.6512580285055
15.5382794425098
15.5165387107605
15.9907702992793
16.297016424762
16.1175567454153
15.5993864524704
15.0967252720624
14.7751108098462
14.4225631215403
13.5242247373047
11.466824009021
7.88484420019799
3.05625999167455
-2.15098226291059
-7.0129591108984
-11.6083800254424
-16.5081552724197
-21.8519549552413
-26.9955113182714
-31.0704413316702
-33.6640308147616
-34.9434041350196
-35.333213817367
-35.163303871371
-34.5476954323473
-33.5146489462729
-32.1580491009552
-30.5777643353596
-28.7195778657769
-26.3873703022675
-23.4283015625477
-19.8879622879364
-16.0323860649723
-12.2116037922146
-8.59661926188816
-5.03929117594821
-1.29842788366188
2.58634791135645
6.23695106984356
9.25210662104119
11.5303400186575
13.3270146668435
15.0409651991429
16.8759325659879
18.6256439489891
19.7694569843459
19.7902214216201
18.5081179144678
16.3277415833353
14.2339624446771
13.2992714025485
13.9088804574368
15.4532495183792
16.893609256732
17.6128476319665
17.66558207876
17.3272959671275
16.6223849811267
15.3828777238786
13.6718309259532
11.9614018022488
10.7568585618535
10.0631966286867
9.32497583726629
7.91859488992752
5.68831169068349
3.0578362034911
0.64790684207918
-1.31192389087228
-3.22968129783749
-5.68192607481413
-8.65372334189877
-11.3971899238204
-13.1054160788074
-13.5948333337125
-13.3050791265759
-12.8114320365645
-12.4173497122181
-12.0945857820768
-11.6929491765876
-11.1614762995097
-10.5528888067259
-9.89358048790376
-9.17379748819102
-8.42192945151652
-7.63800293825668
-6.68548487944498
-5.42084006249145
-3.94525033529508
-2.59621315514157
-1.65219750011969
-1.10231732557481
-0.699383616820217
-0.183717508410606
0.550848383989702
1.46938584844913
2.4841778876346
3.41398916085897
3.88001068310371
3.47420075396236
2.20181268785285
0.685416399816887
-0.171645155847053
0.274837890064746
2.10017417575934
4.80216380542934
7.52850660552383
9.48787683273719
10.3336732917092
10.2593340592896
9.79014828306868
9.4545438225048
9.51850058099935
9.92580537418832
10.4397088592112
10.7632514011421
10.5202793938857
9.31343452449802
6.97661423179299
3.70944680005917
-0.125106128417529
-4.22559362090425
-8.28391496638363
-11.8379657851768
-14.3767941782207
-15.6239324068034
-15.7145547370694
-15.1366080893346
-14.4696555623284
-14.0701586805269
-13.9453384874343
-13.9150691822412
-13.8443707353586
-13.68396997206
-13.3504957009549
-12.6584537789869
-11.3920382169137
-9.44565480429851
-6.92070375663576
-4.09274920101372
-1.28085518979536
1.24432258200781
3.29747036681174
4.87565461026609
6.22623540719611
7.61813476447965
8.92132056895726
9.55637630571705
9.080132533083
7.86555258753957
7.06289601492866
7.71399432117678
9.83661228114232
12.4299251537196
14.3872834352132
15.3100697486018
15.4613717937286
15.1998556578677
14.6577501477308
13.8367098127704
12.8031653777715
11.7754133589723
11.051358191499
10.7565577779375
10.6064631466475
10.0237686696429
8.61135285113329
6.52544249833239
4.3484145494481
2.56050296946166
1.11895887564867
-0.418689658451234
-2.35201525447943
-4.51767479350761
-6.58046883601728
-8.49040111711974
-10.4426641961417
-12.4633908718382
-14.2871206414075
-15.6505686993986
-16.5068666313621
-16.9504138292613
-17.1386031846171
-17.3299242824517
-17.7943055287037
-18.5075762255305
-18.9663392741961
-18.4937738418808
-16.88508273572
-14.699813127111
-12.7493692148333
-11.2983765195134
-9.93043155311868
-8.18905448779058
-6.14029256369361
-4.23943651075774
-2.80695997386716
-1.73839090980629
-0.66217984485871
0.688964271314462
2.26349510132674
3.80950522717291
5.13739347494947
6.23476290679623
7.22075112427862
8.28362733192086
9.58432399099181
11.0953660190021
12.5618455463244
13.7054947264362
14.4429500498758
14.8586698406562
15.0330984075156
14.9917385441652
14.8092579217933
14.6916780329203
14.9234873284383
15.7299651031455
17.1736500166848
19.1265551106078
21.2379706881814
22.9010546417486
23.4229917882135
22.4163689811643
19.9973762697472
16.5783139000826
12.7132297659396
9.2867437167107
7.40653888415182
7.4537505067411
8.15257853497529
7.07200414676134
2.47532444995312
-5.24100735543264
-13.9120505349623
-21.2820434796032
-26.3681241895788
-29.5120508338801
-31.4929506323218
-32.7377515727749
-33.2329141712362
-32.9172912453349
-31.9833879228863
-30.8015326817036
-29.6330590046186
-28.4650614684811
-27.1139105489016
-25.435600101005
-23.3913086474731
-20.9590140029156
-18.1048061088981
-14.8889384636413
-11.5266287009787
-8.27706841514198
-5.26500590771237
-2.37254271091561
0.737334009654609
4.39133486769096
8.52941561034285
12.5484348817148
15.6565576249633
17.4762407439498
18.352729371282
19.132879476641
20.5810138491436
22.8174265555419
25.2229019629358
26.9241351218378
27.4006707753901
26.6963649719045
25.2503649122098
23.6244862974584
22.2069323167855
20.9728250277545
19.5426599484468
17.5246972709101
14.7683565686583
11.3417206061201
7.42027055184254
3.23418816539002
-0.962671041073344
-4.9135979936677
-8.3748245513727
-11.1961495806899
-13.417002688005
-15.2080695819917
-16.6774583695487
-17.7704228895175
-18.360484466711
-18.3894408067205
-17.9010046938582
-16.9528938294558
-15.5063884911382
-13.437336981599
-10.7169975454296
-7.58908649653076
-4.51205653393239
-1.8923113418402
0.142145990983015
1.76461989974884
3.26932955809782
4.76625591693148
5.98419622369044
6.46765953799871
6.05559331761822
5.10797790672975
4.20464698250629
3.66976440646535
3.4238045157358
3.26415477118112
3.24695241472593
3.71024565900173
4.81224785842895
6.09984006750626
6.74383672037436
6.27626474930184
4.99175943839036
3.62433064837263
2.7489657100526
2.44837750868888
2.36179059892325
2.00247146274315
1.13896989280875
-0.0528116767106165
-1.18293392761654
-1.96965152325382
-2.42875416230653
-2.85860931293376
-3.64644655197078
-4.97612462401075
-6.65069559362551
-8.23730886168743
-9.45609622810388
-10.4444108815048
-11.5868374563029
-13.0280594752667
-14.3878883743527
-15.0560831563809
-14.7725258606693
-13.8127298489372
-12.5989004758984
-11.2770872988389
-9.73052944391387
-7.86682849937757
-5.78165264973563
-3.68452039455641
-1.71769272381278
0.151900769042276
2.04607394634506
3.99462790338795
5.91367486958232
7.74579191215869
9.49415483659524
11.1074439388647
12.455390308103
13.4228885304803
13.9201613321538
13.8455599935139
13.2053704339147
12.2838374963691
11.5583987258983
11.3626019171745
11.6161691824937
11.8811812194168
11.7357885562769
11.173551649696
10.6399382040295
10.6543393973318
11.4286274186911
12.8280688315993
14.5427517633227
16.2039661247681
17.472962807119
18.199715501144
18.4752097592607
18.3794061317307
17.63408867662
15.6190344255239
11.8728780714266
6.59898235955976
0.553315179472757
-5.64298196901626
-11.9236018261988
-18.3292556597244
-24.2882165594905
-28.7144775140949
-30.9656185122531
-31.5386621168599
-31.6831229258554
-32.3615962372055
-33.5949022872533
-34.6894501337511
-34.9488630729597
-34.1294710954734
-32.3417726730025
-29.74658825076
-26.4602541885993
-22.6197482353512
-18.3697480205326
-13.8201241925578
-9.12094208552863
-4.53086153205857
-0.317968083512036
3.37075154767299
6.49939779583543
9.09012029281909
11.2376546727294
13.0745387757199
14.6275426738603
15.7766102456999
16.4701045289753
16.9864379165811
17.8936026065432
19.6316018713246
22.0427957289105
24.3301924934208
25.5825420794144
25.3974258149904
24.0194230074236
22.0212735450044
20.0228722815284
18.6346099308713
18.3425058211398
19.157278110932
20.3012064714815
20.3969693890626
18.2833416119119
13.8969640181843
8.35103738125953
3.04380094745406
-1.32243442232516
-4.911707721119
-8.21037516565938
-11.4785751082457
-14.5785795068071
-17.1044536523777
-18.6669947733568
-19.1766350314302
-18.9086002213866
-18.2988380759452
-17.6792379679001
-17.1571032131974
-16.6456466411834
-15.9504903392617
-14.8573685152512
-13.2308670631984
-11.1166421719871
-8.74167782926776
-6.34078148544591
-3.98601879464609
-1.66650591895003
0.487615767609801
2.19468902426035
3.25998911147057
3.72203855718945
3.76960015410709
3.65129856567185
3.65835515816158
3.99850005528348
4.59427529743582
5.10899005061951
5.24458309960537
4.98722565669449
4.58114413394903
4.32391533934242
4.36341076586532
4.6171053527548
4.85533770313484
4.85560723450972
4.48980006593312
3.74646818097255
2.75750145835814
1.77648906566839
1.03497762557718
0.577678838765964
0.250008409073157
-0.138999038845667
-0.628415971110603
-1.08041843996796
-1.35293962412316
-1.44232628134261
-1.37860076927784
-1.06053479894313
-0.380422597913582
0.486088673504934
1.10607881610897
1.18082343739718
0.808389830018275
0.318045876424588
-0.0724188849453924
-0.410615875814538
-0.892585290878346
-1.62556457160303
-2.49178139898218
-3.25316216393096
-3.77838179587008
-4.11072732710722
-4.31499824651472
-4.34214988913475
-4.08379397603179
-3.52234630083533
-2.80906453937059
-2.19899395965941
-1.88210882543795
-1.85279591717853
-1.93662843768284
-1.90887751272513
-1.58358585716754
-0.892648314979166
0.038068240094747
0.951427807386253
1.6625343916025
2.15886129258708
2.49284866387409
2.66038676265949
2.59869345956798
2.23680848687003
1.56428830511518
0.710334075751817
-0.0834119748434978
-0.609698151458619
-0.750589413020858
-0.378331273969575
0.654696127229885
2.33380592272345
4.3481373199985
6.18371728918533
7.33920375243785
7.52874376933548
6.81230504719076
5.54956495566173
4.14801063746381
2.82286998835803
1.59847524423286
0.486720043494327
-0.38871283015214
-0.845549044291407
-0.837905156464815
-0.606624958116867
-0.537854844722376
-0.786623056248521
-1.1243750070696
-1.24824509809739
-1.13622273595198
-0.979205585388639
-0.857021545219369
-0.631351617199532
-0.142347524409889
0.582168753150963
1.32629828981934
1.86106289958852
2.10882869569629
2.14634048397063
2.09297854797585
2.04229224403489
2.0529635011331
2.11025159273928
2.10446525948649
1.91262912950026
1.47402698114083
0.741487818953739
-0.36834984598721
-1.89710247596926
-3.75199213060016
-5.73048121884398
-7.61056820697052
-9.22019414080192
-10.4626919989587
-11.2830495576978
-11.6218668036585
-11.4625845115009
-10.9271242781393
-10.2399678100833
-9.57810066365836
-9.02698292796072
-8.65428096501885
-8.47460845235966
-8.30023840174995
-7.75820435707432
-6.56132993168271
-4.77300840347883
-2.81345008367204
-1.18455191959169
-0.0839899067089137
0.772329943726491
1.88746403300074
3.49192060395104
5.32595755997887
6.89563544138696
7.91931377035687
8.56721081273947
9.2995464886077
10.4253060977819
11.8035581795526
13.0203721725264
13.8100265773717
14.1857690310275
14.1993163002072
13.7671548400843
12.8244229904423
11.5601809802245
10.3822320474959
9.5959649262798
9.13291275103297
8.65627037026615
7.94062259906421
7.06718638636336
6.24221348677211
5.5667198105762
5.0458420179765
4.67406906661826
4.39082151701637
4.04847371431061
3.54438337687322
2.94141486320274
2.38667014411752
1.9381747231669
1.48499602984809
0.799097529783063
-0.290097681233272
-1.67192327901743
-2.9259058067798
-3.65097502663684
-3.93087491170057
-4.50590147552252
-6.3929530071335
-10.0885936903074
-14.9561580797931
-19.4906291483907
-22.3917809261607
-23.4280385538777
-23.2686229468924
-22.6525055545932
-21.8564001630733
-20.8102630992135
-19.4445268947672
-17.813149622068
-15.9539284479344
-13.7667546863093
-11.1549602312361
-8.30969860126227
-5.74992778692207
-3.98447766575004
-3.11084618056497
-2.69818723158499
-2.01593560540518
-0.483301556932676
1.9086220610314
4.55932460757445
6.72948829245596
8.11308539663077
8.95062754938788
9.62781978184469
10.2526996136808
10.6578422630559
10.7575061911257
10.8041583612156
11.2269624990317
12.2290482949433
13.5846262741116
14.7883964866827
15.3221974940521
14.8656517607036
13.4941012765013
11.7604964584584
10.404222795661
9.80614789572112
9.72646008273371
9.58908454480825
8.97709181628757
7.88072675802161
6.57597861998859
5.31801844262603
4.14200045680701
2.9493750188857
1.73503578136513
0.641882894725777
-0.205132302367484
-0.828967398869867
-1.34372769331714
-1.82887324370115
-2.27595785995582
-2.61995233786093
-2.81592814415196
-2.92436170937642
-3.14680326000337
-3.7363400374909
-4.77206321789192
-5.97173812501874
-6.82014950508691
-7.00709747263509
-6.7245419464894
-6.44823069133124
-6.4568065964396
-6.64875772845227
-6.77077836438604
-6.68948447720052
-6.46256650311291
-6.27413448729038
-6.29054506772011
-6.47114765580745
-6.54005043113759
-6.23439532254918
-5.55285606546325
-4.70513983444007
-3.8856786235641
-3.16468621398045
-2.53785761684414
-2.00056955758825
-1.57123485806084
-1.25957018554235
-1.01964915228884
-0.757292113136857
-0.391347434527046
0.107996372045026
0.727623340452731
1.43486543867242
2.21313444188626
3.08126752183933
4.03281733810189
4.96179419805152
5.72378379286935
6.26751377987218
6.6206166031352
6.76568415539577
6.65555178614541
6.36162837927892
6.07309215467893
5.86993527654299
5.54356792093183
4.71370880228013
3.17533878005134
1.16926144873423
-0.711555085955836
-1.95811861638407
-2.52523309608512
-2.78054705214281
-3.12400240356937
-3.69325231316065
-4.36535923509587
-4.9410803078245
-5.3214291868556
-5.53728738964057
-5.60588243777134
-5.40021894534147
-4.742082016368
-3.60791876180718
-2.15946171167443
-0.608849782863589
0.824884002017382
1.85854521732231
2.23364105061815
1.95990459370917
1.39522200435525
0.98887653719367
0.918631685103232
0.976411197044716
0.802371541472184
0.225481415313969
-0.622333500140276
-1.4738455377201
-2.10863593515576
-2.3569010898388
-2.0649867127474
-1.20431557926727
-0.0085651359648344
1.10827570028792
1.85599398118146
2.30921994904144
2.82362992218746
3.69395715048975
4.90335648058819
6.19172430549507
7.2795425319872
7.97254137832735
8.16291183227952
7.89141749501564
7.39695091434394
6.97402938631922
6.75491600830036
6.68139949616188
6.62932426779077
6.45905698354929
6.00565966111986
5.16729690507744
4.02119673346658
2.77795365855352
1.60690594560026
0.515567165293953
-0.643864218954285
-2.07424936182346
-3.8933388088933
-6.0504570421579
-8.36621173523972
-10.6142192242694
-12.5465742598675
-13.925793308213
-14.644038875251
-14.8162245133979
-14.6840032717205
-14.399858594685
-13.9379233082833
-13.2249654936448
-12.2937365076173
-11.2379536884762
-10.0511613881365
-8.61870811206558
-6.89243322643807
-4.98616652138955
-3.06647748054158
-1.23009304975478
0.472812720740192
1.97680978666892
3.23419200605869
4.28651425795844
5.26760283898146
6.32095767012598
7.46231177414559
8.48599778200229
9.08179873518822
9.13591295585015
8.88650607754039
8.72299735959772
8.86054335652607
9.22329819736794
9.56562918578569
9.66515735843942
9.45739080265364
9.04155150875091
8.58932604217509
8.28925238941255
8.3366146063946
8.82101918160384
9.54720876839598
10.0583777750873
9.92112838541983
8.99587050868693
7.4925747350564
5.84749785991659
4.47154194951746
3.46795952529286
2.59012501778883
1.5545648051448
0.380220231178992
-0.629759904558873
-1.21808906597239
-1.47385658241621
-1.85722443894273
-2.93386578506164
-5.01132019860104
-7.95828174091281
-11.3126376958133
-14.5141953535713
-17.0917440089027
-18.7923433522526
-19.6233719076358
-19.7297314407595
-19.217508143417
-18.1426090918236
-16.6200354046376
-14.8280176010327
-12.9121083149823
-10.9614689111301
-9.04605482899184
-7.21273373612036
-5.48655114078643
-3.90542164869157
-2.47977499869015
-1.10327907586429
0.386142362593489
2.00581090532634
3.56173126242877
4.82468387473151
5.73735962540494
6.4382522256743
7.11838189803467
7.87304966430441
8.680525383515
9.4940646326559
10.322336214394
11.229025741394
12.277314631626
13.4276714179173
14.4352685250392
14.9261110861463
14.7024720582489
13.9716901814628
13.2105963408519
12.815767081478
12.8654558280901
13.0865147967675
12.9968462472208
12.2087618220197
10.6824299629064
8.61514573020286
6.08123764658858
2.9421362333879
-0.815644805483717
-4.78901233246073
-8.32552313480084
-10.9659307672057
-12.7069369229312
-13.8774093041578
-14.7869442135963
-15.4907395170959
-15.8730769206768
-15.8734090297993
-15.5470246711004
-14.9671073032841
-14.1897237761232
-13.280158303595
-12.2502554035124
-10.9910053168923
-9.38050416142704
-7.4544832502278
-5.39703209867218
-3.3888636912647
-1.53386922243634
0.0918378154442781
1.40656915285718
2.38445361567249
3.13583640708885
3.87363382234134
4.74868997090808
5.72284659877499
6.63540391256898
7.3789644572019
7.98519064181275
8.57325341358351
9.23997475207785
9.93679241195209
10.3963702317044
10.2393039227823
9.25431804184134
7.60371194530187
5.74610854547336
4.15647634742277
3.06913547128345
2.40260961069573
1.91329924071804
1.44882636942176
1.0308839822571
0.705347903999706
0.445697954192306
0.271407405384931
0.315011296470223
0.629387642338018
1.00023314542814
1.07356547575826
0.650844763984769
-0.198444711695408
-1.27257199373007
-2.41069768101223
-3.52260989055176
-4.49254653811907
-5.12978074091204
-5.29118612385009
-5.06742344709949
-4.79989287879018
-4.86407808425144
-5.39556271900811
-6.19081628846544
-6.87789261247462
-7.21641813729247
-7.2440074763976
-7.15888061727903
-7.13529656472344
-7.25970487748687
-7.51704153608829
-7.74231746119755
-7.65816309010423
-7.06145376382102
-5.95979478304269
-4.50955869249393
-2.90338327842978
-1.35098283987868
-0.0524620812347986
0.904831578363468
1.58323671125543
2.10315617742486
2.57471803884523
3.12560018536962
3.90998589473472
5.03580701371244
6.4803744327692
8.06058246357084
9.48684835566715
10.4994714909635
10.9983157350935
11.061000431008
10.8667291379417
10.6013872760813
10.3686780987905
10.1471950294015
9.85417955625915
9.45108300273322
8.9560468613875
8.39012756978864
7.78232516435416
7.19793627621964
6.67564797468219
6.14324740885808
5.46056592407034
4.54321309591332
3.41253000653358
2.15527805202087
0.875015547483699
-0.340472403185218
-1.44173316244813
-2.40864042111714
-3.22551699061296
-3.90864827571408
-4.58718632669921
-5.51655242622409
-6.92289894708303
-8.77406829924625
-10.7353278654944
-12.4383879165601
-13.8075018035301
-15.0223567266637
-16.1220896089181
-16.7849597168487
-16.623883607557
-15.6209305759812
-14.149641168683
-12.6167127926515
-11.1763866454997
-9.75519926052455
-8.26385061444195
-6.76354113321352
-5.42253660544309
-4.30017800363566
-3.2170781897672
-1.88920888827398
-0.177964819295663
1.79660299767787
3.75246868228439
5.47407370722811
6.99929218886524
8.53662747641139
10.129109114177
11.4669829700679
12.1318648307473
11.9927709428995
11.3078843161051
10.4996553950196
9.88414556252817
9.54618260726788
9.38244554878703
9.24652847724685
9.06896410594167
8.87190679414061
8.7279614369601
8.70857366098868
8.78711386909826
8.75871577114018
8.35287856391631
7.50653387941362
6.47252841188469
5.55941009511944
4.72449132273496
3.45698298949482
1.16835472623795
-2.2050429889864
-6.02763084881535
-9.47249152271911
-12.1346732139245
-14.0727725352717
-15.4352727045684
-16.2751319869149
-16.6256765310122
-16.5040891890754
-15.8515238414623
-14.6471841833971
-13.0857270291379
-11.5288749913852
-10.2724579039136
-9.38718893814269
-8.71847198416908
-7.9709051876364
-6.82172131869028
-5.02918740347071
-2.51870332454917
0.542560329213486
3.73613208472006
6.54868905214707
8.63954367005548
9.9977003292516
10.8597349748845
11.476022751365
11.9120214563232
12.0513971546678
11.8309815542999
11.4790857965082
11.4468869533387
12.0596793575254
13.2556213270558
14.6202560305884
15.5906637291912
15.7230653085398
14.9989273922244
13.9141063386984
13.0680696731303
12.5365265949141
11.7266082519066
9.94976978247071
7.13283734094012
3.93844418940617
1.23031968281727
-0.52673221142267
-1.46309743818411
-2.21702320880991
-3.76541014352557
-6.95746262317283
-11.7304395999182
-16.8002365599074
-20.4919580794425
-22.0241814789364
-21.9355572629183
-21.3975094233297
-21.2787069489211
-21.7069006592463
-22.2314269641378
-22.3299511664732
-21.8056135077528
-20.7170466607115
-19.0669191471089
-16.7848615349639
-13.9973532207262
-11.0547181445845
-8.17474342821486
-5.19709904701358
-1.79544034481219
2.13584127456785
6.35954315005852
10.4755103772006
14.1377692174112
17.1411567540734
19.4190829395501
21.0062080553322
21.9033687121066
21.8800756123222
20.5366028544454
17.7902473546037
14.2638391386852
10.9430401088978
8.40502007520661
6.52565979796391
4.86545008151689
3.11313796171551
1.21468746399073
-0.640137244166987
-2.08729270243192
-2.82280392094792
-2.88063430290984
-2.66809614593202
-2.70281519103064
-3.24530452093914
-4.088829203526
-4.717701373475
-4.75614271494201
-4.26424259850968
-3.56614821374761
-2.85769589067403
-2.05276603552232
-0.969622559474589
0.402771509733457
1.83867692169474
3.07477854667886
4.05666933936777
4.9370068610339
5.83328342291521
6.64808401817457
7.10301895131561
6.858621194749
5.66096962477726
3.56709554057544
1.06696095045228
-1.17721092623084
-2.79094748720277
-3.82891457468995
-4.49608911396414
-4.86223979738733
-4.85930951705728
-4.4670907585325
-3.87984137646191
-3.47767865084759
-3.54210882849247
-3.97444176564531
-4.38631474356042
-4.47853749722515
-4.23579892159318
-3.76883805034497
-3.11253779215982
-2.23598578311702
-1.18417378954754
-0.153218105451929
0.604839630555462
0.977657083644917
1.06467559421999
1.02581333981671
0.930834805902734
0.816700346232362
0.798587896655612
1.02244140235547
1.5516258490217
2.3410864815395
3.23772850325842
3.95966178948716
4.1799005356121
3.72512136729016
2.66574051962131
1.19281975931568
-0.52208642542199
-2.31238348081595
-3.95186544847041
-5.2167979279674
-6.04669985093968
-6.59583485318496
-7.0452475640751
-7.34675467910277
-7.23034340296816
-6.50309717657789
-5.26978347531744
-3.83685045308395
-2.49534524184469
-1.41650346112354
-0.630194776556433
-0.0334334264785581
0.523797393018551
1.13854285906255
1.85961214886532
2.71905542608559
3.666688180947
4.51283466099038
5.02118956177707
5.07063160459022
4.75070606800387
4.36173310234444
4.27816560051532
4.68328936217725
5.40823193123705
6.07522332171939
6.37746212198673
6.20713607238606
5.60754537374523
4.6873115610181
3.56662534097375
2.37568904427364
1.28153250136244
0.449556943631906
-0.0573071768193054
-0.28468006482692
-0.269421542514745
0.0116834258276793
0.572653484387922
1.4026164147196
2.50371768492557
3.77170450129112
4.81307287909257
5.08515996943028
4.33081602556165
2.77826991275783
0.88514768568466
-0.980483537339116
-2.58521351937622
-3.76150220614177
-4.48388000923019
-5.00117449723091
-5.72719181949275
-6.84955661143473
-8.06803705144076
-8.86709842750619
-9.06382881567354
-8.92782154623325
-8.73911841796152
-8.44750897196016
-7.87025299483451
-7.03157852191633
-6.14146328227284
-5.33142414600637
-4.5552547282432
-3.75257817340476
-3.03061610880976
-2.60312531852924
-2.5140551515981
-2.48936750886815
-2.15043800606935
-1.34387444108329
-0.20906835762142
0.991585614378851
2.01885502759094
2.73807776135744
3.19279737935289
3.53515796139819
3.77004207564494
3.65369674896863
3.00072958508101
2.0561756389594
1.41444995344258
1.5320670717363
2.3759696714547
3.55424371409021
4.72459457280341
5.81995191654905
6.90928065619451
7.96574705499488
8.85678759489731
9.48396446360063
9.82157550695678
9.86119395232816
9.62121774711505
9.19137943821829
8.70151420205724
8.2577606703575
7.9042672208095
7.58000607865185
7.13581101760815
6.49556680203881
5.77031774409607
5.10214322539037
4.44972331471043
3.66203877282711
2.71102982996807
1.70219966977068
0.65643898089583
-0.630554899858034
-2.49313475125355
-5.13471579184203
-8.37107911613627
-11.617182923955
-14.2268086788768
-15.905116056186
-16.775418692091
-17.0886576604653
-16.9625313883391
-16.4015394451317
-15.4760306294242
-14.4029158916084
-13.4015311764794
-12.4601044659424
-11.3230966392802
-9.77761709370226
-7.89151965278243
-5.92183959673999
-4.09236124981145
-2.51618814916838
-1.19324235296065
0.0129693698671876
1.27792361595782
2.60747935596639
3.81803054809975
4.7687648777942
5.50873407445642
6.16136174757707
6.77953454671229
7.37199896472185
7.98012832878526
8.62541443929714
9.18491381271222
9.41688277335136
9.19337764602853
8.65918630959069
8.05294174670531
7.41190694221891
6.60109663399217
5.62126097475586
4.7187817101276
4.14175001756381
3.88911182656945
3.72597321623676
3.37376228179824
2.69745406590651
1.79715945814655
0.92624744460318
0.265905497937723
-0.212659049545441
-0.639005490542555
-1.04824052798943
-1.3429844059498
-1.41954796607961
-1.29793592527114
-1.1277351604131
-1.04691799989173
-1.0210358741495
-0.860829867363696
-0.420709998089876
0.250476566462902
0.94793498516315
1.45804510593633
1.70352078492873
1.81215875313339
2.0191549198744
2.44893545849134
3.00747398313245
3.47393501467291
3.61635772932624
3.24590618839909
2.31083670854648
0.974470658626544
-0.500358564335001
-1.95038643079188
-3.32509267668771
-4.56907675211511
-5.62154264687726
-6.4988994386501
-7.256845986782
-7.87170310818439
-8.23911655159601
-8.2990395090886
-8.11980605518537
-7.84853353859441
-7.59189623487309
-7.35431239642356
-7.08856667092167
-6.76302791860408
-6.33731225001649
-5.737591646395
-4.96261983475536
-4.16656618992199
-3.49914126235871
-2.88394010163538
-2.07897259052606
-0.940797908866097
0.455871439694206
1.90625856780578
3.20476648540743
4.26538266563353
5.20495048895531
6.25661419700121
7.53689530011337
8.91356252874776
10.0916044457592
10.7880574123418
10.8704479940658
10.4110378144298
9.60849738956811
8.63340424761789
7.57067344970986
6.4882396327758
5.47578915468415
4.5899850835642
3.79608853110303
2.96847141127703
1.96137526615136
0.73230847368662
-0.608588547883169
-1.92537261679743
-3.19367503300918
-4.4232053420052
-5.4902815532832
-6.18596019345904
-6.4523248596339
-6.48364251926045
-6.56239934871566
-6.81249666320224
-7.08011517153366
-7.03711049456081
-6.46703398959996
-5.48774244919478
-4.44551047069505
-3.58458223967547
-2.87088953471813
-2.10465718212307
-1.1208118795743
0.0942774848012759
1.39788414550985
2.60132025185895
3.61268525947506
4.45036513553871
5.13863246848243
5.66306548156196
6.01897144900462
6.23725186555306
6.37100897710868
6.47973009930777
6.56996041687748
6.52470747310219
6.14991250578715
5.29604472601042
3.89580747100359
1.96889476814935
-0.283500283929059
-2.44794163149492
-4.11512510704236
-5.15076041779512
-5.71694089676725
-6.07335884882454
-6.38506399915571
-6.64698032624278
-6.74068848100047
-6.58874515515211
-6.2491392631971
-5.83362239633264
-5.38724271616221
-4.89867198793601
-4.35933850361841
-3.74828623321086
-3.02199182120026
-2.1701385757557
-1.23183585192582
-0.249071926995218
0.737300543034617
1.66569535831619
2.48565978689079
3.17611244974861
3.70326657899231
4.03134716053335
4.18877578662079
4.22703464050623
4.10689476966462
3.73125695699135
3.09553510669637
2.31489296178795
1.51817438514102
0.797980895269676
0.23778896558298
-0.0919363726706586
-0.165966676725504
-0.0221564961172705
0.227316300517606
0.434172303022042
0.523829244959686
0.544228401086335
0.57964442947904
0.679406594597038
0.885619887682443
1.22492342385869
1.63582756541063
2.00654622453467
2.32714647700716
2.72247886923991
3.3124771543625
4.11496381641304
5.07431801466195
6.06993416139876
6.87664254067934
7.22923852067967
7.00209521063761
6.31215250227025
5.41564710615968
4.4617225722422
3.30212292647373
1.57613643162631
-0.922533631821335
-3.92444452187311
-6.75730471412409
-8.77463797168246
-9.76367086943409
-10.0006626872968
-9.9403998815359
-9.85204843801779
-9.74645480093434
-9.5691569466043
-9.31860373218446
-8.97790702054274
-8.50526026865991
-7.95157615847195
-7.44042942009646
-6.95642133351217
-6.26107922571038
-5.09029176943111
-3.40666574217703
-1.47866208599642
0.244011801692723
1.39371118592535
1.92165629560842
2.10029859207203
2.29276571190231
2.70589937160235
3.28187034043722
3.75821998863479
3.89956703189787
3.76534461603236
3.71455667645114
4.08062783412877
4.87868118578178
5.84474961594608
6.64586971346958
7.00634928925458
6.78667298541594
6.08653487901466
5.23773481649757
4.60698161678028
4.36112953032468
4.37961265743376
4.37560971978824
4.14787788499318
3.73515677664341
3.30370105114636
2.93932608308153
2.63075947023139
2.38967256734038
2.2586765818456
2.22403979441001
2.21351518403658
2.16413474158948
2.0537601033962
1.90579314636495
1.76330859624152
1.60287144047889
1.30922735435672
0.798102588251794
0.0946168026552802
-0.774533001319582
-1.85968892639072
-3.16349202737424
-4.52449552783726
-5.72081778738362
-6.64416798952236
-7.31940016493755
-7.79592457393926
-8.05999386089426
-8.04574650291573
-7.74441235249594
-7.30004654849298
-6.91853583297528
-6.6445801788118
-6.3120180638366
-5.74862181139864
-4.93834897422301
-3.9710218076955
-2.95900960184422
-2.03614643346576
-1.32676470963842
-0.864332322888074
-0.582129804089685
-0.381516146151365
-0.181042251679749
0.0723039240292168
0.409284360214414
0.859384742144949
1.43968998800208
2.10089251838395
2.74429466208259
3.33730168228974
3.95000613440721
4.63957168173054
5.35880489510674
5.98492595311129
6.3666517545052
6.3703602490769
5.979451087
5.33553562283584
4.62115175862199
3.93951466629154
3.32615678119571
2.77457147849866
2.21155087233049
1.56255843332758
0.895418895484765
0.403031053646222
0.199744687898434
0.212239260560176
0.290152854900454
0.348224090788994
0.392666678775295
0.477403378232313
0.644114850705531
0.87299602987236
1.10364916216359
1.30800615804345
1.5123106077292
1.76539908141553
2.11568516175293
2.55063918262649
2.88678262377196
2.79811447941519
2.07620988187324
0.859540283497622
-0.450739358543236
-1.49501962300347
-2.16998442048709
-2.60024844413503
-2.96349404013544
-3.37405754972645
-3.90477555541135
-4.59043284537526
-5.30766373379698
-5.7627924539511
-5.77319054860568
-5.51061901557429
-5.31462853504529
-5.31476888088971
-5.36545003092532
-5.28483874404288
-5.02766606301259
-4.67131625779648
-4.33307349785441
-4.07595821126639
-3.85180450136158
-3.56629788838823
-3.19026724301979
-2.74607704714431
-2.22498413744134
-1.62997223815051
-1.07707903009347
-0.712355767243895
-0.491241811252862
-0.135524715942316
0.629621039659897
1.80568827345814
3.08985845088224
4.11319619877477
4.73241239024938
5.10399421949884
5.49348655520166
6.04187061215022
6.68580024405272
7.23020698237632
7.50478914857711
7.50747272928229
7.37294771077338
7.17317649916466
6.83564148953674
6.30398871669353
5.64875110687086
4.92965878182348
4.06921726333911
2.97424699446593
1.71079263494014
0.479184550208031
-0.543391142398917
-1.30280925369883
-1.84906782848902
-2.24431376018196
-2.50340582289356
-2.64630731193683
-2.76109768121463
-2.91817733605842
-3.03084960479686
-2.90903341596167
-2.47679031645333
-1.86339838534756
-1.2705613734046
-0.815061455639308
-0.502570474985185
-0.304959494100538
-0.265449735680194
-0.529420311152991
-1.21020964736272
-2.21104848280709
-3.24962375619616
-4.06677189033763
-4.55368684704103
-4.71064656725183
-4.58076774773409
-4.22329151359985
-3.69310828602446
-3.05242914845377
-2.4038630437759
-1.84867027882406
-1.40032646670618
-0.999100002895096
-0.607857155361578
-0.238096138838356
0.0963078290389027
0.392332141098273
0.635463534564856
0.797113231048066
0.859428187335024
0.855870741842837
0.875057737774306
0.962538528260045
1.03056069543797
0.969385605988573
0.84682492406872
0.868689351839127
1.12237417701327
1.47735550223077
1.75475331995879
1.88596063693703
1.89692916959924
1.84472824992885
1.78218244411511
1.69684834450821
1.4872847316707
1.08225132305178
0.579012426848211
0.196470420371048
0.0878649059612354
0.220660673625201
0.418236169874931
0.514016367539116
0.49111914432782
0.462893760769464
0.517149238417503
0.64552696531015
0.83999842424285
1.15276044665526
1.59693309525584
2.05426780928246
2.33697771985197
2.32514067629582
2.04649727396102
1.63513727605472
1.19024047003279
0.700273834985197
0.16911834917671
-0.251864353185959
-0.404788867530593
-0.363251575196511
-0.366349764853934
-0.524993460656525
-0.738788414906445
-0.894625758198885
-1.01121095822357
-1.17680204573489
-1.44262862407088
-1.79352625539497
-2.17136750440211
-2.52541536243392
-2.85524853537711
-3.18357561685097
-3.49495376313906
-3.74415311937511
-3.90865462553855
-3.98931895553814
-3.9914778952954
-3.94119674585412
-3.86503734273879
-3.71651975224373
-3.37865683950452
-2.77257155612518
-1.94412172126571
-1.06381071961248
-0.349897080858703
0.0887211867034527
0.3736617931205
0.751890773863241
1.35081003626053
2.10194498189728
2.87559290045479
3.58282099222673
4.16411042234095
4.5892548545655
4.88441725728002
5.11361042687724
5.34101604710372
5.60861315825723
5.89864830557536
6.1208523526857
6.1875555395752
6.09080926003429
5.87824424596088
5.59196181488219
5.25200159738557
4.85460076935038
4.38347225343973
3.86584682893529
3.38113903210048
2.93302127967624
2.33431172131925
1.30934866274814
-0.259743059537177
-2.18717402662499
-4.04248398191352
-5.38051317379325
-6.05260012880199
-6.35120129884108
-6.74454777562803
-7.41715792929358
-8.15420449657669
-8.67005758298625
-8.90328863599691
-8.95822411487572
-8.89824233087957
-8.67619984632099
-8.21560311940294
-7.51424300084186
-6.66053710150436
-5.74177139983034
-4.76823999890898
-3.7225593825459
-2.62479347623843
-1.47978385248503
-0.22062360052828
1.20179318579905
2.69155973764895
4.02546250907406
5.00231388267415
5.5904058485823
5.95093119802567
6.27646419007014
6.57931400555051
6.69798509170858
6.52809138642301
6.15752069097466
5.74688772935068
5.36398155936893
4.96298869073752
4.46037943214308
3.8264401033261
3.15046582252418
2.58120575375675
2.15059847205728
1.72177695529129
1.17985644061507
0.599489417002315
0.144419121760194
-0.136964548106299
-0.346658327179685
-0.60776204824967
-0.940490783347918
-1.25051361769173
-1.43740600280238
-1.50522634867153
-1.52256051814353
-1.50457375396033
-1.43633488133
-1.39138413956241
-1.48949565925072
-1.72057190640278
-1.91920060477295
-1.93241929802416
-1.75725468565771
-1.53965082144862
-1.47103524383288
-1.61735836964336
-1.81583642427891
-1.81076415217278
-1.50512003157127
-1.02141807043058
-0.552535846143331
-0.226165631611694
-0.0473320709819047
0.127899851366368
0.507535774444104
1.15152203385
1.86423820749711
2.34719062317725
2.42607754605755
2.11788719236856
1.56429412833103
0.958272367099218
0.476521842271593
0.207775523267384
0.12926188932181
0.150246515188386
0.185909919088412
0.216778872094809
0.263947487832918
0.279382646020758
0.133099471700283
-0.199539091973715
-0.508292547073818
-0.538976240689932
-0.29380003552244
-0.0482422902388457
-0.0848367024709417
-0.457661189899918
-0.982953940560415
-1.42824367307811
-1.72758044487591
-1.99182578482875
-2.29602872076095
-2.5498381348352
-2.64138775325682
-2.61101762324687
-2.591446339165
-2.63770051841258
-2.67581623893264
-2.56930331090746
-2.21423678369913
-1.62883837907925
-0.968506861837365
-0.416038363505079
-0.0505482408872982
0.173967447757941
0.349680644039208
0.510392403354536
0.564139527941446
0.34891356324715
-0.184558801630465
-0.861732380515983
-1.40668261831693
-1.63913668914534
-1.50446019931423
-0.988260820165478
-0.0985847681219011
1.09483316084217
2.45212184017402
3.77197710118577
4.82775764329875
5.46918791920101
5.68876118870431
5.56040642791287
5.17161201859988
4.64149248260444
4.09711660191212
3.56686262793948
2.97485874123732
2.28182238052224
1.56512159438954
0.938722135552573
0.44091949704851
0.0057504594243604
-0.46192614412843
-0.95576446277181
-1.34544321779858
-1.55486641887142
-1.69903796699441
-1.91686964828536
-2.1082402089621
-1.96436343476391
-1.24959631818727
0.0001555081889681
1.48733121133467
2.80530876447146
3.6817880043288
4.16145340253346
4.5115636145533
4.92845504786907
5.39216358897677
5.78536369810995
6.03732700396599
6.1122613256353
5.91369920819138
5.23145055386217
3.81519009524441
1.59859239843375
-1.10502308513285
-3.70999114514159
-5.72814399447409
-7.04049003238897
-7.86576020821624
-8.54474905329738
-9.31540226694443
-10.1848620478222
-10.9726482831297
-11.4796739591765
-11.6255907055596
-11.4820615474826
-11.2231034228088
-10.9763164640044
-10.6437817229187
-9.93496067773498
-8.67371302728841
-7.03319619421317
-5.39424933570749
-4.01060201612871
-2.86495772297555
-1.79829647061749
-0.701387513943912
0.415138666736024
1.47500370379976
2.40833785925218
3.17839018487267
3.80360314789441
4.39491488360269
5.12684089192577
6.12073591728513
7.37121688503377
8.77910057958708
10.1698345100017
11.2632734705609
11.7624796505032
11.5695265435499
10.8505775251384
9.85716489801454
8.77715322418241
7.75635785506791
6.90171326208426
6.20091706385797
5.54004162141713
4.83271147063565
4.0754641594265
3.30818444282786
2.58355622202638
1.92180644254458
1.24165905504465
0.410069030969959
-0.580060317131246
-1.53899476322077
-2.2304150761166
-2.56945736463834
-2.6802776380702
-2.78230225753564
-2.98910961981708
-3.20772205338753
-3.2759175283126
-3.16954083963283
-3.00079400655449
-2.86199517455413
-2.76936196710612
-2.70480005367717
-2.60680763925671
-2.37867181821894
-2.01908557909284
-1.70627855497223
-1.65449901743973
-1.90135395691102
-2.29180463036455
-2.64331714835049
-2.88616005787316
-3.07986832246374
-3.33396962434676
-3.68137319591619
-3.98673544056981
-3.99145185420307
-3.49934902221348
-2.56876694251611
-1.52939630289831
-0.755279662106806
-0.375528947199231
-0.225532315225261
-0.0783546989222114
0.143451268621689
0.383554621245694
0.570932187082447
0.688537971784656
0.802703388823027
1.03184586769585
1.40118373444806
1.74058630432291
1.82526010452361
1.60777405879506
1.2226449480804
0.787972447239092
0.307940191563257
-0.226417603927775
-0.730893648767827
-1.07063374717334
-1.19069381211025
-1.17104866549502
-1.13630847304689
-1.13524076359549
-1.13758705272757
-1.10823164748103
-1.0200675217235
-0.824659870788787
-0.494279735130553
-0.0884597510704288
0.28576620604526
0.573291246615849
0.792544839571663
0.999272381229041
1.26830684269582
1.64492764125937
2.06802264122971
2.41261255569828
2.63938004189425
2.81926349967459
2.99054831942943
3.07727501147041
2.96718619759498
2.61406627071819
2.07069623049219
1.45777679178523
0.879299703986355
0.361704429980665
-0.0927310013301517
-0.43166745510677
-0.6020651234932
-0.636802785524658
-0.620145250608872
-0.591270808028752
-0.514937879876812
-0.312913136290914
0.0589929976547867
0.496275732611323
0.760595205773328
0.726669348839347
0.569422279156597
0.573325361089778
0.784040021908802
0.969953021017322
0.91454455471717
0.648605645245381
0.391998542387102
0.328039260550343
0.442393358410278
0.559476802032782
0.529734452730636
0.365469444097412
0.19108420388244
0.110669994191437
0.137449308932568
0.176406702642633
0.0593997525475952
-0.306885212253048
-0.813967965480988
-1.26538638326806
-1.59268599411499
-1.8448901430232
-2.01900759725534
-2.05256344807533
-1.95487241534721
-1.81863765703567
-1.71853498332901
-1.66902361794898
-1.64295956533895
-1.59900023484751
-1.54434516373739
-1.5608192937604
-1.69601000030729
-1.88027256980238
-2.06248073179566
-2.36457537351274
-2.94713537684465
-3.73087829960089
-4.37686783851924
-4.57812748632078
-4.32405456438627
-3.85936684155105
-3.40318590947293
-2.94744934670645
-2.36260780245116
-1.65047897302037
-0.986661639403518
-0.512058275197759
-0.190651516284686
0.108807399131374
0.49147894300691
1.00208395935321
1.59417805182763
2.1249062531633
2.50147940256006
2.84447716494207
3.39026722446306
4.2130132924388
5.1326448025613
5.9081833829551
6.44893853372617
6.81775739021928
7.08380749976936
7.23692838998179
7.27233390916897
7.30454770123401
7.49624796274721
7.85438048921123
8.16934973503584
8.19003023027022
7.8380994630967
7.25924547722968
6.66510292950889
6.08509009669284
5.3132182659916
4.19805499029556
2.92121884634363
1.81660227843153
0.942722940060679
0.0092275901200302
-1.29210621635156
-3.03957282197053
-5.11870068781263
-7.31545309002829
-9.35121216863766
-10.9684459203146
-12.0624166110468
-12.7208214522605
-13.1349825508085
-13.4555975932954
-13.6713331296414
-13.6076353603735
-13.0917284691952
-12.1315835319211
-10.904441512295
-9.59020385228716
-8.25042258914831
-6.83732788115011
-5.28451752556942
-3.60543437758556
-1.90238752839532
-0.261356345226825
1.31566320188475
2.82768766792235
4.17714570412288
5.21352487330567
5.85150390178775
6.13979413154075
6.25123205902432
6.364487589212
6.47506036278711
6.36614715377759
5.85892705509637
5.05811787810857
4.28894310464567
3.85191272353728
3.87556372635498
4.28718470786395
4.82641143344873
5.15667144493269
5.0694209893098
4.60996939759358
4.01549824897731
3.53263673602432
3.24968928214561
3.06795682994773
2.84165853887497
2.53346062149078
2.20879309335229
1.91782283848317
1.64106332230561
1.32208500450235
0.90035781556355
0.352784732055474
-0.239212453548548
-0.710547546256425
-0.959648419361631
-1.0418049992759
-1.09798275899787
-1.25017839922815
-1.56149360846518
-2.00256709042946
-2.44072771624171
-2.73406522442422
-2.83787333865237
-2.78080729382269
-2.59234441901869
-2.3201505413836
-2.06958031113544
-1.95655640924568
-2.02629454822993
-2.21761301223399
-2.38188856022148
-2.37108005174468
-2.15560090889317
-1.83978939696506
-1.56115447169864
-1.41123845176123
-1.39960356957498
-1.40136162398877
-1.20390611745057
-0.727968169029078
-0.154820381236628
0.265093721033029
0.474212940509943
0.611227753773502
0.839116777868449
1.24005782376396
1.7899783058593
2.34999933864295
2.73283394973259
2.83929822926534
2.71498600265132
2.47390658143676
2.20038832298059
1.90480211429756
1.54093627504
1.09676737805806
0.669687946708326
0.378125332059783
0.201032700090037
0.0049653374884007
-0.265708531160301
-0.524510198712703
-0.672007209066225
-0.706277441517677
-0.70210832751061
-0.734884145061521
-0.827563127650889
-0.959660564949249
-1.12931527089936
-1.36215582125317
-1.62009112651336
-1.76337707498662
-1.67150197952687
-1.36728349796434
-0.985519432913808
-0.655608452232206
-0.416904659605231
-0.199157596676925
0.107284485077537
0.533752614357028
1.01827514985335
1.50204745111232
1.94662559712675
2.24513212648819
2.23795910993607
1.86177312263544
1.19828728371114
0.365673032998248
-0.537707540538632
-1.38330396239341
-2.03523967069952
-2.4600672832006
-2.73331834583846
-2.93506249059802
-3.11437705847734
-3.32535327093149
-3.57895969543677
-3.73346037618925
-3.51946841470723
-2.76338285242055
-1.61987248761858
-0.542164880125711
0.054153106765033
0.10388256058339
-0.161754577996212
-0.493877407855505
-0.720325113537279
-0.64563108246991
-0.0972339869858749
0.85333580631911
1.83642721508483
2.43374867479808
2.49569426094236
2.25761871129614
2.14808378929636
2.40392082197629
2.86177919544275
3.18551206690609
3.24135470629858
3.1454982052833
3.02348615908785
2.88223671753503
2.69076003917377
2.45843253604593
2.23720754616837
2.11062339291299
2.14441425033899
2.29977578360242
2.441961606444
2.47092351768273
2.40362098819339
2.31772821526304
2.25405953227776
2.16649571152725
1.9434266923285
1.50756885652119
0.893704381051988
0.179069297568026
-0.618970377674873
-1.48758514318729
-2.32924751755503
-3.05211773047425
-3.69059631694565
-4.31421374987618
-4.86603092986682
-5.19295949423334
-5.21131512601369
-5.00290471629153
-4.77495558202493
-4.69675634592686
-4.71452221821344
-4.58446567398993
-4.1598486437825
-3.55598954459733
-2.94177040712313
-2.2695303992501
-1.33174197065235
-0.0444330385393427
1.38926208931702
2.57776695126888
3.21400845004205
3.30605003988751
3.12903151141851
2.92783188801305
2.71803458233839
2.39589774084717
1.95455527096685
1.53758101733315
1.32606803499002
1.38677004484949
1.58985273222783
1.7060385277304
1.64114901020891
1.52248090271402
1.50337326304208
1.57267358799275
1.61766865249556
1.57082453730268
1.42995274964324
1.22744652615939
1.03523107287605
0.946539899582298
1.04104328798571
1.37262108573842
1.90215344602605
2.40521935434528
2.58018657109583
2.33937518726666
1.90826245441822
1.58237461944978
1.46280953272269
1.44243864173502
1.33650856988697
0.968008446751079
0.187078681081685
-1.10673455554471
-2.88394141621997
-4.8854399659156
-6.66703055504191
-7.84184128081163
-8.28659744431943
-8.10854743473193
-7.5092818569656
-6.73101829994422
-6.00769280320309
-5.44282425066463
-4.972651060874
-4.50265852641156
-4.0258904107917
-3.58439424806649
-3.19857197752364
-2.86226650429636
-2.5254603072313
-2.06093413160575
-1.32621724523519
-0.287447842981291
0.950811792281555
2.22898713753976
3.42092702127164
4.46704726201131
5.35287843231497
6.06240774118215
6.5652772115102
6.84005207197122
6.86649187649454
6.61065531407469
6.09454827218078
5.47503437424714
4.96572374378913
4.67084892245653
4.54899628936319
4.50183179208801
4.4289028959273
4.25439407770908
3.98969579696877
3.72659652774416
3.50456506696191
3.23759627666845
2.82123057573454
2.25514882497748
1.62264570895449
1.0042967549641
0.448761418178327
-0.0047171886098681
-0.30652388765886
-0.411417437866719
-0.337025332801124
-0.204425729486382
-0.168734571069716
-0.294001937144678
-0.545204669514679
-0.908257636426366
-1.45249516794158
-2.24849042414073
-3.24677466719839
-4.23410342783952
-4.92831002985816
-5.19704952529432
-5.1995934229331
-5.23705377165256
-5.45802392198386
-5.77779348914688
-6.04453163767027
-6.17364650181454
-6.13306693308409
-5.89234472336535
-5.41141128383504
-4.68496653883338
-3.84084376201258
-3.15958453211535
-2.88729453135236
-3.01971875098509
-3.33866683693823
-3.6307673381083
-3.8043710156973
-3.85081693370329
-3.77362684275077
-3.52282189855221
-2.97003244115796
-2.01871685866728
-0.775612029693236
0.446244847653692
1.33853666029008
1.81879323624713
2.08113660690121
2.45536536652094
3.1635850236554
4.14723010700614
5.11729128133674
5.78003488031749
6.03892400304945
6.05361304214747
6.14632129586583
6.56987020889054
7.27715584771799
7.94323247535357
8.24663698209499
8.09041094516876
7.57520933000695
6.87558622751283
6.16311812678193
5.55034278646707
5.06514547838411
4.6999655186095
4.46217362853898
4.35275844677238
4.33269637057856
4.33023789382538
4.26680889034013
4.09973588061563
3.85419417090418
3.56216559212039
3.17946022889514
2.6689418979265
2.15158807650075
1.80804976320507
1.59990949267198
1.2430129961771
0.493230613150984
-0.660763019096563
-2.07372124658154
-3.56234339278232
-4.95156121470939
-6.16007713347825
-7.29260753804889
-8.56386079091474
-10.0837473589752
-11.7298159743815
-13.2118142367107
-14.2355066410088
-14.6421633564572
-14.4579128726653
-13.8551816565451
-13.0856973473434
-12.4021772500597
-11.9290627922511
-11.5554915874255
-11.0058636380335
-10.0416429559916
-8.58605687863323
-6.73432273601419
-4.73612689871326
-2.89805066030806
-1.3785542227706
-0.0856609571982344
1.18611114288677
2.55832352487012
3.98286068633181
5.24182356725507
6.05781388093422
6.35194479339488
6.39382814778119
6.56880960897818
6.9964580924092
7.47139179186782
7.75696125954946
7.85846262519707
8.02434818173664
8.51853503178234
9.37741526183403
10.3919374392147
11.3280681239509
12.0936971334992
12.6567188508714
12.9007569191617
12.6500058480518
11.8050845484051
10.4378457303545
8.80879220439276
7.26895385761402
6.03223348007634
5.03131687744995
4.07428604048823
3.11099380647232
2.25901876175916
1.63035501754556
1.23344169639036
0.972407554021388
0.645966047319946
0.0383793454263926
-0.86564325404264
-1.78863989880635
-2.35560341985939
-2.4108193004193
-2.21868784098882
-2.4137845891206
-3.6316485274983
-5.99086353362308
-8.89519840748083
-11.4198275149309
-12.9432706363897
-13.4670812151503
-13.4311004930108
-13.2672854651704
-13.0903762877379
-12.7649263311091
-12.2015033484046
-11.501617258855
-10.8129866730395
-10.1310963256804
-9.28775542462693
-8.11504765254716
-6.62170872317214
-5.02032107165332
-3.55650924351614
-2.29681635774449
-1.10925146308228
0.154145454760867
1.51161559375652
2.890321965543
4.23162669830028
5.5179450689032
6.74093117429681
7.86991462939394
8.82365348789514
9.47168064417908
9.69450425613222
9.46017688180042
8.87423563658366
8.18243063597609
7.6560663125615
7.37476707331512
7.14042611053514
6.67587727217815
5.89299243607153
4.94514210621391
4.08145356073721
3.4767003816442
3.13272645212311
2.90927249115839
2.66686340021448
2.34759393699005
1.91385313301011
1.32672686981431
0.644667468212112
0.0245126561854927
-0.454549304814903
-0.883552637533557
-1.39784410854733
-2.0371675153691
-2.74878062379767
-3.45700810034073
-4.10946256933706
-4.6759683936081
-5.09357031698599
-5.24669868311613
-5.08576727916138
-4.74788040696744
-4.45520472079501
-4.3085166565357
-4.28976578597519
-4.42231812456694
-4.76157117104601
-5.22322342403767
-5.56610681167826
-5.58298086278587
-5.24823039906312
-4.69426519094906
-4.09014294704084
-3.51940230522472
-2.9550844551464
-2.36312122458045
-1.78580329025763
-1.27987787494536
-0.827369064845241
-0.355562513080828
0.20319666314309
0.883052884331144
1.64063500818955
2.33995718749463
2.8707640244124
3.2895415189477
3.78037352417181
4.48257053002674
5.3825177612524
6.33082388887405
7.14750598619765
7.76024730126952
8.23844360293613
8.65988366798167
9.00674213503145
9.25019826313214
9.44521853634858
9.65275101289883
9.84712206965792
9.9846121949929
10.0906572384189
10.1979486520814
10.250323938898
10.128718564405
9.74021218962333
9.05227729368939
8.05037088231553
6.65053118637047
4.68171759853368
2.06849844145426
-0.946500301836732
-3.90312126000924
-6.51338829606464
-8.86240556794743
-11.2120752462055
-13.7079159452997
-16.253643561117
-18.5411765345376
-20.2111375406646
-21.0917966994066
-21.28639163302
-21.0007849537946
-20.3589052000229
-19.422159151522
-18.2813538602505
-17.0337630593469
-15.6845031055496
-14.1085658889597
-12.1498396025685
-9.8127208005295
-7.33695121139051
-5.01167188214607
-2.95204971213327
-1.13900414049684
0.410735973322425
1.67192113022392
2.76971067883168
3.95858658692838
5.42011492097138
7.140523552315
8.95425820737922
10.6417095392214
12.021219819061
13.028211998844
13.7348305797614
14.2985142255199
14.8770289716061
15.5159164670378
16.0690369533408
16.2922509314135
16.0510020733071
15.3687214630864
14.2978728504247
12.9015417171251
11.3689499835442
9.96456992721977
8.80363886962338
7.79437463663997
6.81886162206051
5.87192248376812
5.02567118410329
4.33230323673445
3.75010777805055
3.1405670424296
2.38390145830924
1.494556617446
0.556090811003853
-0.425833857109778
-1.49885327266671
-2.59960760912988
-3.51518534510288
-4.04736437780675
-4.19702146438878
-4.19290540681266
-4.35546879912449
-4.92265355066409
-5.96650906474322
-7.40134387413558
-9.01897442327737
-10.5665086894111
-11.8782798834985
-12.9326050632279
-13.7426806865951
-14.2435120188288
-14.3574530916738
-14.109944454547
-13.5705744665243
-12.7203876997334
-11.4995630089068
-9.97118280525702
-8.33535611536258
-6.78675652053688
-5.42096376637065
-4.25024920960008
-3.24304782866642
-2.3413757082529
-1.45487679528109
-0.463191376337926
0.704236958684892
1.95585159450328
3.06472311412517
3.83769389959331
4.21913693390949
4.26526299506195
4.11667772905819
3.96899096692303
3.95553529702473
4.05669927405721
4.18020974486974
4.28875870048816
4.40679849347795
4.56504924558235
4.7722401309463
4.99309523488246
5.16626508424227
5.29521458786521
5.46417391083341
5.69350500135945
5.85514267560911
5.81782257979315
5.60936149157862
5.35888431239046
5.1384447008909
4.91727116025114
4.61434128007537
4.16717197432875
3.61349157573557
3.11520664539338
2.83654714967582
2.79725228918721
2.88221159758799
2.96105357582635
2.97391115072321
2.95726801052198
3.00285501368108
3.14120156964738
3.2847508488493
3.33989751454304
3.32794019727351
3.33973520584044
3.42973525369886
3.59183382373619
3.76280663927945
3.82559679117634
3.69239397646266
3.39423993380403
3.01152344028928
2.52465013798348
1.79711582224509
0.680677363967649
-0.896980722076268
-2.87973671171263
-5.06501502193985
-7.18904230101427
-9.06932093636933
-10.6524162118627
-11.9553196165561
-13.0077579536569
-13.8189888707345
-14.3548298313637
-14.5759385913905
-14.5173348829512
-14.270952126302
-13.8596520823096
-13.1865465934685
-12.1424904828803
-10.730707891977
-9.08853176798181
-7.42650212308714
-5.92045399384425
-4.60340255520465
-3.362468738227
-2.06290209675596
-0.675483356432955
0.690097559822291
1.84516031742185
2.64550582201826
3.08764879169732
3.27013033543939
3.3025890550787
3.34040305256146
3.66176060168165
4.55690469795853
6.10551837965604
8.11291905954433
10.202562670143
11.9102770934658
12.8416672107775
12.917553672792
12.4170133202987
11.6876223694027
10.8866493782874
10.0397815167479
9.20301132481061
8.47370470636098
7.92313152561026
7.55566280387798
7.27040633433257
6.87949672118175
6.25081555441386
5.42932736095987
4.58322248322279
3.88036949827604
3.41120797540243
3.07358699156015
2.46939287925708
1.10520186892598
-1.12795206441405
-3.71937682074474
-5.86585347270891
-7.02776083104778
-7.20376307381228
-6.77864381349277
-6.16440352396058
-5.56964498768671
-5.05353032733021
-4.67331797208497
-4.47107352552465
-4.37407645174305
-4.23533107875528
-3.98446655037054
-3.69634893817943
-3.52718311569263
-3.58814156284265
-3.84801945394847
-4.17405918436345
-4.47358292111799
-4.7127662527138
-4.79528830974897
-4.59053286394442
-4.14541315207064
-3.70856350535163
-3.46576871666923
-3.37170921052611
-3.27457108294843
-3.06794362099991
-2.67961352304812
-2.03382616582417
-1.09864328898543
0.0572939009378014
1.26325115163445
2.29005469764124
2.93335325142831
3.09981263612805
2.8307443435443
2.28543628220029
1.72577604004755
1.41419058065126
1.40373076672043
1.4662115742626
1.31383093245512
0.850060684861607
0.168462765570988
-0.580146309831562
-1.24110589227796
-1.67169608683666
-1.78963216899752
-1.58837118760355
-1.12072372714716
-0.515375360418086
0.0429834630065059
0.429694962630387
0.655638639171818
0.807823982733696
0.973385279058291
1.22201503936777
1.57997628722272
2.01265251347706
2.48024688250519
2.97599222849598
3.47034610845562
3.88213466359541
4.14633233628023
4.25880223384508
4.25298264134046
4.19171957548356
4.15081022142501
4.13246788555748
4.02513172163112
3.72085661761218
3.24719069986857
2.73427581276401
2.29087918830575
1.95614335580323
1.7293395659596
1.59795003235253
1.54418900274408
1.52129366419202
1.41619059613748
1.09409050275392
0.522743798606598
-0.203262483512312
-0.978328160390995
-1.73288105715103
-2.35717085925279
-2.71637905374205
-2.79659746539885
-2.74688174596613
-2.74896591067288
-2.90020571731808
-3.19532860993834
-3.55370800133254
-3.89679013892423
-4.23856446201024
-4.64151295463313
-5.06368245984462
-5.33934200436649
-5.34830331160823
-5.13717582733777
-4.84410554239106
-4.54124067701494
-4.16797883024468
-3.61980209119153
-2.90603380720626
-2.18783683956736
-1.63676757519458
-1.29910209207191
-1.11772009762845
-1.01476959700651
-0.913923274539566
-0.751523144932979
-0.519231119091904
-0.2566378582774
0.0276631229679845
0.397703346348073
0.943676737761547
1.7020929420333
2.57961870652599
3.3429565100481
3.77996870499254
3.92455120612014
4.03606488484281
4.31524319270954
4.72163967615085
5.07052679811288
5.19546276484862
5.01104739476654
4.52635710605539
3.83015988597622
3.04429301570862
2.3239233151544
1.87341104211967
1.82687919428733
2.08231272050439
2.36325912296336
2.4621553470331
2.34123350380011
2.04161865688577
1.62620586684934
1.19247207300247
0.830776916253921
0.570484921472567
0.398926448389799
0.267010177614289
0.0456362569761577
-0.425361247121943
-1.18134332042951
-2.07663136264486
-2.91191828261059
-3.57968558281421
-4.08442399134499
-4.46221491579482
-4.68868068778306
-4.67363147831212
-4.38757869698233
-3.97162672958484
-3.62520395784591
-3.3692078990535
-3.00578312854975
-2.34045118907099
-1.40005675978187
-0.430223383372852
0.297678188401642
0.68791574952542
0.839699508116257
0.88377210252239
0.868228447387884
0.817995403685881
0.787780583345752
0.78531817928564
0.733166955000064
0.566459932794483
0.294238937554005
-0.0555226325794684
-0.460847443374162
-0.867687204445399
-1.20723902904171
-1.43807315164703
-1.51445520229493
-1.37210578659431
-1.01533499302199
-0.562838377747085
-0.158837706124856
0.113687132374733
0.232975041946076
0.229285528152877
0.178174262625307
0.152396702536243
0.203830679440141
0.409800537269771
0.839009614481452
1.40308138494702
1.83522880091701
1.91511810105383
1.67901729247127
1.36615275644421
1.19996440856603
1.22080937059037
1.26916882427496
1.14905980631384
0.866657645881973
0.668973691790353
0.798466609022079
1.26196069968311
1.8591625574322
2.35353162541568
2.60580340709401
2.6429418887363
2.62176651315938
2.66302605580796
2.7303124843124
2.7101963088412
2.55312765547606
2.28121644709793
1.92449993425761
1.51951501979017
1.13242676731861
0.818334000514277
0.53650847950457
0.116571003650053
-0.633026589662364
-1.71440759535755
-2.86353547676256
-3.75114220000073
-4.23200955593962
-4.35432976356826
-4.21914969032249
-3.94083444140027
-3.68629953158705
-3.62332963074397
-3.80187901814704
-4.1094873239236
-4.32873145676067
-4.2534830943816
-3.82989207822634
-3.21652881589193
-2.65427137595319
-2.25591488496957
-1.94995545622916
-1.60345075176491
-1.15269491455514
-0.646030186695096
-0.197778724471906
0.134224326972308
0.429679427028248
0.805056305622744
1.24829410421626
1.63546199858611
1.89042154149872
2.0420980035487
2.14198177291426
2.19863358305338
2.19242123922043
2.13199659476143
2.10185490465171
2.2097998430139
2.43145687619257
2.56638059768844
2.43496932692683
2.08242896043828
1.73588790743899
1.61399563660271
1.8011159600739
2.2164014591884
2.66302208299094
2.97386736192654
3.13601606409144
3.23976444091797
3.33434052702956
3.38838077295497
3.35658839145173
3.22643008373354
3.02722313753352
2.82643505009073
2.6690764370163
2.49532632958793
2.17473823060476
1.63950441151765
0.937488328833759
0.168390424019358
-0.578051817426969
-1.25038385004949
-1.86134041579417
-2.47223507360179
-3.12817598465674
-3.81431637013974
-4.45128724083164
-4.92955355111956
-5.22397003806895
-5.48605690362575
-5.90790499126155
-6.46559549767297
-6.91007379420437
-7.02259782058708
-6.77198036416331
-6.25987756759345
-5.65904178831169
-5.16796305697566
-4.86623370550001
-4.61394295580101
-4.18611830017728
-3.48309659366448
-2.56597265728796
-1.55461911209604
-0.544341026238722
0.419775543653132
1.31166247193825
2.0616282587925
2.57394749592851
2.84806376662257
3.02514783946846
3.25666782606818
3.55932174637313
3.82398350553003
3.92786678344849
3.84474251481537
3.70227363590519
3.70185587395008
3.91481452500625
4.20292399321312
4.38845371325395
4.41356190716906
4.29242431741198
4.04833504311191
3.77078116232138
3.60320075193331
3.59694479738765
3.66650299126945
3.72214034574861
3.76819147027129
3.86345759909423
4.04904169282723
4.31277278195917
4.59102468685143
4.81430305940326
4.94763839819401
4.98042245213589
4.92973374282241
4.8556528795965
4.75374632261897
4.39859336899177
3.44236225867023
1.75250722385524
-0.43150621668922
-2.70582144474089
-4.79373904567999
-6.64947669194025
-8.35510811132666
-9.8973067333452
-11.0162147140778
-11.3675469396179
-10.9043698298571
-10.0155559154304
-9.21360686514279
-8.73695764985387
-8.46795176464888
-8.12949589828943
-7.51981286448626
-6.64846967739842
-5.70268190841769
-4.86565910251539
-4.17843359472549
-3.57109084605621
-2.95013380081477
-2.23816513027743
-1.41043544293355
-0.515304264888383
0.38267377561699
1.24828000675754
2.02926911982453
2.64402542765779
3.07221909852663
3.38825643907341
3.67786482914239
4.00502382948785
4.46464829707018
5.15355802402332
6.04589789707216
6.94818933872707
7.59738083915894
7.81961596377468
7.65431678717285
7.32198572160118
7.00299257827344
6.67173069459066
6.22187219747341
5.68504958715597
5.19368326683821
4.76329290990641
4.24028815330026
3.46209028986626
2.39053361548865
1.11558383089423
-0.199250464724422
-1.40016806598175
-2.42851069667816
-3.31781110141235
-4.10932381293384
-4.8026970397357
-5.36211321505319
-5.72594006200654
-5.84234412211955
-5.71971670959698
-5.40134965108045
-4.91306672462256
-4.31847434813757
-3.78762009276733
-3.49335619891492
-3.44358104556256
-3.48162061984165
-3.41981230161383
-3.14576798059522
-2.68433858443911
-2.19820208140966
-1.84974921452335
-1.64002888547429
-1.4444944073852
-1.17576924376543
-0.828084162520942
-0.410134307913602
0.0721038473109203
0.600470153414899
1.16747221671762
1.76430547821463
2.32319062026667
2.74786625607656
3.02690652255161
3.24926109719826
3.48859178429249
3.72482528617137
3.88925289315959
3.94645938396434
3.92459923411735
3.88162452888005
3.83390844177197
3.72386794995234
3.49591930722976
3.19783041697376
2.95435776356826
2.84497838670076
2.85235838135362
2.90694758916856
2.93100465093554
2.86493875767279
2.69579832400355
2.45236910519284
2.17998414338465
1.94994540834226
1.84980234713431
1.8967537655721
1.98393006517662
1.94337524543158
1.61815620577223
0.886383433978795
-0.276218602025857
-1.73823595940351
-3.29174162980759
-4.76603403812749
-6.0050598887259
-6.83534778933202
-7.18853746363222
-7.20469380729998
-7.11333658434043
-7.02800000653523
-6.8742962021767
-6.46678412464447
-5.66499533074366
-4.5289820796153
-3.32912416079192
-2.3697105394454
-1.8223985265429
-1.72323698420042
-2.02000036854048
-2.54766835127696
-3.03102148398678
-3.20821404516062
-2.97186624034928
-2.41377293798395
-1.77085739952727
-1.27933366736523
-1.00239443658205
-0.813633528090352
-0.570677144194736
-0.245104151964843
0.129798287536584
0.548077397966691
1.0378521542805
1.64027165197198
2.38208108379606
3.2180542670873
4.01750173782361
4.64140980099258
5.00820158780645
5.09315171298272
4.93423179072854
4.63562886854858
4.29465317053269
3.93828811419297
3.58240464355235
3.29331063947542
3.11815087148082
3.01266662296179
2.89832101486924
2.73938878906396
2.53617312509631
2.29960627562663
2.04584147047051
1.77871962049116
1.48887943707331
1.1848214957612
0.892139760833572
0.638629954390896
0.501889167562644
0.616632336562918
1.00467186011353
1.4313908368386
1.58689436235357
1.39894448215228
1.02857443356231
0.601708908671601
0.118633819889016
-0.400823779204417
-0.864905615823398
-1.22497586074154
-1.53250908965938
-1.86071421067669
-2.21236440720473
-2.50485263814848
-2.65208127211139
-2.67660575913342
-2.68954512860517
-2.7212147940802
-2.64986165523514
-2.36395060306389
-1.93043331032614
-1.54350926961401
-1.35146089075556
-1.36014700331405
-1.46290727609286
-1.54258716732627
-1.54269748774031
-1.42861789262484
-1.13590425693327
-0.647156353928653
-0.0851213168611141
0.374029097120233
0.662641895710557
0.827707883756086
0.926241876440604
0.98852045158318
1.02694454837976
1.00581484756168
0.855269588134549
0.577949333665142
0.285247761837419
0.0751787448101726
-0.0672564389926051
-0.207272209400299
-0.354667327392842
-0.454366359654576
-0.45124240022322
-0.35913689091096
-0.274904998106419
-0.296091449300388
-0.422529113804161
-0.576534533941383
-0.701605283865894
-0.796477593448964
-0.887659216174518
-1.01071191767029
-1.17350896251437
-1.32136932757665
-1.40393507457606
-1.46209795423565
-1.55744170519435
-1.65595389966928
-1.6937967873461
-1.69868828698197
-1.72278813818032
-1.72582330148499
-1.646149785762
-1.51164456423473
-1.36456088856911
-1.13891597786138
-0.708756920845535
-0.0286068349067624
0.813685399192084
1.65089195890966
2.33739058112486
2.84182863729479
3.24614742566289
3.62827409669692
3.96044904931933
4.142151138496
4.1020698329985
3.84809211562753
3.44876562595113
2.97384629340486
2.43359308492416
1.80801634628478
1.15724199561015
0.627927860893678
0.307646794231796
0.149324028866718
0.0602566617015284
-0.0315344447125436
-0.201520210916807
-0.493848475492341
-0.840923729170913
-1.11371915438108
-1.26392407072396
-1.35534710299347
-1.46744163262468
-1.60873448930767
-1.70438728548495
-1.65552109451384
-1.43722998705442
-1.12548213035107
-0.802949948121537
-0.480119159533172
-0.13528341932045
0.225102252405968
0.56885550538044
0.850554692203101
1.03056918017438
1.13392433583617
1.24602931851676
1.38502858502391
1.44459094346247
1.3410039944062
1.14050012330293
0.949691341343797
0.751291279606076
0.444874280728074
-0.002825547649798
-0.524068673177222
-1.0148914437816
-1.38027916244898
-1.56943342560267
-1.61029707007246
-1.58174549411419
-1.54768133019433
-1.53364164700622
-1.53530186378047
-1.53348890335914
-1.53435999473886
-1.57724378214137
-1.65223213500989
-1.65132520580294
-1.46725852316505
-1.1038563843964
-0.64935637220007
-0.194880904570888
0.20365200760768
0.548828408711458
0.889364944450668
1.24528269075315
1.60378250611534
2.02036216575176
2.58980704513598
3.25203787302849
3.78368066732235
4.05299097653584
4.11288071230827
3.97979868981621
3.52165437437244
2.67294952687747
1.61245849973743
0.623106654997278
-0.140968591915641
-0.702686789170425
-1.16415621741822
-1.6015553334975
-2.00732570713789
-2.32709187821287
-2.57185812256225
-2.834898627754
-3.13985981819585
-3.32981701413094
-3.19163666081493
-2.69652654879459
-2.08997244231256
-1.72063883648994
-1.75254734907473
-2.04658963236534
-2.33476057204202
-2.46517345267993
-2.46137751260575
-2.44651255838909
-2.5691338903754
-2.89444367435828
-3.29599728868756
-3.54508199667693
-3.54527099942682
-3.38772606385447
-3.18900757780088
-3.00197047352191
-2.8525301845356
-2.70104728740511
-2.37775759266661
-1.70573877197564
-0.706779493918579
0.390114131537828
1.33328274405281
2.01353533381141
2.50031513488909
2.94601265119758
3.4197827812804
3.83954825333358
4.10053427535811
4.2357805922415
4.40520076798731
4.76811942015706
5.40461731780996
6.29594030759181
7.31282617119123
8.25068000482843
8.91875767906403
9.19644201961786
9.03230249566308
8.43613113908752
7.46505502885855
6.20904767345181
4.82020025478003
3.51836105560255
2.46774018846485
1.65483008574824
0.973046841221606
0.397655420600762
-0.0048115482093345
-0.182039266843429
-0.128292693757402
0.104935245114846
0.339557358046247
0.301218576890951
-0.172545782788932
-0.987555688606938
-1.90365237643155
-2.76160198987391
-3.59417171420816
-4.54145245838321
-5.65377057862072
-6.79569814704948
-7.79710007170879
-8.66060038310794
-9.51349841708724
-10.3713815993502
-11.0642797941063
-11.4004546682681
-11.3155484129544
-10.8716218173456
-10.1958206171442
-9.41991162994979
-8.6189931218275
-7.79630453651145
-6.920304432068
-5.94412650512562
-4.82965089896438
-3.62744354469763
-2.47567927841418
-1.41615108950872
-0.272456793663841
1.17333521072758
2.92822166591842
4.79832512076233
6.59612063084639
8.25617767853834
9.76016854574475
10.9837864189375
11.6566558784851
11.5575194285927
10.7732476044587
9.68520926507653
8.69824466636722
8.07369976527487
7.94872131326175
8.27509407873378
8.68157530189528
8.58381041764361
7.55906261345769
5.61564349895307
3.14875358792369
0.69784206592386
-1.32586848576675
-2.79857962114172
-3.82595404175737
-4.56433616285315
-5.12966691274079
-5.60155543090574
-5.98234714494069
-6.13998323876707
-5.87864587497967
-5.10303874815222
-3.91032729882169
-2.55574022622868
-1.33833278182732
-0.454682091339396
0.0816949145922254
0.375440113502744
0.538693550364155
0.660558947147072
0.792326366812251
0.895462110176711
0.877399409461336
0.721617952430927
0.499464685706021
0.238684498237076
-0.107777793698618
-0.528912991269151
-0.869379904091778
-0.90409257209105
-0.500962811660012
0.227060823908958
0.926471955201505
1.25692149820181
1.15083612052845
0.745533652858586
0.132418416924956
-0.675554438964655
-1.59197218616181
-2.44272109555694
-3.08154941404347
-3.43600681769369
-3.52327195720544
-3.49170158453039
-3.53023908827426
-3.6516414699458
-3.65054545534932
-3.32886128056621
-2.69976786502976
-1.96429079824154
-1.36018817955941
-1.0228934868691
-0.912414567763862
-0.86168938803774
-0.718650200602728
-0.421519500728562
0.0415908040371691
0.649071291600773
1.30121951298276
1.84804951846375
2.20783543667756
2.43567919470865
2.67579892227307
3.04873633049486
3.55419653331558
4.09030681911236
4.59540945677187
5.11712420515704
5.67868170966151
6.14401805541726
6.31632030351638
6.14662651061613
5.77272067768293
5.35725399935772
4.92105591041167
4.34582631808872
3.56082570255298
2.70814938471361
2.02681270371342
1.5486528831416
1.02925718389309
0.241326556328406
-0.759001343106425
-1.71225827056645
-2.43733744683378
-3.01023520634825
-3.70037294712068
-4.70982881846146
-5.93967918801509
-7.05041607191415
-7.77496739820281
-8.11702860978861
-8.23785675825199
-8.25011793047468
-8.16292480660991
-7.93889140107877
-7.55434459268753
-7.05092761590139
-6.52474421662267
-6.00981056246816
-5.40997426546348
-4.61837166062947
-3.6697496954518
-2.71845259078605
-1.8949499532773
-1.20290135181575
-0.517970578329007
0.309126363577583
1.31221060524805
2.3877295759349
3.41132517035792
4.30412325227704
4.98510357036443
5.37268995854946
5.46686705333236
5.35255230465078
5.13054867932591
4.9189046775211
4.86625423063287
5.05272900246946
5.39888311508362
5.72945741176577
5.89369503648046
5.82632400077552
5.58101794353001
5.31439691871956
5.15664005012759
5.09393420750764
5.02537477314464
4.89075352776176
4.68305792945544
4.40391012225717
4.09184071935178
3.83906833801906
3.69910407243432
3.61979681526322
3.52127966502578
3.39087926740933
3.26301874640203
3.14872536131426
3.00796188259716
2.77596393597409
2.42008255420362
1.93634670392178
1.22410521605388
0.0281642391796782
-1.84061212754773
-4.23222136371899
-6.73114374648917
-8.98378751046186
-10.8445205479084
-12.2610849120436
-13.1825297512434
-13.6008084985147
-13.5942447369566
-13.2941647385743
-12.800692682725
-12.1141921458778
-11.1835110435245
-10.0483476626598
-8.86118163341513
-7.72267198910381
-6.58469652409354
-5.37051872503141
-4.09336633161176
-2.78855111251538
-1.41270799290903
0.10490155422093
1.73499697434472
3.30808189954818
4.58909200095538
5.39853790871752
5.70308855274048
5.61866083159911
5.34436479997741
5.09380012009645
5.02535928218703
5.17033220876122
5.45848097318863
5.84266233041928
6.31385941972142
6.76672244341946
6.99976414051474
6.92926781464948
6.6786612635658
6.39343281807988
6.087875803441
5.71712981085121
5.27765795539226
4.78454709202387
4.22631749848867
3.57640761949847
2.83323799791019
2.07223628708319
1.45027932259105
1.08263546302718
0.909047295742472
0.758875913091871
0.550185566250896
0.358744125655868
0.306261620983922
0.442449664897541
0.721360505619758
1.0468328002099
1.34305136976088
1.58641810417124
1.75764767666063
1.78661431966436
1.58313120196991
1.12280168063141
0.496080492046562
-0.118077771331456
-0.557789028628324
-0.817768393209955
-1.0720901753302
-1.49932579705458
-2.1148832101944
-2.84508463891596
-3.70012869293865
-4.74716115767786
-5.94015589349495
-7.09001531853609
-7.99776121384006
-8.55095578035282
-8.71460481932374
-8.49511731707464
-7.93888358161374
-7.17598194104055
-6.43784557336109
-5.93924525300722
-5.70159729365289
-5.55558366175961
-5.33292577018929
-4.98263438506644
-4.51172656695535
-3.92282970300985
-3.22658663629646
-2.43455052442275
-1.53253983088595
-0.513925939044353
0.565593219196927
1.58713001383838
2.4112051590468
2.95750072234866
3.30388031341423
3.67196507496656
4.24156119741291
4.99513118883733
5.76997886753103
6.39572432835714
6.74358092561861
6.73832520908988
6.41238306900602
5.90849090761978
5.36892592572099
4.83916576325445
4.29386376718021
3.72597835249709
3.20567338148154
2.85650156798182
2.73372419711429
2.72598570953485
2.65008999920629
2.44522481552513
2.1977312743397
1.99891033012428
1.8742433563665
1.82419317089479
1.84143529738011
1.90898469275244
2.02843263545838
2.19391896677685
2.31490565075393
2.26058736791822
2.01897181217714
1.73050973791513
1.54170151400097
1.48551827814257
1.48718977302051
1.42016015092679
1.19211802821902
0.845059475196786
0.53845563576523
0.385034595669814
0.325123107674341
0.161133733247893
-0.324626884902784
-1.23748422755657
-2.45397360103295
-3.65540499400139
-4.57203729610194
-5.19576474795173
-5.71092035108509
-6.27306510148681
-6.91283961277198
-7.56716782581469
-8.09771008902935
-8.32751519020862
-8.16911958460534
-7.73536018869037
-7.28458226794102
-7.02751205897621
-6.96814263894742
-6.93155707804289
-6.74241992327955
-6.32588216838238
-5.6243527770203
-4.54063041630185
-3.06737105147902
-1.39014501311256
0.239610587181498
1.67234714501992
2.85117381064018
3.75510423786832
4.4371542771236
5.01540291540581
5.53118349720325
5.87381989622303
5.90733894717698
5.6414758956098
5.25227474118526
4.94565942891697
4.79499121143245
4.70803552776757
4.56481438236433
4.36459660330797
4.2012632529475
4.12192671181421
4.06628381540672
3.94447308402831
3.74215560993044
3.54623487356279
3.46869395061558
3.5272529565227
3.60598118958735
3.54814352062474
3.25815114331448
2.70828937495749
1.93629376783756
1.07703163126626
0.287051638986362
-0.422612615403162
-1.17334169244951
-1.99361715966634
-2.72674723825142
-3.21430120196245
-3.46645196313288
-3.60623205246791
-3.72376125809715
-3.81562164993849
-3.82754561310395
-3.75382430620438
-3.69257622837719
-3.75255870757432
-3.90579378114203
-3.99427817960524
-3.8757464454834
-3.52003955383563
-3.01531511736149
-2.5361996366391
-2.23098049206833
-2.07064177054517
-1.86963280693269
-1.49350011330753
-0.97533832451344
-0.412309397705822
0.161171725936213
0.767030865108388
1.42211137459996
2.11593994066152
2.81404148356118
3.47360046247477
4.07587531825385
4.63598170058586
5.17683497727408
5.72055351427722
6.29247988259129
6.87347373630285
7.34847456138909
7.56625528818693
7.47178977611264
7.15960222062778
6.79069129190588
6.4356275693861
5.97286983660839
5.18118451893283
3.97068449674243
2.46336330694311
0.814459450781497
-0.93666925009474
-2.76748034771882
-4.52296295022214
-5.95154374681577
-6.86267344586608
-7.2705270668873
-7.45842538008545
-7.83241833036905
-8.56037610802872
-9.37690005927854
-9.86335859045658
-9.88777355976628
-9.67022008025091
-9.46876567052161
-9.31529787250815
-9.04853154583088
-8.52593016905275
-7.77415813923113
-6.93970594639961
-6.11312080577944
-5.24913260849999
-4.27975591237541
-3.24781435048148
-2.26815596721464
-1.37855609415304
-0.480543944864318
0.558555114828069
1.73861543634352
2.86530926509994
3.72238325088882
4.35140618578839
5.07395399097904
6.14518381245738
7.44723953333953
8.6075361087873
9.36279174796094
9.73354808456951
9.88703596643916
9.9022139284021
9.6881371993209
9.13644741441868
8.319419173504
7.4484254504953
6.63342428128063
5.80666065641303
4.919085011553
4.07764488907613
3.41109717376503
2.88426091332871
2.31093205259781
1.51992170371926
0.495719504451255
-0.62033538317562
-1.66641048664199
-2.58783477315454
-3.40616688226606
-4.09785961688878
-4.56264494866164
-4.69798564496225
-4.47650365833583
-3.9910606029117
-3.44326423947399
-3.01902387171458
-2.7449086665307
-2.52877552215129
-2.33596973089351
-2.21745397404276
-2.16344471639592
-2.06863639711297
-1.87908595418841
-1.66874974527368
-1.55131107747247
-1.59374664076294
-1.79584039768671
-2.07216087428468
-2.27350545148739
-2.27664497185741
-2.02926688946414
-1.51697968951463
-0.769258087720898
0.098680383263047
0.93144226173244
1.63441220830106
2.1963469308116
2.63773726713075
2.96010699708152
3.1166769002073
3.04559827665057
2.77428462198901
2.44396714370082
2.17002482993863
1.93330659446558
1.65802103209223
1.3166040751308
0.909370798098469
0.433915551408533
-0.0659252633438859
-0.491520011157154
-0.773612984488601
-0.917639786254948
-0.956592571284008
-0.911332186890044
-0.796651973398928
-0.625295392454807
-0.426798926540387
-0.295420595021429
-0.367971471027516
-0.699154507393491
-1.19244041331108
-1.689231178075
-2.10001329331964
-2.44152809299999
-2.77209798259724
-3.08320960845838
-3.2586750233961
-3.20180667255019
-3.00811929392087
-2.91948451275062
-3.06955551210557
-3.33868211322448
-3.48623876304646
-3.38761793959
-3.1411941011124
-2.96601504819048
-2.97980253618542
-3.07427999001552
-3.02081569798399
-2.65069373622318
-1.90520138007107
-0.824456892063935
0.407936217197421
1.49187480852878
2.19615894789292
2.49919375300877
2.53520928965602
2.47661296945824
2.46133803826549
2.5220630158417
2.56355131053844
2.48871446661636
2.35216784376651
2.32178685960544
2.48886834373384
2.76695414002215
2.97469269001345
2.9922033882287
2.84894480224858
2.66508533803467
2.49997796021662
2.29974420709788
2.02472830337829
1.75950890885205
1.63734343842468
1.71109639100156
1.93651356716657
2.21335158371891
2.41568554434732
2.46240117427694
2.3960314344089
2.3472501251962
2.4172211080894
2.62634854357129
2.94708888007261
3.33707248404545
3.75399264972449
4.16644148135454
4.55469784869447
4.92390922429586
5.32527862324315
5.8105872321608
6.34524728345112
6.83017939119291
7.21885141883914
7.52582036518641
7.69971237624465
7.56022759916247
6.87447512077034
5.46722044872076
3.31272272554687
0.585085995215874
-2.424389125412
-5.48174019076632
-8.44676636730828
-11.1361777550181
-13.2963514465538
-14.7954879705302
-15.7367192178789
-16.2954035184078
-16.5267185465994
-16.3995096015811
-15.9372848452537
-15.2493349852566
-14.4550113853159
-13.6115511994748
-12.6988476168614
-11.661413552328
-10.4624680450207
-9.10550457332956
-7.65026036651749
-6.22341837013916
-4.93260201610025
-3.72224386902053
-2.40107300301272
-0.873569544144426
0.728365877880239
2.18130334969012
3.35716340979173
4.25725192128371
4.96426026096741
5.61676951261045
6.38956360195938
7.44923457537518
8.86593365011688
10.4955313599286
11.9787136195312
12.965985910645
13.3649856748813
13.3174114418334
12.9654107853106
12.3101630853981
11.2739105596589
9.84762136424638
8.20463802225843
6.6840586236249
5.58232917248949
4.91020216154503
4.40875855849654
3.82783972020004
3.12730362437167
2.40875114191824
1.75322928760308
1.16839134144764
0.633767412747855
0.147741465086237
-0.276629701833167
-0.656728237055605
-1.04443753402206
-1.44874263692435
-1.79400509525525
-2.00952132514725
-2.12505338653249
-2.22687263768498
-2.35490422564543
-2.4838086418184
-2.57419692082415
-2.62104621798783
-2.67089239345165
-2.77316400273222
-2.89591615002349
-2.95217519954095
-2.94452481800481
-2.99897412328632
-3.20895377880851
-3.52327915216145
-3.81228349057276
-3.96345561771737
-3.91269402434553
-3.67273125416646
-3.3272200808226
-2.9254070455748
-2.416470817337
-1.77326540180844
-1.15178327963005
-0.832613228194558
-0.983153721059948
-1.50074470468089
-2.07590835205476
-2.4002371061992
-2.3467643137461
-1.98110888574595
-1.43556777607536
-0.831579587762644
-0.303003419594381
0.0326597764456678
0.179321507740108
0.258541523253795
0.371824315909466
0.530493132856003
0.710544583259187
0.893382844151341
1.05771736808517
1.190244809314
1.29064046996702
1.35091690082497
1.38279924429544
1.45918254616186
1.6397451033584
1.86232074620467
2.00210437694823
2.02024795576769
1.96440337327652
1.85915912367733
1.68633329191399
1.44006707619176
1.13423914328707
0.786252457228188
0.423351357958986
0.0653752337397902
-0.29885964194621
-0.669216718692381
-0.991472186415055
-1.22292237325861
-1.42131857862873
-1.70184050282075
-2.10508418483522
-2.53583547493569
-2.82093844715579
-2.83299302214103
-2.59997305457107
-2.2889395879478
-2.04555403988493
-1.87291849673511
-1.69574142785196
-1.48904426040034
-1.29925082388237
-1.17775407128383
-1.11146128846139
-0.980690376632627
-0.604518257940255
0.109591826364546
1.07057306948587
2.08847280128144
3.01694023744709
3.80279414642936
4.46905344722247
5.06489032657531
5.56259928780681
5.80935016495323
5.64909589233823
5.07342876267524
4.21710916740267
3.27530029167171
2.4536154150535
1.88039952817865
1.50514547478216
1.17448012942602
0.841865540228648
0.612853337828424
0.576679597054292
0.697820779490538
0.890150299593759
1.11247731239995
1.37254720598179
1.68148035949025
1.99325843142479
2.17633002295981
2.10900865100967
1.82027795379423
1.4434321099476
1.00973666971526
0.403957880461611
-0.4335688167418
-1.36583476206846
-2.17562884856824
-2.75725777598743
-3.15595506262612
-3.47628073907706
-3.8120758285907
-4.25020670642705
-4.8579401047105
-5.5949686678236
-6.27318649169715
-6.69192172462917
-6.80076177708269
-6.65676784787997
-6.28086731480243
-5.68751709417653
-5.00745172684206
-4.41230216297837
-3.91976275979459
-3.40855624900027
-2.81890365663913
-2.22405009122243
-1.71809796300316
-1.33085600895698
-1.04497003203912
-0.825274942672684
-0.625097476856948
-0.389252152798886
-0.052352926321997
0.447229179172143
1.12156938313999
1.925717909479
2.83554953398025
3.89196204406318
5.08984250424439
6.22918001666352
6.95933027160764
7.03820968026249
6.56544678091575
5.93076716953484
5.48001190787248
5.2279157499925
4.93975283165177
4.45567041692672
3.82908043653673
3.17180920469973
2.51859892425698
1.87793428250392
1.2886680937277
0.773806227563206
0.313819644626892
-0.112895248314675
-0.517108414200382
-0.917080177778417
-1.31398353188656
-1.65605297249593
-1.87064104657515
-1.94329335310673
-1.96041422998057
-2.05958327104621
-2.30431221400526
-2.60680637598999
-2.81129333932093
-2.84071158653783
-2.71426080918383
-2.46060650211365
-2.10324214361861
-1.70985346934443
-1.35337148078602
-1.01302441355777
-0.590223519875174
-0.0453392760160012
0.515793996913273
0.903017401746137
1.00292711604158
0.911231386974942
0.873247028829979
1.02891964902289
1.25278411366895
1.3090176547644
1.09697856835031
0.675079637508545
0.151953827679355
-0.333036329262772
-0.60974059201583
-0.583196305110408
-0.319563795510928
0.0169680728582956
0.279320066512721
0.389842168811394
0.341341214313932
0.16898754277567
-0.0888540062363406
-0.386327735018313
-0.643734103390159
-0.788416441064268
-0.819928012030587
-0.777933793282886
-0.667538257509155
-0.481102593577992
-0.261374653553896
-0.0690999244051361
0.0928328773494804
0.269180878323474
0.486111145011136
0.734417376999349
1.00147241588688
1.28461606375197
1.56527451582592
1.78033585305292
1.84534686702518
1.73771627902177
1.54303315123809
1.3617051760901
1.1619158217918
0.789221664570551
0.148988687316283
-0.669735654178156
-1.47415160669167
-2.13101438628292
-2.63118330413361
-3.02151021998952
-3.3144159369503
-3.50065736163504
-3.63413627907883
-3.80862641612193
-4.00450383409514
-4.05336361743726
-3.82464561674058
-3.36025850023412
-2.76863520387889
-2.10797381127405
-1.45394508463557
-0.946082300286906
-0.63755214080351
-0.373006787786461
0.078329943777937
0.790510125271205
1.61826203023869
2.33363781276338
2.80349334813155
3.04580562163572
3.13326762176627
3.09625563600118
2.96279588949441
2.83049683770592
2.80754697132203
2.9029903973428
3.04046811912473
3.15638047687917
3.22867948116102
3.23525461482342
3.14733918861799
2.97210178367613
2.7732945680375
2.62598576558299
2.52523583778831
2.34682333596741
1.96566980898795
1.43672927123533
0.976500500143366
0.725814798123596
0.616242520041076
0.5060953568428
0.34649574763698
0.162725046986004
-0.0383690166153479
-0.280340191855756
-0.577882547702616
-0.909120209284775
-1.20589740825235
-1.38637218537213
-1.42678112316303
-1.39488839875494
-1.41402966482592
-1.60008086141356
-1.97931939114139
-2.42394690515175
-2.73524177624083
-2.85372010218647
-2.92869627706827
-3.1366813000434
-3.50148314260653
-3.91434908793503
-4.23344981746134
-4.33650658334689
-4.17698705327561
-3.83635637329041
-3.46845298742252
-3.17682791199537
-2.97424091194921
-2.82982782094627
-2.70162830332055
-2.5409574562509
-2.30688139734911
-1.97935320124765
-1.56933311386084
-1.13159616886825
-0.71986346481104
-0.292038493551247
0.268889137815919
0.986565525376093
1.72505210013495
2.34862471060444
2.87059229855722
3.39924635879371
4.00842115346192
4.68210412692201
5.31892310397667
5.7970845686499
6.09643974152863
6.31996107711227
6.53499840752888
6.65884956194874
6.57351648952985
6.28648850217875
5.89910279943194
5.45347077275403
4.86540438996037
4.00835329537639
2.87483929693402
1.66906600735577
0.692136796045322
0.081264465947261
-0.32728769836619
-0.847343136039597
-1.64766387725641
-2.59527698000382
-3.38504811068046
-3.83464843199497
-4.0371681393821
-4.20278263144863
-4.41171777647553
-4.60404249662227
-4.73461472100931
-4.7701916052005
-4.56330872861936
-3.94759056052469
-3.02655858739461
-2.20250236873688
-1.79967192137039
-1.71353246600189
-1.514295810547
-0.918954582394021
-0.142628617585995
0.275062441498637
0.0227151938163227
-0.673526066420092
-1.33719202916388
-1.7309187952152
-1.96886701665741
-2.2422123570046
-2.56523524911084
-2.77469589174308
-2.72273202103593
-2.48240318319529
-2.33389547756353
-2.46373150650295
-2.70044645662037
-2.64957850145291
-2.08198569828045
-1.11646072460691
-0.0614290957924999
0.831175536890126
1.48066218142556
1.9447575696218
2.31889625114192
2.67102779304667
3.05230612934466
3.498341745973
3.96567452031631
4.31330654272039
4.41277153111826
4.26142234888146
3.95936062619014
3.61135204746529
3.28459509513053
3.04216482091092
2.98966655220173
3.24630826790501
3.79667611798466
4.37669502788639
4.62558575213457
4.40297721245144
3.87648173828878
3.28442817255164
2.72138232929032
2.16533778353401
1.57585752990955
0.908580312001826
0.123894836753349
-0.760390093688839
-1.65014336129652
-2.41616170672863
-2.95464859947289
-3.24919365199338
-3.38744003082213
-3.47509642067861
-3.52953180535089
-3.49696604423081
-3.36065788698104
-3.18131472900202
-3.02608741320143
-2.87935912457959
-2.6317125134093
-2.17792770181191
-1.54591828783126
-0.90810960325706
-0.453201692600575
-0.276273975019605
-0.377625583440093
-0.676312189969497
-0.99370771505453
-1.1239839259344
-1.01686297460349
-0.874141754767061
-1.00593652788079
-1.56229530033952
-2.38559619182468
-3.11867636983553
-3.49027051395469
-3.51667781954463
-3.40695818618716
-3.29448123402707
-3.13041547618926
-2.8276767392159
-2.41500008846808
-2.02689847138868
-1.79624548419636
-1.75057275988022
-1.76408152268503
-1.63132022605961
-1.23394339208975
-0.626127110656667
0.041664518098105
0.641065135656775
1.1308979677805
1.57612186413893
2.08993314762963
2.70263813835164
3.31296419116752
3.79513409424101
4.09496253853217
4.21339298060998
4.20147408679421
4.19586686652346
4.33650788707992
4.59552433781257
4.78212627004811
4.76321886701539
4.60335941807766
4.45675526105901
4.39563414896551
4.37920449013846
4.33644875674158
4.24418461530228
4.1448595404361
4.10842691619719
4.18387654817306
4.38022881749736
4.65554532211662
4.9051133693555
5.00782710650872
4.92454855193511
4.72650589678262
4.50517440609407
4.2694158998359
3.93094515843589
3.38401485219479
2.61842772026587
1.73261154187065
0.76109661866758
-0.490163804288372
-2.29071577477369
-4.6056600024871
-6.9774947770206
-8.8726783813585
-10.1017864279732
-10.8746290691766
-11.5166405999011
-12.1696138521185
-12.7119779703545
-12.9150603426294
-12.6717918012309
-12.0892047055615
-11.3859570412804
-10.7181621205096
-10.0787821039809
-9.3266685977174
-8.31083616816352
-6.98829623688882
-5.44808388412307
-3.8589879163523
-2.39816391796981
-1.15508454336294
-0.0446686962530781
1.11957089099052
2.38590220617551
3.55817890698488
4.40706240315071
4.90956193249445
5.19369544891515
5.33987233587321
5.34628342177358
5.22464163677525
5.0345457182334
4.85350630112938
4.75735859286292
4.8010358317191
4.99841530747759
5.32599915355484
5.72236830015617
6.0822115066213
6.30719729155804
6.37769485277007
6.32128196862514
6.10877953818763
5.64868922498948
4.90416828112828
3.97575124268072
3.05391228037714
2.29715099198654
1.74453703120665
1.33920651403952
1.03048314970898
0.816075002083632
0.673161469471945
0.516035149490565
0.276319660393566
-0.014533858229294
-0.263606099655766
-0.399865522493049
-0.400269121389441
-0.299046566329119
-0.199415899167892
-0.192257494378144
-0.217232032115772
-0.0935366089278404
0.244322098764119
0.611139208202676
0.74557150135437
0.593257257952743
0.368873778142899
0.332446604285844
0.516911224514624
0.703295437594017
0.680136177943646
0.47026305157003
0.235705367501756
0.0106225997323236
-0.365837759034003
-1.04976666065834
-1.99452585455375
-2.96587186027811
-3.72846222801029
-4.2088313591763
-4.47027193649299
-4.55326622158055
-4.41768657166756
-4.05781014545245
-3.57539110952174
-3.09017734830946
-2.65973844235629
-2.32121222129691
-2.11152833713787
-1.98708186087233
-1.80008425321647
-1.4329911308284
-0.953011128870597
-0.60894099033809
-0.648521937207916
-1.08964586930587
-1.65891235343613
-2.00884130710392
-2.01911619275249
-1.8470146607599
-1.69700931281124
-1.62045618749341
-1.54610632096592
-1.42517020299217
-1.31018584718615
-1.31296247047384
-1.48523160312829
-1.7413823657456
-1.92190086075669
-1.91437381408121
-1.68308486647379
-1.24005185080563
-0.655370883986636
-0.0400862597014702
0.553591811874459
1.16613838834838
1.81723448878533
2.42599661484451
2.88987360165184
3.18272327573783
3.35118961238201
3.4742730998441
3.63292381320343
3.86498053430983
4.15321423217738
4.4826058976634
4.86489458172299
5.26931012108799
5.56873097013417
5.58772995147808
5.20231278945994
4.43037671328694
3.46951594134838
2.6079577196219
2.03035450039084
1.70273135269934
1.45260758182936
1.13687038108726
0.744708658843042
0.383268899226046
0.144020579394784
-0.051895784176194
-0.410644272467062
-1.01232226791326
-1.69065051908624
-2.23529070880493
-2.60756348815822
-2.87764833582184
-3.06735135830844
-3.15836350327158
-3.17427310294569
-3.16708740245731
-3.1669293233937
-3.18828568085739
-3.24034656617634
-3.2869178776509
-3.20973162164608
-2.85912660708964
-2.20056761421506
-1.42263078931561
-0.823943985346002
-0.537666829967358
-0.420055120188798
-0.2475808070929
0.0478560904610306
0.374938707278604
0.627440453998696
0.781298749798405
0.904016728059562
1.09735117815367
1.39336124439585
1.70745410410058
1.92505378239172
2.0077279819644
1.97805378152137
1.84427925756848
1.59734521614261
1.2607254736378
0.900166311860706
0.586619988218042
0.349083969286542
0.14380268646389
-0.10961059228849
-0.428082594008336
-0.728610404968807
-0.924837291457476
-1.02735100806871
-1.12080973435649
-1.27217544453429
-1.47397379294536
-1.65085758850695
-1.72293905973459
-1.67435778798423
-1.53799338576791
-1.32910340326488
-1.06648678072994
-0.848178782498945
-0.795377831771109
-0.89695144556231
-0.998515635638125
-0.959831948431058
-0.753542744238145
-0.433691579999605
-0.0965064183602616
0.15334852609783
0.285957831341124
0.38328612857601
0.54294180887308
0.775387287504059
1.02687577531406
1.25580863065447
1.45686709331662
1.65684718234548
1.91607416975503
2.29628193388425
2.78925653598379
3.27326199320455
3.54594016130608
3.42799925178383
2.89235743607118
2.12014906919148
1.39841458047196
0.921915289624755
0.672618805460125
0.470769251038194
0.137788359831376
-0.366617106157862
-0.945746341261002
-1.47970519238652
-1.89528776838805
-2.13836324980844
-2.18960416088906
-2.15875306713352
-2.24872372921492
-2.52941865294418
-2.8219361638271
-2.88940126799934
-2.67600900226754
-2.29103298612839
-1.8384652062274
-1.35468327319271
-0.864498217654613
-0.404282285446994
0.0086826610611294
0.373106641111703
0.660170022767118
0.812600447576556
0.816209346571454
0.751670252747537
0.727932635256271
0.762333101715727
0.778987656009583
0.734888877697814
0.677820128227563
0.651007424240394
0.620382235091178
0.554288442731322
0.509881714530502
0.566775922219661
0.705269484035517
0.801886710450761
0.739924164968504
0.519893532179607
0.268477639602983
0.109482645822451
0.0257812598069885
-0.0827763818552747
-0.216199039894762
-0.277059094926048
-0.275217805159313
-0.380014898004303
-0.701442671539563
-1.12422825668724
-1.41933885477297
-1.45428114280526
-1.26484572510501
-0.976160026539131
-0.678089170056439
-0.353653227866598
0.0754844355376295
0.628257491698256
1.1969754923357
1.59612009263936
1.68193274822927
1.46772747980817
1.14485631454926
0.950634232155046
0.980422332750403
1.13192976943302
1.22280673910928
1.14509265384711
0.930004691174868
0.694894484833634
0.519441546832976
0.367955173180653
0.155684727979314
-0.112472518333087
-0.303246966512457
-0.24931237517121
0.135256755042171
0.773502017727238
1.39473820825629
1.66220623516029
1.45991212561125
1.03406843170135
0.754172479865348
0.751623709822128
0.856357467509656
0.836558497548419
0.617695885700919
0.291506567904757
-0.0269342643969349
-0.3383202520985
-0.746807550153436
-1.2969843260486
-1.86784750494235
-2.27541004231938
-2.44935747440403
-2.4770306277295
-2.51267613936037
-2.66252201952708
-2.90900251285628
-3.12199569300549
-3.16577423444707
-2.99654375036036
-2.66255595831286
-2.25851367849033
-1.88713175908734
-1.59716358235391
-1.32381882790701
-0.926056090729052
-0.311334864185471
0.47040198535254
1.23950324872887
1.79880461976422
2.074402918815
2.15353276449043
2.16143106244487
