2.04789886801395
2.11634949216754
1.99613552746868
1.89368025470394
1.97267149273846
2.1752382839337
2.31092447965641
2.28691249924374
2.19107098553993
2.18045538151993
2.33959877794481
2.61506837244976
2.85101946443762
2.92624492310533
2.87732668745389
2.84281498573202
2.88558825079701
2.93176164861103
2.88351925343829
2.73299123225541
2.57236200466066
2.53719996078173
2.71339129351187
3.05099494761209
3.38053382548059
3.52806335897498
3.40059268576709
2.983217616277
2.29380019990624
1.32406248564834
0.0097058363323268
-1.68747293565444
-3.63663006212964
-5.5375404798686
-7.11433346389871
-8.28674124751872
-9.14320758964573
-9.79907189501806
-10.3023547982519
-10.6267411033382
-10.7078482669246
-10.4848266333285
-9.93471371313133
-9.10670337376223
-8.13085705886733
-7.13762066085985
-6.13443178782651
-5.01843807118493
-3.75218746918305
-2.46163155153617
-1.30441156400986
-0.292087463571888
0.7064604952747
1.81955114424269
3.05590740992982
4.29278965759414
5.3622494713892
6.1802880910465
6.79251996897143
7.26566417117137
7.54762863564016
7.46724582353293
6.8777625096281
5.82099933083122
4.59191288681068
3.61842678309862
3.18577204895196
3.22568076632394
3.39379205777659
3.37694203149961
3.13280920537305
2.85268107282438
2.72775385229688
2.77384181272092
2.86775878042377
2.89549944754978
2.80729063271592
2.55082767111526
2.05218532024968
1.31717273392371
0.487649555710712
-0.270383039465429
-0.900158192582777
-1.43520658575373
-1.89903345518463
-2.27374903825447
-2.53960488467966
-2.71849347915054
-2.87476261296544
-3.02163076540049
-2.99688568456039
-2.53407150190572
-1.56759771741519
-0.4178796657234
0.429855984903416
0.723245278676776
0.582158353013371
0.297378109119448
0.0603247174860648
-0.127053632572862
-0.339877845191952
-0.578523886336949
-0.757316479033588
-0.828485160861494
-0.863742332115825
-0.996992133052418
-1.31015153709789
-1.7580871875449
-2.16861669786322
-2.34464614744387
-2.21636315642947
-1.88029127268615
-1.4698206512433
-1.03128336017329
-0.556162359899289
-0.0796123355972845
0.309022909102954
0.533363937690583
0.573724018825737
0.456099480053252
0.221837201925025
-0.0763137870945095
-0.337171021396436
-0.409402873575399
-0.212105164201761
0.129854528985893
0.359717033200865
0.345430363705297
0.206441367419282
0.148639483253997
0.225867465431742
0.312802900751928
0.28667637893025
0.180493392300035
0.133407672361017
0.216357714389537
0.360827855450604
0.46642131334053
0.507168350967551
0.494625720362525
0.418046479737872
0.294007934738526
0.210929589279071
0.237917969677829
0.322986971963443
0.347524953404824
0.257761233109899
0.0990304564056419
-0.0499392621972333
-0.137982990401124
-0.166082477692206
-0.192410440570273
-0.29799443890966
-0.509652509538356
-0.750344171273998
-0.883547461781218
-0.822241680834131
-0.595425943847178
-0.294347173022319
0.038964462091089
0.419111130924172
0.797929172668546
1.01793007811318
0.954269924096998
0.661813318765799
0.329414686463759
0.120928791745121
0.0837915859251875
0.15853453949557
0.236473921408398
0.23183521931167
0.12821147339079
-0.0235653649812798
-0.127544526376141
-0.0811613087142939
0.147150984462763
0.46548544388056
0.719600025147103
0.806392027178583
0.717034839047959
0.52234182874104
0.353470255500441
0.328999111697526
0.438487880709376
0.541616680696538
0.519990162770331
0.381934993701185
0.199285554841605
0.0069534159853515
-0.201577867690198
-0.423704737539789
-0.620061051790446
-0.721318266459733
-0.67036967633775
-0.481626095242305
-0.239462899802362
-0.0121982725873973
0.201055785240286
0.406272645100864
0.544782460802667
0.55636562529651
0.500419383692668
0.537277558749544
0.741969058545869
0.970692120821027
0.98181922052498
0.70133874400751
0.310448859821388
0.0450084595005052
-0.0375485736043453
-0.0642298103169111
-0.187491627598896
-0.474377676380408
-0.89862735483704
-1.35998644176029
-1.71295539117358
-1.8386112646648
-1.73230488635273
-1.52545872245994
-1.39456445792199
-1.41212808128987
-1.48092385131412
-1.4277228794988
-1.14329240765895
-0.62264651213667
0.058564572015042
0.738832538738213
1.19846126231526
1.28906583942402
1.03865736111131
0.595813209244987
0.0966495288702358
-0.393059356160352
-0.857775085574468
-1.29966071953933
-1.70077043413904
-1.99378854318904
-2.08494576515886
-1.89930960034896
-1.39426642153363
-0.599474379457456
0.285701445754624
0.921893992218974
1.11560580650069
1.08014649033394
1.28313124635008
1.97855212933701
2.93608128931519
3.64839581813205
3.76357619337703
3.30688691935308
2.55380048885235
1.78503762138889
1.17149187947643
0.771394064666372
0.523208348161632
0.281231006795842
-0.0389919698215578
-0.354103812378469
-0.509031167749297
-0.460782197118351
-0.325849351608233
-0.274252676144535
-0.407707256808416
-0.708919836570692
-1.07513941245614
-1.39690360567383
-1.59475438249819
-1.59756982970229
-1.36383702728029
-0.963429734177032
-0.569340079623243
-0.30737305401093
-0.153548749674352
-0.015978164191637
0.14019408060002
0.294211016344946
0.429692469073129
0.523031608511013
0.510311385357746
0.338200363826312
0.0493377293812278
-0.225787809807132
-0.385647518293383
-0.463444379920219
-0.60108307321002
-0.905935865986143
-1.3291361261474
-1.66480331351025
-1.6505342384923
-1.12559171920099
-0.194810140743711
0.752584138876857
1.28365037931886
1.24217149186654
0.818758593741141
0.325859443873582
-0.0414144938969252
-0.249518954015739
-0.335142048412663
-0.3230723225112
-0.216978653139496
-0.0431398847382681
0.129710622083776
0.24808667885766
0.335588591127758
0.449451734317983
0.584339179572884
0.678653636801279
0.727460273512415
0.833782566490845
1.10259543357376
1.48782085248265
1.77475914424889
1.74725400329811
1.38822993914312
0.90067573541107
0.517579765790964
0.312108345749619
0.203153030147528
0.0923436593723458
-0.0576987359356807
-0.250487958512209
-0.498662565310149
-0.823332816982588
-1.21216859854676
-1.57669647226662
-1.78713206375387
-1.79161680836573
-1.6747373468291
-1.5562722484764
-1.46349769527372
-1.34252317484737
-1.15647072180711
-0.929706064464544
-0.720065424050089
-0.567971225611186
-0.456691047214863
-0.339999973471569
-0.23291864565284
-0.221377837977159
-0.332797585850179
-0.459006085014482
-0.468245007581564
-0.338227007647412
-0.129707475347092
0.107418025344416
0.346100554699371
0.546350618464491
0.658372827407774
0.656555600487082
0.571674094063915
0.50462811584907
0.580569793396432
0.842663351361067
1.18984730921975
1.44340056188344
1.48054143367916
1.31265099713055
1.0564325701893
0.827048843787032
0.647233373925295
0.477860011400028
0.332358231307317
0.299537294093626
0.43428246938424
0.688156782447329
0.967041755664648
1.19177139258847
1.28568852068695
1.18191289552432
0.898588515556546
0.577174130511489
0.391597354096864
0.388868867182418
0.421904366579488
0.273821617624329
-0.124191081189894
-0.609130699915985
-0.928620107791
-0.952912126573713
-0.760929493961158
-0.561664664449615
-0.528190017975073
-0.665776855867228
-0.835732878270864
-0.912905982841889
-0.885025923689677
-0.796903474106732
-0.674288197181465
-0.540788139093943
-0.446121431972855
-0.428783446325125
-0.485661695819309
-0.601463001393861
-0.767708439638585
-0.960995528456038
-1.15665020876417
-1.37808948594927
-1.66641687197792
-1.9663679011511
-2.09069243998649
-1.84296774979299
-1.18583517608496
-0.311003027255213
0.448766834725721
0.83437528192032
0.849319912990752
0.739257147366442
0.772820644528243
1.03510573838238
1.39279563310557
1.6141385623589
1.53998954636614
1.18478381606285
0.688372954173356
0.182632478861773
-0.274379944951443
-0.656002673707545
-0.916046887197543
-1.00388157254131
-0.919600810676591
-0.738022151869959
-0.550348832032496
-0.369105657830932
-0.124414512624123
0.230605169044412
0.658252480193991
1.09035825516194
1.47466857812498
1.74897522105311
1.84970892697529
1.78510107639452
1.64489583090449
1.51331228939222
1.41153372890051
1.32069607066182
1.21538723639681
1.09224121328715
1.00307473670824
1.01113710716076
1.07089418936207
1.027678482901
0.802492546841423
0.506088635920757
0.305718109205319
0.240416601460348
0.216205603101145
0.124603760016149
-0.0761748516829617
-0.35527712277336
-0.651451303091601
-0.931544557124745
-1.20659404124975
-1.49045056072271
-1.76753844868558
-2.00252697282797
-2.15879238174373
-2.2262713941341
-2.25674384251724
-2.32634889506975
-2.42597266576774
-2.45252961590526
-2.36019257346376
-2.24953829925627
-2.2360729023383
-2.27794435709073
-2.20356258191893
-1.89924666254643
-1.43211220089488
-0.986181806826938
-0.691608686461002
-0.522607495182049
-0.357433201197412
-0.113006816265579
0.202968984517188
0.54754356115769
0.895529599299579
1.2284565287151
1.51051430078492
1.70524501287702
1.82471557037885
1.95202019979911
2.16286410400551
2.39170743311665
2.45089577989261
2.26067218910927
1.98389685754914
1.82428931459613
1.75584859400407
1.57660116063368
1.19306951346228
0.739937185107401
0.436464611565205
0.411751471049881
0.65580795751527
1.05410646933391
1.43896322824977
1.64525752014169
1.5716932720233
1.24285364993493
0.836719607379968
0.613677611194916
0.752863641143471
1.21937837796732
1.7801791453836
2.15794758237004
2.20722999066664
1.98260262037995
1.6511359930602
1.3456822378909
1.10093802564828
0.884267667837069
0.633089863008496
0.279042038294623
-0.211223672566597
-0.81956902667205
-1.51298988711583
-2.24559687585533
-2.897871562794
-3.30962385162101
-3.46170824972845
-3.55488582602516
-3.79637123198824
-4.13216510925401
-4.28321535530524
-4.05797513012773
-3.5782673363422
-3.16500954484882
-3.00619765539712
-2.98042639770404
-2.84719329315461
-2.55690772383993
-2.27254943476644
-2.11347896495846
-2.01326146749235
-1.84933861610859
-1.58939905089152
-1.25718233816304
-0.83605177450538
-0.273595271711336
0.429434406350443
1.16176815247604
1.75960163711237
2.14558950227998
2.38565624596724
2.5655235323895
2.64108178824649
2.48476885765678
2.08706062085432
1.65018002958966
1.43808548313435
1.53502465840897
1.76646470206097
1.86842708171907
1.73929250145
1.52130063177717
1.44055265570926
1.59237896521014
1.88382097386093
2.139817237526
2.24340622306422
2.20833155068496
2.13038068433156
2.0465924082121
1.87335948322607
1.53826056884743
1.12868170079312
0.822578535016894
0.696309523354042
0.679448836291117
0.674684220945956
0.64428463144224
0.585617622556417
0.477980993089542
0.267730660338825
-0.0892338191656376
-0.547273797144214
-0.953681534648288
-1.16761274059961
-1.20159765206768
-1.20913766981639
-1.33313694246957
-1.59382508293604
-1.92079066345566
-2.25253689723961
-2.55128284896605
-2.70855112451663
-2.52666642482171
-1.91436253811869
-1.08167334094563
-0.404912574965977
-0.067218170638795
0.064086274569911
0.193084909965203
0.360357759663176
0.488644543796396
0.531417473961366
0.501860772929455
0.435331219498088
0.380226051752245
0.372072028117982
0.381938253266795
0.328471435626937
0.162413873078532
-0.0742393523453531
-0.272618999811635
-0.340571262274353
-0.27692566371552
-0.159194620188627
-0.0564132688871718
0.0112148694940546
0.0236915842917149
-0.0582301541711383
-0.228444309305237
-0.40225003351327
-0.480807662684096
-0.42852507025443
-0.298757582135301
-0.211874538115452
-0.267098092135221
-0.430616326034773
-0.555624162430461
-0.550168011904342
-0.46313193258026
-0.37069530033496
-0.265046209529954
-0.116140563405338
0.0312886191109903
0.100312124588603
0.0831578475423454
0.036703059774636
-0.0043903185687163
-0.057116412941775
-0.133456139403319
-0.196286314222415
-0.192104490011136
-0.114810349107132
-0.0286720738573717
-0.0361335860445499
-0.207844836696309
-0.495523652179888
-0.705654008550781
-0.631685637266286
-0.261916507920166
0.193315676058694
0.517862181114018
0.673244153586232
0.744752281666775
0.808287955701953
0.916205823204887
1.12922355928105
1.47457386872011
1.89779429726645
2.28195027470981
2.47780329224044
2.33080731539854
1.77242740184934
0.923347456949877
0.05677023183544
-0.578348795671199
-0.905363814848394
-1.01871396669881
-1.05962949824767
-1.09145720555103
-1.09870201241555
-1.09538730441666
-1.17689466818338
-1.42389534247818
-1.77994058503834
-2.06027158503301
-2.08884098005086
-1.83461372117635
-1.42464687594109
-1.01932191324449
-0.681688284558083
-0.389822638965804
-0.145024612792809
0.0115550732258902
0.0907051983305163
0.168071117214984
0.275307865113663
0.363224068648087
0.404808663510169
0.454663353716522
0.578516297579507
0.79442073264874
1.09533806604117
1.45729387536754
1.81542698938367
2.09737758500767
2.29947061928589
2.50147515062375
2.81320220396101
3.32906364071439
4.11281916440731
5.18055120548037
6.45849909095489
7.71740169674056
8.5469874600919
8.4831558745974
7.27795505454936
5.09223160677591
2.41057154083599
-0.247633129151254
-2.56370378541359
-4.44345022001157
-5.89464563521951
-6.94041995057045
-7.651703968104
-8.17974679565646
-8.65805813779812
-9.07417568023282
-9.30767045997139
-9.29167524269108
-9.06777491637851
-8.68752017272079
-8.14225031042809
-7.40536685383389
-6.48392346830035
-5.42493666729854
-4.31746625309534
-3.26462858491903
-2.29247049839662
-1.30694315079952
-0.194616616878314
1.04919213310371
2.31464651628476
3.45577586472476
4.34881797236055
4.92635500017021
5.20802965906735
5.29419742499944
5.30320098745114
5.29294664321087
5.2304748276072
5.04413276542889
4.70873182105974
4.26275275812397
3.7565112958563
3.23838494879041
2.7880714086102
2.48484183263452
2.32087657277156
2.20376791175108
2.05251077816992
1.84658206556066
1.60642631324514
1.38635966340155
1.25512107284608
1.21913961003353
1.19398372480835
1.10741728124681
1.00324685401873
1.00028609680821
1.1738531063148
1.49726616918626
1.85806498967648
2.1168470418229
2.19911706964568
2.14244174263524
2.00971055450684
1.75721876148574
1.24306000097789
0.387093484355455
-0.69347365265019
-1.71593640755459
-2.41367159882321
-2.71126953500011
-2.72932930533465
-2.64007650398419
-2.56979651964659
-2.62866918966174
-2.91877578032982
-3.43185322905849
-3.99530873660556
-4.40473719331433
-4.60431753675859
-4.68999253834966
-4.74497952309136
-4.73284440887234
-4.58550845680842
-4.34294804319492
-4.10847228956283
-3.86441595206551
-3.45719411342187
-2.82940837891064
-2.16341453787194
-1.7046155516175
-1.50507815782997
-1.4058224717341
-1.21066513805126
-0.817612830040618
-0.224251173178885
0.537957046583685
1.46544290409957
2.56652789091311
3.77676179753841
4.93549596248693
5.87663811594252
6.50444420412021
6.78647063573503
6.77334924538775
6.64336664096715
6.579567256874
6.50863228812771
6.0687032782681
4.96294632604155
3.3154726147492
1.59237410753896
0.180654507393073
-0.887172011761666
-1.79110901285188
-2.60795213318636
-3.23378478699227
-3.58077236605633
-3.7009845852878
-3.65995948183823
-3.40834698949914
-2.87151254983061
-2.08582484332206
-1.16742746211181
-0.224579647247898
0.622869361114141
1.21661738062419
1.45337761853939
1.39306345745012
1.23319702750718
1.1724723187165
1.27181511778855
1.40611382986895
1.37030189351549
1.07345029748522
0.610372363605483
0.119176085029465
-0.383737578108903
-0.978216602269992
-1.67815124818204
-2.33523618904097
-2.70126189800073
-2.59805110173448
-2.0745115435083
-1.40631804112774
-0.893005842989463
-0.617089345176661
-0.412591941788015
-0.107564290753541
0.189145120468006
0.0958951131137558
-0.676869716655921
-1.9857650503305
-3.33735161358689
-4.27340415287302
-4.60536013316027
-4.36208387413002
-3.68996547063591
-2.81535056009725
-1.95605788454741
-1.19842465953032
-0.491531658145872
0.252388531541305
1.0807140923538
1.96247434321355
2.7715736416651
3.35979730992705
3.70010322081724
3.92533467062632
4.19963771305312
4.57972285148683
5.00076239112585
5.35631734286265
5.58219688894816
5.67575884457941
5.63146584602829
5.37768704493869
4.82585692611531
3.98279177755738
2.95897304535133
1.84660640715779
0.634350838555303
-0.719050658916627
-2.13841151751806
-3.40774804230348
-4.3438780530215
-4.98866681963379
-5.55411333195692
-6.14772877742653
-6.63427698360266
-6.82402334126129
-6.7116293346775
-6.43539887877819
-6.05442280637818
-5.47752705493232
-4.61738769211391
-3.54076240713908
-2.43693941445167
-1.46303387537007
-0.637663121623275
0.120600326057141
0.872604116590794
1.59663842653327
2.22898308698545
2.72649294518568
3.09381565563199
3.379302682346
3.62194737380096
3.76762975315369
3.6828357281135
3.31599079758965
2.81726801861236
2.43038885898478
2.27124867061355
2.25957503469848
2.25582049579032
2.20866352217593
2.15433755643482
2.11355764544367
2.0372611230081
1.87500497109298
1.67742030439818
1.58066987061577
1.66348518592949
1.84034501136598
1.90846983049116
1.6905715311741
1.1536724604607
0.42887798391202
-0.283425681596891
-0.84104095374633
-1.19634065639797
-1.35354556568077
-1.36831927264463
-1.3797338104655
-1.542547351456
-1.88335565691775
-2.26763513355305
-2.52506946370345
-2.57921562324045
-2.47555433865905
-2.332391873492
-2.24716978154905
-2.20946777442937
-2.12374703236906
-1.92930081761146
-1.64781200254813
-1.3075927183751
-0.907873748331192
-0.497785894216732
-0.213762745848937
-0.168745155902144
-0.327933209260708
-0.540055508406091
-0.686583836401346
-0.771647282625617
-0.864547464130292
-0.984201621681708
-1.06589369449412
-1.03314804682872
-0.876482414863556
-0.665719569000367
-0.50905138360977
-0.477615377892594
-0.519943946339012
-0.467969386337563
-0.185485942372669
0.302078223242201
0.863707880898012
1.4013207892122
1.87725428966307
2.25447013309015
2.48122749117623
2.52662535909064
2.41180407124779
2.22541216010221
2.09131116657036
2.06775809902963
2.08569971848955
2.02790733804583
1.84311412481328
1.54533765408117
1.15701028267767
0.717723016158596
0.307953067310813
-0.0029906389935142
-0.224074733003885
-0.426038636722368
-0.654094773726402
-0.854568334108719
-0.904472445014185
-0.760943071658128
-0.574729190742777
-0.577133786757198
-0.831028137248542
-1.1591825835093
-1.33748131782795
-1.29334214029698
-1.10291258198092
-0.879205736333958
-0.704578265363938
-0.607742823106368
-0.548583548634049
-0.440023718811333
-0.211888590029505
0.13613878305163
0.53011501437085
0.875796877738781
1.15276291574685
1.4616473487334
1.9387804241426
2.59971701182062
3.28305703351046
3.76903383984529
3.95488696694167
3.89700987331673
3.66421149500349
3.18041011025304
2.29013465987953
1.00227447195046
-0.410479395426186
-1.61241460234926
-2.4610391191232
-3.04015496822421
-3.51551624239166
-4.00574249524615
-4.53155474630954
-5.03254955398943
-5.4484665073012
-5.78645796149967
-6.07799371002701
-6.28838358653025
-6.32385373090929
-6.13339741871522
-5.77284017972076
-5.36325432982601
-4.99106959240818
-4.63219850371583
-4.16282509778484
-3.45818246337513
-2.49838246222939
-1.39475767179825
-0.327670239268998
0.564050148390279
1.28602838706995
1.99658523547993
2.88105106649965
3.9991029234079
5.24807549698527
6.45486826171502
7.51701963920626
8.50070293919301
9.57689449480832
10.7762061460185
11.8135966631782
12.2599545638399
11.9214860903273
10.997082317776
9.87154298268241
8.81936443329178
7.88435536498708
6.95443381426791
5.93626905555812
4.89006190516743
3.96634743116764
3.17070505503699
2.23147804931117
0.775550561676326
-1.32863927186211
-3.79965418399339
-6.12721988805867
-7.95063393314852
-9.26562719728473
-10.2801009198586
-11.1350261181179
-11.8058132327059
-12.1995007069258
-12.2489859169468
-11.9394383426556
-11.3381595657639
-10.603500604031
-9.90208075470122
-9.30632442160585
-8.77863840749361
-8.20892584434555
-7.45811318013596
-6.44351184633781
-5.21495032942778
-3.89416511158606
-2.54432008021325
-1.1691134675764
0.183083552204045
1.40977678861678
2.44861137558384
3.31521077982808
4.0577469963502
4.72013072519992
5.32586692336719
5.8555740643243
6.25211809703715
6.46533750249833
6.48177886787631
6.31205066696559
5.96585970588898
5.46495860524019
4.93012218336335
4.65545851527572
4.96568938188722
5.86934857718148
6.90134903155121
7.43895363570163
7.19571715207565
6.37496529478839
5.39798364417851
4.56119044168428
3.92037032718711
3.3940583624577
2.9115441838779
2.46773946869545
2.0831353740647
1.76534433470814
1.51819198382171
1.3423118241883
1.20638713215789
1.05460624590225
0.85542964242942
0.607068410304863
0.286653494575363
-0.178131834276365
-0.879525979511216
-1.86163959552174
-3.04261507480407
-4.20793666524819
-5.14059209698112
-5.77579668144333
-6.20421557151311
-6.55529735447274
-6.92016658674241
-7.32943821254243
-7.72580741902877
-7.99044872756715
-8.04952751992431
-7.90325745035341
-7.51525095337126
-6.78149930741136
-5.7041124547766
-4.51408847171071
-3.49802026257546
-2.7222568700956
-2.0187429589861
-1.2414159589332
-0.453859099534462
0.172265755620595
0.58414416391115
0.892987829794202
1.19569132584782
1.43947471698941
1.52006972739804
1.46081280429559
1.42167596258904
1.55334906163404
1.89792437511369
2.40227062690366
2.96053349545673
3.45414699237774
3.8048275771102
3.99456779294567
4.02003060723325
3.85031629120106
3.45446631306473
2.86223515079623
2.18332041758833
1.55989595822175
1.08864635156273
0.784860926895802
0.629060576553101
0.635446150981466
0.848621343655881
1.28024785007271
1.87357413003057
2.52132361531307
3.10528222262045
3.54686206851299
3.84127830265085
4.02781149365567
4.13985983299241
4.22318057042593
4.37609866530559
4.7028734577114
5.2249629770747
5.87018284163587
6.52256993163598
7.05358417826222
7.35722833429122
7.41153270498694
7.26816004622634
6.91516729123322
6.15709733219704
4.69094858586464
2.35803390115451
-0.629490338295517
-3.69392399150262
-6.18504957812369
-7.78740077676302
-8.73397667621089
-9.63378144001125
-10.9994768976493
-12.8086096373681
-14.4905361565198
-15.4258251714257
-15.49683939503
-15.0981644076439
-14.6372746879129
-14.1554490663197
-13.4448819000739
-12.3734504047459
-11.0072365190433
-9.51160796099598
-8.02484168296218
-6.59381043345825
-5.17163899393566
-3.6750324771395
-2.07016491041383
-0.428111430477847
1.10221968538577
2.41850671681584
3.5871713285334
4.79038402272563
6.11521821280003
7.45413336556641
8.65850263186691
9.72317737700872
10.7488478996566
11.7590322107685
12.6224887537075
13.1584729901583
13.2944097568216
13.1264925027521
12.8312889691293
12.5032571606609
12.0774717521235
11.4072893822888
10.3800827503858
8.96179384336713
7.22310983852343
5.37287443317331
3.68044143477148
2.28403926428334
1.11472214086794
0.058435953797605
-0.85671373360344
-1.50888714380919
-1.91075684832866
-2.30749032706917
-2.97314139007807
-3.9195396700513
-4.87775661799076
-5.58055848755753
-5.99702774165367
-6.28253175759916
-6.59143099118811
-6.96954490817011
-7.3391982695498
-7.54283268185212
-7.46252252887754
-7.12480499059489
-6.65550998216949
-6.15784327747921
-5.68300332371937
-5.2631789962382
-4.89425179806139
-4.53080155085555
-4.17129539750848
-3.90336718236095
-3.7932604380482
-3.76430303463787
-3.64395791144906
-3.30742093286035
-2.73940101924932
-1.99238955101278
-1.13622625959247
-0.244034764925436
0.61277583143768
1.39465298363124
2.12908048364338
2.88007632924981
3.65695902111559
4.38528879556196
4.97110633788699
5.32063273914112
5.30204622776867
4.83880052784782
4.10947898897997
3.51446449517278
3.33162613267836
3.48396958896245
3.71353006566483
3.88602051559223
4.04597142898366
4.25231438065797
4.45166636052079
4.50442797887086
4.31288570887146
3.93266286626241
3.53782490021064
3.24027285914304
2.95642886581886
2.48770401106381
1.73574009667607
0.823088621346143
-0.0026337830962011
-0.57788934184977
-0.93107253694082
-1.19571320871252
-1.45964582603819
-1.72796440732364
-1.99324085580349
-2.27030371585048
-2.55495752936755
-2.80919982930376
-3.02486945544981
-3.28328905339041
-3.72082543846818
-4.40678578164551
-5.23233776001767
-5.93835637623861
-6.29292347164128
-6.2398768369189
-5.86651823498204
-5.28215357128914
-4.57585647748899
-3.84260845808464
-3.17306685522666
-2.60371255977543
-2.0921782736046
-1.5502042014576
-0.93040297585587
-0.304730676623909
0.176007385089021
0.441370082835866
0.604036429324218
0.87637359149296
1.38887367400824
2.08160500359499
2.74715941266842
3.19282709246425
3.38939026603569
3.44978272109642
3.46497313484042
3.41693287489069
3.26399044910489
3.04195689551702
2.85184501709742
2.79406187295874
2.91877705855561
3.18687020353237
3.48009333692609
3.69821621895482
3.83031418773731
3.88068859418751
3.76509441265909
3.36745171858273
2.69611200032674
1.92408271145759
1.27325573792146
0.878516952443159
0.723880351326962
0.665585111637643
0.540300029875197
0.293903379442873
0.0102589500227004
-0.195260452133685
-0.311007797633062
-0.461790811342709
-0.811214514155153
-1.43053271221755
-2.2602934152105
-3.1760910735614
-4.0494211027814
-4.75405259203311
-5.19587951761495
-5.38891558593555
-5.46505880701586
-5.56945123190117
-5.75093294278769
-5.93679364456465
-5.97570853012533
-5.72693047818317
-5.16059819465602
-4.37049707375774
-3.47318426730924
-2.52321220349717
-1.53909157633983
-0.566038603695424
0.317414016728768
1.03833229487507
1.57724070946187
2.00165742923193
2.43539851693442
2.96515047763075
3.59474301499591
4.28915859599778
4.99159471922956
5.58535716657139
5.94916970818531
6.10223497448734
6.20681132580866
6.38892035899973
6.63767117125156
6.89552501433726
7.14831795132328
7.39054841003242
7.56381525751278
7.55268967767079
7.21780472791121
6.45524911105639
5.27042877296179
3.79919359614407
2.23939419738223
0.746818111670339
-0.627340221879318
-1.91636186724048
-3.16185297199634
-4.38064982925965
-5.60976679779203
-6.90392109119418
-8.22122623694176
-9.37271445936873
-10.1646124168943
-10.5594762227555
-10.665379486781
-10.6266255169383
-10.5398137890774
-10.3844326298228
-10.0046532298106
-9.24959424801752
-8.17108668027907
-7.01199069829622
-5.97218837042808
-5.04683512113848
-4.0966470281812
-2.99045075331547
-1.65776972241679
-0.0948599390423766
1.59849132549891
3.19199263053843
4.39028042545437
4.99737044566621
5.07111639776825
4.91287281834533
4.86314201628275
5.06886202161365
5.4145511069057
5.65513704512453
5.63900301775598
5.44662988317275
5.3167489116354
5.42957280112738
5.78040888495039
6.23669393691622
6.62333844568904
6.74752502283328
6.48794947235219
5.95352160895773
5.4578844115842
5.22767790713924
5.17406773313017
5.0168893127283
4.58873077893526
3.95588877787867
3.28808327563674
2.69691515947234
2.19396024058462
1.71403060083525
1.13270719929364
0.324138856579336
-0.713097560393112
-1.79130962923423
-2.66228035056688
-3.22717199358265
-3.57687737339285
-3.84562504591756
-4.11793273061418
-4.47067017647679
-4.95751722212464
-5.48657029643336
-5.82557529196677
-5.81195336424093
-5.50965021879407
-5.13477027241555
-4.88027478071677
-4.81012459709498
-4.8501672935685
-4.85299736466666
-4.69839838931801
-4.35795940620337
-3.89849307098234
-3.4483296984529
-3.11152613862324
-2.84609627352745
-2.45228063056369
-1.76075410096563
-0.844492453156629
0.0022978815008847
0.522596470435742
0.738108468500812
0.928040625544822
1.34474545266876
1.94636545523641
2.43941022036006
2.57387550886478
2.34252635597602
1.91236601789319
1.46723762793251
1.15013707952038
1.06516464847412
1.25189252352834
1.65964342399328
2.1588755555557
2.57756472139241
2.78034306572463
2.78110338686519
2.7556700248823
2.87607794816936
3.13619862536951
3.37949473704808
3.48107329129593
3.46356579969818
3.4355437483962
3.43604289771772
3.35505754820869
3.02564190708686
2.39769672781176
1.60510920809221
0.870102075263652
0.366436708611573
0.14558753077575
0.121361211884342
0.108591210249092
-0.0675878716037424
-0.45403521059681
-0.94623762792387
-1.37094544876593
-1.6035098808106
-1.64705436464034
-1.62192144603379
-1.67498346943119
-1.89556411271831
-2.28709596328252
-2.75802961253931
-3.14165526682015
-3.30316742703192
-3.25842501075055
-3.14396512091275
-3.06980904910573
-3.0607369262622
-3.13975701134589
-3.38460616593618
-3.84836934828777
-4.44348010425825
-4.93636376914568
-5.08494827858442
-4.81857646367561
-4.28941280204903
-3.71917247309867
-3.2014728370308
-2.68306494979445
-2.09771978693652
-1.43998200185415
-0.718419864467036
0.0811088887759467
0.960580608714284
1.87817244426022
2.76813721039828
3.57721072240324
4.27686630949499
4.84808867607137
5.2756157218748
5.58607416622279
5.87180950065327
6.2084190017667
6.54379391881519
6.74628016181606
6.7773741431687
6.7366925054639
6.71781118326418
6.69696637154223
6.58651265772599
6.33587485846548
5.95740342704067
5.48974276256363
4.94856529832892
4.30249756011384
3.50737565850825
2.57061742945905
1.56603843413912
0.59286058239251
-0.243939829221963
-0.823007040990964
-1.04813907327261
-0.939107607281422
-0.64456437037766
-0.332297146554054
-0.0850916775294902
0.0802744507973063
0.114769763626845
-0.109564179373499
-0.73249369131184
-1.80324248290039
-3.26877821883892
-5.03860432607745
-6.98571007937207
-8.87736191308204
-10.4122451576212
-11.4042553225361
-11.8915652822488
-12.0257149572166
-11.901162779937
-11.535206340624
-10.9657011242899
-10.2884172977698
-9.57614218551113
-8.80797105423625
-7.93792693119111
-7.02281244894268
-6.20111046496574
-5.51803779781122
-4.84457595138554
-4.00723284163911
-2.94278720747361
-1.71452844161287
-0.446942019156992
0.74822423125208
1.85217360797635
2.95086756730787
4.11419161798706
5.2835903289727
6.33344227004862
7.20575186451838
7.9212194909084
8.49904329213476
8.93013252516875
9.18467649878047
9.18591983758407
8.83606780917357
8.15152791570989
7.33933939546703
6.66360401176358
6.24125345758288
6.01128590887637
5.88973319778451
5.89705485739
6.09707090988641
6.43125435686879
6.68741411462505
6.68915293474542
6.4794137674184
6.24902833858881
6.1080507666278
5.98979382416455
5.74608392073405
5.27435069163326
4.59675359043063
3.87634263140475
3.30244968702302
2.90581608787527
2.53969644148588
2.06685417234538
1.47977658295872
0.811834122798693
0.0477831715597831
-0.798005549501268
-1.5898799238699
-2.15214622436223
-2.42585412039589
-2.49042350603793
-2.45343968902635
-2.3930171819383
-2.42366956452139
-2.75451085355986
-3.62683585958311
-5.19283733329173
-7.43245833554739
-10.1035344345375
-12.7513687617066
-14.8928262164218
-16.3007895261154
-17.0652351781792
-17.3409652088877
-17.1417101088135
-16.439173950857
-15.3348111582513
-14.0214668122306
-12.6339869969049
-11.2026897714405
-9.70313191579039
-8.1087838324456
-6.42756580501595
-4.69609186967641
-2.91485047844068
-1.02390523474813
1.00234228647705
3.05867820992367
4.95980733246601
6.58663965691735
7.96231584061899
9.18747453444372
10.3079920769581
11.2626190374665
11.9878681755704
12.5456036379391
13.0639266236626
13.5409371491912
13.7933404997737
13.6410487007717
13.0939081064055
12.3376802676132
11.5807633038553
10.9172578316964
10.2877267399303
9.55952751406068
8.66967832625921
7.68976489115608
6.74997496824066
5.91676699777089
5.12702301634771
4.20923474251422
3.00206213702059
1.50046153470172
-0.137293266231113
-1.74457462385361
-3.25586411145125
-4.65498328401166
-5.90562605199386
-6.98155486994452
-7.91416373190698
-8.77719318109916
-9.63816131586623
-10.496850503585
-11.2272217259036
-11.6073777715509
-11.4619621264011
-10.7875163641956
-9.7507353505564
-8.59105591927353
-7.4918554958664
-6.47216272617828
-5.39713544419764
-4.15186438747165
-2.83258481257796
-1.74246530274939
-1.15637823613099
-1.05654615583748
-1.11067463689813
-0.953819927574907
-0.487841457857363
0.143639034865244
0.836965439211786
1.65403796526536
2.64235657720565
3.68163376075553
4.61224895786494
5.41594709071248
6.1531975133265
6.78072379768756
7.14834056330893
7.18349793707262
7.01835287320864
6.89924818956142
6.96481290519706
7.13038611051045
7.21496480655854
7.16066828942413
7.08074219657782
7.10217861650386
7.20548859144464
7.20863756150583
6.87268671939097
6.04158606841854
4.71866769233235
3.02220037019185
1.09326834098194
-0.931461564938567
-2.90803237931252
-4.70907475879246
-6.2516489447719
-7.51550351188103
-8.60358742061812
-9.73519300414164
-11.0096824101409
-12.1687034616345
-12.7780792933158
-12.7017334893965
-12.246016350579
-11.7793971223287
-11.3461129862417
-10.727972387025
-9.77697220886864
-8.58346719866556
-7.35056245701452
-6.18426584351981
-5.04379482647367
-3.88120054162688
-2.75597654058823
-1.74377328155246
-0.782579566018051
0.278818186009337
1.48898403982806
2.75474390060483
3.99754162605158
5.24951067942248
6.56010736876486
7.8635695482323
8.97637407282791
9.72969093960509
10.1219191737637
10.3410236121353
10.5910345872966
10.8678854982416
10.9356530697083
10.5630575214794
9.7927381891899
8.96340681406836
8.43852853731827
8.29287115379379
8.26887219850125
8.03105733328109
7.438491952208
6.60091249168154
5.7448952364024
5.03035199742907
4.43589191268864
3.8033074395843
3.00112168302683
2.00622183240581
0.816835128823737
-0.612136267330922
-2.26400718586456
-3.96153433412845
-5.47347335975514
-6.68976540690257
-7.63585129592305
-8.37901538823873
-8.9870623850881
-9.50952996372219
-9.92769956209794
-10.1722158892904
-10.2236611850387
-10.1257317285362
-9.8744199808967
-9.38509036952885
-8.62703708076624
-7.73571042304143
-6.92854658238163
-6.31852896321784
-5.84733637083018
-5.39364326989207
-4.88357022110369
-4.26047356451291
-3.42914471901659
-2.34808747082016
-1.15646771429268
-0.0888244073287591
0.749841986970632
1.43605289441078
2.06702926599059
2.65426286533418
3.18700826486199
3.70658699429181
4.26651928282133
4.83431836093257
5.25592046629178
5.3610626372743
5.15141047517518
4.85132706505627
4.68877650535638
4.62494015807986
4.37550667149331
3.71250741529826
2.6902763305411
1.57545895510989
0.616259401310478
-0.110747800922856
-0.683069612628994
-1.20969625355059
-1.73631758340417
-2.2429918903018
-2.67422534083435
-2.95610405796809
-3.04439608496672
-2.98008417386369
-2.8454103927659
-2.66144757587078
-2.3923040532055
-2.04077316035089
-1.66672780360248
-1.32498367251085
-1.04641164741515
-0.835966100283442
-0.615956922811046
-0.230373920415708
0.407154065692194
1.21433811953499
2.04533576523667
2.83090223589429
3.57483406189592
4.30268200794056
5.07527624312042
5.98826016395243
7.09839282325991
8.35940538122807
9.6246765458982
10.6866435215561
11.3420932189575
11.4907789286693
11.2165661753895
10.7739199608053
10.4595784042145
10.4345899946933
10.6283134187324
10.8255254862102
10.8628044619588
10.724283567502
10.4463428992544
9.96795774137355
9.09920379452613
7.6353994136362
5.49773954675197
2.72825274270632
-0.676099500359454
-4.81508284708501
-9.6131082071041
-14.5390732343531
-18.8061306523885
-21.91603685201
-23.9070512784911
-25.0834073148169
-25.6567572864324
-25.6782679110572
-25.182830878303
-24.3112554833859
-23.2964887683729
-22.3220172058175
-21.3859685169383
-20.325885306369
-18.9551324975208
-17.1406704042128
-14.8230323976419
-12.0693435176067
-9.07499057134483
-6.0103103427606
-2.87084331812468
0.447801250173392
3.92151512748451
7.28404666952316
10.147709284288
12.2324499679328
13.498276007847
14.0885889174083
14.1846271785305
13.9450643145476
13.5553727137645
13.2558199165101
13.2854011573581
13.7975770978952
14.7636264547033
15.8768193420938
16.6103815529245
16.5249971016964
15.5903232841979
14.1776326522867
12.7204868993872
11.3839657562353
10.0377600739846
8.50925423312498
6.82959754580855
5.21925492417632
3.86771500705482
2.78983904588542
1.90061107569468
1.16311840027288
0.620280469628675
0.295256289074521
0.0815922045562227
-0.235244150592873
-0.788945823631636
-1.46188621774861
-1.98016308841288
-2.21097394722813
-2.30793980048078
-2.53933888756392
-3.024000647356
-3.64280007837253
-4.15029795967156
-4.36334206874588
-4.2957095662963
-4.13089244928619
-4.04381373563705
-4.05400157971301
-4.06297431574254
-4.00449953261406
-3.94361216609926
-4.06354085002115
-4.54740391087869
-5.4026076059979
-6.3969346799
-7.23391196656623
-7.78757952667474
-8.11380020473299
-8.2804210015132
-8.28366288856496
-8.11536580320705
-7.82618273985514
-7.49924054632734
-7.18004591455913
-6.83680820516408
-6.41251913240797
-5.93458819034831
-5.51625975807208
-5.18603256047042
-4.75869479186241
-3.96204375680564
-2.70613308841962
-1.19995581940728
0.208088434465422
1.31807408004514
2.21998684638833
3.14430001688273
4.20666434192719
5.36129754177525
6.56129178227372
7.83097224458473
9.15315077342981
10.3823735509187
11.3065340523349
11.7534544268563
11.6682385009254
11.1650984479571
10.4835492810325
9.82392432067206
9.2399162546598
8.70930966014359
8.21623416989566
7.70216392475559
7.0425473567558
6.18257666172254
5.25225508886712
4.47416487133866
3.97562230045512
3.70911944279681
3.51711639140325
3.25576498270616
2.86998880349311
2.34508669575495
1.60035535684221
0.490095417330011
-1.06685993836378
-2.99530325433241
-5.11176701054373
-7.24026884751611
-9.2902962029176
-11.2413269515865
-13.0324453274
-14.4735871212278
-15.3383150357515
-15.5807843816695
-15.4002415251458
-15.0324734313591
-14.5008906857551
-13.6262257768548
-12.2887366763282
-10.6275967547492
-8.92016493071661
-7.28462482331943
-5.59945974110974
-3.74415962491329
-1.81519344426723
-0.0331046751904993
1.47989693005828
2.74017900061402
3.78759517991838
4.63448586232914
5.29525805941562
5.77302722940626
6.02817569243464
6.03924696190418
5.91801364622978
5.92517834774148
6.3158184001651
7.11678631458689
8.04752757843687
8.69972718306622
8.82005315410604
8.42364078545953
7.68302289424402
6.77246541155236
5.80531848989273
4.84707540494304
3.94627508844496
3.15256472470901
2.51875023310248
2.11312127188186
2.0266054083857
2.29787261043277
2.80197236302603
3.2997416090634
3.64754212490648
3.87339282354205
4.01809341802376
4.0320118193631
3.87494893859925
3.56067491835252
3.02763464156976
2.13547275412116
0.915671968555412
-0.309021468227684
-1.21182404719833
-1.80835439088603
-2.39792719118018
-3.19580643802913
-4.12311140859775
-4.94847742514817
-5.53797356294909
-5.91224871676346
-6.11394978396076
-6.13363625216787
-6.00788263329052
-5.89846151704767
-5.97345664448113
-6.22358876574561
-6.45405603657804
-6.46001882834079
-6.20181981874979
-5.83489241795573
-5.57160914499719
-5.47617723443542
-5.37825399559578
-4.99387410428173
-4.12927554005721
-2.81557707575552
-1.35994892301293
-0.278357431521335
0.0034882830905924
-0.459558087685595
-1.10256335920562
-1.33465445052832
-1.03217049811181
-0.496811539253156
-0.0154787168238217
0.402020142901268
0.865199664141884
1.33387751057912
1.60941586718846
1.56964236230094
1.3478586639309
1.27768642367289
1.69409548386058
2.74957560485536
4.32115121516034
6.06358828659836
7.63199859522435
8.91094126073186
9.9988322107434
10.9688739980994
11.7130306281194
12.0286864055409
11.7938625992661
11.0618879573493
10.0528176399955
9.04567402422525
8.21510713201861
7.56001418806361
6.99137087797355
6.44602009352795
5.90890881180751
5.37984178732524
4.82159974418848
4.08963092925644
2.93010076264486
1.1117539473761
-1.43136436936832
-4.57587965394924
-8.04960621410977
-11.4820022172659
-14.516949622576
-16.9260754686647
-18.5657980166777
-19.2647642079441
-18.9005668036115
-17.6266587610802
-15.9058036771541
-14.2240590803114
-12.7767490429646
-11.4441282256959
-10.0322149141568
-8.49821927261977
-6.95396341998104
-5.50277745607906
-4.12438666303446
-2.7280780573984
-1.28580265459716
0.113630285399077
1.34213663237978
2.36595353922703
3.29731815431929
4.27673065080369
5.28955943615811
6.13832431120266
6.59940895586173
6.55524303093193
5.99910817040729
5.02647166614261
3.85063239905079
2.73747290705552
1.88366008613716
1.39129643838771
1.33258346399078
1.75810524753228
2.62855102083557
3.76674408577448
4.87850716519123
5.66657105835531
6.0207397725247
6.08981681820863
6.07339184622702
5.98147894255887
5.73067715221994
5.40668543529995
5.18649175085708
4.96003023728511
4.27520954945251
2.83006044682992
0.912399812210149
-0.798206662539009
-1.82421223590808
-2.18664853978435
-2.1746268623125
-1.99317671874136
-1.69509818566177
-1.32867949839024
-0.994546122800216
-0.749957827400254
-0.562077891219927
-0.380847609913563
-0.170737717511564
0.153772095287979
0.734322221764382
1.66290558043873
2.90595070440558
4.33019553100192
5.75923982273637
7.02384719346561
8.01846134544076
8.73445493820593
9.25214840595566
9.71571202719694
10.2709884168886
10.9536373018747
11.6480011976521
12.2207019237155
12.677376395162
13.0986495460109
13.4144340098885
13.3640308549355
12.7689115608526
11.6960184409814
10.0352089909597
6.88033430050657
0.846852969575761
-8.42909081395709
-19.1885901321058
-28.4595262864236
-34.2490136488599
-36.6786698417034
-37.1237013228457
-36.7431213672334
-35.9497994944649
-34.7776971089962
-33.2615557566769
-31.469937279525
-29.4130550165898
-27.0204513848159
-24.2027082096995
-20.9513675839916
-17.3887136143989
-13.6958157652047
-9.96556235764806
-6.10878279734392
-1.91796310531196
2.71678344138973
7.61889136521562
12.3832401978425
16.6359519597144
20.1917306968647
22.9545623442329
24.7571834178681
25.3971649648748
24.8830746592745
23.6544232619063
22.4750258776272
21.9349232865667
21.9371187911668
21.684469645631
20.2279716897121
17.1213261619633
12.7380230175789
8.13071680505292
4.52189501035588
2.67536458023336
2.55651556164539
3.52926387447178
4.85555328979027
6.01151783961514
6.63752605951247
6.4078211529094
5.14504188859357
3.07320293334666
0.797275846615183
-1.10560886556825
-2.46831199988829
-3.48114613824217
-4.35477945179481
-5.14302294103188
-5.82716924635546
-6.4056424591003
-6.8654987209314
-7.15613005367604
-7.22809443063541
-7.07243483837876
-6.73007874709769
-6.27440944875406
-5.75151546264825
-5.1233329774712
-4.3004815260358
-3.24081640155745
-2.00135143190889
-0.707133576388377
0.516029678929743
1.6048381190441
2.57907229253564
3.49903791173624
4.43179265653305
5.47734502485803
6.71508881123821
7.96407594109848
8.64025779858835
8.10806627031555
6.3475479949712
4.17899333344452
2.61628984109621
1.93389074440714
1.49827030481323
0.590892134382597
-0.783515926186469
-2.11096567243699
-3.23597768461951
-4.62269758293573
-6.64600477077104
-8.93755830456571
-10.683406814177
-11.4422927602002
-11.4927806466889
-11.4532394803264
-11.6869348674339
-12.0327936134662
-12.0474896766721
-11.515216167359
-10.671273002069
-9.86099153575726
-9.07070809686181
-7.9312167109658
-6.14056914270353
-3.76310644969559
-1.1375887472486
1.40321153123428
3.71280828182004
5.77855426980569
7.47970653077186
8.399231682312
7.98095636843369
6.00394334976565
2.94582538810214
-0.155346943009654
-2.26388178400068
-2.87800078031897
-2.14738465308632
-0.588348084520569
1.2904799968696
3.17680618309193
4.89953455108082
6.23517838777084
6.8044241997553
6.29955880343569
4.93048353757198
3.53243267453645
3.00892392790007
3.60893342769076
4.80276380313303
5.79272624812714
6.04276313163066
5.44835983292748
4.264742276924
2.94390740678445
1.90300889919719
1.33666531823224
1.21509930390448
1.40669724310674
1.74643457453585
2.01074524235709
1.92906320568752
1.33151643798689
0.322770043181742
-0.74565617886424
-1.53262387337643
-1.93910796914446
-2.11247719891851
-2.29674952007608
-2.66385630459851
-3.16635842310733
-3.515961003475
-3.41219114296125
-2.84516325944068
-2.11174832268124
-1.53531340033965
-1.24314812493302
-1.16872253069652
-1.13284743925918
-0.925156413225378
-0.42505353004465
0.319803445831064
1.14577605773193
1.85200188971911
2.22901708216337
2.14777871614194
1.70696677875983
1.21031016624303
0.922727900358027
0.884738497972727
0.968705251587228
1.03262719865905
0.999940711577553
0.863528104283155
0.643335809700653
0.322376674514344
-0.152720224822713
-0.785208138387049
-1.47815895542262
-2.09201443822068
-2.51929033286759
-2.68791247930046
-2.52416618382762
-1.95901442477112
-1.01455318515808
0.118953822992404
1.18702493043497
2.14130800614522
3.2545728036834
4.84800765479555
6.89555815913167
8.97756740771991
10.6405347405489
11.7477368549908
12.4608780630058
12.934045988827
13.1054014286727
12.8162089929035
12.0285149068999
10.7603854080504
8.83663434279928
5.97005414948612
2.22753401836601
-1.79905817501897
-5.51324547236482
-8.89032528335704
-12.3208246846625
-15.9648945130346
-19.5024948766347
-22.5145353369283
-24.8795467880331
-26.6912890539573
-27.9124968676263
-28.2691602296677
-27.5246497082638
-25.7918100274113
-23.500053789083
-21.0442125482946
-18.4898498357235
-15.6161783184044
-12.2318554653635
-8.46688625789853
-4.75963701383102
-1.51592100690354
1.24309157420299
3.88008250322209
6.78569857595745
10.0042655033709
13.1341902535002
15.5552769695649
16.8462158193547
17.1063941798257
16.898483730639
16.8558431340541
17.3264091124004
18.2888087905295
19.4361081415477
20.3219685943461
20.6180635348677
20.3738942812436
19.9683104588281
19.7137567656405
19.5336895869456
19.0798387034944
18.1143387161341
16.6864249075979
14.9526672547788
12.9443303958403
10.5784667901484
7.83288643808347
4.81573552672231
1.6673411819304
-1.52730933277573
-4.70427221048684
-7.76086378688746
-10.5795973705897
-13.1082714782873
-15.4104370286079
-17.6147167997874
-19.7485563534231
-21.6114799835685
-22.9003763993206
-23.4880223762211
-23.4942279840115
-23.0791671340835
-22.2836993328441
-21.0879592528156
-19.4995951291765
-17.5355896099912
-15.198520251889
-12.515958033378
-9.57719033485787
-6.52468952728898
-3.50809371811487
-0.613623847702351
2.16131795080211
4.82771841326213
7.32124955635684
9.55397403691064
11.5291484005766
13.3455101896071
15.086055529878
16.7207418683561
18.1090731385508
19.1124865763901
19.7308216352483
20.0875794004017
20.2336319393306
20.0293145852304
19.3115630476452
18.1432355296701
16.8065980021707
15.559512428164
14.4607579489413
13.422453422492
12.3667056950165
11.2720116097573
10.0061444284827
8.12301107443753
5.00912627289945
0.439718664624693
-5.04379134369459
-10.4947231207552
-15.3143825925407
-19.5146377090904
-23.2685396158649
-26.4338095957222
-28.6406048364613
-29.7209298959895
-29.8829842577479
-29.4685020774841
-28.6832132800574
-27.634791952299
-26.490395347271
-25.3867941913007
-24.1801286979511
-22.454361275236
-19.8402397568534
-16.2447260843517
-11.7819510119306
-6.64096855896651
-1.10691648153856
4.3906786796267
9.40977650459809
13.7391536542479
17.4676572468579
20.7670826100492
23.6426246041215
25.9417061041332
27.5355292296647
28.3729940037078
28.391616005831
27.5413875486944
25.9305027015387
23.7876404603556
21.2072336663399
18.0998636710873
14.5517920136101
11.1427762129417
8.70717564160924
7.69331641976614
7.77555435947427
8.11812475555924
8.00851167730532
7.17947549197421
5.50781620583044
2.61354677255506
-1.9116593608134
-7.81896909194251
-14.0210521914716
-19.2889797769914
-23.0504037480727
-25.4773490310207
-27.0179751120008
-28.0051097488648
-28.5681749138973
-28.6760441503041
-28.1897721744113
-26.9388807189569
-24.825897323751
-21.923019344744
-18.5028154194855
-14.9461163700562
-11.5517510825862
-8.38487132012622
-5.29446363936017
-2.08500812683007
1.30820256474153
4.77883638563011
8.14818952031822
11.2981746115011
14.2422774281571
17.088623443141
19.888358521937
22.4863917866059
24.616555155022
26.2529068349884
27.7660591944633
29.5294718381932
31.3874368764522
32.6977417053436
32.9107381978382
31.9552437253181
30.0829051980008
27.5657426623932
24.6523772403156
21.6842423093539
19.0837363460333
17.1549692422228
15.8596504704978
14.7588038101484
13.1976534228069
10.6189368672239
6.77950217290202
1.77939738333536
-3.98413034949208
-9.90131880157729
-15.4592506518715
-20.7585360345446
-26.638584463234
-33.8749699945456
-42.0448687244404
-49.4353955962518
-54.3441138818917
-56.4051561118165
-56.5521353941677
-55.9041841150311
-54.8881293916293
-53.230334773819
-50.4341142847114
-46.2023227835072
-40.5923349802871
-33.9146839168938
-26.5327276847874
-18.7535028514624
-10.8065204183989
-2.81145156705517
5.17579495681587
12.9461411005699
20.0049385285675
25.8182536747084
30.2260859099867
33.5380548804115
36.2261344849078
38.5624821866775
40.4619593789261
41.5099643358688
41.1310575517912
38.9218173480045
35.0247125604947
30.2292714448265
25.6372316243
22.1348197170577
20.059974908633
19.1782204667745
18.8472690774907
18.3203409172973
17.1396681097941
15.3413036909492
13.2455610957338
11.0939122527012
8.96813413576434
6.95837106083848
5.20937855410889
3.76741709578969
2.4746435610875
1.03229133594668
-0.84298421506751
-3.23014654635883
-5.88425003710953
-8.38749173772799
-10.5354504856073
-12.5181886278905
-14.607384148989
-16.7450853653416
-18.6267784134102
-20.1668579034604
-21.6485253429765
-23.3008936059152
-24.8614486488644
-25.696187595097
-25.320765811498
-23.7357121336258
-21.3177370131522
-18.5132316677672
-15.6251052129175
-12.7210916699186
-9.63658911081501
-6.16359478791082
-2.3642177022708
1.34181607166506
4.48273773675083
6.88534025194369
8.68844859848219
10.1155095276092
11.3071068213462
12.2859159218676
13.0063241643055
13.4749808625194
13.8043671705583
14.0332358523036
13.9041200170261
12.9941068482132
11.1664460763326
8.82899545600757
6.68655327906137
5.25006022756816
4.55278465771837
4.23173729492709
3.81797337301649
3.00517469510863
1.75895144960913
0.254272147530988
-1.27236015002773
-2.61779206622853
-3.58468367160374
-3.96050621914948
-3.6866065880226
-3.09209797130883
-2.81230301690594
-3.34366790631317
-4.70156307434066
-6.52303287523326
-8.38552848979114
-9.97803560163066
-11.1209298637958
-11.7888873408511
-12.1027259459755
-12.195072849121
-12.0408838414963
-11.4463739760303
-10.2539303193031
-8.58740821640011
-6.85618574100985
-5.44495922764044
-4.39490772420086
-3.42694165906884
-2.24622975036572
-0.77198019103459
0.875537985979639
2.50895445178023
3.98644322950479
5.25549552487243
6.31801134260947
7.1622696772659
7.75873380056668
8.14555873380144
8.50835380143331
9.13611756719655
10.2208630332876
11.6245082737074
12.8707774169576
13.4825674177618
13.3643740486142
12.7846644455785
11.9982904474738
11.0171502116057
9.76779486193377
8.32033597279548
6.88165846878925
5.65207010946425
4.75697516166507
4.26823785534135
4.22836380801385
4.64063480306381
5.44772434101754
6.55147128977365
7.86678279908173
9.28366399775271
10.4944030024054
10.9338638216406
10.0888883056033
7.96622494848401
5.17916556338101
2.45394646173895
-0.0115824788234432
-2.7065067174409
-6.27904629702582
-10.7916282046749
-15.5204164286761
-19.5464265505702
-22.5037983118331
-24.6856861088416
-26.5140027582335
-28.0646494790977
-29.0683627034985
-29.1781422828913
-28.1872542623607
-26.1357021534671
-23.3066687007045
-20.0701882602775
-16.6655296879727
-13.138338140411
-9.49269966615601
-5.85522193951107
-2.437655304447
0.640998741555999
3.42236426921881
5.99273697123622
8.37188038290014
10.5186395176426
12.3398113611288
13.6534191460615
14.2365838267429
13.9815735761378
13.0007604637867
11.6009923475913
10.1716823431636
9.01466818753951
8.22531955369007
7.80632694755773
7.87532582557405
8.55463337036079
9.60594667057679
10.4394415850894
10.6632447961769
10.4668423331886
10.3304676852756
10.5150255257734
10.964199133334
11.5331546413306
12.1075980630619
12.5468086933422
12.6552825042463
12.2162081320089
11.0003103725388
8.81387549618956
5.68264361828313
2.01861097316025
-1.5025997067831
-4.33054981510989
-6.32675580134829
-7.67926374434035
-8.60827503785953
-9.23463320483627
-9.71672235286897
-10.3868169265837
-11.6040720970084
-13.3938086598529
-15.2644350001732
-16.4997798439311
-16.7183895498609
-16.1195009692354
-15.1586028600343
-14.0787675431751
-12.8258207373722
-11.2936628672239
-9.4919730020633
-7.50662699684627
-5.42045339151665
-3.28034083319078
-1.07471381488384
1.26471328436932
3.80577933314644
6.53248163786957
9.28192698258826
11.7699000506371
13.7584896794284
15.2129986072515
16.1837339734313
16.5159064603322
15.8526150007287
14.0286039441496
11.3442597704311
8.37347098613116
5.61596320133777
3.37812510824776
1.79137054374062
0.77079259112531
0.0380747089906343
-0.662468149022013
-1.38616403706176
-2.11146445086022
-2.99385043182223
-4.34022855389836
-6.24473872576119
-8.32362108621482
-9.94493844744131
-10.7519843585923
-10.8866027983047
-10.6884005998134
-10.2931615012163
-9.60414604220389
-8.56554712350301
-7.32562858890005
-6.12236328699734
-5.10266109784979
-4.29218981602404
-3.66410753804884
-3.14063854418653
-2.54242570645632
-1.6669735659844
-0.513103734609622
0.630441802150639
1.43674487938736
1.88855222266457
2.30880561217458
3.05201583746262
4.21721188984719
5.63987814498956
7.09502109705687
8.47879481162053
9.78304399100026
10.9088119366769
11.6041635081865
11.6750870381883
11.1953945524128
10.4026118721972
9.4382064973101
8.31181970206694
7.0805439491929
5.90688943397362
4.90886923450119
4.06466751855336
3.32410197753282
2.75317095177282
2.49210653475227
2.55458690587816
2.71189984848475
2.63363045816265
2.14216700016731
1.28213574236115
0.164681585971458
-1.16118511374594
-2.67430340719746
-4.30925825170445
-5.94576300555529
-7.42996574533031
-8.64457571726788
-9.63747325561032
-10.6440245077708
-11.8780814440323
-13.2841929652569
-14.5324568552307
-15.2511623163257
-15.2704737895378
-14.7022477838194
-13.8195601435643
-12.8316874449165
-11.7412499334549
-10.3921609425674
-8.63623112068566
-6.47876759206188
-4.10382279165452
-1.74398346235116
0.503196824638621
2.70675013069282
4.93404808064845
7.09033383488448
8.94103777292396
10.2503473444697
10.9069582029866
11.0020531519015
10.7980332491437
10.5119910650408
10.082599268038
9.25769498962901
7.99908284424489
6.72019771659865
5.97383293947791
5.85572084716515
5.79999019584324
5.07130779443697
3.47146547624503
1.50488652864023
-0.128703859651785
-1.09800018830317
-1.51601700699056
-1.65302280763317
-1.71104755625563
-1.78944529454128
-1.89672057692113
-1.92918084874538
-1.67946359359355
-0.952263386789975
0.234675789461428
1.54657731626077
2.52105955938044
2.94478035867012
3.03078794075283
3.19947585694506
3.70041580170169
4.43932188103495
5.12615262512873
5.55103242422026
5.68204574540706
5.49647033332766
4.82910277724462
3.53409835582935
1.79004684904655
0.0919661169472961
-1.1441580160669
-1.914084502217
-2.53044776874311
-3.26110732879498
-4.10175840926953
-4.85813659237577
-5.40078251612666
-5.81906940842069
-6.29962878006071
-6.85700300870681
-7.24479800560324
-7.15931710526137
-6.48705190261205
-5.35921250491543
-4.0600431060729
-2.91062811192004
-2.13287622415908
-1.72618972896782
-1.47934834119621
-1.13507599332275
-0.578763104415414
0.053095648173694
0.400920110623655
0.094734538854332
-0.948248457958235
-2.40920757963706
-3.76278787026653
-4.59449483236314
-4.78454364749787
-4.47859097863707
-3.91488626961925
-3.24141818135597
-2.46208530694124
-1.53062162503739
-0.454034713940815
0.698005600595422
1.81132367847988
2.70240779808317
3.14049301779222
3.00287430593364
2.43422322193483
1.79785147621289
1.4130376576802
1.3177266129553
1.3031965669498
1.20608486520939
1.14856774505609
1.44113444066752
2.24288976454825
3.36328005839418
4.4213281405871
5.17484498032845
5.66677183930417
6.06284839190732
6.40317895120152
6.55819389271444
6.38768330356662
5.85917403262571
5.02216887924629
3.96948426566963
2.84872298347159
1.82028284188713
0.952410247594747
0.201074686316026
-0.486066609335861
-1.08875738764231
-1.55531837866246
-1.89231074106787
-2.17654110771922
-2.44887453382579
-2.5931789042025
-2.38319017199953
-1.7248392716582
-0.839337133377739
-0.133947857181355
0.131156402859431
0.0264847717163374
-0.175720631590123
-0.26849453259927
-0.254694151538121
-0.273717518101828
-0.41572475111039
-0.623054564882777
-0.779601381347421
-0.856647442351242
-0.922912112339853
-1.05186200014757
-1.29693093784335
-1.72842964216162
-2.39738265880618
-3.25466887242516
-4.17010189311317
-5.04433791818097
-5.87266971449241
-6.69608273600574
-7.4987282234327
-8.159257088005
-8.52501321697832
-8.53811197707235
-8.25956609108694
-7.78559008337571
-7.19145146799432
-6.50882882752311
-5.64773334634342
-4.37949488636773
-2.55315019303192
-0.340586846339651
1.86246649277343
3.79325078841582
5.47926591714144
7.06707457449718
8.64660399120562
10.2733518395615
12.0097936025273
13.8075075793835
15.3660940723458
16.2229444182638
16.0839061819402
15.091074992698
13.7033171690126
12.246144845316
10.6298631342691
8.63918877040242
6.48965332379675
4.8747579776642
4.26669520601727
4.24193537609437
3.7317091285653
2.02218982007783
-0.622778485558352
-3.37835490560589
-5.68451736663025
-7.48143021395447
-8.81286747692057
-9.54853380215439
-9.55792462215325
-8.92814307666697
-7.89400348712665
-6.66403839161554
-5.38544396198296
-4.20102951528541
-3.27199858491328
-2.74891022333129
-2.71426117714909
-3.13695074117063
-3.90258080947917
-4.90989773054793
-6.13193634519802
-7.57391090227152
-9.15331570731653
-10.6011435566348
-11.5304854906659
-11.7086958042934
-11.2813745388565
-10.6299253350569
-9.96046790071181
-9.11484215974197
-7.83850996486083
-6.1394682738549
-4.28101571558069
-2.47278630344874
-0.698428868381567
1.11613582084094
2.8504267438796
4.21359278284276
5.05041321607736
5.55504020691756
6.11384616159142
6.97267275799329
8.1262211220853
9.48856041558785
11.0378849783684
12.7265460561587
14.313157763605
15.405683127768
15.7368242985234
15.3510333056166
14.4400644304867
13.0262429409906
10.932396414812
8.08920386909872
4.7588687112079
1.39746001925615
-1.63540550356616
-4.19964832559641
-6.28000485175596
-7.82550255586917
-8.70467619173261
-8.85292875240461
-8.43659210462315
-7.77554946566028
-7.10163123521858
-6.48086006856231
-5.93412498388532
-5.47568416812791
-5.0076859276834
-4.31362043426199
-3.2374380363101
-1.83875462342963
-0.345456083816068
1.04753034460457
2.33242316379674
3.58955406731516
4.66909632646988
5.05173527752371
4.21832675711961
2.22790400927461
-0.167458792919798
-2.05191651360128
-2.97952530934966
-3.13456468102036
-2.99476886629947
-2.88283853349144
-2.75265160676472
-2.31578062424485
-1.38397063124694
-0.126535384882281
1.03750777872535
1.84994680175796
2.49347763174612
3.4098663227709
4.86049381227099
6.73426404216368
8.76383262129958
10.7996948983108
12.80930324364
14.7046015568354
16.2789559777215
17.2954364649824
17.5710892222028
16.9727060076283
15.3808393512502
12.7314128974884
9.16233610379779
5.09584113312547
1.04425260740845
-2.75409444437179
-6.46946219341581
-10.4209677738562
-14.7286598614616
-19.2106774490433
-23.4892377772306
-27.1135349712776
-29.6670178690472
-30.8985878734009
-30.8307675477303
-29.7742784669508
-28.2049467695621
-26.4980694511843
-24.6889558384604
-22.5406222959678
-19.8916771954848
-16.8556066781133
-13.6265249499429
-10.2107383813684
-6.4781980354599
-2.42275205598498
1.75768827019442
5.83101219527387
9.6598477922299
13.1221997658761
16.0224209061171
18.2151315769192
19.7850407064548
20.9540669890658
21.7939060485754
22.1865474013301
22.0980516109355
21.6785922052037
20.9810652910434
19.7883874673628
17.9270553986751
15.662683041437
13.6060883706464
12.2340411046441
11.5807380208829
11.3475228225846
11.1962931257558
10.9062978754307
10.3144437498366
9.22589725248276
7.5192489558626
5.37481371219212
3.27380773772328
1.64552344342867
0.537838369305977
-0.320788692069337
-1.23754459712546
-2.45227938000414
-4.21470498331866
-6.69559653303554
-9.6832432682836
-12.5055159508641
-14.4681958359372
-15.396276383129
-15.6303675222286
-15.5220751334825
-15.1307324304834
-14.4533380720266
-13.7006388091429
-13.1393857119785
-12.7633206463603
-12.2967078842535
-11.484678020542
-10.2686631286955
-8.73690875903328
-7.02892156293348
-5.26804995260503
-3.4830845492508
-1.56889369918451
0.635756662384315
3.19694976847878
5.97439196955533
8.62164064170558
10.7176147723462
11.9900003524822
12.4943277108433
12.5928912980461
12.7284683531731
13.1639691685703
13.8562980923507
14.4811952069611
14.5421336620811
13.5697534387523
11.4375861226604
8.59823783457739
5.89930109854127
4.00253169637506
2.94220537976039
2.24218865518056
1.37959870269724
0.0866858738832714
-1.72323485395343
-4.20870343379083
-7.66786268824571
-12.2333953736896
-17.4580301104961
-22.308384722616
-25.7075800927928
-27.1626638919471
-26.9486245538668
-25.788924422002
-24.3476116812137
-22.8690059585208
-21.1538512315987
-18.8518825881738
-15.8228585072212
-12.2638365316826
-8.52375224299695
-4.82795004313189
-1.21061096762503
2.30415909663565
5.55091465898737
8.32528596411592
10.5742420974778
12.3731309147116
13.7401955457918
14.6140973337451
15.0656435480483
15.4274253910553
16.1002063723767
17.2186468356964
18.5405254663685
19.665026631888
20.3471575480101
20.610929214557
20.5897942723351
20.3117116260688
19.6865125894497
18.6647150847297
17.3091969439087
15.7061750672271
13.9225122049868
12.1068345344895
10.5411238357987
9.48652554455259
8.94950745814536
8.60123539175653
7.96029976450085
6.75333131474015
5.15587430803247
3.60239976793963
2.27201055851441
0.804254011504201
-1.3997274940217
-4.60492733293189
-8.48988886955984
-12.4180835425176
-15.9284179800519
-18.987891584174
-21.8042653059043
-24.4363647247479
-26.6426566504219
-28.1094679480351
-28.7427119357897
-28.6730252035148
-28.0277135858186
-26.8140362015417
-25.0770370352501
-23.090823094107
-21.2404994135261
-19.6325354568533
-17.889656257767
-15.4476367056699
-12.0799393135132
-8.11219904378578
-4.1757707472403
-0.790688211926439
1.92535481867539
4.29589458602389
6.83503702973828
9.8272298870798
13.0470733860814
15.8530094820017
17.5864921837525
17.992894751265
17.3661438629983
16.2971567290962
15.2435739147461
14.3258065700387
13.4852283982698
12.722870286691
12.1269801524639
11.7288997778458
11.4064832897741
10.9513830518667
10.2435385829643
9.37076632871538
8.56601754044559
8.01818754826089
7.7392806110759
7.57952313176377
7.33421983162165
6.86120580781706
6.152783895335
5.30983499823597
4.42487140832619
3.48691651580633
2.41941121041476
1.20685358713377
-0.0552398315453916
-1.25937736509261
-2.40971446136427
-3.60896245356333
-4.91271568857998
-6.21289927548259
-7.28474125516806
-7.95251151889448
-8.20440046513189
-8.16881352699228
-8.02153605431131
-7.90522343109293
-7.87085026243203
-7.86211430224005
-7.77450205062733
-7.53630651085387
-7.13653190894701
-6.61689526597989
-6.05473515701246
-5.50107151146903
-4.91310911040363
-4.20069461299285
-3.33657052427915
-2.33739260501981
-1.15534296717502
0.264326142225297
1.7778610469016
3.02874095379966
3.72827870244781
3.89945289220555
3.79579474390724
3.61607507810407
3.33494793870028
2.79845421136745
1.95803881614065
0.996948024704532
0.218913833541446
-0.191513017234914
-0.306401234507848
-0.376718078952624
-0.627181548436956
-1.08816518841305
-1.57207667142245
-1.80351690305362
-1.62297745791565
-1.13226758005631
-0.656062408604908
-0.492789570030181
-0.650606741711095
-0.891611268085629
-1.09532629260936
-1.46907950360297
-2.25956914214611
-3.32525565723935
-4.16257852974632
-4.35396045142918
-3.8808210970697
-3.0236640701171
-2.08077486931019
-1.19216551471806
-0.338573021716646
0.541357927097446
1.44264679942449
2.32112319457396
3.19819606700197
4.15293723616132
5.18485292618092
6.1349377100565
6.76867040752443
6.93313376787605
6.65563793400327
6.11791115628752
5.54591692958302
5.13379701910548
5.03358373104595
5.29544501338345
5.7422063181342
5.98986008074575
5.72584709991884
4.99413706635819
4.17708291717707
3.69864881489658
3.7109279654681
3.97635400056275
4.03922186062745
3.59961565259806
2.75212560905528
1.82363171713019
1.02753455719308
0.359218677896938
-0.253855854183418
-0.868653819863964
-1.58593106387361
-2.54841638630365
-3.84245701852032
-5.46879895736641
-7.38687199612021
-9.47824441644167
-11.4622515458518
-12.9737359295887
-13.7949850858346
-13.9503107667226
-13.5389308859631
-12.5878011414827
-11.177139289879
-9.61796003852607
-8.31688830892527
-7.43543947476667
-6.78001964404259
-6.01965568240395
-4.92660857948754
-3.46258713064912
-1.78192085214919
-0.155968979512424
1.21923572046982
2.37096715921175
3.4779068205409
4.69134212801447
6.05488840234959
7.50748749863758
8.87719425209206
9.91884949751505
10.4461240752707
10.4592825082775
10.1655605654517
9.8754633892212
9.79042190345258
9.80117785896798
9.53083953441
8.66392962618292
7.24394516145218
5.62958026214255
4.19303792140931
3.09141475269966
2.29480933943502
1.76506728396616
1.53918007540157
1.59215701132627
1.65057715195198
1.26099561770939
0.133471143523199
-1.59458489670752
-3.46176655584717
-5.02553220661414
-6.11368897787702
-6.82627585952269
-7.37569739240612
-7.94992051204265
-8.69894433380866
-9.75251238739136
-11.1226338973051
-12.5549918245292
-13.5581600281105
-13.6668473205816
-12.7208871499124
-10.9271364872807
-8.67549542336476
-6.26773340520176
-3.78044607506769
-1.16845800122901
1.53600558328265
4.17547911713837
6.59093607503642
8.69711938624379
10.3981207667908
11.4936422957954
11.7514464773882
11.1277548701667
9.94917941705793
8.85082200046764
8.44332440282208
8.95731519373787
10.1699362233206
11.6438866856728
13.0335287546788
14.2149630041799
15.1845679270151
15.8649345442578
16.0381686071638
15.4706380589684
14.0355224999988
11.6706958973035
8.30262438444203
3.91709090490313
-1.29630390933871
-6.87769958919028
-12.123045481016
-16.2333058112624
-18.6507395658728
-19.3873158186583
-18.9897001057975
-18.1372738374297
-17.2645234630671
-16.4908041144369
-15.7940101928296
-15.2098096604561
-14.8608659112404
-14.7703478782043
-14.6877504802385
-14.2190093339176
-13.1745078320986
-11.7212086919141
-10.1806037739355
-8.76033205751613
-7.47345001065987
-6.17280929879118
-4.58697805490725
-2.41590960963311
0.467732834896939
3.82609629878078
7.0606138300365
9.51677176855072
10.9238661951168
11.5483141567023
11.8559502846554
12.0637225263236
12.0788223461921
11.7656811165079
11.1213610962876
10.2247043180785
9.13805161797413
7.88408984942006
6.50693359254853
5.17432808418226
4.16899135023048
3.6825779192938
3.62976970846634
3.73518115715893
3.77938840303788
3.70977390006792
3.55797445456706
3.32027753257008
2.92473323212164
2.31011541880924
1.54679235098945
0.845899700856366
0.392895185731481
0.175449516863564
0.012451105784345
-0.258189376758116
-0.644185053581378
-1.0143169118572
-1.21219673559884
-1.18005559101098
-0.974507795793544
-0.613100855165559
0.0576389337477237
1.20449725226042
2.67828829285288
3.95756774827267
4.51441584268513
4.23214228824282
3.46306082659888
2.70212658420535
2.17844466058607
1.71215781222478
0.958594298217657
-0.206334896433546
-1.55529465374888
-2.7457523563018
-3.65563307411423
-4.49721854650114
-5.61884019501673
-7.16175864817816
-8.87486780480089
-10.2794469933323
-11.0466977241958
-11.2326818980021
-11.1573441871164
-11.0598805617858
-10.8815700942476
-10.3973785136321
-9.51641186714445
-8.36409405856209
-7.06923274618897
-5.58929913614488
-3.81527517723194
-1.77550940217101
0.348527808013058
2.37656332129758
4.22218241634213
5.83948016768696
7.16719614091955
8.19779010917833
9.08080328707195
10.047535347541
11.1458961169476
12.1033755752717
12.5531352221248
12.3483492331867
11.5524826670897
10.2269184369674
8.43399080392794
6.40458099340325
4.47505412245104
2.82177668299355
1.3953082939534
0.104254425154585
-1.07504833304622
-2.14288545589437
-3.0664912414508
-3.71826844209266
-3.98438429604641
-4.01502103007239
-4.27029893387179
-5.17774419200719
-6.69728684957073
-8.280508464831
-9.31493937424853
-9.59151030375739
-9.33748035920721
-8.90538876126656
-8.51431050033591
-8.18562171045015
-7.77248461313802
-7.06566249659603
-5.97156303330061
-4.58976587223748
-3.09028413707764
-1.57212674978666
-0.0567205024230035
1.49025226919321
3.17202400208677
5.06857002554357
7.04333851690293
8.6970078975616
9.55875255964046
9.33784144670604
8.10652657640499
6.37009138207021
4.88833776818066
4.22448051348997
4.36137281790384
4.76163141229296
4.80690087111461
4.21212751021032
3.12733535034187
1.94480716684996
1.01154667478477
0.458198787350979
0.232162098390034
0.246220803547091
0.477534284859163
0.93253986560585
1.54033415607404
2.12794537963005
2.54949818421195
2.81701193371399
3.03139294459051
3.20564417262634
3.27291822892063
3.28019540529032
3.41272936053538
3.69864846691338
3.76055316456786
3.03982690091033
1.3685623524787
-0.723734267068727
-2.37158699294967
-3.08107785145533
-3.06881026543438
-2.96451729418
-3.32186435160669
-4.41405913583656
-6.2287398559489
-8.40230244364115
-10.257334588498
-11.2105596092424
-11.2565338093103
-10.9382124064465
-10.7875246775166
-10.8617530706061
-10.8182702725514
-10.302612912698
-9.18697508685387
-7.55080804242653
-5.61943148886924
-3.74872185556981
-2.28900805094808
-1.29742944989549
-0.427098500570867
0.777697227366892
2.50862800698398
4.69478207810077
7.2359609441968
9.99486398953573
12.5855235201442
14.4354492191379
15.1841896283461
14.9272273374037
14.0221995860545
12.754663352346
11.2438715357356
9.56171270331633
7.79789865114274
6.00310775666523
4.18928680291885
2.45536929938396
1.02827663879461
0.0731128484822713
-0.494244837665892
-0.893761565853113
-1.20874582520982
-1.35754604290818
-1.35038063545842
-1.45672260213318
-2.04264029185308
-3.24033060295317
-4.77312041049856
-6.12044124844871
-6.8993090689986
-7.08923460692037
-6.89285415207167
-6.47934615982687
-5.93895728083401
-5.38554984578456
-4.95978034928025
-4.73614703662313
-4.68928355015688
-4.73032413852698
-4.75515603337126
-4.71433719857393
-4.65533470418694
-4.62881188979985
-4.53838492506268
-4.15824179952817
-3.33285580330606
-2.12808816636217
-0.782278469469967
0.481870426567327
1.62456297319726
2.76789380406209
3.96092709792786
4.99036541383333
5.52274155555595
5.44890767962848
5.01197764085226
4.59008395985235
4.41331791655388
4.45156306693122
4.45607734155295
4.10116181284716
3.20287572181051
1.87786038191034
0.478474598259509
-0.657301649340567
-1.42989650338957
-2.00040666634433
-2.59775169100782
-3.2824858750056
-3.89455537324943
-4.21004731807186
-4.10032807623829
-3.55619626033256
-2.65749703975524
-1.56971401717914
-0.508893878936546
0.366073466534539
1.04722358961533
1.66391486835254
2.37319915895946
3.23597825171044
4.15807415108498
4.93143053172261
5.36439817160667
5.45473804345994
5.48502757155094
5.87477731744339
6.8236507548022
8.09491044989647
9.20179967334279
9.78513193790601
9.8125983330265
9.56921609017729
9.56100720280256
10.2135484935639
11.3303484071115
11.8477394307235
10.462318729632
6.73558185156593
1.5427462125616
-3.59491555184355
-7.54405591914897
-10.0561505187398
-11.616644887389
-13.0018384588293
-14.7751687447082
-16.9170259497943
-18.8784414192582
-20.0696090443673
-20.3075311666037
-19.7815575568952
-18.6983344456913
-17.1171050551049
-15.107478270028
-12.8615040897607
-10.529545346237
-8.04991758337774
-5.28021363111525
-2.29069228415824
0.54417520066641
2.77967045833621
4.26557750284535
5.30527662042774
6.37694128716242
7.61359813547941
8.619395647536
8.88472379218923
8.32005727346231
7.31212010178865
6.36239599259947
5.78885916345489
5.68446630436901
5.97429377548693
6.47307995545368
6.98493742123643
7.4035449362659
7.69439943691468
7.78178089377144
7.51678798944492
6.81598194887204
5.8238315201267
4.8817747371257
4.31573426907954
4.29150736506011
4.85938873288196
5.99410585158009
7.48152145069402
8.86501438725285
9.67518754190695
9.7139209967596
8.99507734686686
7.42581634178358
4.7465415417038
0.928182079566256
-3.45295622964981
-7.4202228687018
-10.2558956608581
-11.9309995823692
-12.9082344579461
-13.6335852992116
-14.2519396802902
-14.6721980360832
-14.7522583313555
-14.4393081661623
-13.8384025821479
-13.1635921343248
-12.5784117742695
-12.0726006533189
-11.4728056524173
-10.5304515085796
-9.04736563819896
-7.03996668225721
-4.81453798759537
-2.80641446526319
-1.28492083845324
-0.180297774141182
0.857362256811369
2.23062262507147
4.11627291446684
6.31486116092304
8.38282537997596
9.93472788037699
10.8057288151919
10.9897672345868
10.5778972818163
9.81342567615893
9.09329281942357
8.78733482460131
9.01066537682578
9.56489200049011
10.1208603481768
10.5080565446133
10.8333902439824
11.2811849848982
11.8236032352026
12.2024512675068
12.1861899866487
11.7745098891365
11.157005149067
10.5250825872221
9.9050843249474
9.1216024436021
7.92773778145859
6.19632052801571
3.99518775358917
1.52161524493231
-0.984473622295509
-3.30084496298888
-5.30139388299564
-7.03114535814666
-8.67418635171348
-10.3741153077153
-12.0413087870325
-13.3790879570171
-14.1694843591074
-14.5025601359148
-14.6282271080109
-14.601359442726
-14.2146730232453
-13.3393342498184
-12.2305548483346
-11.3922861862407
-11.1249104471706
-11.2195709071405
-11.1247472895346
-10.4697302175088
-9.43225087437582
-8.54270472577518
-8.15776763711557
-8.21507068863333
-8.44192386155651
-8.61869669959292
-8.60145283990255
-8.23022493047074
-7.31949173872556
-5.76544186019286
-3.70402874451084
-1.54215172512056
0.306542917389197
1.79606351232324
3.28637667099409
5.15343685382457
7.40682797580913
9.69789315363002
11.6172590885981
12.9447231954425
13.684559211574
13.9611092841972
13.9234876761684
13.7118119942039
13.4202922808179
13.0294186219162
12.4082046631052
11.4591010338756
10.2873440549572
9.19633888615056
8.46319016173816
8.0776157080292
7.71951463647792
7.06206796590748
6.10974756616343
5.16347648950167
4.44010715571133
3.84689845545106
3.19357272900373
2.49510516723769
1.94005178152168
1.64191599165954
1.54997851098463
1.55276451582116
1.53436909887709
1.32833780422793
0.728898644446839
-0.382822570554821
-1.9295245853967
-3.66552691644428
-5.30337492102216
-6.61547293086256
-7.47172965649193
-7.88280587578903
-8.04580115678898
-8.25531624549754
-8.66484189588462
-9.14082252832718
-9.38522600402026
-9.17047778983506
-8.45780572918322
-7.39047404538371
-6.23005980903903
-5.21716568266855
-4.40428414388788
-3.63119813513652
-2.69138955287152
-1.51995876340007
-0.242244242264657
0.920322110902709
1.81619480528153
2.49816592546129
3.17856179022295
3.98073732646675
4.73728697484245
5.10620802064605
4.90651435958422
4.29333871169858
3.58767384934139
2.97699486928744
2.41442107249795
1.77208278953959
1.00420367856483
0.129949484139236
-0.841707601373045
-1.86392210537395
-2.79248246110003
-3.50079661084744
-4.01472752939572
-4.41109536621559
-4.63261747289712
-4.55299041103493
-4.20362642222892
-3.79701001291591
-3.52643369437908
-3.44288271748686
-3.50056844503672
-3.59057049321833
-3.49782232652153
-2.93345771860242
-1.73495062266771
-0.0844703306767119
1.50744479408169
2.50634074895766
2.68270650574177
2.16444955014001
1.23171343825235
0.123904802659664
-0.987661433907841
-1.94437499559128
-2.58706393976354
-2.81232791011038
-2.63983572918435
-2.18736380934922
-1.52678727657164
-0.588663982912609
0.709330354747939
2.24083807138582
3.66697298435426
4.69626854875459
5.32096838812123
5.78012988755693
6.3010598353094
6.89724564697838
7.44762227027246
7.94602480397617
8.55635389206866
9.36194524318809
10.1609226602603
10.6058329735859
10.4920621657636
9.85893971226296
8.90268449078826
7.86653082377907
6.9275303443701
6.09313630402051
5.24066583908433
4.29431270660776
3.30660259177732
2.33164319846214
1.27664786282936
-0.0646199929524882
-1.82956996124497
-3.9403345185357
-6.12874352639311
-8.11505424179384
-9.78835730232277
-11.236262316478
-12.6118061056023
-13.959187504
-15.1350404033805
-15.8883235543868
-16.0458774295256
-15.6408167060012
-14.8540117139071
-13.8395970695432
-12.6181364179691
-11.1033005989903
-9.21203256853733
-7.00804548507257
-4.75841229100101
-2.74770685388766
-0.981691146922672
0.820839089497725
2.86452733895905
4.98155057707301
6.76174823467158
7.91947580227724
8.48599760062417
8.69439646631717
8.74495196778333
8.6977390984168
8.55348930903854
8.35856004121993
8.188949142122
8.09279856702148
8.09935578993838
8.20096416885084
8.2405442485942
7.90726734672541
6.99964251905066
5.71126161902795
4.57603913520924
4.0848637069278
4.32201874859916
4.918381499807
5.35212571807036
5.3546563172317
5.05317721230034
4.70879495510001
4.35452816213397
3.74727820257713
2.64611348278301
1.06245902124926
-0.764441827539826
-2.58517665950297
-4.33307640407581
-6.15834102873184
-8.30178495883338
-10.8861483186217
-13.7282996845357
-16.3051258451082
-17.9812249193307
-18.3816861788997
-17.5664571826588
-15.8524897290772
-13.5599521307234
-10.9751263102377
-8.42269033328323
-6.20766231352643
-4.47813084983067
-3.20127399628223
-2.23518948635325
-1.36225697448683
-0.306989895416657
1.15095796126373
3.00155239693033
4.94356955660831
6.57336324818615
7.73257607427002
8.67454296590081
9.7956836610017
11.1826584816771
12.5167470460739
13.4420663405707
13.9123811746157
14.1226330566061
14.1968115859591
14.0268563533743
13.3826166634677
12.1200417491789
10.2852601056657
8.06581706463657
5.70105371418123
3.44917380108703
1.54208359193408
0.0635631482851377
-1.08864612612921
-2.0238431473611
-2.70453404285315
-3.11661572567373
-3.56717473154284
-4.63406988384436
-6.70422775852216
-9.54881828252715
-12.3636637326865
-14.2795595413302
-14.9347806291731
-14.6178761188187
-13.8925686689342
-13.1506338724814
-12.5262377540541
-12.0741682113854
-11.8419018887042
-11.7472785136658
-11.4806093910344
-10.6017373437089
-8.7865562179573
-6.04113447164132
-2.71379577800082
0.70642282830005
3.83926538945502
6.52659006788723
8.76526808679944
10.5734652050365
11.9478590463797
12.930904246704
13.6316598032653
14.1119965938367
14.2989513912715
14.0924489065104
13.5404079080549
12.8301363126335
12.1181016592432
11.4457390647032
10.8138870234918
10.2484960119749
9.77337962434646
9.3809512968861
9.0421656794663
8.71204204348707
8.34795209093567
7.93901019750609
7.42404071975494
6.50504654368497
4.65774477227551
1.52110227116498
-2.68558969138626
-7.23071365090759
-11.3826027388427
-14.7920258372095
-17.4038398778046
-19.1951379744365
-20.1612520422971
-20.4748636367191
-20.446574704711
-20.2581753334108
-19.825789048815
-18.9721877794601
-17.6850905776644
-16.1986876690514
-14.8490047415572
-13.7827397577924
-12.7217560632683
-11.0847610169015
-8.48728393911886
-5.13723866841156
-1.66936014275234
1.3857033662263
3.90141597704691
5.99559768505942
7.73531081713794
9.06228148318259
9.91875920328937
10.3262931262556
10.3124572155113
9.85493508237447
9.0328787265799
8.23737244374222
8.05657990636806
8.79969205273612
10.1673330116234
11.4838885478777
12.2512386989816
12.4590548385416
12.4304253471664
12.4496941177178
12.536031498443
12.5243468536874
12.3175195683072
12.0246872947335
11.8584341198775
11.9347016142988
12.1561663148788
12.2146030782641
11.7074931061209
10.3649389222505
8.24681987960224
5.72084789641194
3.25621907127938
1.23153939268454
-0.184556931221604
-1.1457862005748
-2.16367336493992
-3.88788729410737
-6.65659894978659
-10.1744649167361
-13.7072703559157
-16.7085835321921
-19.2287293636141
-21.600120895104
-23.7910516224745
-25.2947756836368
-25.678787542588
-25.0001537413251
-23.5802096714445
-21.6102546124966
-19.1869697418957
-16.5924122907715
-14.2645184830639
-12.4322166998748
-10.9013365869012
-9.26213918624123
-7.26354311288728
-4.97016585690742
-2.61773265305204
-0.355734356032064
1.91238462678205
4.47536028198614
7.54550621197522
10.9605733217612
14.1680194136393
16.5915997799314
18.0492066667338
18.7981563353033
19.2049438231167
19.4165708416684
19.3058151825611
18.6450080398273
17.3273485338245
15.4848301523553
13.4418706100557
11.5766909962413
10.197039311397
9.42884114523585
9.1211612474823
8.91601200275688
8.53856693781414
8.03209338823645
7.64937153511279
7.53224456911141
7.54336664243448
7.36145345836048
6.66996826722276
5.28356351358814
3.1593739668177
0.314329358872066
-3.20859262694893
-7.2056489167415
-11.1821078677598
-14.5153430409469
-16.8331925936967
-18.1989421782583
-18.9175054913397
-19.2113419922951
-19.0906002149775
-18.4851666843263
-17.4577155523701
-16.2566037726911
-15.1357056925927
-14.134096583977
-13.0538578270004
-11.6308430649771
-9.71270682554096
-7.33306616779209
-4.67950199519321
-1.98020462965269
0.60488316854972
2.98277099802811
5.05505809885114
6.70785101234355
7.87136908161142
8.55059385659288
8.80328873052562
8.70623048539354
8.32698763465699
7.73073908024347
7.04187008713029
6.47014438427628
6.20778241342247
6.29136808666286
6.58873104693913
6.89178104125615
7.00392982996041
6.82332880635259
6.42946600641291
6.04900740675988
5.85075280695967
5.76365404917497
5.52260880548088
4.9035758795042
3.93707403533374
2.90164988394452
2.06377919755367
1.40665540011594
0.67418612901177
-0.308895639108274
-1.46216774004964
-2.6330617497882
-3.83166136296843
-5.16820425868336
-6.61370460904599
-7.95045812160589
-8.97339188671266
-9.63800642579721
-9.95041377008222
-9.79613582383592
-9.01139627706616
-7.63117619844719
-5.94780213315732
-4.26953471404147
-2.70212115427801
-1.21015635887627
0.212527296413411
1.52555833241703
2.72185401087882
3.81181030724384
4.74558561434325
5.43097508362913
5.8161433595376
5.89379770230904
5.6548150861203
5.125644283174
4.45324010176578
3.87476082122253
3.56708033970625
3.55284858321341
3.75340197010313
4.06811757245056
4.35750437486438
4.40982473605687
4.0319332768598
3.20768161103817
2.14356180304728
1.16413700883935
0.558999869656179
0.448635162409365
0.726532306392612
1.16383939822951
1.60667912226737
2.02370716722692
2.34537607665771
2.35319544021513
1.80929430621449
0.670831035238746
-0.879169186075639
-2.63387466403455
-4.57934491707747
-6.8535884229236
-9.45908472533464
-12.0992841908788
-14.3808585350926
-16.0844303664724
-17.122962014419
-17.3612998008346
-16.6976264128503
-15.3032882948244
-13.587416550234
-11.8632490102902
-10.1305722160373
-8.19937104262775
-5.95660571663922
-3.4989393475244
-1.058680220012
1.16895979301551
3.13490149987737
4.90670685336886
6.58738749921697
8.28231466763158
10.0606656858596
11.8573661289177
13.4581969636519
14.6875146361382
15.6018121296957
16.4124698109774
17.2198559394303
17.9066028447261
18.317329827298
18.4744263518953
18.5387978407267
18.5503670202556
18.2909807941857
17.5049413982494
16.2320835769702
14.7651523543553
13.1984236611975
11.1604939710589
8.17135460642774
4.23756081623469
-0.038915542663043
-3.93155640162374
-7.0711656260326
-9.54088202229737
-11.7226416755583
-14.0975629273602
-16.9600569762747
-20.1036385552522
-22.8249366793556
-24.4060117564533
-24.6637015351536
-24.0157536944606
-23.0519995549937
-22.0919337163851
-21.0808089404486
-19.7625246235879
-17.9176263319389
-15.5265322778842
-12.767474916614
-9.86353712084065
-6.95614756742221
-4.1226512687755
-1.42811698844009
1.09417639165708
3.45995586809844
5.7022915729232
7.85839130897768
9.94269505083592
11.8230520396674
13.1547757760065
13.5987649985865
13.1638590700057
12.2575889758024
11.360948564686
10.6717802599668
10.0378083768314
9.19681576049052
8.10372222730454
7.04312067091473
6.39492728192445
6.28632484709088
6.48970940420727
6.61714533069141
6.36603445067383
5.64437154695826
4.59122288986343
3.51901102187402
2.75823865808128
2.45274374829119
2.45658794133454
2.45592814129419
2.23984414631615
1.85345346974334
1.46407562768633
1.12037461888889
0.722892744914493
0.215039910747428
-0.307845578318969
-0.727560941971288
-1.07918056679298
-1.53536390759604
-2.20741327921672
-2.98503022013876
-3.6171115670176
-3.97566212458998
-4.18989136114048
-4.46975596431794
-4.85972693940384
-5.25229944982792
-5.58998464122025
-5.93115762826364
-6.31565030876399
-6.67097761831052
-6.9079025660612
-7.07661977761203
-7.363542438119
-7.87595304419136
-8.43590880549315
-8.67471323925571
-8.38030469756025
-7.68767952369332
-6.89095426084191
-6.15095252039413
-5.4231436434475
-4.56215532408503
-3.43106537077444
-2.00692245390087
-0.462382289218202
0.916601072176023
1.95733997596119
2.71643481965263
3.36853521928573
4.05821465947554
4.88153814661892
5.90594990713782
7.10262986263652
8.27164164335468
9.12152332907337
9.48615340536244
9.46346182457502
9.31844375143281
9.26322677827672
9.35517202777461
9.56639654609968
9.87064075228179
10.2373646612704
10.5617093838032
10.6148192784055
10.1236012575593
9.00930566404767
7.5561471780173
6.22492415366531
5.25229790383331
4.51472820899593
3.79117033430635
3.02684434487125
2.28656782568476
1.56720274052478
0.761189512767363
-0.218252014838352
-1.33610306079131
-2.48274267885966
-3.62005977534833
-4.83884735022784
-6.20923955564073
-7.59819898811497
-8.75199558912963
-9.61546309343855
-10.492676109491
-11.7940228347512
-13.5995997242787
-15.4931333578861
-16.8537788997185
-17.3282050967821
-17.0078742670349
-16.1692481374249
-14.9621389505416
-13.4349200909579
-11.7364492081999
-10.1014283811353
-8.64957337919597
-7.33077083047473
-6.06414196853378
-4.8433266844289
-3.72639697440321
-2.78516600111712
-2.01838665691963
-1.24960534686624
-0.161049291428786
1.4832627143118
3.62765336478724
5.94020814688827
8.03391957134508
9.71659006833434
11.0889814499016
12.4033616528978
13.7938694204593
15.1407714061812
16.1918179740805
16.7704256549431
16.8363108289991
16.3821253100638
15.3418975362605
13.6459404265281
11.369472727576
8.80199681940309
6.33676949463055
4.26737086281663
2.67245371129219
1.46677613033411
0.530292812567894
-0.209729838983629
-0.777604125773046
-1.19040705374433
-1.49795506087528
-1.78784519080826
-2.14211742824747
-2.57434379582393
-2.99827761942409
-3.26390653716303
-3.25499008374505
-2.97960744568286
-2.57366896402977
-2.22597931632776
-2.09468565729029
-2.23781882210742
-2.57250572581128
-2.93522210995782
-3.22987068161189
-3.48446958846243
-3.73443973811452
-3.91951809959232
-3.95184864912419
-3.83126924998218
-3.64761001791049
-3.51454186674246
-3.5124667890739
-3.62267112712148
-3.69984084637703
-3.58231925091692
-3.25207363391646
-2.83228278754605
-2.41746002552461
-1.96071560336667
-1.36226489890866
-0.656400407029619
-0.0736201081927668
0.137435212301957
-0.0177332422713998
-0.220146732830825
-0.104590609905542
0.415388241696544
1.1115603895634
1.69562433488315
2.05698409265143
2.26683327594444
2.42246924847115
2.53217178472141
2.53985937402754
2.41650037497709
2.1749507384685
1.7946990438253
1.21771300572463
0.490442171475783
-0.144016733858398
-0.402076363730268
-0.230787677247428
0.117997132795557
0.296933514536277
0.140353386191384
-0.241450467474596
-0.604266905810035
-0.797758694506237
-0.884530416923007
-1.07351478433251
-1.53042290214883
-2.20278933956165
-2.82113444420177
-3.13660027445946
-3.18627582845728
-3.25111990175309
-3.49425429461201
-3.69632211834743
-3.42718055325001
-2.47407081264776
-1.05382779620376
0.391142372662053
1.54465480366259
2.3361398491826
2.7841594637253
2.85425395949236
2.52827265951402
1.93056778836799
1.27404076745982
0.683867348989834
0.148502524986809
-0.358957525500309
-0.786827235643752
-1.04125617704505
-1.05728451948329
-0.825694291499271
-0.389331852370979
0.185342467193671
0.840886706029915
1.50117778979199
2.01876440339064
2.23917590216658
2.16577199054461
1.99834013947658
1.95134733545655
2.05963222223503
2.18364438038681
2.16795118686862
1.9774276226004
1.71691611911388
1.54184548710047
1.52994086000502
1.62161982253394
1.68666130542292
1.65474616061032
1.58566390313801
1.60900717251933
1.78877028054953
2.06015885686755
2.3127864028618
2.5047634497395
2.65674080747796
2.76710641796652
2.80081358841943
2.75647836960633
2.68118400258535
2.60832645040043
2.52729804303508
2.42247188909103
2.30274900217227
2.18758794783481
2.10342641760734
2.10642308687119
2.26365775147272
2.55530960648173
2.79391562816851
2.70010279685382
2.09171540025902
0.95964875688463
-0.641336316138354
-2.66476783279813
-4.97089155150249
-7.25475280644751
-9.18934391286036
-10.6202921345126
-11.5798158812744
-12.1693234981665
-12.4815301679379
-12.5800190975566
-12.4837278189588
-12.1793487119873
-11.6645211459136
-10.9485252690937
-10.0069411838845
-8.7840482029663
-7.26003541414207
-5.48901215612292
-3.56656737396029
-1.59273566108361
0.320806686044779
2.04372367125616
3.48118268523175
4.65496702354641
5.69522687024548
6.70368704219812
7.6304071818138
8.33218880916483
8.75210136956101
8.98011444041113
9.12405809607608
9.19471634250017
9.14373911531215
8.92727112567789
8.48624488735024
7.75457072129105
6.76555507141752
5.70573824154106
4.80447452807476
4.18118052155476
3.80542962835213
3.56112687499605
3.32069269011477
2.98049987422713
2.47079289493908
1.77148451573282
0.928711921068352
0.0351223160336207
-0.816957821106015
-1.55958521154455
-2.15637175418915
-2.62404119566564
-3.0270160867907
-3.4154618279762
-3.78711671900859
-4.12063355830667
-4.40033297331771
-4.59949294411881
-4.69676709615899
-4.71042436680472
-4.65076256138706
-4.44671765988473
-4.00146836989634
-3.33116084151497
-2.58841707490541
-1.94763579680965
-1.51235062994042
-1.30377516614791
-1.25322190294131
-1.20040219158759
-0.984544474387063
-0.592991269434053
-0.19921657577879
-0.0140385845445077
-0.0820488272330744
-0.229924435339301
-0.22940093532605
-0.0104469556412207
0.301099791385154
0.544128653143636
0.67805548686916
0.774614248780535
0.914024612044537
1.13765388161673
1.47285449111647
1.92967722590645
2.43825615963863
2.82797078100516
2.93818279927055
2.78050606768112
2.56202055102864
2.51560008571873
2.71936294848606
3.09107189626142
3.51349328165528
3.92356153719255
4.30293431979042
4.6209710688526
4.79290008129035
4.70636576249616
4.32532266963028
3.77388264750329
3.28140689744803
3.01667081288432
2.97039121939836
2.98647827302501
2.87971735013261
2.50402774062638
1.7194644961351
0.360536192586754
-1.65552904048452
-4.13994380091855
-6.62676248776178
-8.6519434300063
-10.0342985874726
-10.8581751215858
-11.2600374883503
-11.3163110440307
-11.0832752459772
-10.63220985998
-10.0224650161956
-9.27431248925696
-8.37357029603966
-7.31104771953422
-6.15233530693794
-5.05956681588464
-4.17592997417895
-3.45595443490271
-2.65737895754027
-1.55427509999359
-0.150590345362629
1.35056529628806
2.76836811282089
4.06313470418837
5.22622932019039
6.16270596578597
6.77716672028372
7.12448762803895
7.38967522858223
7.7319876459609
8.15528893742402
8.44530012696143
8.22723678142125
7.24183617536999
5.65660152580586
4.01073839534288
2.7812346679854
2.05943803664763
1.64898802437696
1.34794002457787
1.08411131763972
0.882958675125177
0.781567830710887
0.741289559485482
0.632470217338631
0.345669812228983
-0.0905587968582961
-0.538499403931238
-0.869256433318473
-1.01542906128731
-0.951189231109346
-0.685938859569061
-0.28055960724698
0.160111498743144
0.531776085382685
0.790581281943503
0.979473757979743
1.17097989047857
1.36782467803681
1.48234033182329
1.42323936089903
1.17894945541755
0.815538750296521
0.41739142835288
0.0226059359672866
-0.397840780699606
-0.874329007863969
-1.35587482959831
-1.75221167608215
-2.05725549972073
-2.33579745243088
-2.55046520047556
-2.48157409235627
-1.88033551418042
-0.692832321090066
0.846992477348298
2.29647589698686
3.21216861325598
3.38422765686098
2.91284715175505
2.05296921147263
1.01617930557286
-0.0736472790625004
-1.13777685661773
-2.14863320997149
-3.13241294350488
-4.09779253769243
-4.99196654045349
-5.7585045363191
-6.38675721846674
-6.87124054913606
-7.17576166994606
-7.28174626300684
-7.24422230317171
-7.16127986215054
-7.0829582681303
-6.95895356794293
-6.67902721514211
-6.15048048981495
-5.32130425960692
-4.17179124596329
-2.76812078953528
-1.31916331107009
-0.0687869332583392
0.923282301669239
1.83234286749631
2.85926505093361
4.00602427064716
5.07948180595917
5.89282332171636
6.44986935089017
6.92650940150085
7.45877154704265
7.97155539274733
8.26639036783902
8.28028339652739
8.21150221315921
8.36289284458441
8.85525991607098
9.48461924051847
9.88295758829953
9.86884486198499
9.62887650194275
9.49217300103818
9.5318024173598
9.44496808102837
8.81120506358445
7.42167588386031
5.39337116539768
3.02987186412429
0.576385460286911
-1.8945209804441
-4.34960407578752
-6.60781215392119
-8.37766501284721
-9.49646143841179
-10.1089926814624
-10.6112424172298
-11.3648264729383
-12.353827996648
-13.1222191054315
-13.1740793271256
-12.4653941571304
-11.410270524783
-10.4192770287841
-9.56422410706799
-8.68551447611755
-7.65227180697075
-6.45339217742117
-5.16121163323309
-3.89996738708247
-2.79684295839134
-1.89403944471617
-1.11009637103667
-0.299761637202065
0.655027113828796
1.79390903483967
3.0796368062129
4.44779551775428
5.86054985604669
7.26517462661511
8.45382267178692
9.02773349422762
8.64498282005417
7.37418497788103
5.74478146279984
4.38344729151262
3.60738031456147
3.35018708306281
3.36780578204833
3.4458834841795
3.48951182139527
3.51332369874388
3.53339929969855
3.45764373473414
3.18185467277337
2.84594613984738
2.84082493951437
3.37250201554465
4.05222686420637
4.11074909774243
3.11679491704334
1.42815035551017
-0.130650034457524
-1.01744714900278
-1.36534123100879
-1.6807456700289
-2.28161520684451
-3.10267419530406
-3.94039843123841
-4.70118984640511
-5.38088719092713
-5.95099294986136
-6.36909980180353
-6.6432961772494
-6.80207537724164
-6.81684594347776
-6.60825222854821
-6.1263683583427
-5.39192109448204
-4.45663742478207
-3.3486931978935
-2.08375889922867
-0.734543652616274
0.54712245608384
1.61793830206783
2.44239728701582
3.08620975390606
3.64252209082237
4.17663785134628
4.68158837343147
5.06051357931348
5.2216966483004
5.22469632596535
5.26056211293445
5.43984359758141
5.64892702785969
5.6614259283243
5.37644159276004
4.91855411551834
4.47774273407314
4.04074309966921
3.34353367838686
2.18229188287623
0.748605489852821
-0.462163244942017
-1.10193133427002
-1.25006691479013
-1.244757664215
-1.34489571081526
-1.59610125496228
-1.92891189459185
-2.28672394574883
-2.66124472921867
-3.0673018093907
-3.52078962209229
-4.02447676965204
-4.54265930498807
-4.99405544355469
-5.30371933906095
-5.46577437250338
-5.52590132903175
-5.50721199652318
-5.38927921255385
-5.14415055481453
-4.74304234073505
-4.14810671025005
-3.3560798453926
-2.42283410338745
-1.37860492390442
-0.156998816007199
1.29284882893066
2.8174346662063
4.06307280760125
4.71900082664009
4.75266141965177
4.40329479123299
3.96673527601013
3.6031520279355
3.32431789983408
3.09682757315215
2.92553539449703
2.88250364513555
3.08238621082247
3.56755609977796
4.16739775853893
4.52472115132604
4.33683850811935
3.58973674643268
2.56518753573431
1.62987128671768
0.970067445636254
0.46338411248773
-0.191438413755574
-1.18548281869288
-2.4257000080113
-3.60512832231136
-4.38696135141308
-4.57435545413488
-4.24697377702892
-3.76467720342142
-3.51725410337779
-3.59608007999792
-3.75625155107871
-3.71874476327046
-3.45479111715518
-3.16875314527931
-3.06603313290648
-3.16294009411023
-3.29378333017422
-3.27969778180378
-3.0723153113657
-2.7200628898689
-2.23757535444653
-1.58153211153912
-0.75519900017382
0.132005273789691
0.939404344273637
1.60455536551967
2.17516495617044
2.75884909202722
3.43113578827187
4.13411644155075
4.62706475484734
4.58549179338255
3.86475678520025
2.72936964050424
1.75155413163078
1.37929593501484
1.60221895525947
2.07470195168539
2.50364836375597
2.8447399841823
3.19226070403577
3.60279014110421
4.02693162718412
4.33347509394929
4.387039896504
4.14211183390511
3.67382909951665
3.12716491310006
2.6645880307188
2.43326042886195
2.48717517384773
2.70574133230002
2.8608688190327
2.82543328171492
2.68188598583131
2.56546542565285
2.41369338293784
1.95341488158929
0.991334885414997
-0.321814914330763
-1.58749587143802
-2.50957977360944
-3.08547158680439
-3.4733757745204
-3.79186582505019
-4.10001179430496
-4.47185885385104
-4.97719648166692
-5.60055024357956
-6.25222654267684
-6.87139515784461
-7.46846914667932
-8.03616097970919
-8.45685589054805
-8.57080697091096
-8.36000097990345
-8.00872737440345
-7.7314352397713
-7.57171403978917
-7.41287246130722
-7.13537247979938
-6.6812807669223
-5.99388027255955
-5.01562711156565
-3.78859809657468
-2.47041567799995
-1.17984675556748
0.124308692328889
1.5263096262052
2.92417977579787
4.019682261852
4.61608967325767
4.87551413297121
5.16170848153653
5.63049005928514
6.11731448626164
6.47273447536763
6.8462936949627
7.4999380214513
8.41540511213343
9.23381787594583
9.60531148270186
9.52468235525034
9.28022500860621
9.0979217772081
8.89987464322426
8.45489780508269
7.72075196579966
6.94489995776323
6.41508318388669
6.1725965022949
5.97585097801645
5.49221808139247
4.53658403753479
3.19557728832683
1.74865663982899
0.446729555285853
-0.64738982573865
-1.61527448238159
-2.5138049376445
-3.28631909191799
-3.87639091422379
-4.42780090716152
-5.27471007087206
-6.60758834869507
-8.15927483787769
-9.35732975420023
-9.83996342545767
-9.7450700039603
-9.47927119063474
-9.31224355581704
-9.23032997784257
-9.06366232384046
-8.65301839413905
-7.92920480209341
-6.923958697461
-5.75460058170942
-4.58181363742554
-3.51723466864691
-2.53204449545846
-1.50072415135732
-0.38703150436894
0.652155224447824
1.40657577941787
1.82699181438149
2.04900725954222
2.22681193426605
2.38568439924833
2.43482134445406
2.32340231643466
2.19679357950175
2.36277417468504
3.03966631750843
4.12179400791714
5.20501593323326
5.85012167392262
5.87016569207844
5.43638332933795
4.91504406031162
4.56601679784507
4.40236145502447
4.33015007672808
4.32234722705294
4.37995450031898
4.3984794018795
4.18708996320664
3.61819592823454
2.71380083944984
1.62410157016279
0.57774272684681
-0.191647532588198
-0.570948769995204
-0.665890712683834
-0.745258952220868
-1.02624802895191
-1.47481309814075
-1.83920980136139
-1.92380712323052
-1.81025109423222
-1.75419921473708
-1.88876009962922
-2.11586591533931
-2.29580399622382
-2.44872677536954
-2.70505298140503
-3.09489057417165
-3.46568969063377
-3.64545905686683
-3.64620912661639
-3.63018399097487
-3.68088223801472
-3.71403321306276
-3.65455602227781
-3.58414853973396
-3.61871343588025
-3.7177017429505
-3.72198019582171
-3.54641866627842
-3.247737625769
-2.91023111478607
-2.53076738131701
-2.03500989608719
-1.37860840096693
-0.612020662635232
0.148715529079829
0.793187116848573
1.25260087989157
1.50937401365259
1.62260048194777
1.72002858607827
1.90339703955954
2.17138817347147
2.4799228139
2.84454026809488
3.31992732939769
3.89696048640493
4.47396857258124
4.9305552587142
5.21698243165455
5.3867748773973
5.53721302291607
5.6920373273066
5.76131867442276
5.65220546286458
5.38907381475656
5.07634466017641
4.77180086903222
4.44403280125046
4.02318363243508
3.45293746344512
2.74113030609047
2.02047225655722
1.52375463691549
1.41794349372925
1.64303016245493
1.95590773084457
2.1620245012531
2.27770066137636
2.41922996814623
2.55413353428606
2.45845758974839
1.96011675266385
1.13231367891568
0.162417443210621
-0.900017361547501
-2.14757603462817
-3.58533494221307
-4.99284592859279
-6.03402388906817
-6.4775128806306
-6.33635625446418
-5.8320112818801
-5.22910025067058
-4.72682931425725
-4.50917982780717
-4.7841196808746
-5.64733941765116
-6.93582610244492
-8.31253706481314
-9.49477836793927
-10.3588549599662
-10.867551284804
-10.9879429383555
-10.7215596333953
-10.1936962889826
-9.64661460648306
-9.26560711348229
-8.99120792179214
-8.54757513217997
-7.68467949834101
-6.39389448715513
-4.91610758890574
-3.55683124151765
-2.429408654959
-1.31428134293258
0.190559232096489
2.30591824950011
4.84828583234523
7.38112034833725
9.55989659094738
11.3066426009247
12.6850350183758
13.676793317099
14.1308542050624
13.9330583509719
13.1803215564317
12.1419776579249
11.0567794421157
9.99476916025776
8.89130742219065
7.67575746021913
6.39840153283906
5.2679687061011
4.50612867205309
4.1123026626596
3.84439344523847
3.50407471269805
3.17106723017353
3.06611631127147
3.22507384545215
3.38609795534348
3.18805699602896
2.46555808215869
1.41049879444059
0.481678490126791
0.0959252400900495
0.328309416008393
0.873826558855913
1.28422863203166
1.27519877100858
0.89847886899571
0.47337331599959
0.309266622365492
0.434298891742169
0.579244380870598
0.421901104236245
-0.154331311799061
-1.00621773141513
-1.88664818117937
-2.65722543450011
-3.38491283111515
-4.2543626952314
-5.38049112458014
-6.67998895846297
-7.90465982889235
-8.81868350324882
-9.38044522818186
-9.74544110562193
-10.0599833060006
-10.2778342290735
-10.2383577015776
-9.89891730656016
-9.39395782804587
-8.85123692967827
-8.24633681123882
-7.50033372093605
-6.66961419476386
-5.95383399295663
-5.48958737247661
-5.17692191243223
-4.76078664844372
-4.07724157723367
-3.16988343651564
-2.17682372123164
-1.19644766648459
-0.291605769742304
0.482986356568705
1.14583039964815
1.82419424443382
2.63724108122568
3.55339957726233
4.41194060880296
5.08393723411217
5.58583753943265
6.03157160782547
6.48900211563705
6.90112290253785
7.1515313745032
7.18901521339115
7.07758220828766
6.94707561999271
6.91645497931272
7.04929374382216
7.35672952580505
7.83243018400589
8.46118284640391
9.15461622069602
9.69105919550347
9.79507916812511
9.32263006440166
8.34480666958995
7.04419963549978
5.58148923913977
4.08869402756358
2.74125559703735
1.7579430917189
1.26009027882026
1.08978494501465
0.816202009135005
0.0472039563718008
-1.20773790589733
-2.54199305427953
-3.54962593146891
-4.1654667229621
-4.60561523652118
-5.07716098423958
-5.62504917955446
-6.20999154641116
-6.82373708023808
-7.47875828086898
-8.13090829048419
-8.68446690742883
-9.07660331028202
-9.30228196839271
-9.36319662363507
-9.27308163763052
-9.11831900598185
-9.00921406930577
-8.92643787908773
-8.68975317045706
-8.12114201797495
-7.1900276501061
-5.98943927501859
-4.64855168601339
-3.29851504046428
-2.03642273833
-0.837892465270628
0.470481398544034
2.06929537261147
3.93629360728143
5.80319602448649
7.35764062371532
8.46937639435586
9.17642296157535
9.49713670256376
9.37933696735762
8.86581631580045
8.20816189720081
7.74057397526206
7.65773708024456
7.91247897445258
8.26564086466753
8.4109396962508
8.10380859835164
7.23947931161465
5.87937662041897
4.26321993777434
2.75858730180303
1.67297828320457
1.05777413456886
0.736599219511763
0.512168783514253
0.270975607755991
-0.0802281073792354
-0.641838513684693
-1.43222114083212
-2.33638384549537
-3.19796715361709
-3.96914220997718
-4.76579012874079
-5.7473278032387
-6.90577854875648
-7.99243251961287
-8.69778454067795
-8.89105282703967
-8.65651833686248
-8.14586498715617
-7.45750797097536
-6.63065471175182
-5.69732926615299
-4.73595618002934
-3.87144178790642
-3.19049234092141
-2.66799275920132
-2.21426676064068
-1.76599644011365
-1.28957576577438
-0.748025446054991
-0.136797930307359
0.46966884339284
0.960474105420833
1.27896602621684
1.46695387005624
1.63392739106628
1.86786008522585
2.15178587681928
2.38773546758508
2.51961400107379
2.59814993763627
2.70523170714738
2.85082664301412
2.96594901606177
2.97111541237171
2.83936411583736
2.61317222335116
2.37189591563045
2.17679961441313
2.03941933031696
1.93168659933449
1.82162587850056
1.70852677835459
1.62189408563327
1.57281914106244
1.52337550195951
1.43856286082796
1.35414881532239
1.34613782469553
1.44055775723619
1.59957234757365
1.78026603751084
1.94702160970319
2.03997404440542
2.00747505944852
1.88752108909792
1.81096959533826
1.90226463851244
2.18381401056043
2.56982563091118
2.94438662510285
3.2477971627785
3.47914616619794
3.6239144999296
3.64070012094186
3.55867642333447
3.52350222739841
3.66039672073691
3.90747501884434
4.05253740027568
3.93011770367681
3.52264168265828
2.85825177274968
1.87479080377062
0.46650240518628
-1.31006039760373
-3.14376638445121
-4.66565282822191
-5.72772350119129
-6.43271148388495
-6.92956383006888
-7.275637495933
-7.49160230769656
-7.64711784888607
-7.82909378584635
-8.03824491890571
-8.15863830868965
-8.08604108912591
-7.91844879086088
-7.95719429669231
-8.41536686845525
-9.12203343278063
-9.60221507375415
-9.47666084096408
-8.73983202701051
-7.66464020121776
-6.52338721850685
-5.43070560979886
-4.39944933130424
-3.48101833851338
-2.79880904544927
-2.4055142529453
-2.12683940790119
-1.62106627961813
-0.637984373830872
0.793664835983265
2.44248513020589
4.11694836383652
5.81383647175507
7.60865374456904
9.40157215565324
10.8426312145975
11.591722585853
11.6373762295327
11.2934515514477
10.8978408257985
10.5699683768335
10.2309505345072
9.77539579252474
9.19452697115942
8.55276566547895
7.87569730815441
7.11204117292619
6.23314212961615
5.31471725635688
4.4624686472177
3.70376384331855
3.02109550562441
2.44422689583871
2.01544025011748
1.67733133793311
1.27343140580348
0.671275287933776
-0.142902989959685
-1.06791558624468
-1.95091721494598
-2.6686963045495
-3.18216367111715
-3.51705453035367
-3.69976845939871
-3.73203272183951
-3.62502559709731
-3.43990320270061
-3.29107162697145
-3.3012277777569
-3.52014005349812
-3.86611122643067
-4.16869334574783
-4.30593382968697
-4.31399362082184
-4.35036207327814
-4.52979160461286
-4.79211514927896
-4.94989019606046
-4.87417095928269
-4.61091829082303
-4.31165347708565
-4.0942330581157
-3.98838721150659
-3.95734408288308
-3.91638592388358
-3.74944405737614
-3.35411839877318
-2.69304797465112
-1.82382102917373
-0.904583431567118
-0.152274350787937
0.264870766950906
0.336007920403325
0.213473011521582
0.099506059933702
0.108856639331738
0.220772484324993
0.351347665094545
0.453331786092908
0.524027915810515
0.547244240798979
0.50008986895078
0.419629180873096
0.389333546642244
0.445015016358049
0.556853992098117
0.710629823162324
0.943884827679581
1.29395114040011
1.75467346881506
2.27377586511148
2.75313615024203
3.07843400098673
3.20269143418215
3.19900303770571
3.20280939660319
3.29459933116002
3.43517680201519
3.51645665211056
3.49001771760161
3.43202516928622
3.44754595599461
3.53750605633702
3.62045052789846
3.65960453224094
3.68881175133713
3.7262592325867
3.7454758016202
3.73341783416583
3.70808816502015
3.67569848066792
3.62855570752002
3.58546174380344
3.58261518954671
3.62118845001294
3.65610351797019
3.62410618422182
3.44589146129687
3.00330119644168
2.14953694895986
0.787582336863538
-1.0082159346265
-2.94116031158857
-4.63741963077105
-5.91054813006254
-6.8680065932636
-7.73743529125766
-8.62607577232268
-9.46117209157212
-10.1041023027464
-10.4799584926122
-10.6168303100132
-10.5862841872245
-10.4188742916586
-10.0884168170864
-9.5574177742426
-8.79761225602549
-7.78066117636599
-6.50301385417871
-5.02629403324368
-3.46233739488991
-1.91620374739445
-0.451121336106198
0.90737692763123
2.14168091462527
3.21100475150164
4.06126382025409
4.66889580435418
5.04681057184524
5.20922577052744
5.18174033283854
5.05302367009165
4.96074502945059
5.02060836683143
5.31711061954415
5.9209985481978
6.79597295557507
7.69715934559182
8.30726990399888
8.5169884836249
8.46892754187651
8.30111222955444
7.9581287231696
7.30209035366274
6.32615727076591
5.19939452211386
4.13580096424372
3.25145687764806
2.52173686710495
1.83077040690419
1.04687091593447
0.0879960696491638
-1.02022345892983
-2.12932442623196
-3.04825687706962
-3.66465840468642
-3.9864821741223
-4.09517412548123
-4.09486678918679
-4.07949708302402
-4.10370378293712
-4.19123589542619
-4.3669363509618
-4.62045454749885
-4.82588833358359
-4.78556365310901
-4.41885697307817
-3.86461944987139
-3.34403835858663
-2.95357307452316
-2.63959769068924
-2.35785425039575
-2.22151104527883
-2.48601826747268
-3.35810564576885
-4.75266756532685
-6.22156942240388
-7.18584068578723
-7.31081437523117
-6.69574836647852
-5.72315312826731
-4.73196791318914
-3.81472964037075
-2.87789643007837
-1.82880930074375
-0.676380048960031
0.48728238030325
1.52466145233031
2.29188501896259
2.72259358149221
2.90023670081982
3.016448019998
3.23336236680092
3.56805308948292
3.90002270022403
4.12446357261356
4.32295801513982
4.71807658973481
5.39771210918024
6.15482765136093
6.68970858533739
6.91720721261408
6.98617476710818
7.04787176688165
7.10857617428722
7.08981953045422
6.93482175615238
6.63050682468041
6.18400674449642
5.62836064792508
5.05346378585079
4.60423623400376
4.41593735403171
4.53226550327818
4.87640052491717
5.2784199905685
5.52448826891578
5.44527362709626
5.04494902856203
4.54289259191961
4.20556487597605
4.08063864676134
3.91497628472522
3.38336185069182
2.39754549372726
1.10473104960096
-0.466626556272057
-2.60606406393271
-5.5495437106239
-8.96031457474295
-12.0562868955158
-14.3237734089117
-15.8873217575919
-17.10370583575
-18.0371002410384
-18.4940177635936
-18.4049293467504
-17.971794548055
-17.4689464366446
-17.0013713202127
-16.4550180837903
-15.6292862944129
-14.3950588591721
-12.7425667969799
-10.7432959218767
-8.52919474827408
-6.27036293838029
-4.0750262960776
-1.90444116250481
0.337775356838714
2.62710089718394
4.80437159046261
6.74712991550055
8.46502893245358
9.98261514966834
11.2008797114322
11.9637255529382
12.2670887731591
12.3425556007312
12.4893475241878
12.8373349077722
13.2899501544121
13.6325585210406
13.6225853365143
13.0624038051306
11.9768204075321
10.743275112549
9.86758452598618
9.52493048532531
9.39302066977279
8.98156626239846
8.06960029616894
6.83190018669691
5.64227282530396
4.77786537290047
4.23630135118708
3.79582925311044
3.25914764120062
2.61859672450226
1.97231030191197
1.3427586985894
0.646391338776829
-0.189194675912927
-1.16343484681331
-2.25694107041712
-3.44432850712063
-4.59748635753299
-5.46187446944178
-5.84122672878863
-5.801585248785
-5.62507648685945
-5.56631702507976
-5.70612138873093
-6.0166775733827
-6.46646754510307
-7.01335475940629
-7.54529844883038
-7.89573700177681
-7.96219558573144
-7.83812080919361
-7.79154558030919
-8.01850904443832
-8.4046502665814
-8.63222315569112
-8.55334948037521
-8.3448363755768
-8.22892230563273
-8.13222492116836
-7.72044311781251
-6.75260178291914
-5.32814541777438
-3.75537603769419
-2.22403660207825
-0.69712853056311
0.857814845288364
2.25197027185033
3.20625022020685
3.65982215394312
3.85713929409768
4.14780385945198
4.74821816464539
5.63273044774785
6.55743580476468
7.20030383702741
7.35707221848106
7.04500727604845
6.43429867897958
5.69971339517106
4.9288393555742
4.12914372095714
3.30121147419438
2.51806825312103
1.92883311331004
1.65015162826729
1.6436988929964
1.73136066176527
1.7475980997217
1.65569380273811
1.50901319510618
1.34160461558267
1.13918907879147
0.906302694398488
0.721743180375186
0.71206797384876
0.97302630715571
1.49522269379358
2.13420671573182
2.66935404412133
2.94699340348337
2.97918498834673
2.8731806541037
2.6847941828113
2.40283181857146
2.05706289424355
1.74823561097804
1.55743078862604
1.48812435396505
1.48426138604184
1.4364634634477
1.20198425566861
0.712264993585286
0.0590263100663504
-0.581707277815182
-1.09149922732533
-1.44531568285042
-1.67181160874743
-1.85090002148015
-2.11453279591917
-2.57196576454498
-3.22502727367121
-3.99332947138956
-4.82501596075363
-5.7382374770625
-6.7157384715167
-7.58812634651755
-8.10784969161986
-8.17931143262669
-7.96134116957438
-7.69610518280633
-7.47313827509528
-7.18592491964314
-6.66917087990944
-5.85234485663543
-4.82536108345487
-3.77286217002984
-2.81055792344049
-1.8936966868253
-0.915149085153948
0.164208101031139
1.35592882927569
2.73789097635161
4.35217294414809
5.99644251547896
7.24941515318206
7.78733935765425
7.6519315175866
7.18055394789549
6.6916426807058
6.25656703229106
5.75903685368644
5.11038902831162
4.34157715859648
3.51340915186324
2.63721419849709
1.71193036060107
0.774757898343474
-0.106376564533927
-0.837825794149608
-1.2841649755072
-1.30564009112356
-0.862108889098145
-0.0881288042763904
0.749574649474895
1.41429148633502
1.87525907730666
2.31473441477728
2.90311167880025
3.57027009319075
4.05340483363906
4.15642066684634
3.90578756306976
3.47686516946105
3.03437098827822
2.63465260533281
2.23584946703441
1.80192253215576
1.39458108775579
1.1202328486093
0.973753851055642
0.780398631815705
0.32827138287427
-0.442833843892417
-1.39016004728021
-2.30819533778643
-3.11952386892497
-3.90826765912439
-4.76670269577694
-5.66355313044022
-6.48747544341734
-7.1527163296874
-7.61741815688691
-7.86256081036496
-7.90605392882616
-7.78859681907784
-7.50343834127968
-6.97836825753404
-6.16003093001743
-5.10402718393308
-3.98407020942686
-3.01769468744043
-2.33494611469027
-1.86743931896093
-1.38551818941849
-0.694918367221626
0.187070124300338
1.04554619957589
1.65106411454643
1.95967498578472
2.16210883984397
2.50203679935008
3.01533682844789
3.48964547029821
3.70179981970514
3.64262087476665
3.50205253269893
3.50156575851349
3.73524604924433
4.09175257840309
4.33476597398212
4.32711119359092
4.15308470410495
3.97795625216288
3.86625653494785
3.80030632530267
3.76814831147254
3.73542860205316
3.61911492434055
3.38347045470989
3.1001831903094
2.85080003895425
2.62225167798106
2.33416836091047
1.92444523899739
1.39677297753608
0.826865565816586
0.319876537532974
-0.083549316935383
-0.464589517037355
-0.95921990411127
-1.62260629191371
-2.36653531826107
-3.03176798608869
-3.52445316117624
-3.88408509916905
-4.20815698364603
-4.51387822586715
-4.70258321402784
-4.65963468354266
-4.34985054105911
-3.8182912821853
-3.1539497358427
-2.46149953246974
-1.8144419140517
-1.21682985162504
-0.640580896827402
-0.0975340216029398
0.36036108221462
0.709127950104407
0.984475020019042
1.22949463685548
1.4205950852416
1.46913515318747
1.32943337328345
1.10839222083888
1.02114112437663
1.2022531928115
1.57594137171933
1.92452322902934
2.0650204765147
1.95809792976866
1.68061788510299
1.32718478803404
0.951935717687352
0.584092908666718
0.240866120293897
-0.100578068989388
-0.485825469045352
-0.892670108924869
-1.2122775828775
-1.37649932493346
-1.45828578716229
-1.59302320515641
-1.84070839475264
-2.15775617677637
-2.44010404381587
-2.56117094116925
-2.45397195984747
-2.20776671300558
-2.00515673960595
-1.91111005199106
-1.78830565020821
-1.46459541300014
-0.940441435187111
-0.40901963980469
-0.102603698689748
-0.119240035448705
-0.363294647838462
-0.633439857903394
-0.758234912694237
-0.651560824215788
-0.291001516195643
0.294157010654312
1.01073497771296
1.71134749443753
2.2455635601744
2.54705784144709
2.70408458369258
2.90035529556488
3.22780672149898
3.58403989190501
3.79150925791675
3.76872044986411
3.54978477908523
3.21205885744963
2.84995448957905
2.56268497301271
2.39075561352651
2.27654574311885
2.12285362764692
1.87370163082402
1.52616948793082
1.11031350568181
0.697442387237345
0.393569823120733
0.262217600028333
0.241043308330866
0.176011606164428
-0.0219131256541882
-0.263959206187657
-0.366684990455297
-0.244909151708123
0.0185397259827727
0.278360253442922
0.441486951050299
0.503772891301529
0.556887969070253
0.72426716892183
0.975292123547308
1.02750069883385
0.568027624024089
-0.423010470238299
-1.67840172781528
-2.95769290851516
-4.23131997713037
-5.55169623520928
-6.87011012548347
-8.02673144193896
-8.84115785539166
-9.16715719134516
-8.92202129307224
-8.15043584161105
-7.07576847460303
-6.0177983692252
-5.17943898331927
-4.51472091105265
-3.85480719778413
-3.14732612259643
-2.50223763838599
-2.00276596878467
-1.5522386615544
-0.950503909941131
-0.0898219898713328
0.944431490159438
1.93863856150447
2.70398442669872
3.19666082977037
3.51271237382584
3.76452640370963
3.95577095288624
3.96990957790847
3.68971543992941
3.16961891195256
2.70964931962882
2.69491148452968
3.27598822121736
4.2010545331573
5.01382974774062
5.44235969076443
5.59189294500693
5.77224823086864
6.1693674414325
6.70134814368994
7.15935610593815
7.41080158392523
7.4406819362629
7.28934688198558
7.03504667051924
6.76540623535884
6.45999768043365
5.95745640340599
5.15018642525771
4.16703364244801
3.25355866306551
2.50048713267067
1.78694896652982
0.973841094864903
0.0652565882912446
-0.828302914151875
-1.62502900873624
-2.34370678390864
-3.0551821521546
-3.76786457935612
-4.36591921660336
-4.6810759428781
-4.6400794659838
-4.35804789406356
-4.12740058020693
-4.3175983511318
-5.1872977355293
-6.6832904008408
-8.42381579559009
-9.95275595028706
-11.0412262140475
-11.7344006751736
-12.1488569291784
-12.3101748596027
-12.1954026232959
-11.8186062548931
-11.174802927786
-10.1595734573304
-8.67235038143437
-6.78997309789762
-4.72773566673533
-2.6459512387649
-0.620588469722532
1.22347701609255
2.72784009213457
3.87674963173474
4.80780936107153
5.60606072927273
6.20697264326924
6.54454450023857
6.70625746261195
6.89691261538227
7.27861113442478
7.84245218963038
8.41704286324917
8.83190312391217
9.09058038422544
9.33618022585495
9.62062907827871
9.75982145809051
9.45321436594715
8.51298282148555
6.97406349759843
5.07528350233797
3.21074751041421
1.82783793295358
1.20184871718757
1.21488394288272
1.40883221202069
1.33782405728101
0.859850376531932
0.0710739138588693
-0.923032681305613
-2.03819685507321
-3.0975835504509
-3.88727673041614
-4.35247379173976
-4.61506024956286
-4.78027780098527
-4.82869531622686
-4.71864322269181
-4.51603007414539
-4.38137340139404
-4.43001887779863
-4.59982721275703
-4.68547079494762
-4.54768426989414
-4.25120038236516
-3.93168559937494
-3.57740151930367
-3.04812419575349
-2.30474582322286
-1.53264651762299
-1.0091801972214
-0.880527594085908
-1.06815981914453
-1.34893880199925
-1.49436531385902
-1.35005997200198
-0.850111466966236
-0.0395959906182959
0.891442613685264
1.66125607824009
2.06394956644833
2.10928452096686
1.9936779463488
1.93335140676076
2.00185367035858
2.09610701316994
2.06848268451845
1.91239838405507
1.7932168217841
1.86808440217245
2.10225011647379
2.3040094561565
2.34238372677576
2.30432348620094
2.40204632318185
2.70847871623406
3.03493698858008
3.13701317446119
2.99558037776412
2.79059314213678
2.63916076011022
2.50982336361015
2.3921963783109
2.38413963198923
2.54558581347785
2.76075530647282
2.80391289219537
2.51455442086008
1.91132285687544
1.16876498521553
0.476872236285237
-0.0961505553775358
-0.60109485233751
-1.08405426728724
-1.49976640690895
-1.75481033267238
-1.82139925048026
-1.80050528510856
-1.85758801035726
-2.08046286965549
-2.43340492623371
-2.888850437583
-3.53384582871039
-4.43090979838853
-5.40622472565904
-6.12422919279594
-6.41208281735432
-6.42725471678707
-6.47739620391259
-6.71595841103868
-7.00640769453272
-7.05022929463871
-6.66120341549701
-5.93065887058219
-5.12053200022653
-4.43115050873583
-3.89920981721614
-3.42841248410521
-2.81212257866202
-1.80201215379654
-0.333859366424655
1.28344103054688
2.53672937867838
3.16276600648229
3.41226226977529
3.81759479059084
4.70240737015921
5.92838457620225
7.07601459343196
7.80571018429737
8.06099905493276
8.0365512624688
8.01900845369169
8.1791457974338
8.40092908673683
8.32183196174067
7.6351404217409
6.37982167417637
4.90076264630503
3.55295630449209
2.50565761516618
1.79046420938693
1.4009048315476
1.26870301048326
1.20345337486964
0.973502557896838
0.502463949839598
-0.0580879783104436
-0.507521651252153
-0.811710266888401
-1.07107593443543
-1.32238031615034
-1.49970536550861
-1.59447324575545
-1.71988314621006
-1.96711726645141
-2.29995408372612
-2.65175058581753
-3.0409847033358
-3.50575947172571
-3.97189840164897
-4.29414400583844
-4.45149578446432
-4.61724129053469
-4.96135003534301
-5.41791262378712
-5.72090039975544
-5.65521813404521
-5.2119648462055
-4.52439668941589
-3.74504502421055
-3.00784374449806
-2.44163813819872
-2.14953202249916
-2.14048223999498
-2.27674749781103
-2.32083202902183
-2.07615905895279
-1.48775752221067
-0.616217011642497
0.410781591126588
1.37583674273253
2.01259698437365
2.21632656130102
2.18954432449915
2.26094873177953
2.56818749371083
3.00349547065647
3.43186730918931
3.83813133120421
4.23943019846458
4.54432389647697
4.56962428509723
4.20326370802504
3.53060547622732
2.78369452327284
2.1703078954115
1.75891973371113
1.49705733151994
1.296796865348
1.11573018892174
0.998660897706011
1.03622761669429
1.25277460911957
1.54316448207948
1.74061961212691
1.737803410148
1.53752832104795
1.20976877828214
0.814069139469213
0.360876762865811
-0.145778531195032
-0.639218372574575
-1.01392232000863
-1.2393018954611
-1.3987495568504
-1.58105284664682
-1.78318789555802
-1.96028124907146
-2.1070931986821
-2.21490661557377
-2.19066330678809
-1.91918777600965
-1.42340928653107
-0.903223343963604
-0.579389415230438
-0.512550295316887
-0.590309120527077
-0.668038849994787
-0.674016785098986
-0.576987322040489
-0.338422962183103
0.028032672756829
0.389978318197887
0.561823288417341
0.430314127275459
-0.001031164757832
-0.636168568206288
-1.32216066692794
-1.92201042725547
-2.39829363476265
-2.79403132928321
-3.1265999952593
-3.35471333683685
-3.45353681336658
-3.46032409358419
-3.42574829370187
-3.35154006084104
-3.17568609433397
-2.79382404946739
-2.11420372812567
-1.14330307644779
-0.0365401953452982
0.96617853812377
1.70159341500553
2.20130983764297
2.63359614573537
3.11517712381405
3.60857080527569
4.0171028239391
4.31036420401234
4.49303153582505
4.52165045580815
4.36064602549442
4.08729318618684
3.8452243650459
3.71758344044521
3.71171908794139
3.80922889111371
3.93647097792654
3.92312099249337
3.59059716833492
2.90702023487151
2.03285902406174
1.20933903571968
0.595453617603551
0.197023569116467
-0.0588329295588518
-0.211919560391958
-0.261457270118998
-0.236308155257211
-0.216384056591852
-0.289092256116336
-0.498663096394806
-0.797464364619936
-1.04163236709651
-1.10750327656716
-1.02918909802276
-0.955265337382569
-0.983892564230776
-1.13565079935549
-1.46447061094921
-2.05256687979589
-2.86015804268789
-3.67968276481628
-4.27640327647876
-4.52620801998912
-4.4425285408109
-4.15807782687534
-3.87127783370171
-3.72588324771922
-3.72617925708726
-3.7904230760595
-3.84760053886008
-3.85031328508719
-3.74954175997833
-3.520924997337
-3.21353849055314
-2.94343461175581
