0.145365931466048
0.26283147675809
0.305633346433137
0.318961230097045
0.32464994002748
0.226514521493495
0.0637870426410781
0.0313637874035772
0.150953497289087
0.26925213533281
0.352562244021535
0.412139609456232
0.310378926678253
0.036398272812899
-0.101943574016691
0.0656878455413691
0.259420460847062
0.187406846642398
-0.0703974145544898
-0.311511915059526
-0.470010392378095
-0.513124474317735
-0.415253012092875
-0.27540376867847
-0.19963166996497
-0.138715845627823
-0.068455621596241
-0.142047321082
-0.411153520413214
-0.628255967655051
-0.569850437386016
-0.326418971628189
-0.115390630952864
-0.0477520652886581
-0.132273264751648
-0.268873539556257
-0.269494463569738
-0.0757675076205476
0.154139258421355
0.274064174584466
0.278625183393653
0.195516687369764
0.0814810167810367
0.0641537596717889
0.175611130270515
0.282467716741321
0.320374489521825
0.359309862807906
0.38295978509293
0.336767498990981
0.358087371051824
0.558579461865221
0.70218042344522
0.516128866758217
0.122762459269237
-0.19528566587435
-0.37042213549618
-0.424655124564721
-0.340313749039845
-0.245591226938622
-0.340241043940713
-0.53832329160442
-0.564405512601767
-0.406443974603578
-0.283974286008952
-0.218307039690314
-0.0269931873318753
0.315443762295515
0.648417772678495
0.861713110553919
0.914828110039558
0.784410256607483
0.56297429309195
0.416924324060745
0.377629506088295
0.357429863334501
0.31110027695198
0.21289638428332
0.0279731918494062
-0.180212791541423
-0.319218539780221
-0.448538601142499
-0.644006512502674
-0.788769540183264
-0.769919221852965
-0.695896243083863
-0.680113199445823
-0.667687364864847
-0.637442170891119
-0.643701481697578
-0.592994315341561
-0.365335147584895
-0.117079308799333
-0.0571500848864235
-0.0667084217341667
0.0678628705751996
0.270805859527176
0.367974396311377
0.392787158707338
0.435818125811042
0.45747695877115
0.424866536410624
0.393665978043153
0.37751528433993
0.351021492045337
0.359719845300688
0.413859624671345
0.382130648651199
0.219702028161724
0.128787663297126
0.256253609323954
0.434374161713136
0.421281207988475
0.193248424838339
-0.111042562635837
-0.333478437347561
-0.369400158677817
-0.264810535172884
-0.171590108224201
-0.126894903970746
-0.0458714010690513
0.0647608335382987
0.121090913282684
0.130862854152002
0.119217453050278
0.028821343614655
-0.116008969042691
-0.177550552977866
-0.166463627766756
-0.226343175766354
-0.305472234764746
-0.209440633475202
0.0390636316414041
0.244791995688461
0.318616100200538
0.215219248027829
-0.151638979875732
-0.669330924828441
-1.01381882793214
-1.0599141111644
-0.97494786658799
-0.842723236863246
-0.589556713511853
-0.31456356730288
-0.279483923133644
-0.511656879208526
-0.744435877470971
-0.758229722364293
-0.523635892988598
-0.0908887103520179
0.428746558803213
0.884784544466066
1.22694822521589
1.46949838580882
1.52223245028582
1.2951411841811
0.906675476295945
0.563529307215469
0.353120751110306
0.2857083325365
0.327639032468996
0.331506143213402
0.183082981429077
-0.0101170757546297
-0.110201966949637
-0.171709420985938
-0.245519982327437
-0.218852920525745
-0.0709808130714722
0.0044401278827924
-0.107020185888177
-0.305777899953239
-0.470648096654667
-0.51512064405891
-0.355499035951526
-0.0808888379879911
0.0475795496564984
-0.0275114939788639
-0.0610771493139015
0.0828627893272007
0.247993730462201
0.300512558674337
0.295300185551762
0.278022589855565
0.224397693563271
0.183428150168015
0.213529251144083
0.223889960792329
0.109177836209338
-0.0769154352946151
-0.263482187836282
-0.465492201944079
-0.60792700723411
-0.533014116196071
-0.28506451484526
-0.105103097760763
-0.115073549326223
-0.2369151336862
-0.340961746610665
-0.298275358226464
-0.0456629436305148
0.300123305853417
0.56919864730691
0.740848286727634
0.82219461522417
0.712342461704881
0.427701115765495
0.202812421984118
0.151448118529468
0.129740647711525
0.0525597826413426
-0.0159623007201764
-0.0976142102253756
-0.234090831409107
-0.281813903420861
-0.146190531554304
-0.0238088222260511
-0.0918387678372635
-0.230602812153525
-0.295923395772961
-0.339570422545898
-0.387912243793125
-0.344775330541142
-0.228655832442948
-0.182276583823443
-0.200930055845937
-0.164825257953634
-0.118104254665587
-0.20008494249601
-0.371991260595304
-0.498686020944643
-0.578149482648261
-0.669053741551702
-0.760826012897696
-0.837651903314423
-0.874288605905595
-0.771034446112555
-0.505949747229788
-0.246072177049858
-0.117593136037983
-0.0467143432434873
0.045236819459497
0.130570382530798
0.22437119884663
0.397912674875085
0.64163560712207
0.891932282448668
1.08646312768903
1.10612059788225
0.904910815612937
0.709245112342872
0.742274590695328
0.82110250736369
0.639350219893477
0.299052725048514
0.130728578559911
0.188614841523314
0.305333234265701
0.403321511363666
0.4580913820396
0.411474642623186
0.310906473351824
0.285106359528488
0.309472172235513
0.252302812762205
0.13263995496389
0.0554760925401225
-0.0240441859248491
-0.182471905340443
-0.313759781419068
-0.316536817397761
-0.312486952984957
-0.434448963459715
-0.607227173571095
-0.698613018440535
-0.665137240323304
-0.499787868301605
-0.258108424375583
-0.0886957200527533
-0.0557913297526752
-0.0525786542862135
0.0135194969086902
0.131362548030382
0.27646000442731
0.377895029615373
0.30314369429413
0.0813023801716409
-0.0645287473034154
-0.0598344789484206
-0.0452594123317474
-0.0305014925148203
0.10614414309944
0.269969794734441
0.258674196065642
0.143473099061791
0.106418010243141
0.0771683208326218
-0.0731373250659281
-0.233862741884288
-0.283314963436801
-0.31966869279263
-0.414704949864414
-0.452240698854937
-0.392310057184116
-0.381864264384306
-0.479217656336436
-0.568542421188833
-0.602945275643186
-0.632165259091475
-0.599544966991836
-0.414420430379837
-0.178632042288471
-0.0865279441172717
-0.17715074005871
-0.339674215785238
-0.451317072276213
-0.455932111512606
-0.409664073441298
-0.393411562772003
-0.33659587358069
-0.120381209483025
0.150808526114195
0.277682518863615
0.31401286601215
0.448358125192631
0.653855451690126
0.791173100447282
0.869757535391946
0.905404369780642
0.779601619524216
0.48418795690332
0.208374216363041
0.0490642452967346
-0.0431541381039356
-0.0338304656473308
0.130235595983987
0.32275102671777
0.4126466361473
0.457296586759635
0.494840843816136
0.409816987927653
0.182934251441444
-0.0141705634649376
-0.0858231768698608
-0.0804789217812895
0.0399641299979283
0.360879592662062
0.731765543899833
0.860507687722606
0.688604581999182
0.403825322325352
0.167310336629851
0.0424779412015621
0.0319021865165027
0.0348417986274975
-0.0455974824152423
-0.123449976772229
-0.0650676594778705
0.0758179961268937
0.155843027646242
0.124250415877537
-0.0237342656678774
-0.266046199416277
-0.481007771057848
-0.584116553699634
-0.666842922790588
-0.774227074116865
-0.750587179270072
-0.538415508885877
-0.338050914323103
-0.274079351354902
-0.24139011967191
-0.181911729490174
-0.138403107412273
-0.0438913640643202
0.16562680920775
0.347664498125012
0.386927602549149
0.396579317999899
0.423512477437341
0.286461492429073
-0.0606720068748931
-0.365210566402372
-0.473023983241065
-0.549223097556267
-0.754863174397741
-1.01632966389129
-1.20949359151322
-1.29685448470252
-1.26095894383332
-1.12583894714704
-0.963251148948471
-0.717818586359117
-0.234827831468548
0.415273930780144
0.918000436248435
1.0927478415475
1.0219378192439
0.833972174480085
0.613119508964139
0.434672400721195
0.306338664723117
0.196264741644581
0.153632719237628
0.209133457090946
0.242970818395111
0.185769055137903
0.164852062217977
0.234785847912465
0.258668290368072
0.226635384636521
0.292346614142733
0.388373559806387
0.280311987697163
0.0342987074903934
-0.0635657479433609
0.0012363218804691
0.0227319854721163
-0.0212706189691344
-0.0148305160463723
0.0325005235356667
0.0677896805683377
0.122193762368774
0.16603142582797
0.0937212259842914
-0.0387400064801404
-0.0500403177329333
0.0502819126496186
0.0902634597377642
0.0592396056623743
0.0887265415478515
0.181875319469768
0.238577787098851
0.232942472662155
0.180544455396707
0.0983219674772456
0.074240168092699
0.173964799859857
0.298680020515021
0.321892510495334
0.252710816436406
0.132901133700657
-0.0247687521684556
-0.128304361635098
-0.0870285562264434
0.0111508297435991
0.050013231345902
0.0867498297263637
0.164570179928148
0.151954659930157
-0.011854633655464
-0.185289641923602
-0.266121351667883
-0.258006302727266
-0.110293814125293
0.157650428952391
0.305079057980454
0.196722538642249
0.0535482831902201
0.0667154871020025
0.0779270713586751
-0.0737291424285668
-0.238882803347112
-0.251087938488643
-0.206631700677934
-0.244238977205908
-0.333116966224284
-0.4118937329419
-0.480104545228854
-0.510249530125411
-0.495978959849244
-0.520321250977961
-0.584226736653412
-0.542029640979986
-0.360781781884368
-0.207272605262633
-0.189331324937792
-0.254217629328692
-0.330824599078045
-0.349811082971312
-0.23213842872079
-0.0311480300674495
0.0842615558330631
0.0595050665176242
-0.0522622457988904
-0.269609856025857
-0.58337631754704
-0.827739415520771
-0.919280990090894
-0.98738145671232
-1.05763533927226
-0.953582805901515
-0.667655965051958
-0.418068680603792
-0.263792049896461
-0.0852719272579219
0.101741901816234
0.237919121668268
0.477285121187081
0.952449202142484
1.47320702273895
1.77646341324411
1.85328170551246
1.81152093614414
1.69083944085919
1.57540054124633
1.58706376684624
1.64785995285897
1.54664878556193
1.2857002411642
1.05824887664644
0.903265194105764
0.668699872498722
0.26148890172667
-0.258252941420637
-0.723837783147456
-0.935160073066747
-0.851469845725189
-0.682160623893484
-0.627469238869254
-0.666767423766645
-0.722000620503761
-0.782503669210824
-0.778130645211011
-0.621024285269993
-0.402716755815836
-0.268954892473071
-0.180374902672512
-0.056908792220801
0.0421621675482688
0.106518835761756
0.23718517446231
0.361119700677853
0.268001772727532
0.0044790594148349
-0.189536459949514
-0.299177863008457
-0.4587247116965
-0.592667889359289
-0.540168023544249
-0.357465352836503
-0.177951363041713
-0.0048719554166056
0.127476292948
0.0784084032165368
-0.129427898610252
-0.268579739667359
-0.254267727461329
-0.222296179176448
-0.227586456389415
-0.203976529542941
-0.194910732466817
-0.294184610556733
-0.433576597129732
-0.490061006358123
-0.479582957827488
-0.484093493849021
-0.534824119699835
-0.611606071114655
-0.623891015289168
-0.475312706373897
-0.24463374224768
-0.115090200704883
-0.0857900028702789
-0.0080618083146975
0.138536804156419
0.297947371542594
0.51812394903808
0.777207962688042
0.866765406378467
0.726149903900972
0.583624475299626
0.563298888166389
0.531666644622319
0.440648726813956
0.400393529117403
0.39797675265018
0.343103215501598
0.294963006355533
0.299714389536392
0.21098608096026
-0.0326872291874883
-0.226890755999126
-0.243068861350607
-0.242979301424831
-0.350669669331873
-0.431725838061728
-0.364787097257337
-0.229493366162275
-0.124005381403691
-0.0643919187670279
-0.0593332458293074
-0.05015265530837
0.102041252698807
0.377210545643351
0.55348285126082
0.527163908300962
0.419967050435384
0.334430805662881
0.272769142729402
0.254543987426131
0.281017580707393
0.281893263350459
0.232522398314492
0.162839467719458
0.0323654852676086
-0.180063275644203
-0.335593141374809
-0.317946958727783
-0.196750452209823
-0.0301301084421502
0.212957142795985
0.411428817598042
0.360774486151428
0.152209757252583
0.0670585678154299
0.122147197669656
0.12966455958664
0.0670559587118352
-0.0013543773810701
-0.149626167600228
-0.392952854261586
-0.523854507320517
-0.422595700936187
-0.261653727617595
-0.209280381820908
-0.225617820580046
-0.272974977796042
-0.394497452846262
-0.510500564209709
-0.475572436825349
-0.352159806298805
-0.319120994545547
-0.376153033608003
-0.397975344387958
-0.345637371659218
-0.240619081286983
-0.101448293044803
0.0105961303994619
0.0519201542763601
0.0706347371258312
0.0868867803651708
0.0471171434493666
-0.0176474470509143
-0.019174245157273
-0.0135159276325609
-0.0991751391650192
-0.188065177458693
-0.166119026738466
-0.109022530457363
-0.0749929875588504
0.035563533795938
0.198481189439972
0.219311532457963
0.117270670205372
0.129684958160442
0.271959630631306
0.328900781129098
0.258984727493842
0.206800714407026
0.210903428859488
0.226469611788209
0.279070505112949
0.351476842044128
0.327849275573445
0.217239101580185
0.172487762997812
0.186377421664085
0.0839270208926829
-0.126688284001938
-0.236020009247527
-0.17498116651235
-0.0602533584130527
0.0337096990768298
0.0848124015321738
0.0478771630572724
-0.0429953365410518
-0.0791657659257842
-0.0599213859239804
-0.0664271405180289
-0.0899857318782209
-0.0791183898118572
-0.0299727171907273
0.105744922497584
0.389658801998516
0.707939979579342
0.876191747379118
0.90806962035551
0.901383119737601
0.7964383278693
0.54126191098954
0.282317164210626
0.136621370179073
0.033041104688519
-0.0833772693672413
-0.206160724108472
-0.430947921768897
-0.801857635420119
-1.08977950876943
-1.07349323241768
-0.86330189810366
-0.654108624300838
-0.428800267560349
-0.169481667277623
-0.0430526584179824
-0.126142517873185
-0.247805504239752
-0.284839353613733
-0.306296076096021
-0.337513526472018
-0.31890649132384
-0.310430468363286
-0.397740128198136
-0.46223056661549
-0.347242117233913
-0.119139204707804
0.0574545391409676
0.118203754831704
0.0627351442824753
-0.0597923633541142
-0.112963290106683
-0.016443017698333
0.145656314106345
0.275627633417617
0.35214344500282
0.34351089348569
0.27068531091522
0.288315295346136
0.443479746699466
0.544761212619635
0.523912884220776
0.598829842097835
0.830013442689194
0.933747229056862
0.743978271050048
0.419768424069717
0.0991621684970233
-0.201559441501455
-0.371882679689434
-0.339277324755292
-0.310545595484796
-0.489663078689288
-0.729684514433023
-0.788267468882057
-0.691532222140614
-0.56422551460322
-0.373247024044211
-0.0923814686790195
0.145002148713745
0.24207630890977
0.241848221501303
0.173585488336392
0.0461944128117579
-0.0530859342681562
-0.0822734185195708
-0.131193366372891
-0.22159936361245
-0.231113273802868
-0.105647829366984
0.083550245758139
0.28917340879978
0.479260725213433
0.5771704907282
0.576209735687667
0.550307363216928
0.481081464371131
0.308642641603599
0.129230459544182
0.0660407733988708
0.0533699887182519
0.0045279072726532
-0.0268710529202757
-0.0590642681310889
-0.218469124925167
-0.414867758231473
-0.386565113193078
-0.139428498487928
0.0752281585951021
0.171940802033298
0.210327094840897
0.12286922894474
-0.128442785492208
-0.323457680260888
-0.275506327509693
-0.139284276349902
-0.141925790796283
-0.253689616426597
-0.351855002967653
-0.430685729436552
-0.472195181626592
-0.397788010924277
-0.250571510253007
-0.156676631603476
-0.11467597162878
-0.0624380875011576
-0.0336084777847129
-0.0494985915721905
-0.0367182349554684
0.0287132477474032
0.0916500208570611
0.137711450776911
0.161173134374933
0.12366776395821
0.0873229433171065
0.182656757878038
0.36510532328911
0.477576797339709
0.546066217890108
0.686965743242114
0.809358822959171
0.748539756706124
0.549851129960737
0.352903868408949
0.22432713966997
0.258381871096557
0.503286994058486
0.723436763822964
0.628049478335068
0.308917865757144
0.0613129537679123
-0.0959112968508296
-0.330430063344553
-0.615751740182896
-0.812522768152117
-0.940121970920429
-1.05782103624478
-1.07935849109084
-0.953167037526432
-0.802570337560932
-0.70599235780715
-0.585532288358373
-0.419872722481183
-0.306809495946299
-0.277578832203689
-0.274897101629578
-0.273122535722093
-0.267113205346199
-0.255728274263311
-0.294025269500999
-0.403565765867479
-0.477111778622509
-0.436309237669928
-0.336686583535237
-0.185172578129231
0.101186933046856
0.46243698924844
0.71494414195155
0.822815768258391
0.855818358900072
0.788687797731669
0.652427948179593
0.650745089684974
0.816320240824923
0.875431467220959
0.707706442013021
0.531653839589366
0.456446167845969
0.320276190957245
0.0918629961369375
-0.0339957571641818
-0.0046974845248683
0.026143914253283
-0.0031655616124962
-0.0235723271198369
-0.0243001468108518
-0.0239902969047888
0.0250593538260868
0.112681748886773
0.123538320397849
0.033800278682791
-0.0644360685156684
-0.167304424865571
-0.324637141443356
-0.449983098533189
-0.435273660175899
-0.346182143942581
-0.292053960593426
-0.2671997637782
-0.235877173241027
-0.170771077374207
-0.0039661150705133
0.24885014579994
0.420111201546301
0.428491603456404
0.38726358806758
0.35822457990795
0.283521630684181
0.210475157618271
0.241051698373518
0.279676709310404
0.182561538517406
0.0499199732450062
0.0471113477669543
0.128983292761885
0.198477947978642
0.269775668986131
0.303448487817469
0.190714802359712
-0.019619983743827
-0.176895759116059
-0.282233637033571
-0.421452227701885
-0.56950665041549
-0.698697996828903
-0.896193823016152
-1.16378380205513
-1.32407930894975
-1.30850428515297
-1.28682309187809
-1.36179919446421
-1.40619212849883
-1.30451674964691
-1.09219413630563
-0.822669110368974
-0.518626114358324
-0.200476698580128
0.180506318497128
0.685691805315364
1.20287574767694
1.52717396980977
1.60681056640425
1.50276182319439
1.24453491413064
0.927212620988326
0.730853423662405
0.683299165817153
0.656579896944808
0.635131184468154
0.668021192737331
0.638652293432825
0.464277050787701
0.348346680000797
0.440618473220741
0.511418231850461
0.3322446216206
0.0524812843685377
-0.104031398568014
-0.162466379650264
-0.213745107711376
-0.254451088912448
-0.310303917920501
-0.415299172048293
-0.468176317972322
-0.370581757045277
-0.227101260368223
-0.179663653050097
-0.184000106689977
-0.152056854555386
-0.12619327043652
-0.141366745312983
-0.137652134721128
-0.118299621296119
-0.14807494036876
-0.173822818463142
-0.101103135583253
0.0125666324847571
0.057873808411588
0.0333194654698458
-0.0297878458439456
-0.109189099615757
-0.119026342388414
-0.0100147352501496
0.118331900336102
0.197987098249402
0.30834590815716
0.445317235393434
0.441961994435613
0.259612588860821
0.0650230290554008
-0.0473106516997212
-0.118419223629522
-0.149011934892666
-0.125429889739717
-0.0896898122982394
-0.0117141745777658
0.160387967792607
0.269136075452048
0.134933088387457
-0.0695467113801668
-0.0705899431155859
0.006443967603468
-0.146037654114633
-0.472321933080382
-0.677520011563927
-0.716434675384465
-0.756419641527845
-0.83403370487502
-0.883152891979866
-0.915912950005732
-0.917099005278615
-0.760735742180184
-0.408568211849494
-0.0013182960519111
0.302812157712806
0.408304068592188
0.289036465764417
0.0864270994038736
0.0315843405593657
0.149723151970411
0.256755171145373
0.271207569571026
0.268060243278485
0.269817793913747
0.237012276441019
0.174979179361123
0.0914925540533628
0.0178037111363347
0.112582747524673
0.476880450240372
0.913164182151686
1.17548175581781
1.29472811912584
1.34005193810313
1.16459992181179
0.734719668625873
0.348417838257188
0.220202930959373
0.209811742356996
0.141684240052572
0.0186734222936305
-0.149329559145038
-0.367742130344766
-0.521356903782289
-0.522300781541351
-0.499020004736487
-0.58118501661189
-0.669712523339056
-0.651647946578437
-0.606542720363649
-0.590624998745282
-0.50380633709829
-0.346283464830974
-0.294235365998237
-0.398174105900766
-0.495050234725644
-0.45312959205481
-0.271981679862156
-0.0112231912699151
0.21297986309148
0.299022236589922
0.297367706180414
0.309615910840812
0.312866089938667
0.280443803380851
0.308744584635575
0.429240742485312
0.525873512864305
0.563473960391002
0.601647370079424
0.561116644103537
0.339436761745899
0.0876913013806154
-0.0035695602632693
-0.0180041070351502
-0.0734947060294567
-0.0617480443675239
0.0724154209381136
0.144072787346323
0.0494628878574073
-0.0785389259805309
-0.157387204178104
-0.259549269308251
-0.400366421041889
-0.522734911917703
-0.650864221010459
-0.803575024227425
-0.86452760202929
-0.758697396005984
-0.594009256885944
-0.462720970249333
-0.336073712695223
-0.257930816903536
-0.331988180798688
-0.45920564207691
-0.417182630159592
-0.199095132925209
0.0122158359334195
0.124764874345125
0.174132184142216
0.220022346455768
0.328333841304258
0.500399314527564
0.624610082633504
0.649602177055822
0.672825700854985
0.727948770210899
0.721090102957557
0.660538681648848
0.645146135105321
0.626105732159177
0.525643335950363
0.475435282085474
0.564133396853625
0.572763794685966
0.325799036954847
-1.06975113551046e-05
-0.214017933785695
-0.383814455819091
-0.560245412281152
-0.639447274194312
-0.627873333850709
-0.661553781313985
-0.725518279508992
-0.69604406307755
-0.610855633051464
-0.585052236992471
-0.571812850984609
-0.491255517384889
-0.432926582502727
-0.474712064136291
-0.50003814000167
-0.397846816799998
-0.226219966225591
-0.0625046569221185
0.0874513453042268
0.217136003932506
0.346337946332449
0.531425427594242
0.730490896176364
0.842018970209089
0.90875446090461
1.03456939043936
1.15721203999187
1.17118172859351
1.12778752724826
1.06852504678161
0.899819014696826
0.639898269749519
0.484498729861348
0.469789439705609
0.386060110954649
0.0994190087991856
-0.316036033076262
-0.705896098552107
-0.875156806859372
-0.700828099711349
-0.363626429734056
-0.178398544729549
-0.145170218578465
-0.0408456402093481
0.0947987581653057
0.0143192496062434
-0.268812203437116
-0.507095495709428
-0.633114820971844
-0.758719054763407
-0.870037459152948
-0.874582863423434
-0.835357801655388
-0.871709229672154
-0.959946485301341
-1.01378950866409
-0.984038942043202
-0.811687771284608
-0.509749614723158
-0.25819319478944
-0.181611240679487
-0.155835554609713
-0.0364191402599714
0.118785316333168
0.202642988509654
0.213224490033634
0.192289765263299
0.205017394760949
0.325675794240244
0.486613646050608
0.512567277164401
0.408307725979121
0.345113803573702
0.333021707379381
0.253239587658337
0.170362027975356
0.226792950697893
0.338443291722066
0.346528441394433
0.27376205098502
0.154394292898456
-0.0983891892461392
-0.450302937691039
-0.697591035314083
-0.769168086684783
-0.754303595737853
-0.639475752779891
-0.366115794538433
-0.0875685160559389
-0.0233365085612523
-0.136645053613008
-0.246318877880066
-0.318680239661422
-0.391375890933237
-0.401755396884648
-0.308573734613389
-0.169400004655992
0.0191289869161461
0.31194093892392
0.640308508289825
0.897393662140273
1.10782134040276
1.30627155611345
1.4299290098824
1.47162184386379
1.50618351990033
1.51501994419902
1.42978615479189
1.29976301408467
1.19672372405722
1.09916647702589
1.02134814411688
1.01599185732724
0.989966849118274
0.838700670510105
0.713558425235685
0.777558596021619
0.857228766116116
0.737649822384683
0.548949101523212
0.484455473367088
0.448816442277664
0.288858007295402
0.0386799494982203
-0.259472490256135
-0.639283309588614
-1.01892794503497
-1.23960301480874
-1.30936641220225
-1.34395664441025
-1.34804909172222
-1.30021353133879
-1.29204066047191
-1.3474533662843
-1.31892580064495
-1.15620158127406
-1.01438594644891
-0.967045806157731
-0.90608395385532
-0.783555228778007
-0.678685259617239
-0.646830797817918
-0.699401195223625
-0.815353027765172
-0.868590547788765
-0.745441824784374
-0.550917739196426
-0.462644477073872
-0.458634766078503
-0.424251409663484
-0.361980586881989
-0.294019097678093
-0.189076997725427
-0.107765470189123
-0.139349960197641
-0.196480903166232
-0.202963310086432
-0.348056606841113
-0.781980525667225
-1.28787313017566
-1.60096350677302
-1.74690592736174
-1.79565826789367
-1.66048353156866
-1.35553587383794
-1.08003544952523
-0.914098380718436
-0.762750596102865
-0.631774864602794
-0.639304116964791
-0.773360928422721
-0.907738537489616
-0.974921696081053
-0.915544798887928
-0.637624326411311
-0.20465328655002
0.168703539686995
0.416689503112282
0.6567137523771
0.922843482519546
1.15277147816636
1.3695014496855
1.62854960153721
1.91059397566688
2.20597171821935
2.51348681029066
2.73296654582234
2.79661322918327
2.82339803941982
2.90757720021195
2.94890313441133
2.90370053323718
2.91497242920941
3.02631072068031
3.11367513281953
3.18893316374061
3.39269815055999
3.69150711742608
3.94853115958716
4.18647172897994
4.4673346189839
4.71633376196275
4.89622228358449
5.08241317180089
5.23265530473429
5.19397053963593
4.97361669648218
4.67469338572122
4.20864972219129
3.42386101560118
2.45010846912378
1.57237034206105
0.821502146358364
-0.0577233173183034
-1.34351768551771
-3.17687007333545
-5.41250941330384
-7.52303214101852
-8.96001545915508
-9.68600210848964
-10.0990079991173
-10.5125308518948
-10.9756006295648
-11.4369308638623
-11.8133417081552
-12.0181492879928
-12.0407925137915
-11.8754810953762
-11.4422880809116
-10.7618056048673
-10.0267047361892
-9.30487443484558
-8.42375621292313
-7.29956897364412
-6.06363809983895
-4.769665398555
-3.31523624250639
-1.66644401622694
0.136763325973525
2.07175058892534
3.9706158176445
5.51557627854421
6.61239767887587
7.46960660172347
8.20103343659784
8.71952769364761
9.06881448567884
9.46948962087788
10.0217618553872
10.6996891779461
11.5550615667675
12.5732525544103
13.4632593971344
13.9618409067541
14.2030155903592
14.4539918992702
14.6307050021226
14.3155216456951
13.1142307921363
10.9172782781605
8.0129931960354
4.96444158862
2.23225814579504
-0.0236405251422297
-1.78951921198534
-3.12873761061938
-4.27095271586459
-5.44720782078613
-6.63774237344129
-7.71272517867178
-8.67143115861271
-9.5264233874774
-10.1920287898064
-10.654815910693
-10.9688336463567
-11.0446096591479
-10.8072209298064
-10.4804389435619
-10.2924604522823
-10.073925681273
-9.5521655883334
-8.76481748618499
-7.81194990141748
-6.5506019224147
-4.87952983547449
-3.0088570527636
-1.21019174276164
0.414710040064122
1.80485062142127
2.87283847717907
3.61474965841972
4.03680547554064
4.02596491354664
3.54282355874231
2.82646505336211
2.18751442496504
1.75698439522103
1.56684493217538
1.64376349335009
1.95997267703865
2.51362621119015
3.37949791649622
4.45207626411763
5.33161981785976
5.69497758755711
5.57146444838949
5.14203111853107
4.53970844708018
3.88107624847067
3.223026083127
2.53485191987782
1.89190222319553
1.47832120550761
1.25335111590468
0.949831850853287
0.497732591557638
0.0628185697211009
-0.31793793307905
-0.711700745805588
-1.0233570069872
-1.16728718444477
-1.28655089534603
-1.45655536128509
-1.48926555033154
-1.30989434176857
-1.15391306015656
-1.17994463193556
-1.27017054920996
-1.34073038633969
-1.45193692219766
-1.53611480683685
-1.40227323887283
-1.03562269366515
-0.556483153175514
0.0311651005613625
0.713986749376523
1.25023597820417
1.39826927503791
1.21089017902189
0.892197181114096
0.532060621832776
0.0879145154647043
-0.517504451908752
-1.2881367360544
-2.07123301093209
-2.6741356981194
-3.04178705038007
-3.15087698090113
-2.87341409347293
-2.20204134535168
-1.40560658041783
-0.702459344560053
-0.0543770738903385
0.507518538751394
0.731511479865609
0.516364532982988
0.0553728231876514
-0.487229778353929
-1.07334246114373
-1.58813605165404
-1.89197016757644
-1.98422555757186
-1.89613092276854
-1.64311553082536
-1.39066849205329
-1.31466000921185
-1.24202723008472
-0.841042097980118
-0.176845750664116
0.359055124979144
0.641086478387648
0.884800104834959
1.2034501423772
1.54547235856207
1.9764923132148
2.58577222927977
3.2118655588465
3.60549940243592
3.73993193249471
3.7479930630412
3.72383806956583
3.69593920896944
3.6311217305345
3.45723439817264
3.18825077118441
2.91782602810495
2.633789818077
2.22300428982761
1.66026654075363
0.99613083881189
0.242164143830194
-0.554471840997136
-1.29344417024252
-1.98797461178314
-2.67566044148866
-3.14263828950164
-3.11717250252167
-2.69583609975598
-2.18806870283402
-1.7263053929749
-1.43530634138374
-1.63630534962325
-2.39820239386596
-3.22960099150306
-3.6295124251202
-3.60433424408552
-3.36592836681837
-2.93678176462359
-2.31263796885527
-1.6280648704128
-0.943581673737509
-0.184067278679993
0.603964773917271
1.23176531082838
1.63364108257303
1.90737100533795
2.14789349922898
2.40391656913845
2.65138898853287
2.74117896059869
2.58457414193391
2.35731735554014
2.2831153118221
2.33705874399477
2.37100159848086
2.32618252774793
2.15843058930942
1.79300791186481
1.24327702639779
0.563924115774483
-0.257912602931213
-1.16366048484589
-1.95691683649339
-2.54799052759314
-2.99966575954826
-3.2602526274811
-3.23395547944801
-3.10161752960007
-3.10742037782744
-3.10444736324058
-2.76880962856671
-2.09995841594176
-1.30743750532001
-0.468747201614456
0.343683023448957
0.911281532987962
1.15490415769361
1.28814899189763
1.48987439927835
1.70131463198466
1.83448806409734
1.87575897821761
1.75838169693861
1.43306851737504
1.01879375002486
0.624122253170113
0.178165963170944
-0.328392035184573
-0.685483829910444
-0.757129265879283
-0.675950800710871
-0.619700239206015
-0.623894034575295
-0.635479456902768
-0.569407702858182
-0.370468853035566
-0.0998460351515224
0.171729291986318
0.505062957665537
0.910466452344608
1.17675390829686
1.14478940613969
0.938342730917246
0.699927109718451
0.402560396548043
0.0877930110143438
-0.10020529533871
-0.220469040620667
-0.46157127420493
-0.767676510989819
-0.942163460384577
-0.991038011093294
-0.979009076907255
-0.776704714952323
-0.305259661864948
0.228588878919197
0.607032428369748
0.831549326607811
0.92340650571212
0.824322124136157
0.608879474438648
0.469426807559574
0.435356893218688
0.405927126948307
0.410136629158058
0.533996499022142
0.722167869756291
0.917918170035392
1.19892735449569
1.57196751280078
1.86951925536638
1.96610370588498
1.88246509569388
1.68410037107696
1.45513603328558
1.2604740175556
1.02288701389351
0.618807535001411
0.103134264573175
-0.387463382547746
-0.846112459975702
-1.26885715223361
-1.53899749761765
-1.66707122409085
-1.83870157839899
-2.06876995398401
-2.2046728007481
-2.32151410908661
-2.62114634587125
-2.96454596970158
-3.02087855084258
-2.78481566253466
-2.48655551945389
-2.18430237403935
-1.84539313538631
-1.57056745748192
-1.39873128384432
-1.15624010800374
-0.745527786385511
-0.310067009275303
0.0415152902788153
0.37819601304881
0.720391610037274
0.974581908184025
1.13473482526751
1.27657504759258
1.38225752301089
1.38791537236147
1.30359742695647
1.15528843331426
0.966902552892544
0.825494363576398
0.776795246818471
0.730398044204857
0.630551909424139
0.538651488406537
0.432260046241079
0.196396386611358
-0.116989127203567
-0.322388104428727
-0.384162224194622
-0.38436157670363
-0.328725847474521
-0.239847906535058
-0.224002946098811
-0.249380508723471
-0.159411824856258
-0.0032679148979489
0.026663206247784
-0.0204314837674671
0.0443905629683333
0.165397207940871
0.177769819023545
0.144699690136606
0.188131805995514
0.230698434760997
0.219352593888141
0.324361157365921
0.662340441814236
1.10844916496841
1.56087476745425
2.07922887274884
2.62797209364018
2.99263998888417
3.03862576870907
2.8069616453851
2.39066400475992
1.93880352581948
1.65630640849356
1.62258417957718
1.76166370474457
2.02385142664257
2.36722312790412
2.61506986756113
2.58834896453568
2.29738078122959
1.84526100824382
1.29438724507636
0.6678424628841
-0.131003688810339
-1.30453769593861
-2.7949750753314
-4.13871538936721
-4.97824523346805
-5.43211848597852
-5.71712022929767
-5.81260255716846
-5.72183485884925
-5.61170220460121
-5.50829121857763
-5.25117646728221
-4.80107726203412
-4.24176380876114
-3.55552211584022
-2.70601279692088
-1.79316103006875
-0.895809160792729
0.0371809797454579
0.994995975135477
1.84954103306099
2.56866096807801
3.21900146952444
3.75504794601054
4.09615503878573
4.33774765841484
4.56950102263539
4.61970505687689
4.28648735216933
3.64129299385171
2.86078523700456
1.98354614970371
0.994630732946168
-0.077057938019322
-1.20215311441834
-2.29752082002282
-3.18524951859388
-3.73289395450788
-3.87866656973457
-3.49349105682369
-2.51105532689344
-1.20172924763574
-0.0106240145974741
0.826860755199929
1.26182922599203
1.23262672119215
0.781218064304601
0.156432873935392
-0.411503274921494
-0.839624105750307
-1.07638701318389
-1.14195274810603
-1.19988199903567
-1.30497403494885
-1.27530684295378
-1.05917029602203
-0.908214213057469
-0.940993330642105
-0.903053263750947
-0.592078388411999
-0.153383692045459
0.239757794641885
0.634910854617333
1.0739967963003
1.46001055149983
1.75718544777501
2.04053455733602
2.3284125190985
2.57758843261231
2.75577252858922
2.79280608461148
2.64732991005891
2.46356096899699
2.42628246884035
2.50921773832404
2.58650089760433
2.62745285049151
2.58757618301589
2.35659934900369
1.96354315717661
1.56886189277468
1.22251585595777
0.909207348959154
0.725979209494358
0.711093781519361
0.694974370777609
0.584195859035409
0.509244573958188
0.515853009597823
0.480016435043495
0.409548651700719
0.420793558250852
0.448354229581602
0.39414901508301
0.434927910307284
0.777912742734755
1.26094654205467
1.4950772362411
1.22153703352766
0.366427752165087
-0.963353552353336
-2.38705247283756
-3.46080629863282
-4.10908287422268
-4.60229437428607
-5.13243085880061
-5.69808190850836
-6.27354844952314
-6.75794013602439
-6.92810416992555
-6.72495552176325
-6.38088831241288
-6.09344855928819
-5.82956983655332
-5.52320031585957
-5.19172346661162
-4.84827940841227
-4.50180590038286
-4.1661227004965
-3.76398389309892
-3.1813843530223
-2.41858498314183
-1.47803630518985
-0.220908022209226
1.41187397108323
3.23124772991179
5.06491599922457
6.88765067794976
8.53068272285859
9.65796065247562
10.1411521622207
10.0634499067952
9.37974970990587
7.99831836638817
6.09961398210191
4.01474047094881
1.98341586512367
0.300154754291506
-0.639494880866924
-0.74721784304418
-0.396071879470584
0.0530241242251896
0.561235467832028
1.11602625937758
1.51938644606769
1.6312198970452
1.51333803366316
1.27403485779693
1.01976192828492
0.88258992172272
0.870228971939032
0.824758419830774
0.651782128715581
0.399096953296113
0.110006951055363
-0.162908720447182
-0.284205956463189
-0.199087605204813
-0.033487292006295
0.0915300049084497
0.137762514052416
0.0373200550125489
-0.223931603484127
-0.499288436421235
-0.738217436562043
-1.16043435247442
-1.93485244833639
-2.97211230671177
-4.15534189457606
-5.31506915613632
-5.90719143568322
-5.31219325325308
-3.58826832688071
-1.47041310084257
0.361113870300568
1.62552518080562
2.25615464255547
2.34649974838913
2.19143873699003
2.0692006413744
2.05821152279203
2.16174138472112
2.36888200864334
2.52464862610848
2.46004736637522
2.3083947518306
2.36350770692554
2.61875596266823
2.76691308318739
2.60757573542582
2.18286451053137
1.61180215478072
0.997269934993665
0.406635277392495
-0.121170792363935
-0.488667756647962
-0.608197877478269
-0.677463094883982
-1.13567863245701
-2.20347903348323
-3.7130740433334
-5.41363428605976
-7.12802617031067
-8.6654201171626
-9.92374551749789
-10.9856728044752
-11.8743490897647
-12.4491177627609
-12.7073242327174
-12.8212426487738
-12.7611002608315
-12.3066686013251
-11.4783499643
-10.5434453859282
-9.63956311904419
-8.73819335692356
-7.80999560950294
-6.71401920991985
-5.16470033533615
-3.07609399053517
-0.671092515996091
1.92325850897403
4.82144277567389
7.94985432148801
10.8788039726705
13.2763740851053
15.1953883527217
16.8227124247209
18.2671035440844
19.6073959356516
20.8666852154264
21.9483461850122
22.7298447784114
23.1257517175937
23.0514167973149
22.489677332077
21.5422009574195
20.2974400410335
18.8027323574342
17.2128246675878
15.6915512545731
14.1624717505647
12.4819677906019
10.7798419810251
9.25731073562547
7.78768339402461
6.08490200327044
4.08457934469277
1.86200976615256
-0.601514766493362
-3.39308266214462
-6.64775505280797
-10.5176365671011
-14.816961340267
-18.832773182475
-21.8622853798574
-23.7650903960677
-24.726835196737
-24.8734632423163
-24.5272547684256
-24.4810390002323
-25.4840638687922
-27.5052734165661
-29.7109217337769
-31.0415208577399
-30.8021721176126
-29.0415983976609
-26.4944790592293
-23.9659812097154
-21.7774771157828
-19.8660654448851
-18.106602842943
-16.3185821691081
-14.2484545086102
-11.7566311279876
-8.86055868353982
-5.59727042520079
-2.04462229200182
1.60578500016505
5.17464648755169
8.59437187934279
11.8401286851962
14.9236354910249
17.8789960332183
20.5778580942591
22.812713759159
24.79914331764
27.2033025481983
30.3474059436424
33.7312373609136
36.5092686087521
38.0308656507281
37.9224763995956
36.2461713818925
33.6482235515349
30.8355234204753
27.8668449763532
24.3206707453436
20.039091447942
15.3413341691195
10.6627104444907
6.33729056656492
2.58272873873151
-0.631109470860236
-3.59554348528058
-6.53397251785238
-9.36771009403959
-11.8662126707173
-13.8462774806073
-15.2442518085931
-16.1871127105134
-16.9197944894395
-17.5424079413835
-17.9615832273259
-18.1102714750236
-17.9852186192311
-17.52113105154
-16.6728791070829
-15.517302446253
-14.0954927414668
-12.3505224193348
-10.3475077891193
-8.31778530638584
-6.44134375762841
-4.82466321299919
-3.60919410503399
-2.85173898883805
-2.48238222698332
-2.57372060732864
-3.3107878253366
-4.49674355925179
-5.48666764762307
-5.79240080680853
-5.42503856313658
-4.62046547128988
-3.58822043257733
-2.52840108548553
-1.63240327658408
-1.09048508708446
-1.12610215758318
-1.74462020980644
-2.40533506681763
-2.36632652394106
-1.50747181279893
-0.426136439490516
0.399981420706934
1.14232792616226
2.23601428641223
3.86504652262207
5.88105897873418
7.90381023352805
9.49802766843492
10.4372857139843
10.7028961239311
10.2110245895052
8.82900063350915
6.69778017630452
4.27698624319526
2.0840711224575
0.526146248107996
-0.22631143838627
-0.387669177694653
-0.360040089652803
-0.284616086604041
-0.0191257144882893
0.475899318870181
1.03662088155169
1.51869724096653
1.87700574201755
2.14929540009238
2.47408191165815
2.89287047017826
3.14831569820555
3.00765540108846
2.67067089191782
2.46827851586935
2.33487544089178
1.98279491142983
1.40343462792349
0.822284945949811
0.350009175536561
-0.0053127722569565
-0.175495616958268
-0.149780838280438
-0.0827560356807819
-0.119848966385146
-0.284687309682409
-0.555586197427685
-0.830139403906273
-0.905676881368928
-0.737734143265621
-0.544059170114344
-0.454571839302511
-0.329757494183173
-0.0972421209899997
0.024723084177697
-0.232402925803334
-0.934933413194428
-1.92285715105778
-2.87985650831621
-3.55528039018105
-4.01199929718858
-4.45963907697008
-4.87476008326845
-5.07042856909755
-4.9813432729619
-4.50192167351541
-3.29980804052579
-1.25647609098229
1.1451724211648
3.26535092535394
4.90305748927471
6.23880370639173
7.5152963507039
8.88701497375168
10.2317909313785
11.092638744521
11.1719365808404
10.8729637711074
11.0034067399039
11.8579732288414
12.7191303141117
12.2886590777026
9.71703689515152
5.44167120118053
0.94932951379541
-2.5817380405555
-5.33226300624384
-8.27455431318591
-11.7804619841837
-15.1957627456572
-17.634886020987
-18.819272625505
-19.1881834194916
-19.3771746327781
-19.5768558514098
-19.4622418457233
-18.790324559208
-17.7619778214903
-16.6331150668062
-15.3702072710644
-13.9258761583239
-12.4524548371785
-10.999893797196
-9.33167233895255
-7.20715199873686
-4.64533490761825
-1.93852107972612
0.476396550893941
2.4243962979176
4.39038405233113
7.1078911339114
10.6294766878725
14.222985808277
17.2211542131714
19.5420143482722
21.3955721745773
22.8644139620913
23.7203557968916
23.4276901975557
21.5759801019197
18.58183613831
15.6636816206536
13.7995879952854
12.9194103923521
12.2780839272407
11.279178553557
9.78027702579564
7.97754935734085
6.18786913861524
4.52923861387539
2.79156250846411
0.752126929072236
-1.53280892437713
-3.85597127005547
-6.05548179820761
-8.03333822407344
-9.81117189076596
-11.5562345265758
-13.3804154111363
-15.2176536606932
-16.9767256538119
-18.584412799333
-19.8578905209345
-20.6310367634544
-20.9507553359713
-20.8434028234484
-20.0786331787793
-18.508238983046
-16.3864943326338
-14.0749307260396
-11.7566444508795
-9.60015887259694
-7.74993084458794
-6.01312681039386
-3.98036730381924
-1.51486678774511
1.21589676481856
4.08109500113412
6.99292123388848
9.73434517498224
12.1428120055944
14.3263982614377
16.4309046265505
18.3687891341379
19.9477662567062
21.0204699693883
21.420208245655
21.0675693060369
20.1843566871198
19.0972462686719
17.8602503837956
16.3131307800298
14.3811042225125
12.1253470383629
9.66907099208849
7.18420793087368
4.79811176125146
2.52748910271102
0.415016164101583
-1.42929838065942
-2.99980765282905
-4.33311778787027
-5.24175584599191
-5.46499326283827
-5.0763783906845
-4.37163268081981
-3.43831393786511
-2.19904343896747
-0.72477687306936
0.817446645479373
2.34941514850689
3.81024730953476
5.0629267718279
5.84602855367423
5.62092315695427
3.77886898555787
0.430275232496939
-3.31871779052915
-6.36252874228365
-8.61698905423641
-10.6724383281446
-12.8217097610662
-14.9141219470159
-16.8336072789793
-18.5983544943495
-20.1431066570461
-21.3205325558449
-22.0075461425157
-22.1479708708939
-21.8782167290925
-21.5222918376068
-21.2221854287242
-20.7191184128335
-19.6851335681181
-18.0527811985886
-15.8879379837984
-13.1927549115607
-9.95551400208515
-6.25570195197688
-2.32009866126621
1.48771402393275
4.86847137874899
7.74170822534703
10.0112517969155
11.3815988017442
11.7214682911276
11.3347405743351
10.5663752574086
9.56338089740298
8.71324423656968
8.70428240718389
9.74983445016255
11.2960329257145
12.7951648563491
14.2419336620562
15.7517293999176
17.1297714411599
18.0580186635314
18.3809384666299
18.1654037129612
17.7127566272606
17.3958512269557
17.263070424482
16.9984945683428
16.4335836198408
15.7797767310961
15.1901558190495
14.4489120252739
13.2487104946777
11.4777719878545
9.18328539944138
6.50950902753612
3.65986108896428
0.771572805357462
-2.09635716598849
-4.86284891929555
-7.5004016593154
-10.1127130253234
-12.7060591498812
-15.0323384545875
-16.8380826955745
-18.0424506244042
-18.578504634845
-18.3906700864928
-17.6376142510632
-16.5627373003739
-15.2284120288299
-13.6902241495358
-12.2079078050065
-10.9487517833628
-9.76340136544361
-8.51206569363612
-7.28779930624491
-6.17174163257513
-5.10322386087808
-4.01754578198099
-2.81009577661103
-1.28842614002052
0.524029056653249
2.22974827638184
3.5029613524971
4.46780449616889
5.38618737893658
6.270167949222
7.04789261263875
7.78264488711027
8.4889830033712
9.00847713006866
9.19103839781966
8.9648176344559
8.27987245538662
7.24905250088002
6.22050998497294
5.49589818908794
5.13691416540727
5.10927903592178
5.31572120188703
5.44452424651041
5.10633457585572
4.17705680257433
2.83379713787722
1.33353845512206
-0.13256031604945
-1.51883748905888
-2.89470690908171
-4.19993786199094
-5.22133732723108
-6.05363459225236
-7.23399985732068
-9.03031718794603
-10.9129321206836
-12.0715292227089
-12.1553738190267
-11.3297524831707
-10.006366131474
-8.65524899009073
-7.48702350183847
-6.22196463466952
-4.46688026375843
-2.26811938346639
0.0050222947679618
2.15788576391464
4.16707024862029
5.8116112828036
6.68042847817711
6.50668844985597
5.32225914299519
3.42758653164464
1.32376451187716
-0.487322828562325
-1.72591920824314
-2.36500076589946
-2.58314946553231
-2.68334453538152
-2.82120336736966
-2.8486760934954
-2.65301612461384
-2.46770809967811
-2.57781280126241
-2.9916405646528
-3.6489851457114
-4.54924287375118
-5.39483788304855
-5.53053695024455
-4.5037607714471
-2.3881977808724
0.450789573442965
3.5027161201578
6.0733508167061
7.47766633423974
7.27250867180525
5.33923342635499
2.20042065576546
-0.73687517909234
-1.97341796166912
-1.25269911547962
0.307363323967917
1.48383087880908
1.92562398548355
1.9192706920829
1.77179562679478
1.64038091090515
1.67307807951272
2.13068570951893
3.34783351878219
5.41494499727612
7.87667376314814
10.0245394039597
11.5369092900695
12.5883668739973
13.4320252254375
14.1887894184755
14.8943055488727
15.4539043259932
15.7419326043885
15.9814193124403
16.8030316107169
18.7077831239849
21.5222759690757
24.3420476612049
25.9788904750213
25.7410328614099
23.8991736609266
21.114847684027
17.4547962198013
12.4100577492176
5.79712488410135
-1.85683761678267
-9.65819208632217
-16.616202776974
-21.938071823329
-25.6755944870728
-28.8683138653431
-32.6057680133265
-37.0655415866937
-41.5264118403114
-44.9462667880345
-46.4979097107175
-46.0333848860084
-44.2263197135399
-42.0366550343049
-39.9957053482662
-38.0796658586733
-35.968059899733
-33.1233192319041
-28.9318658101952
-23.2085195812523
-16.4745262882479
-9.54650235007868
-2.98821256377553
3.01154937711107
8.49096638244283
13.5337527277087
18.0986138911582
21.9736252214018
24.8370943322768
26.3369803754893
26.4125435948742
25.7673603899187
25.6352968895513
26.6700416436469
28.2973534434953
29.3549098355554
28.9984486696694
26.9186915540807
23.3150854390477
18.948838524108
14.7816610154218
11.3347781568205
8.5552392175751
6.14586504176572
3.79124512332478
1.33250918263738
-1.02127644736749
-2.82784354128235
-3.75774070371177
-3.55610565142801
-1.89620341987121
1.20208372731328
4.91373112003284
8.07193947519484
10.0345528886308
10.7205484240904
10.0410102411363
7.89601332826913
4.73408943316331
1.68971712234022
0.0161535634450455
0.321883919180771
2.15169020329046
4.35811070105638
6.10620380085383
7.39994578700875
8.52773630063231
9.40020529513754
9.66791916471138
9.06478029995223
7.38135483997323
4.46561686005148
0.474506289186224
-4.07088992866124
-8.55947696929484
-12.6291261600532
-16.433584450039
-20.4862522855726
-24.8224020017222
-28.4530009712849
-30.2582681011487
-30.3887621070187
-30.2731214993824
-31.3286453582548
-33.9780771922994
-37.5584285023921
-40.743657473564
-42.3439673836916
-42.0950539023382
-40.6342075050911
-38.7504026970681
-36.862133842183
-34.9756003847665
-32.6590792800506
-29.1216394744885
-23.7098665481347
-16.2896127137212
-6.9901144909451
4.03643761591455
16.244520808815
28.4550522893015
39.4016775356242
48.3646117718285
55.2143691862115
60.2598374918617
64.2318135338248
68.0561367449501
72.2939550645839
76.6582430827942
80.0369610767106
81.2118060630951
79.8474952661348
76.6889763512105
72.6503404724205
67.9932090282673
62.5065535023416
55.9452537989325
47.9541862980268
38.0206808788581
25.9494330993838
12.3781412208991
-1.07225429634151
-12.1017342640118
-18.8031075768092
-21.0750841481849
-20.8507306426182
-20.7725178001133
-22.9398177366637
-28.6774297921268
-38.3799875073336
-50.9552063070307
-63.9395760384694
-74.8082308883936
-82.3517025681721
-86.9602485662831
-89.8605430979879
-92.0238826881771
-93.5358341067055
-93.9509573394822
-93.1747760863976
-91.6885495355225
-89.8799135880324
-87.5185822050574
-83.9631798631497
-78.6196730693704
-71.2488819142567
-62.0735476009024
-51.5389173288531
-39.9360041763484
-27.4456158406956
-14.4158292034891
-1.23198167783129
11.9070732101575
24.6662713354651
36.2689665331975
45.9927462836035
53.8467967228173
60.4936544635385
66.6890406110801
72.8790318489654
79.0241072934938
84.7474755452627
89.8523545744136
94.5115390548771
98.7176626193199
101.910102172595
103.512092521896
103.540394750214
102.297299195819
99.5517289838453
94.2736448093136
85.3760092455072
73.0250801952208
59.3750625051356
47.6717697634044
40.1258138361994
36.4135908336058
34.0614763423933
30.0705750757318
22.5076058006502
11.4407587415848
-1.20726330007574
-13.0886167375043
-23.0797813026097
-31.638707563063
-39.901276170742
-48.6697885726031
-57.8219723207356
-66.2484840522566
-72.6227583580569
-76.5243977346457
-78.6361640822389
-79.8234127037287
-80.2977358367103
-79.6202301443126
-77.2644990797364
-73.2725861593012
-68.4308031707383
-63.5252707817058
-58.5174126023216
-53.0339155480386
-47.6486648660506
-43.94949543794
-43.0880933518435
-44.5946330198863
-46.5520857812155
-46.593769399239
-42.965931098742
-35.2126612013435
-24.1118029244391
-11.0259933963903
2.61915657924216
15.4918072510139
26.5340148728811
35.1582444924687
41.0391290685274
43.7699226929158
43.1526984403853
39.9475308868488
36.0096340919272
33.4146397895346
33.307353430525
35.4230693566611
38.6459531626572
41.9912959989457
44.8724333231618
46.5639282033068
46.1205759171789
43.2156228782237
38.6513532279691
33.7405080155837
29.4165424113371
25.9308092470555
23.0122801064142
20.3140423151714
18.0200764012173
16.9335667381701
17.6928841993592
19.925398299935
22.1689750219255
22.4760080498381
19.3666339984389
12.7093093485396
3.73685536133187
-5.82710506975027
-14.3660486374684
-20.4002496576126
-23.1306824248917
-23.2969731929429
-22.5930573799494
-21.7814764304289
-20.0524201626033
-16.5618312863815
-11.9579019622809
-8.01464668145537
-6.13491119691922
-6.35946341299516
-7.52836324213261
-8.41977453414626
-8.96151160206788
-10.127903920243
-12.4955174166447
-15.3487050343991
-17.4360202955922
-18.116440875903
-17.542903224728
-16.2492013323326
-14.9212019779778
-14.3157330361642
-15.0384673150132
-17.1818752119561
-20.0854532160683
-22.6175355642291
-23.8925065815594
-23.6253655706599
-21.8539976889808
-18.817306974803
-15.2070475920307
-11.9004591276247
-9.1482774770287
-6.42110787301497
-3.04567981386777
1.45627711069329
7.29106837622481
13.7618850927814
18.8499585152567
20.3823010907457
17.9594468636051
13.4343815854231
9.42219478791505
7.42283040880857
7.21150525546688
7.77708997703454
8.65790504308547
10.1742897472041
12.4362971346302
14.6853687965029
16.0195313084936
16.4230131590001
16.6239983374781
17.1335406384783
17.7392844888845
17.7478469699834
16.5549829505133
14.2292641098386
11.6502585810937
9.89860394434876
9.50175788855359
10.2657275353498
11.5023024628641
12.2662206174755
11.7451886838073
9.72082120082888
6.59768188193141
3.01641561669622
-0.49233740782187
-3.72983001502677
-6.87758352543411
-10.0584300763306
-12.7864582890349
-14.2232160594435
-13.9851296195239
-12.3263080153772
-9.68489531326387
-6.502668049995
-3.28638959374524
-0.420590162009233
1.87155944168711
3.12683679985605
2.5849455285736
-0.0937856815961997
-4.19511333906007
-8.16988616627662
-10.4409383986098
-10.2771887472875
-8.35267898632113
-6.42357068216222
-6.03916339086842
-7.42874318670943
-9.64063995985831
-11.4314300639367
-11.8625562916604
-10.5673108021098
-7.94698097051432
-4.95734594222999
-2.44573281482342
-0.704793330963959
0.477940903544064
1.60777893183698
3.21640475193432
5.51665832589923
8.24443841203474
10.7316440610323
11.9472549807815
10.7231034391724
6.52516335057047
0.169720171337894
-6.47566488673655
-11.6401697949874
-14.5905366377149
-15.6574775178296
-15.4189070136394
-13.8748764986256
-10.662732248418
-6.09113020463341
-1.48247299967679
1.63935105312486
2.35566585220918
0.703260058544963
-1.89309928368132
-2.84906453114176
-0.489223516481818
3.72914099826656
6.06762002951732
4.11054391900913
-0.972432611549632
-5.80996270836686
-7.74541653952332
-6.30227204331278
-2.67063353516105
1.61353298428614
5.62203246876476
9.04477213663975
11.6727755514487
13.2736758658617
13.8714237140917
13.7249189879142
13.0746010349625
12.1893380894216
11.445219903694
11.0302892445317
10.7503149502158
10.3337546012532
9.75115754262681
9.17603056931254
8.85451079804253
9.03050723683008
9.85397299375433
11.3660721880058
13.4060847911782
15.1664334281094
15.0424413117686
11.6258739356346
5.00406311006509
-3.24235021544892
-11.1627385473271
-17.2680287018276
-20.784013487433
-21.8616748238282
-21.5327796314249
-21.0392012441054
-21.0699584445079
-21.5381440891169
-21.7881469402108
-21.0109050074778
-18.8584691602997
-15.8336172230415
-12.9020846578071
-10.7044508977635
-9.22790216065604
-7.99666971413326
-6.37312407109797
-3.97104189169562
-1.02062577948542
1.89246369243147
4.50876026524808
7.00428243057372
9.41319848707941
11.3056359162885
12.1912641333269
12.1704415434942
12.1144281640637
12.9887068860758
14.8563641035096
16.8448955577259
18.2313531989027
19.0065851699717
19.1289780450086
18.0305276994696
15.4375742910436
12.0621746690421
8.91136725573915
6.33868240452008
4.15680173733119
2.29774148867207
0.987623638179553
0.343075163265765
-0.0586875297637375
-1.00253928677676
-2.77778336540056
-4.68978394104706
-5.88848398266741
-6.54068808241165
-7.56670808962192
-9.21213860592958
-10.4963681142471
-10.1815158411547
-7.80866930639012
-3.8744071373409
0.284583243193976
2.71083164905307
1.75216090126237
-2.65967170015305
-8.73716444354993
-14.0357486737686
-17.086785173263
-18.0775864367259
-18.0815025803928
-17.7877087192113
-17.1996876973482
-16.3260721413537
-15.4593162074598
-14.6075800402736
-13.237167307699
-10.8563399737418
-7.52024554946172
-3.64049432817775
0.46422431419866
4.79683578854621
9.50352207554136
14.2921396801663
18.1246100391011
19.911398449176
19.5071261081456
17.7398166474887
15.7334782698652
14.5426915362548
14.9286627182368
16.8367234087238
19.3451117908482
21.5944465736715
23.4952060065606
25.0937830487917
25.4989189889636
23.0026131514423
16.4966642712064
6.77309929239163
-3.61128039871989
-11.9822895082234
-17.3310880096429
-20.4964427510126
-22.7071502639473
-24.3568669596188
-25.2087435989133
-25.1416762918683
-24.3429564354657
-23.1174026524843
-21.7334634884703
-20.2643303524767
-18.5245085800472
-16.279927387703
-13.487219194553
-10.3183935837763
-7.05463535476348
-3.88891759463465
-0.780684566946715
2.24552783906848
4.64872780692512
5.74146506258765
5.67876833117932
5.5526054871974
6.33203789688906
8.14307265941637
10.5028830212075
12.6116413537117
13.4564358472343
12.3213162775974
9.37059986151858
5.45843140847958
1.4592560974092
-2.03000554623009
-4.61384041048867
-6.04404655903774
-6.18889487375961
-5.10262008385989
-3.38839102697285
-2.30447535799642
-2.90907661122236
-4.99234423223587
-7.22226472778267
-8.30334350956899
-7.71599957406827
-5.62649077168956
-2.57161302057644
0.853484302682038
4.26567852056606
7.43626046509752
10.0969323662911
12.1494251572282
14.0205331169101
16.4215190405182
19.583357319892
22.7781495589138
24.716946278187
24.7058413582672
23.5534655745228
23.0085001021109
24.038681021415
25.8910736066799
26.9137972195681
25.9352692667357
22.8934275302205
18.7131580942811
14.6960062896805
11.6550015433454
9.65111639145308
8.66774331615223
8.98674613033596
10.4508494802584
11.8450517795224
11.5678297861627
8.74516849753849
3.58888294426417
-2.81292080767754
-8.86403862792341
-13.2961655998375
-16.147484587553
-18.6112101262027
-21.6660723853402
-25.1553719000059
-28.313464098048
-30.8347244129508
-33.3059308304114
-36.8065096626696
-42.053984885903
-48.6649085683565
-55.1116958839491
-59.4530812692086
-60.391953185608
-58.0964841379473
-54.1394528663023
-50.2825695677953
-47.0841067021367
-43.7695209566194
-39.3152613325013
-33.4201643128444
-26.7113285743225
-20.3830807929068
-15.3082055029587
-11.0347657562275
-5.86669465070842
1.73140744425978
11.8619039855341
23.1107405021766
33.2773847153434
40.5245212655102
44.6693508359704
47.3708610252664
50.3842691522941
53.5422354964274
54.8960530068085
52.8628048806553
47.8940167543904
42.0603874429762
37.3399869979543
34.3745419466561
32.5560284096654
30.8924306493411
28.5726470722576
24.9763547753026
19.8285258869251
13.6791638600926
7.8529067061394
3.58502854563894
1.31021668473751
0.713102278607662
1.08679461323424
1.66843079496061
1.9997800840808
2.03210855484238
1.87119474186008
1.69608239187385
1.9008569826991
2.77587878066206
3.88829120229424
4.22282466013028
3.10956980731927
0.790928665800674
-1.85810683010428
-3.97903435373202
-5.3311373176578
-6.41497718301036
-7.7049922384929
-8.73981978722695
-8.43903648616279
-6.35732613867044
-3.17666785075828
0.042085334372847
2.72554589269044
4.96485724021397
7.09173130121852
8.98686550103479
9.73680923837953
8.26560056292893
4.42078381384036
-0.839741498450314
-6.32453933966521
-11.2825117538912
-15.3106863526161
-18.2287791195398
-20.20160051753
-21.5897149022442
-22.6231010190294
-23.4726347291391
-24.5197884942855
-26.2476783271183
-28.8351974669291
-31.8936772192841
-34.5875582730668
-36.1661248286155
-36.4942284535151
-35.9616083554547
-34.9540911439559
-33.6591549490332
-32.1746695027892
-30.3605227827881
-27.726826205583
-23.8538868777555
-18.7389416287728
-12.5428186045367
-5.49791483182169
1.66291492558929
7.84237811860295
12.6131489805679
16.7163843347013
21.2242371919913
26.4052805246196
31.3752950263103
34.6070313420049
34.9686841016111
32.6218880827498
28.9001726481341
25.2784225858036
22.6380692269713
21.3791176280798
21.646388030205
23.1821755918624
25.3150544741849
27.3937513140072
29.1615877439669
30.6629627414751
31.8325225515379
32.146539923854
30.8516911654663
27.8724236200179
24.3283278176517
21.6678245677249
20.3650059611479
19.8027267993544
19.1216101112831
17.735726715141
15.3453274693087
11.9503079393173
7.75902717645572
2.943575819019
-2.32566062640556
-7.70346620735456
-12.9074184093756
-18.0521477849431
-23.4069649723355
-28.8622738121681
-33.7363695176358
-36.9891662857851
-37.8693951096606
-36.8344227703922
-35.6202266601523
-35.8261684144251
-37.5323518188644
-39.5889444092715
-40.7874361138892
-40.3114888864797
-37.6134497547234
-32.5961814579797
-25.8503217440103
-18.3900051424582
-11.1772367788803
-4.77065964652565
0.978287326928699
6.80466922364096
13.1010131654959
19.17142257196
23.8907181701048
26.9836143587776
29.1912728212129
31.2828576116716
33.2062416111234
34.0172498853412
32.4265934091309
27.6715255951439
20.178447854466
11.5111072246559
3.70743608592115
-1.63746499700464
-4.1973590827085
-4.93384062780685
-4.98403979902064
-4.61416330572041
-3.51544328363059
-1.71483562438815
0.299647807950294
2.0002958835958
2.96339087975923
3.01849362648243
2.5494084414973
2.12008628316752
1.5231214606679
-0.326564589208436
-4.31896933064091
-10.1947038573595
-16.533428756765
-21.4028499379399
-23.3458529851487
-22.2976049681094
-19.5870129165023
-16.868158317281
-15.1034771574114
-14.4203835175486
-14.3464436571674
-13.9350848434453
-12.1609789344113
-8.65907005442575
-4.07182435329622
0.36757543816669
3.59429438593291
5.28726463706794
5.87797098841722
5.96929334698236
5.8828087764554
5.88752861442535
6.44511082408569
7.8076244510887
9.68778919042006
11.7251471399919
14.0167812778713
16.8957118741908
20.3818729411862
23.9147059491576
26.4010771084016
26.7216739321969
24.6507756332303
21.2007475008461
17.7390786370305
14.8757316815021
12.3406272464809
9.67680711318108
6.92380539207154
4.77464181132966
3.95469062789799
4.286338583246
4.65231031752983
4.07558638514695
2.4748486098201
0.227338123494498
-2.43885032750485
-5.29132971943268
-7.82497010187948
-9.53078953155737
-10.1581436278141
-9.6250313438731
-8.12202745883959
-6.34170641485072
-5.02640169911167
-4.14508495274032
-2.92580400636611
-0.710759105727394
2.56796268090247
6.63817207288004
11.1244999727954
15.3235788072751
17.8730560553961
17.0045237989656
11.6284641490176
2.38772867242946
-8.56976299876177
-18.966258526524
-27.4622023586388
-33.6642267194499
-37.635548504162
-39.514923778044
-39.455167744091
-37.9986901908921
-36.3689000930612
-35.7620563699568
-36.1253619002084
-36.1214268671852
-34.4513063989767
-30.795777905984
-25.5348106307766
-19.1835638780058
-12.2192699383241
-5.02357581522958
2.09352334104201
8.65325161167131
14.0985612339127
18.5225778956821
22.9485947965577
28.1562684581385
33.1728810608409
35.5192303760734
33.3881266978847
27.628823948111
21.4343341947694
17.8074004038364
17.1672446669342
17.4870986663957
16.635332902461
14.2468046764797
11.4797045826364
9.61221969395557
9.0952949328191
9.55245790044907
10.3425540854265
11.0304218379355
11.3145260697731
10.7921736075349
9.24754938288834
7.1399324495696
5.43603409594004
4.94881048054203
5.94961936710098
8.13955225853746
10.8793030951043
13.8193215456148
17.1905869267503
20.77308586564
22.7952126025441
21.066035659437
15.5009086420526
8.60180143449576
3.08378207465898
-0.359039490615479
-2.86510087491446
-5.78917701627013
-9.60257240874499
-13.8874043610357
-17.9941529062662
-21.6905448161607
-25.1544573700448
-28.3964595574364
-31.0209939638479
-32.7163162237715
-33.7456553177554
-34.7483674294786
-36.0278475713525
-37.0381208447323
-36.7366298893414
-34.6355951032579
-31.2991981678723
-27.5491669951454
-23.4665462913854
-18.4838053229102
-12.2082333639432
-4.99196838290558
1.99597717488658
7.28238778399715
10.1600516307928
11.2407047527094
11.5872370686
11.6052169609765
11.2430955275761
10.746451550086
10.5229437074179
10.6744459359213
11.2336671357696
12.4668922585516
14.5543120143291
17.3597766392942
20.6439025175427
24.0092155416113
26.6494920849891
27.7834514099267
27.447734671597
26.4312461023734
25.4151621609057
24.5328274443168
23.7144979479145
23.0767793207312
22.8755947779679
23.1952506191035
23.6985501874152
23.7701163688527
23.0659647315468
21.7718276510526
20.0610444547727
17.457810889459
13.0611804714329
6.41206243005683
-1.95194902668121
-10.7829487111719
-18.999180919034
-26.2693865616759
-32.6134084782033
-37.6588133889118
-40.778985709299
-41.8505326960405
-41.3186151915969
-39.6460664458495
-37.306474811485
-35.123560157964
-33.8727140338332
-33.5812298843566
-33.7482012124454
-34.0814506874789
-34.522414159557
-34.7172977672524
-33.8736031463619
-31.1032103418687
-25.8666480788834
-18.3068284846253
-9.15251781088105
0.862190356571215
11.3226521488117
21.7611560569984
31.3546348471831
39.2914482999058
45.0975543040491
48.4041498918565
48.98522453133
47.466798281196
45.4699663514448
44.4232973940074
44.3472649321144
44.0661105274552
42.4578852548096
39.307972651821
34.9825281777967
29.4691414943092
22.1342563960416
12.7040821786875
2.22251233887886
-7.32284984709013
-14.2378552356651
-17.9652776589971
-19.1436915439227
-19.0527562700796
-18.7325889351414
-18.599098561796
-18.9976601545765
-20.5236004465314
-23.1386879068181
-25.5333257613407
-26.3522918410108
-25.8749350518698
-25.7363118120237
-27.0866297017483
-29.4857400331995
-31.4602982463891
-31.9021270365606
-31.0891140690866
-30.3483584254235
-30.4569565532519
-30.4552344640679
-28.3336222281505
-22.8388609590109
-14.5130066274351
-5.31056950480264
2.52650706949342
7.59981561808984
9.93777581839039
10.6323292969719
10.9171247860366
11.5736312397425
12.8477317639294
14.5059539419795
16.0752177851371
17.3340100723186
18.558283779925
20.2527745131683
22.7404530951804
25.8692688067467
28.9407785110131
31.1796470505583
32.4712623733853
33.3081840559736
33.8638230921811
33.5804271215119
31.8964465122059
29.0167976248608
25.8150844189658
23.1830341017468
21.379287403017
19.8418155742308
17.9014738874473
15.7289588013561
14.0634836981938
13.0184429220928
11.9070070622668
10.2810454176653
8.28603697348962
5.87181050174997
2.48183599828796
-2.2621359488979
-8.23460570379729
-15.364097378495
-23.9012710869645
-33.7049286539416
-43.4530714522731
-50.9123391187673
-54.2859789622257
-53.5573079205974
-50.4971456046188
-47.1613250572551
-44.4043812823689
-41.8178907681982
-38.6130642879688
-34.2668151336726
-28.7700194459955
-22.6694027029537
-16.7043875915211
-11.3236998540325
-6.72193603307558
-3.08466760268575
-0.379098294384836
1.87695800794038
4.29096470897263
7.30762146597296
11.3968136827763
16.9557500846204
23.6624393227947
30.3312181001
35.6600209946924
38.8800273873638
39.7709700517601
38.4860609541038
35.3528950599074
30.567096512925
24.1612104080566
16.4158368691279
8.16934644772341
0.662646511914811
-4.91683996729235
-8.0220123778037
-9.1104134253369
-9.16906077664327
-8.64438570588859
-7.12565425277691
-4.32263063857282
-1.01072147592549
1.35205254647075
1.76817809214663
0.274442558243275
-2.31910870543256
-4.93789184504854
-6.63377731285028
-6.88958402952235
-5.90030731614225
-4.57765954396259
-3.8160732077211
-3.36461830972053
-1.75798773637277
2.11766386392818
7.56151837896189
12.5345504988833
15.3406613643516
15.4957850159424
13.3632691917708
9.61224404036218
5.09469184017023
0.898703602009625
-1.82254067942998
-2.49838140097132
-1.84724241255678
-1.52772110996519
-2.62439607039348
-4.66507411892238
-6.34578636167438
-6.8672068254399
-6.39444063453624
-5.72000565846295
-5.82246182912225
-7.42478354088058
-10.5849249766063
-14.610982123614
-18.2970185272661
-20.26536413942
-19.4953071905414
-15.9842333377487
-10.9043749131182
-5.88063866278292
-1.97055046612292
0.893950144594193
3.72813951348065
7.5660131247454
12.3304899189896
16.7257042777717
19.4402834088766
20.1971094885585
19.535168874812
18.0709867825063
16.2284375410736
14.3054868477502
12.5618847989401
11.3334986090963
10.9155490215364
11.1679387984526
11.5216893440261
11.5227010116729
10.9681065751699
9.4162407161722
6.12683771609699
0.699411283507754
-6.59490258832574
-15.0570011087728
-23.673656569103
-31.1367979943914
-36.3108334623585
-38.7554993033964
-38.6387119699073
-36.3564773143092
-32.4046424533222
-27.3505764981344
-21.7162902192252
-15.9832138792592
-10.6812598642411
-6.25027811302986
-2.79570847366473
-0.0958844131761115
2.24118799421803
4.69690757799083
7.68292922036238
11.3001044073037
15.3391414405881
19.4383753805632
23.1309167188179
26.0907383749268
28.6160426352581
31.4090695727482
34.4274218445836
36.2778139556871
35.1327441919081
30.1479083394273
22.0384871026491
12.6204808263462
3.7341127931756
-3.71482136070499
-9.65253851209845
-13.8625685911549
-15.673467034406
-14.8467066220279
-12.2522117028386
-9.31097383201362
-6.98929919400609
-5.39268235433071
-4.07651728172364
-2.68228423726697
-1.28797076664974
-0.0748265252921846
1.08831230045039
2.38779772397642
3.69607811120415
4.88236458603076
6.12309008463556
7.42270774237784
8.18917952882264
7.76353239284552
6.12271232886112
3.84319522315564
1.75673472157881
0.661038171757259
0.629060531717732
0.36496090697119
-2.02968601629786
-7.21284371463855
-13.8302114392334
-19.6541487756309
-23.1730199100101
-24.166651094407
-23.2234791080837
-20.9549961655201
-17.7138457238671
-14.0048996372937
-10.7482358426598
-8.64916023161904
-7.35138949805541
-5.54999118327512
-2.12891916546076
2.51174190629893
5.94569235143206
5.02655293293737
-1.3117949653354
-10.4407230384412
-17.8253113189832
-20.4835116534268
-18.5263596634355
-14.0379516558709
-9.28644608189387
-5.6153760686006
-3.10339377504964
-1.00530715194393
1.39322102283323
4.38134774459021
8.00215363942442
12.1074799248803
16.2006944771457
19.5948905661108
21.7983416055845
22.6044384329682
22.0041962230618
20.3372688593156
18.4476774758328
17.371243761299
17.6540260361826
18.8029481356024
19.4152778392052
18.2388811179933
15.3428257828413
11.9741194767479
9.20330945090954
7.14315360654571
5.49131031644429
4.211664755559
3.50113207450813
3.48742931822765
3.96646822177861
4.11651618624048
2.71784495684513
-0.779732292223515
-5.38984341113673
-9.1283383596214
-10.5474295402196
-9.80567680205639
-8.35140186008359
-7.48485472754576
-7.17034851702492
-6.45439426593449
-4.94753352556848
-3.30715722195996
-2.14934936898133
-1.1687477015948
0.26981228838673
2.05571983270621
3.21530309026212
2.82004995492265
0.991247201162464
-0.949537631106451
-1.52112772991853
-0.461747873773771
1.02847236807386
1.38063556761773
-0.315981914563128
-4.1687895486324
-9.57000648526673
-15.2370386836982
-19.7995369634603
-22.6453230769823
-23.9567711897267
-24.0718175315361
-23.2196683572957
-21.702375325228
-19.8406797371358
-17.6645440693792
-14.851260926532
-11.1166408448798
-6.83093144524523
-3.2026314873853
-1.44152047231077
-1.56500176986203
-2.34384053382472
-2.42612950454465
-1.04619639699347
2.21934935906632
7.46945003635459
13.8879316050839
19.6889494474631
23.0814627459424
23.3122272363206
20.9138197219702
17.1025443083999
12.8570354398766
8.58756749886434
4.7291901113741
2.20927536435752
1.80381212460809
3.19431123036198
5.12181127853558
6.45518908368338
6.96534684626038
7.35442109213779
8.70981166261163
11.4863216589046
14.7556911506984
16.8539019989268
16.9030907876913
15.2513000891272
12.4821876552029
8.74540804173203
4.28731468070296
0.104982397805958
-2.31386196581045
-2.02394923701189
0.340520997261618
2.51215219512819
2.02807583291743
-1.88055728383437
-7.79164625720908
-13.4210412265149
-17.3624951287447
-19.7310898708073
-21.4644096194711
-23.2119463875288
-24.9535170791027
-26.4249717032565
-27.3200607167745
-26.9107950438049
-24.1188948868612
-18.5065224633836
-11.0235351731296
-3.58817214283037
1.95909403290081
4.76415767569391
5.42116129444791
5.54104744302616
6.44062979322096
8.26444486274297
10.5555321792121
13.2088882262899
16.294721750892
19.3249420752495
21.4890360649048
22.5925342743553
23.2219739112327
23.9804684964396
24.8962943400809
25.5240825242451
25.3743999148844
24.1927977920334
21.8280930414347
17.9562681295017
12.3149838724938
5.35648223043665
-1.67478108016986
-7.5394327205826
-11.7632022037043
-14.6993830266656
-17.1380943666085
-19.7847364601591
-22.805191083577
-25.8097360656164
-28.2926313074522
-29.9725233153566
-30.7836781220836
-30.7517491256125
-29.7910574444478
-27.5399991678338
-23.7147559708584
-18.6825433266386
-13.1727266507306
-7.39832323004947
-1.19877533778055
4.81195819594123
9.03485262697567
10.1630340446098
8.24108133075093
4.46088739322204
0.46958837124025
-2.18550155958552
-2.653902255603
-1.06617157139953
2.03454869574096
6.36299743030393
11.6288804487145
16.9048908768732
20.7912075071817
22.2551845130015
21.2954490622026
19.0148699325397
16.9562858632821
15.9703595951292
15.6872220899244
15.2263499921386
14.2084640285601
12.9011748365307
11.655394846855
10.4674346051185
9.05220756474707
7.29120188065756
5.51063793161196
4.0624377570406
2.709453428684
0.918699283248579
-1.19317833351433
-2.72958766393803
-2.91392119934806
-1.75716738573896
-0.0141144158621554
1.06387022536766
0.293788429150641
-2.37303377785804
-5.41625682693733
-6.95870288186515
-6.50807564376695
-5.26110684886631
-4.79011531476696
-5.72346223952318
-7.68713747106087
-10.2184669053806
-13.4527194751053
-17.8233521262936
-23.2580198727674
-28.968939715233
-34.0107030741212
-37.6845861126014
-39.4113771423951
-38.7074849247557
-35.4164174645109
-29.6257496640877
-21.4227286316787
-11.1736751311939
-0.0201803382515507
10.2807675502591
18.1361813425742
22.8796421734123
25.1552996440754
26.5687404229868
28.4771148327235
30.9211137023636
32.9327434392729
33.8045150745359
33.7683429379212
33.4910229771772
33.1195292360801
31.8405527995267
28.4640051427779
22.6139960621354
15.2376518756398
7.82739886950546
1.40339698247809
-3.69854380828763
-7.60265502900766
-10.7652012395056
-13.6183143831094
-15.9945784245752
-17.202969086313
-16.9495412551661
-15.9505927950119
-15.3547360570722
-15.6324036156376
-16.2168189479654
-16.2709450001964
-15.7348042448835
-15.4389082700135
-16.0087480769931
-16.8422569253246
-16.5671031504582
-14.4623235116968
-11.0766737718664
-7.56405927383207
-4.81433032575617
-3.13277137590193
-2.35536730415324
-2.17246319683314
-2.33452516840057
-2.41253732775596
-1.56655216475988
0.95380907871986
5.04550374878456
9.8320273130477
14.5042693863969
18.8953893651854
23.357469062065
28.1459534329338
32.6420417867653
35.1641189672953
33.9741164489398
28.6785387220871
20.6227924119878
12.1286599628402
5.36348463362003
1.34458096876515
-0.449881242443797
-1.38902367216897
-2.54111684514659
-4.34312564032402
-7.04095162678535
-10.7217027999577
-14.8439245697274
-18.3593309808665
-20.5371684574647
-21.3333170127605
-20.9290019315634
-19.3515600510435
-16.7031746588116
-13.4915832083321
-10.5181038777478
-8.35827183940606
-6.93737746226464
-5.75124234932437
-4.52606685579819
-3.38155633772904
-2.29226292090683
-0.788461001298909
1.65266202851269
5.18809802241816
9.53581696608971
13.9434869140535
17.2944875983883
18.6494482703526
17.7621897895522
15.0396517298558
11.2396643174128
7.17892003207518
3.28830906074377
-0.559709197215103
-4.36855404144418
-7.33681991440511
-8.45394058929976
-7.71282703891432
-6.22894671076282
-5.1466937708174
-4.68330711243323
-4.15543369902193
-2.76845345848648
-0.424276908106583
2.23793222132872
4.5733817094594
6.36710967014235
7.32038380136479
6.55651138686034
3.2400174896838
-2.33395612484609
-8.53697666026197
-13.2359499745931
-14.9279590950468
-13.630830104594
-10.9410097512718
-8.90137481991044
-8.5569577428735
-9.50757881198607
-10.4850770168292
-10.1633482363432
-7.91841027515474
-4.38251843789511
-1.28723743013408
-0.543511905425799
-3.06231008894341
-7.73884154598864
-11.4156363039019
-10.836764629778
-5.50038393844456
1.77139051717253
7.5124348617917
10.4298924961611
11.4503183015187
11.8825895543351
12.2178438767565
12.4169897733433
12.7729123955047
14.0683396136863
16.5962906743873
19.2403665351609
20.2235345485903
19.0036968910499
16.9220358425692
15.6876628460978
15.5845121185317
15.4159926768119
13.9307797447946
11.1053549087284
8.21003577748912
6.68838961932923
6.82765913170873
7.52626389773516
7.33854229586092
5.52210478955333
2.17994830495188
-2.08222019473423
-6.50041037612785
-10.5301191729704
-14.0089232317046
-16.8744802843528
-18.9784588597287
-20.3580189760075
-21.3461755422834
-22.1640674098365
-22.6493096928829
-22.5255236376471
-21.7511702450456
-20.5737768167639
-19.3083801023503
-17.8902001576809
-15.6460756379817
-11.8711816486083
-6.5877501855133
-0.230084545340045
7.2407628794169
15.9872683845222
24.8260160368652
30.9517972423489
31.9010929053707
27.8358470903168
21.6220123613779
16.4751452006794
13.4361600739714
11.0904059796607
7.57958231009483
2.57692795297033
-2.70596409417713
-6.85777251443684
-9.17801964841576
-9.795471006832
-9.67487641976095
-10.3435361577735
-12.850252539237
-16.7773661314759
-20.5192299919603
-22.5192447566481
-22.1518217659083
-19.7126156288044
-16.0215140527896
-12.1860433868939
-9.4073210448744
-8.33208416866634
-8.2201664989361
-7.23958281862368
-4.28055950378352
-0.325368915861554
2.56696784203866
3.51711137125745
3.55149043746688
4.2372884572207
6.17019638402918
8.85045898962615
11.5912726566057
14.1493172970475
16.3282998671317
17.3412436428315
16.3730110334244
13.9742699289729
12.05028549899
11.8610469150255
12.5341717614592
12.0840630208822
9.55495702124532
5.7999626072789
2.53511583549433
1.00464508442711
1.2447464773663
2.19816807807466
2.58197408040513
1.87328347513118
0.569450708036986
-0.397093560516089
-0.49693255679823
-0.0503185713604632
0.152165954677531
-0.190322902444724
-0.513620641599829
-0.203568354928686
0.577496753411244
1.26400617997119
1.72208943661383
2.22754741013185
2.81818201454261
3.12771255312348
2.97713116783584
2.99695586151287
4.3129901846212
7.15984296106021
9.97361854447306
10.65962348741
8.90921042988149
6.49479561962513
5.06667648366685
4.39078964001403
2.96437348099699
-0.319155747825909
-5.34896271028239
-11.0489204767593
-16.0942788498295
-19.5919040662802
-21.3390247792151
-21.6445864048341
-21.0584552214353
-20.1009856276128
-18.9233211800596
-17.2512853674043
-14.8777678216234
-12.1207039745289
-9.67339042486247
-8.2564071440249
-8.41202697236089
-9.9238316233824
-11.121830910131
-9.63961043868079
-4.71638324342622
1.44421115824082
5.03359717653025
3.46654118793017
-2.70460033616841
-10.0907261901266
-14.8156211384827
-15.123956384629
-11.8259637966719
-6.40520295614711
0.571097474132865
8.92893269908507
17.627475793177
24.8223184787708
29.0764932341644
30.1319348207572
28.5724350472895
25.1452756083786
20.7045631692356
16.5711939016735
14.1620408545114
13.8038383384907
14.3360766230681
14.264973257853
12.9472279114465
10.5490931591456
7.60647920217791
4.94599576159126
3.26720266796815
2.30017820732296
0.880408725394519
-1.78600504230452
-5.33066117686852
-8.83653829556776
-11.7420009784801
-13.9892475930499
-15.7636668040599
-17.2938720102038
-18.6383624619631
-19.5654502742099
-19.6907929737108
-18.6060221898122
-15.8885080272179
-11.2878193650445
-5.0467321985551
2.01264011993141
8.70367309421278
13.9226910379119
17.227290131806
18.9732575811157
19.6590159190644
19.3731764235776
18.213660711397
16.81143043603
15.7985835986745
14.9495845492049
13.3576650326628
10.3498954895517
5.95430104116218
0.67705172984462
-4.9413905961427
-10.6270588222886
-16.2575937249885
-21.4817168722359
-25.7588553250762
-28.8426209394064
-30.785053035269
-31.3374025416024
-29.8888157722755
-26.3000555886024
-21.4185843935114
-16.5002641336089
-12.3675662743129
-9.20544715130743
-6.74772399363878
-4.37069691340517
-1.20339843019896
3.52921989354831
9.95902653137217
17.0865919103704
23.0395596596491
26.4418527209303
27.6674383366454
28.2703386452594
29.0528015953412
29.1175862223894
26.9908154032229
22.3700545195199
16.502454257913
10.8955707847617
5.96581264104993
1.22821773376432
-3.48125356109857
-7.67166316360606
-11.0636297250972
-13.9374849921535
-16.3639303224007
-17.8347443694597
-17.9417656772652
-16.7866243063638
-14.5519108246363
-11.2938388290869
-7.28923560341224
-3.0793775473151
0.862614397304767
4.11444062401418
6.04649834438529
6.02731433137989
4.0621578701721
1.19527332723751
-0.849183306003107
-0.843522028116079
0.773863048892354
2.19687575729413
2.14631136959247
1.16232032927934
0.548870626593008
0.491849559651888
-0.0122262564083287
-1.56669610836082
-3.47766523879771
-4.59072673483039
-4.65526782275022
-4.60554900926286
-5.39881542644923
-6.69152620052753
-7.02391891112593
-5.36794484276239
-2.0904601372426
1.61669442662508
4.66637355355636
6.35348621641569
6.46960231620135
5.64317966709975
5.26460931908074
6.62701619613507
9.91715292389009
13.8956116413267
16.6255033695636
16.8127837752155
14.5622451580742
10.8644845984083
6.66818422413501
2.58101309174966
-1.05453526453166
-4.21368874474368
-7.03903539926261
-9.42788634673864
-11.085938904197
-12.066832641333
-12.7934120007986
-13.350916357453
-13.1400444519144
-11.4747178850514
-8.35632075035924
-4.5900350311137
-1.25095243953106
1.04806780595513
2.47380923503776
3.4552606632713
3.95301895966762
3.6160490995619
2.5431623940564
1.32430122756566
0.313913871787716
-0.666686526754847
-1.93177687001944
-3.61001966648447
-5.59632028117814
-7.45336828607258
-8.42187998413478
-7.81651951309322
-5.55327016709221
-2.36964818841712
0.569742853038849
2.65704100897714
4.47509288046183
6.94469956226723
9.72335378730153
11.0778542147191
9.66897323832426
6.07926379288361
2.39548949131009
0.528708562118937
0.873324069208599
2.24131442048584
3.03654920575589
2.60719191588769
1.46572586326621
0.419397845619804
-0.0808593190559908
0.182122290097962
1.32383558868246
3.13649065866737
5.15959227971723
7.16071399902849
9.21041511268237
11.1811996729827
12.4988727094255
12.5201314551744
11.0463681040177
8.50197486279435
5.62676430397181
2.86239089674363
0.0854274501910412
-2.9680880731008
-6.26163188042174
-9.55857527850735
-12.5600738294074
-14.8076417949762
-16.0131102456778
-16.7385532068898
-18.1750484964565
-20.86857330628
-24.0136170815757
-26.2548499678985
-26.92576821985
-26.2642247752328
-24.4513662362729
-20.7164737705317
-13.967030340207
-4.60693419213556
4.90875732786737
12.0429521533437
16.3516708400376
19.1659339468589
21.6503961786704
23.8905560581479
25.4705957261457
26.1170649298914
25.7645790395738
24.4157138864441
22.0314035722806
18.5982192669748
14.47410555592
10.4737785679863
7.23837232862199
4.70309933166673
2.52402717507239
0.684826998032421
-0.741080167376231
-2.05597747509958
-3.69161571305049
-5.71924735051836
-7.88669070088006
-9.92820230496195
-11.6620918791178
-12.9614794747826
-13.7961524277986
-14.3380404314874
-15.002585300076
-16.1625744726282
-17.579400280579
-18.2735043039731
-17.2308493254843
-14.1530451478935
-9.4708539778168
-3.98524360471246
1.40332999125243
6.07306092683095
9.95515884277584
13.1218760484945
15.2414356113342
15.961510603295
15.7363055366957
15.7594290283825
17.0058946131791
19.3983071623291
21.6152169826974
21.7290994343295
18.6961271012123
13.5417584028464
8.61659415136721
5.45154861798237
3.74669436353875
2.43658912795946
0.964099893865903
-0.76700780622656
-2.94906248883374
-5.77151485674004
-9.00327827423758
-12.1121186914291
-14.870828645502
-17.6436773368977
-20.8553175975994
-24.2144353777471
-26.7655846171882
-27.829840160895
-27.6920268597283
-27.2218925332286
-26.7473765086188
-25.1396724372825
-20.317255563073
-11.5163208937344
-1.13250005907159
6.78679301097418
10.290700231147
10.8483056449016
10.7909179678612
10.7973799657511
10.4284638945823
9.7968992580835
9.65154907751154
10.3027065286173
11.129932290258
11.1231883240688
9.87149958512535
8.12423062826059
7.16910231172417
7.46652195609174
8.18553740707242
8.31616442409464
7.9036918290024
7.85819558995907
8.77056686883763
10.2201468190598
11.1893067053426
11.059131949171
10.2112573954582
9.5437634967311
9.37865531841684
9.13552775078118
8.16168282883253
6.54255912239427
4.98389174936178
4.16277190298647
4.22095653079951
4.69834325488696
5.01278749517186
5.0379498946207
4.94527609622896
4.48080977423483
2.84952286351262
-0.531011766547419
-5.41766537942918
-10.8422935865762
-15.6085710046431
-18.9199854904692
-20.8216803224514
-21.8849211011538
-22.4184708536978
-22.3041488318203
-21.4847268021786
-20.0597885016274
-17.983501664993
-15.2999382986154
-12.6453991998446
-10.8085180933348
-9.55872978128874
-7.40213502392258
-2.92357808718937
3.61321081220104
10.0791534375623
13.9572736800382
14.1882227971398
11.7523329091613
8.58880018086085
6.08710088064976
4.48974294376772
3.26136279334104
1.84930271797304
0.471941680685967
0.306480135661318
2.47902763305377
6.66924107366401
10.9486417894494
13.0723176124912
11.9655758383861
8.37122452262964
4.29765469792148
1.4316540681547
-0.219238217443837
-1.9004066868165
-4.36381511880421
-7.01120529744238
-8.77818104925896
-9.32830437024168
-9.18412171820522
-8.94116591165858
-8.52099986648841
-7.33931627896983
-5.33995842129768
-3.49064656508241
-2.74448534620653
-2.7782473519015
-2.30289924671009
-0.36121330038522
3.13531785584674
7.68470639391047
12.3344394454073
15.8735051610283
17.5864970736917
17.7528835751764
17.0647022500021
15.8411361410755
14.1393072165172
12.2193440543173
10.4245207052662
8.79626614512088
7.11286061534345
5.23104804898937
3.29659567266867
1.66133411723299
0.55714801677023
-0.153415618623202
-0.833291077067372
-1.76293991625119
-3.0272584784794
-4.47349324752517
-5.70317392132319
-6.4318006459567
-6.94545002742725
-7.85248548904646
-9.32885256164693
-10.9229907935236
-12.0547451107326
-12.4363644623099
-12.2199032546856
-12.0171947256233
-12.425806884715
-13.1665889445339
-12.9935123454415
-10.8273620216257
-6.89100536001233
-2.62889592362548
0.413338664702001
1.70746998430561
1.88754172373678
1.77779636010078
1.43363302221026
0.479282588844369
-0.710746197044639
-0.779781717198747
1.34043410069694
5.16478087073007
8.78239876469154
10.0553836572196
7.87912562941377
2.8994868130773
-2.76646144651977
-6.879191882182
-8.50690007879883
-8.32358765711507
-7.71242689726501
-7.53398785178947
-7.4251269869156
-6.18226483472906
-3.01763488979407
1.50161181786485
5.77423463817594
8.32880127091642
8.8148469061384
8.1934674937693
7.85345154176815
8.15116399649822
7.98272431731546
6.18518600403731
3.03017761977969
-0.180742665185461
-2.65275627984471
-4.64208994109908
-6.62894222907893
-8.34048131862197
-8.62262342903564
-6.39441085245013
-1.96713943437407
2.80634770310962
6.08080398281895
7.61035185431673
8.59692112813785
10.1966466000281
12.3831592890154
14.0624461187637
14.1577743687336
12.7431105195211
11.0675223176061
10.2412663020024
10.1257910555339
9.8973917872487
9.36369258710343
9.07330388586329
9.22556293788202
9.07949490048363
7.67133569412593
4.98476761057215
2.23840953996847
0.778566352902106
0.64881813357081
0.592420955166084
-0.479122069446747
-2.5221641227825
-4.9347057536207
-7.4101687574472
-9.94136917912966
-12.5139385031142
-15.0638293235926
-17.3895838768918
-19.0196704680905
-19.4457024041901
-18.4975280683639
-16.452951380633
-14.0436535666588
-12.2999845954911
-11.8615398731419
-12.3357621866113
-12.7275169933787
-12.5161844047979
-12.0555221158128
-12.1117696166853
-13.2810331021361
-15.5110643232299
-17.7420609559965
-18.2457832804259
-15.8521956860309
-10.945212570951
-5.04271561912272
0.669580601070001
6.28071474239444
12.453800216311
18.7260983748583
23.051959654993
23.8644802785025
22.4152923390754
21.9276787070708
24.0980549480335
27.2962899380718
28.5482407279953
26.5563852795638
22.4729008663572
18.3843844821652
15.5384041951439
13.821445797917
12.5113079142735
11.1623441917697
9.65495557357993
7.81364556642726
5.4403976011942
2.52959956816249
-0.861155905675754
-4.66818811631577
-8.52201510434086
-11.7850923479089
-14.1082178813087
-15.6251256666647
-16.5766420193864
-17.1316713567811
-17.482015991659
-17.6226889567448
-17.0662597584695
-15.2309016066896
-12.2457724117899
-9.20197954433186
-7.51137682360858
-7.86118447188186
-9.54219200901833
-10.8982792105703
-10.80481901934
-9.63772559956626
-8.42440600099234
-7.26710403978606
-5.20639707523264
-1.59748969683468
2.93080886851318
7.02574269855312
9.85767390881213
11.6988002497015
13.3039032828183
14.8812604685674
15.9736842383363
16.3146806017131
16.2428294394392
16.0285171902882
15.2916637877349
13.4522408976559
10.4946455571792
7.10664915558607
4.22953419923019
2.39000540322908
1.24807390444819
-0.0039606436171535
-1.60349464781421
-2.90409408827427
-3.29901956049411
-3.10863965575293
-3.36037403699321
-4.91873786950883
-7.83227316774267
-11.2699568183695
-14.1195031023254
-15.8224936494872
-16.5653398968029
-16.6894575557546
-16.271530064483
-15.330166686779
-13.9237396662017
-11.8171245298141
-8.5285357477242
-3.99830411427801
1.12322096459779
6.04612542606469
10.476499550398
14.6260011010269
18.6693730819242
22.0770679027742
23.579969869108
22.2120004721263
18.375043159044
13.4716401724536
8.63096600407759
4.26464821465032
0.607079077639987
-2.00414117792867
-3.41985170886446
-3.855247974478
-3.75062871435162
-3.54943974903544
-3.41743669319703
-3.10420161202327
-2.2941901608654
-1.1495338434168
-0.389237630658861
-0.824286391249258
-2.73166414118176
-5.49417904112879
-7.94482441283297
-9.27211844547941
-9.45936909336462
-8.75524519782309
-7.1208173429312
-4.47807891119902
-1.17189632128545
2.08861024943631
4.54929040434856
5.68938448144916
5.62119231448699
5.19563442015607
5.15260358354139
5.15046275443359
4.16568868125721
1.71892503462389
-1.91969829644614
-6.49428694199236
-11.884792014665
-17.4591854140941
-21.9453544622831
-24.0656669345548
-23.1017175999466
-19.1446295226434
-13.2638918711091
-7.33494830276012
-3.18636471448152
-1.46952945029036
-1.16255541457035
-0.295761031277028
2.51967464577036
7.08894803652218
12.0620678190099
16.1454529533239
18.8311561621427
20.33238078441
21.1552009065779
21.5842286692824
21.4052831753786
20.2393387756522
18.1207841808457
15.5594116577103
13.1424656559822
11.2450938557965
9.87994301012246
8.58724382555568
6.76277597359924
4.410858962212
2.34917248870721
1.38096708988086
1.44120121186549
1.74568011370333
1.55511854971462
0.650227687496462
-0.683085090817821
-1.95945439595133
-2.88303847185336
-3.47626683551477
-3.87621086358611
-4.19340006908572
-4.55896910246036
-5.15909956979563
-6.37378486673213
-8.93426362724231
-13.3903769486086
-19.0781668488635
-24.151901426087
-27.0594853861017
-27.6156208584671
-26.5157254225181
-24.4395409423498
-21.8315271363599
-18.942963301089
-15.8115329561432
-12.4805121368652
-9.21383681983963
-6.35007652725505
-4.21995482206438
-3.15416345434339
-2.86249218942462
-1.78668353461944
1.88260269329965
8.10937797985688
14.6754449134933
19.2722237282672
21.2974993420088
21.4519533160146
20.4768265312307
18.8110418416895
16.8856073920935
15.115083263969
13.6580520631707
12.3921451928618
11.1378788235585
9.93412765452003
9.05593840716209
8.65665322904128
8.53341019471367
8.41707367477115
8.28236429535012
8.17088270699347
7.91196214274228
7.16958887032655
5.65272793597085
3.36642679540043
0.847306634654192
-1.05172262405678
-1.86735671459287
-1.86385493388475
-1.61154367190175
-1.55518532272701
-1.99535765394749
-3.04486667932727
-4.55287792039137
-6.37323834193967
-8.53872245671922
-10.8674287245333
-12.744622017792
-13.7000798926625
-13.9283490842552
-13.9468542578384
-13.9885712292666
-13.9005951440865
-13.4207166531851
-12.4465010595705
-11.0847363406863
-9.34086918212034
-6.84859901543905
-3.41828491491012
-0.0022728271930922
1.59460032300757
0.531165654799571
-1.96723252778437
-3.83915281225274
-4.21168460348655
-3.80571823545262
-3.64783305886804
-3.82888545058914
-3.52888520905932
-2.12640011909458
-0.157936473882422
1.14115166068812
1.45970051294869
2.28169421001559
5.67482119077417
12.0818728289591
19.489584814819
24.967715428925
27.0173401829057
26.2778778066252
24.155910375126
21.4422791266508
18.4689116682707
15.7521336940642
13.7229053675235
12.2673164706588
11.1511196301415
10.5055503518801
10.3664143684628
10.088911244801
8.69960656246071
5.70828903885511
1.46167009951122
-3.10721920627328
-7.14600542631036
-10.5940357339683
-14.1553754630464
-18.3405885908894
-22.7396208091884
-26.5233219264422
-29.4214677270814
-31.8509405762998
-34.1798801577281
-36.0364396603981
-36.2786546317581
-33.8330814041615
-28.9457957944875
-23.4508842331058
-19.3466197725508
-17.1032056481615
-15.423049776103
-12.2627399665529
-6.06300253471292
3.21942283532318
13.7716262329332
22.9539453108831
28.9674112343246
31.4670322087276
30.9580418272181
28.3015248447638
24.7161146961657
21.4650139256409
19.1270340773238
17.3356574874943
15.3898835709629
13.0939173258401
10.9126399579145
9.30204224829185
8.16012401344345
7.18402016583935
6.41725747237839
5.94444051885726
5.33801132802785
4.05374642088153
2.25722859127589
0.700145432372574
-0.164161561088972
-0.49818762841141
-0.590657256282693
-0.452657012506125
0.0772593708870968
1.00253508229179
1.88724397739162
1.95171585280586
0.763675464785347
-1.1800140566371
-2.90819161106563
-3.94016056335714
-4.47500577898977
-4.85323862035773
-5.28674972398006
-5.98240643986376
-7.13217427219975
-8.75873409126314
-10.6431157204858
-12.3138463239599
-13.2150647761119
-13.1389769718698
-12.452207865089
-11.7597119585062
-11.4279696577858
-11.374808652049
-11.0552285098518
-9.79214135375031
-7.52285704643332
-5.06502139129641
-3.25512053839533
-2.07121332165482
-0.973802464238245
0.248216278396679
1.3974036113293
2.33786450422277
3.17427411546707
4.10068984676587
5.22604588678843
6.45249893320553
7.55274811441221
8.45800578268008
9.29664979823006
10.0717180344902
10.6679643741248
11.3262179192785
12.5601066980266
14.2401481984678
15.2363959883358
14.374418875626
11.439638439505
7.07216662743263
2.1220108317608
-2.64273378669593
-6.5523268770462
-9.16625812052465
-10.5073443102163
-11.0824359529763
-11.4117182710387
-11.4088592722742
-10.4946798484818
-8.44611568125505
-5.73206107151986
-2.86962201715066
0.0165834197600816
2.79456191632114
5.08444551523122
6.74280179457245
8.17498709692679
9.89371869212153
11.9006813244729
13.483840038565
13.5905839566708
11.6645558355753
8.15420739514265
3.90781466225916
-0.766800279892239
-5.94655391604207
-11.1911905983915
-15.469543770854
-18.0356440725458
-18.9246098251239
-18.589678480602
-17.4183507042738
-15.5495062033256
-12.8740061189829
-9.32738136897651
-5.37484462498715
-1.96683768551346
0.224065380766961
1.39642411472276
2.40096371606071
4.04295121760181
6.47247800171462
9.07256007004562
11.0099294896336
11.8586201718593
11.5052573584236
9.7536848458006
6.63455367078599
3.0611426111242
0.59609069093571
0.34571793525775
2.14332784212871
4.653749205887
6.2557906948245
6.19985321945037
5.02792045490588
3.66451915722215
2.34589080928843
0.834352566231174
-0.757789999834544
-2.04845306433171
-3.01240777953843
-3.85259410728554
-4.32143665662316
-3.65112539850687
-1.2851262589894
2.35705856857309
5.80224311530377
7.35596594857642
6.29012641938104
3.27772124367107
-0.31584283556528
-3.38193426134606
-5.41212526217161
-6.44277147821792
-6.89269094307918
-7.11947873787803
-7.04027754322831
-6.4568217692337
-5.5402818673435
-4.51224644948986
-3.0999229989406
-0.879024550026548
2.01236859552083
4.92493822733895
7.2530366200996
8.66560720676875
9.07666353926776
8.62604266055772
7.49207661625609
5.66345279983612
3.09222483340122
0.0322908829641991
-2.94746336886725
-5.26583400749104
-6.70435212609816
-7.6582842247477
-8.82420163030062
-10.2974627266889
-11.1318095362583
-10.1092506108866
-6.88912837412229
-2.4033663441992
1.61687557942956
3.66920921223028
3.57386392726421
2.56689650494595
1.98729079542409
2.06448882883438
2.30273264052386
2.54602205342654
2.93838325295655
3.10115057218694
2.1582283174786
-0.323466827170734
-3.79538853560003
-7.04886639764707
-8.8577384929513
-8.57667811813213
-6.43601370067733
-3.26167756707214
0.0364138279706882
2.68602169039409
4.19165192069765
4.6198524736669
4.5343644616469
4.40585941572948
4.22070550127432
3.71199781327494
2.82668479227112
2.0496843858636
2.31954291429887
4.24053978642369
7.15437921512005
9.37573033007298
9.63303115557946
8.10031556720301
6.03030179079028
4.65449373972835
4.29310068386871
4.16013904157091
3.10844232428781
0.763324206863307
-2.20197409583608
-4.87024796649799
-6.78623214205295
-7.88497351513521
-8.20990892809446
-7.88300179146954
-7.12659299758263
-6.25356530261393
-5.66253886937518
-5.55702337549451
-5.50742646745488
-4.70486538113666
-2.93276913284284
-0.902305228075622
0.592429962043877
1.41735821851103
1.85112048724922
2.08992739763546
2.17571186205187
2.05181672816918
1.58651328645322
0.752403324494976
-0.218030022577109
-0.897693177008446
-0.764223956916172
0.619453001775678
3.14715131538502
5.92035597741289
7.77994112309184
8.14105053630644
7.3059081869555
6.18058600586797
5.62625802208097
5.70528929913888
5.60772824096078
4.61607405866061
2.88893658530023
1.01766551493949
-0.667593907618712
-1.9477706782173
-2.50258319145312
-2.41680813750062
-2.44958909343812
-3.3118223270113
-4.9508306368051
-6.78935882539765
-8.36249126594862
-9.5945287231421
-10.7657631912294
-12.2271259082443
-13.7995299715046
-14.4872304959584
-13.1524947130139
-9.52346672254941
-4.41907877710634
0.881158977804892
5.40483193965999
8.81896979807043
11.1226405119937
12.0996326567823
11.3621665126728
9.01073320640617
5.89903218070831
3.06647712422633
1.04273049264491
-0.404199397537493
-2.02667967683846
-4.28597839665382
-6.47783210562519
-7.08765705854796
-5.4146858752449
-2.45915107917835
0.133400836990533
1.58909755702484
2.17495042478365
2.29891744779282
1.90918357567528
0.815232174532642
-0.544039516893817
-0.980527300032362
0.368450929373048
2.90184268521075
4.95398729751789
5.37500727817568
4.39379931526713
3.07947580909415
2.4864495997484
3.274845251279
5.4982381886408
8.40612522927091
10.6763773261503
11.1102999563817
9.30900260878363
5.96729814241757
2.50929261929209
0.0364722227880516
-1.50775978037007
-2.93866987748833
-4.73825936052273
-6.65667946031414
-8.16179818670824
-8.90329728945846
-8.89475147721726
-8.492379634146
-8.02324668620558
-7.31478721683268
-5.79691892192045
-3.14353159240535
0.25935155461244
3.37958939066993
5.12680280252534
5.26268940067059
4.73918969904081
4.70029249679852
5.22235775719034
5.50223815098912
5.01092421851563
3.8110920887273
2.01818353896726
-0.295993548257856
-2.74867201868505
-4.73676114096576
-5.86650046423569
-6.08600617699641
-5.6036952999762
-4.85453332026796
-4.31346189651658
-4.15548022496724
-4.17038273094794
-3.97376276783658
-3.22587627173221
-1.90434521638536
-0.612654161239906
-0.381365313493083
-1.85329346861077
-4.67477557853835
-7.64367019786277
-9.3434432787293
-8.95275160844508
-6.84785461010324
-4.25898055395831
-2.06925542050735
-0.123307542316729
2.22790280202385
5.25288114590517
8.55516378412205
11.3310145971068
12.9450897008837
13.5015780483667
13.6918767686058
13.9423588858372
14.036967632964
13.6240398641104
12.5891529642945
10.8909316796832
8.59054163541394
6.06815843375945
3.72527242925441
1.53306860387442
-0.761339541870667
-3.16550158321132
-5.4428865498376
-7.33033307713578
-8.61859471278377
-9.32766965757426
-9.81647650625479
-10.34334460432
-10.6087825099322
-10.2111471825169
-9.42672464479024
-8.96469912316161
-9.00291099539764
-8.93655039346798
-7.97451021756782
-5.6898512441864
-2.36905967989819
0.76910062297995
2.13349637180372
1.12600656600544
-1.1261770537742
-2.71230102933309
-2.65933385956922
-1.65324149994659
-0.993241751361389
-0.867438768470972
0.0072063068386494
2.76373726828254
6.71122012248039
9.69946232417055
10.0316141053294
7.81915428083391
4.72506566848141
2.57474424506951
1.96301803481849
2.0800143850189
1.93673439274742
1.44411389265714
1.09012360511683
1.12019316982555
1.46276007195655
1.96099164486083
2.30452993322985
2.23895434219327
2.12648689335338
2.75519343658216
4.33033627878144
6.1369484023404
7.35960950195496
7.76106008733629
7.49541438837257
6.79458006408103
5.93867329143737
5.10535037890547
4.19098104387184
3.02847258239162
1.69731939809236
0.497094207280693
-0.225375915537861
-0.285264864912692
0.0240731214734893
-0.038604612844601
-1.03515603033259
-2.93069114804983
-5.45070779841593
-8.51108349946164
-12.1090952774108
-16.0406511252989
-19.7603926445218
-22.3733943557445
-23.0514104473926
-21.7653897709212
-19.3284416334482
-16.535141670878
-13.6461187602872
-10.7295092117077
-7.85544970923464
-4.81933222954437
-1.25575809867046
2.83299245203183
7.02730950378699
10.9144743700003
14.2469487681246
16.7618449386023
18.0440454205943
17.5577793781145
14.9868709034556
10.879988277746
6.80397657319185
4.33153730049998
3.80186266857423
4.35197096648954
4.97818133985347
5.17129631567707
4.78233237139265
3.84745696821255
2.55587688610869
1.12927099158981
-0.234805862063389
-1.32733724890191
-2.0686529351695
-2.62105715955595
-3.12716790105826
-3.44293212286601
-3.27847369966942
-2.44763924991318
-0.973590238082495
0.80801126552218
2.34926951355012
3.39687045896551
4.26226774335222
5.35024528113011
6.6482038870713
7.83259135746978
8.55545990234792
8.56790814606456
7.94054432741196
7.10877555884768
6.32061093849425
5.24507960418826
3.51381389657419
1.3392561006565
-0.774196205219011
-2.57787937467901
-4.0273175340466
-5.07120924974529
-5.7966533022531
-6.49930882101303
-7.42437257524455
-8.63934172786807
-10.1056714364303
-11.5479954861586
-12.382646726388
-12.1869646952097
-11.1626234581444
-9.87995512191149
-8.76337855576757
-7.97284248055346
-7.43688717914106
-6.81173377087196
-5.64038361092372
-3.59217425640197
-0.475723477931979
3.62169270339697
7.89685419811413
10.8951514403145
11.4566460098373
9.55454333135487
6.13181767439727
2.28222771219623
-1.42835208905709
-5.02568255887716
-8.54998051432899
-11.5184754216031
-13.1819502616365
-13.11188335576
-11.1972809176811
-7.47071878665946
-2.51717191196507
2.35940067164839
6.06417080006574
8.5422967694277
10.2631459711591
11.3701542533651
11.8388672943309
11.9902655134672
12.2538821553675
12.6243047284902
12.6892159613763
12.0656325363277
10.7551031375501
9.28921323475651
8.40628133446851
8.26635150902368
8.18260969691777
7.43602063896797
6.05424841752035
4.51678570510263
3.09798279146793
1.78817672876666
0.493307100505423
-0.954205355356926
-2.78837611880596
-5.19048138275107
-8.18002274662369
-11.5061899528124
-14.6803110248166
-17.2953888701104
-19.1665405483496
-19.9812494673286
-19.2101588325577
-16.7277818104709
-13.1403114168695
-9.16712294466186
-5.09446781645908
-1.07061135417918
2.52052388847342
5.2350909646164
6.88685115571023
7.68765034052716
8.15249073125273
8.54784911940404
8.37636567328537
6.95966677556261
4.63380750795708
2.69081641987211
1.93274518578582
1.92200134709349
1.88017907976893
1.70619942846068
1.81043729463273
2.41716915333109
3.30360563062642
3.96835926753576
4.00433806192847
3.51069071805863
3.04746213789866
3.03467222476666
3.34096526225479
3.47006595051984
2.94426420548008
1.64830026347468
0.0860686332953906
-0.872684045645068
-0.744053456527659
0.204178439172901
1.31067391849353
1.92663190394084
1.59745288214445
0.294403130616717
-1.60153891895627
-3.81137228017964
-6.38863536581527
-9.2599489127314
-11.9892626508567
-14.1714584701298
-15.5861364518199
-15.9330323197382
-14.9622653484512
-12.8499760765545
-9.98742507939528
-6.52607329704711
-2.46985929663978
2.02566898306752
6.66255529596661
10.9769597981984
14.2487150545528
15.9456233504232
16.3425544090633
16.1682784158039
15.5821826363369
14.048293256545
11.2692083769397
7.74919171082509
4.40933940389739
1.96200964780695
0.497858295212403
-0.571161869060323
-1.92056189472546
-3.53570704226105
-4.81724489140047
-5.41915224347916
-5.57753208473877
-5.67421552769528
-5.85594866705285
-6.02187304716063
-5.91710860598037
-5.28150345091256
-4.00619556040016
-2.16566988814517
-0.106615385007311
1.43240993575385
1.73178038107888
0.863168975251845
-0.304461207613809
-0.941800920947177
-0.696962112883005
0.495410451753107
2.32388786882099
3.91799588586561
4.43768200861855
3.8025123226185
2.43560619757975
0.630891694487432
-1.31454829427292
-2.6968102777856
-2.78393696476666
-1.61337662853002
-0.143431841282135
0.397340967945632
-0.609009101388451
-2.63561685426297
-4.38522673521082
-5.01404625172128
-4.89173615768346
-4.88538388007336
-5.20835689731628
-5.39878831630351
-5.12698827352585
-4.50152555914848
-3.65624943764148
-2.43634613814575
-0.700881536421264
1.11897916140609
2.12086181853539
1.93939984003242
1.36034509997008
1.37452745392128
1.87702934901794
2.00254714121393
1.5906048551817
1.62005974648954
3.19810329624993
6.47825804054694
10.3457835289818
12.9441076886247
12.9620015969566
10.7193410552382
7.764923673094
5.46561242509679
4.2532713913047
3.84269105817548
3.59546382242742
2.88265020014085
1.52885368597513
-0.219940262461324
-2.20304529859638
-4.35212641529743
-6.13942946051069
-6.69638819442879
-5.78665311116676
-4.18506235418995
-2.85923960547171
-2.13323637996602
-1.72629368756363
-1.2598149684177
-0.673041118815913
-0.292925373707861
-0.415626510973447
-0.899320357010698
-1.48545030586414
-2.32759308063569
-3.6867921485512
-5.27248054592338
-6.4365532053616
-6.90018760555812
-6.81856799900044
-6.22329880739748
-4.82004058195569
-2.46375649547547
0.261646653704808
2.16228002170784
2.47515356254306
1.758731924271
1.28701321271936
1.56850028445195
1.99871369262217
1.8732053371678
1.06059216632461
-0.228096517161248
-1.60879393274405
-2.49272036785842
-2.47140700861842
-1.72013162580771
-0.705484498257138
0.307735051258926
1.2246311170832
1.9125509066637
2.2899748129237
2.40182602630821
2.32274901563949
2.25352404375123
2.61188780279614
3.57492031995045
4.61748026494369
4.95277328581972
4.3212231785956
3.04559704603213
1.61275857403796
0.477251292148
-0.123785142653836
-0.438871615073768
-0.963155505435879
-1.7818383919572
-2.39326168729001
-2.21911013201503
-1.19528753570968
0.0284208768136049
0.521387663935613
-0.0379345829693421
-1.03804196153113
-1.77194663646704
-2.24665240841271
-2.74857413329622
-3.04450269063979
-2.5689878168657
-1.15834246004671
0.722231653444106
2.26085222038332
2.78418054943051
2.30737955957716
1.53099355539048
1.01719419542187
0.634392484743337
0.0837583131700467
-0.437885711144255
-0.437804223216347
0.363765400782398
1.93094585085039
3.89095525975762
5.46044815183189
5.88618491812269
5.14907532048852
3.87002866347907
2.53588175788211
1.22744243150685
-0.0112687621483159
-1.00943125297409
-1.65962500216067
-2.02277829452209
-2.27573467621085
-2.54771779410359
-2.69038307703468
-2.38685624852483
-1.64863117151644
-0.92126699637227
-0.571036066585164
-0.620079892081048
-0.997064023106156
-1.56279742036115
-1.90379018599638
-1.61778496827146
-0.818752471697266
-0.041119172398874
0.205495902604231
-0.379192822914885
-1.78846308741947
-3.66503275608058
-5.69848728758912
-7.96349920320874
-10.4280812270116
-12.3907580121483
-12.968421523344
-11.9668504558021
-9.90159805365909
-7.45858083977934
-5.20188006445814
-3.34594071573702
-1.44062994817363
1.33086357900254
5.19151203453647
9.34784459211667
12.6250551722368
14.2387404773652
14.0805261694846
12.7425057458963
11.1767452248167
9.91222981268081
8.71495086859046
7.21647702592961
5.55071701877666
4.17261822040192
3.36450402993576
3.05205444821833
2.91322981624475
2.69946102937438
2.52694910092504
2.64602073881245
2.93472875747493
2.97187813562778
2.58587486170563
2.00243244593152
1.56847479012007
1.55817699111998
1.93134202451973
2.10623315307301
1.46943615372413
0.266158203662506
-0.582199890853912
-0.630545673448687
-0.327676266228229
-0.339797356253279
-1.02089513665981
-2.43595247469533
-4.37526369652222
-6.42339582886647
-8.35570668863126
-10.3029844092629
-12.3076924784601
-14.002876574127
-14.9429269918113
-14.9792193829849
-14.2119136520093
-12.8998539875046
-11.4305885674079
-9.99864111021041
-8.29045927298994
-5.74869314256205
-2.14803981234327
2.07146159015934
5.8334573330756
7.96399574041608
8.10851546438469
6.9926079709449
5.54711776764931
4.13508786111684
2.82653008132547
1.86709077692898
1.57876607857513
2.18654206202366
3.72383398766921
5.64514624952665
6.81594562842712
6.5727176881262
5.58129159251625
5.07407535779919
5.48105495854679
6.1846506622239
6.26554398709763
5.23900003066804
3.43949825824938
1.8562249681685
1.37540334368104
2.20892928886769
4.05707382954598
6.36150754443476
8.22646031635897
8.68120314427639
7.41995911141956
4.96588747253977
1.97459860201205
-1.17526677928228
-4.04088705437029
-5.97590995914792
-6.57845927936871
-5.98181467662978
-4.7613411123022
-3.82710360439255
-4.04598495573076
-5.42618662799401
-6.82246707243099
-6.84067106342882
-5.06002301976485
-2.3772690051833
-0.285212854778081
0.319722631673002
-0.177633308172421
-0.687280989545676
-0.634937545812541
-0.332159523467488
-0.280351215711755
-0.609432103456685
-1.16821923930145
-1.74237090955731
-2.22221994117841
-2.74503945837878
-3.40430749591507
-3.77374465496695
-3.27047345678014
-2.07862160232531
-1.1037029756178
-0.930059411381088
-1.35684664825846
-1.90368283647056
-2.19681063231985
-1.90654427922618
-0.862467271178234
0.678931610799323
2.16376100474834
3.11916384881409
3.3113103434334
2.80002698951325
2.01766396204645
1.51474284952107
1.43809702740567
1.42696217817387
1.08278986619487
0.478308263294517
0.282887673288976
1.25838926287382
3.28367079930897
5.05390647983495
5.26655779389449
3.97808009173442
2.33887333353832
1.24325679305948
0.700175899916468
0.236545284638833
-0.540654423738693
-1.62061669378957
-2.59141968489047
-3.05421846048922
-2.94173169465401
-2.30714604662391
-1.19197460785776
0.0687031574477892
0.949258219954979
1.40018676532946
1.84505908504361
2.38369752029008
2.6611731573418
2.59107937836213
2.51143751043601
2.55686872228696
2.46620432457961
2.03158211667231
1.28053939082618
0.28167383517135
-0.840016475794143
-1.78954058694089
-2.30252084005401
-2.37038439430435
-2.16043715488205
-1.90156591360729
-1.80616844943874
-1.81516125420058
-1.56727194158763
-0.932983907908716
-0.304372708911145
-0.0332682655710537
0.0594071224071771
0.290137551603526
0.570464247093603
0.549300290928606
0.102549157352816
-0.471118848729534
-0.720803327066019
-0.557855383192772
-0.378029556457243
-0.43991850176466
-0.408392048608857
0.0212378185771331
0.377598952458385
-0.105299525784628
-1.52557485383061
-3.31218452375465
-4.81763089421148
-5.50911750986767
-5.00077367424949
-3.28618913849635
-0.75648251717785
1.98276661789985
4.11929992781293
4.8941630247873
4.33114156553912
3.33351579088219
2.65143018266195
2.17112791872388
1.50611793381711
0.672720748851106
-0.21285088091696
-1.29735039935785
-2.60138222361432
-3.73268695006475
-4.30309451878351
-4.25607350178038
-3.66124340454662
-2.5595592319432
-1.08037488757715
0.494633753112035
1.77022101510122
2.43571129466109
2.71158289754191
3.38621041047939
4.91420152280213
6.64246241366519
7.38661313732268
6.59027113080942
4.60753202048313
2.18847770590872
0.0211610557106456
-1.50770808147271
-2.37146641436048
-2.68701792616859
-2.5778088939151
-2.31295574461612
-2.15584466781746
-1.94043668007992
-1.33399632355653
-0.60652371820249
-0.506584022454848
-1.2963453259694
-2.49749799002466
-3.60336064087151
-4.53165500279861
-5.40913269146569
-6.29618496611605
-7.05165744216867
-7.25875436025893
-6.48107974008173
-4.7244203844561
-2.38548094018027
0.269770940683374
3.20823260094461
6.2693566186028
9.12422014597205
11.4742417322417
12.9166019547169
12.8906595998679
11.1976957852778
8.38687459251714
5.40944629456222
3.1017495927679
1.93563557577146
1.83855572093195
2.25931185265448
2.67498486698211
2.88125980357086
2.69832924531487
1.85370928977099
0.353744864694472
-1.45914338998835
-3.33129727904706
-5.20777497156075
-6.99252009472343
-8.58861349261676
-10.0215035160063
-11.2147087752906
-11.8638274673424
-11.692826064663
-10.5812179381105
-8.52681302896144
-5.88888202701774
-3.46790664145703
-1.81626756025569
-0.608660691802949
0.871772501865586
2.80931784153265
4.77050372763376
6.25842148842484
6.97645092050533
6.8184870650636
5.95883546435931
4.77849898890888
3.58037651826295
2.6184694297328
2.28102295257442
2.75777594247637
3.59991951847986
4.06340724724869
3.81985582079752
3.04068998180445
1.96658911871794
0.645058030588148
-1.01954188208592
-3.02752108960223
-5.04812778490078
-6.58987396869265
-7.48464961010987
-7.93804185872377
-8.08356894842419
-7.82363123474975
-7.01279062183992
-5.40770282089253
-2.69952308463136
0.897655763818527
4.38698255983976
6.81074712526581
8.06808657065621
8.64255306826597
8.93458032075377
9.07688911619203
8.98369965240749
8.43334641787187
7.4123724828533
6.33429406029205
5.61375734600675
5.17269668963608
4.65193622961132
3.86770691123276
2.75990310668302
1.18408754170996
-0.922256748889189
-3.40856729224879
-6.12668366844573
-8.99302295574824
-11.7745327598623
-14.1083735410986
-15.6906365552985
-16.2416391346653
-15.5518317555344
-13.8210130390807
-11.6654627491049
-9.58040763440066
-7.59527027003315
-5.44024682462625
-2.8055496921646
0.431201405474936
3.99570950099426
7.38958469106013
10.3266446033732
12.7036568684253
14.2385370011268
14.6193744112974
13.927188713098
12.4961111387778
10.5801325864359
8.50421102083185
6.7341242757162
5.42391346722815
4.27452408017442
3.0435277987863
1.80260008517534
0.680413537245298
-0.206054716613489
-0.664526562544443
-0.721646712913936
-0.824251481715255
-1.28717655331128
-1.74080042690777
-1.5717749220698
-0.725721013330216
0.285861467596527
0.951246775964733
1.03951086508377
0.534877003169529
-0.500679597091098
-2.07291307037956
-4.16850867697876
-6.40796037964041
-8.07471244823622
-8.71448809270313
-8.50470451629874
-7.97869039878463
-7.60182663182833
-7.50420933186401
-7.37533386850624
-6.79700635684841
-5.82070159518086
-4.90997189009129
-4.29568750939488
-3.83793684078816
-3.42953039100402
-2.93999948503621
-1.89059920732977
0.148847533578293
2.87831557730952
5.41094093420259
6.95254441584319
7.18581102977165
6.40023179413868
5.35901624191773
4.5775544240491
3.754054897947
2.40374470060394
0.875103942630434
0.108370148285095
0.477802617105744
1.41055415791876
2.0883619317271
2.17260554375306
2.01381018403249
2.38073896654492
3.66155386712574
5.17756069961439
5.7538631345809
5.11832097565489
4.24792346914713
4.21530924942949
5.10529596932343
6.09848336556502
6.28743892145689
5.39542907434594
3.85843452969654
2.24126521019638
0.72229288646352
-0.755441324081753
-2.1712169217943
-3.50509488514247
-4.7831314043622
-5.86022106167861
-6.53245541823161
-6.91948748131336
-7.29090868491372
-7.56069898212008
-7.40745422045473
-6.74470937217865
-5.69235024963543
-4.37480422766239
-3.02424536535147
-1.83694838219376
-0.523063936377765
1.44516199828107
3.91273135140209
5.83214254827222
6.14103283476386
4.59764941242365
1.86310802770802
-0.91688331675261
-2.79330524607329
-3.65163426141852
-4.10340440099496
-4.64631882859346
-5.19972681587838
-5.44342337711786
-5.1019144122647
-3.86295286181211
-1.59450667860804
1.21949202393566
3.6425698427188
4.98127282270654
5.25757510340666
5.17759649936595
5.60149957413599
6.70658869733043
7.74135533646336
7.91564603622456
7.30481588309552
6.53530641972484
5.89783047056846
5.13596856102377
3.84831050894804
1.87605616267509
-0.497374339835876
-2.74940830927913
-4.72018306951299
-6.71603096299842
-8.75789085295095
-10.2342208308779
-10.6457218007354
-10.1466641036271
-9.0288929433934
-7.22033995858783
-4.59957748243235
-1.42253137350444
1.68148703619875
3.87121768123757
4.43555368787891
3.41369381254621
1.73313073599633
0.361674669363529
-0.482781363386076
-1.01843979161027
-1.20782810933954
-0.801769813224252
0.192131825245444
1.40017167087475
2.32638046652824
2.69827810277437
2.7299294347342
2.8855136995952
3.24210444109066
3.36768456903646
2.92654326654847
2.06695255044243
1.18380025161631
0.613202533593076
0.461790618299924
0.463527654333337
0.219051802549484
-0.243578422978211
-0.485720184024324
-0.311599171523125
0.030484522244927
0.283841953249584
0.371688095712706
0.287393858361188
0.189215426145311
0.322376691729956
0.557211968951605
0.448047053121815
-0.0393801986595705
-0.394568055184202
-0.280264458368171
0.171190392481829
0.789059155126667
1.47646982733779
1.8821945136441
1.57440463956769
0.648873079855599
-0.248497324467229
-0.534726587121538
-0.0910437294648682
0.768704732333032
1.48654064830891
1.60817286114018
1.08114162436207
0.0905014645521376
-1.20613135327664
-2.49851749298189
-3.21247134595313
-3.00073089604521
-2.12964922977956
-1.14241897646526
-0.397276663012858
-0.021388202372415
0.0022194778940661
-0.213635100582335
-0.540233278286753
-0.757152095780374
-0.479105053488561
0.407878167328857
1.3084728808134
1.47892780829277
0.934395577394369
0.254852916143168
-0.248185243254831
-0.581185237463764
-0.675880867444284
-0.614306115325344
-0.953727753074527
-2.30085497720919
-4.71395578482829
-7.68012977835276
-10.4225394899277
-12.2407009253205
-12.8316480735808
-12.1877070310757
-10.0905513862823
-6.21798213112749
-1.06673588633711
3.87476190751737
7.43479616409171
9.76324451914896
11.6040527964743
13.1383704993113
14.0009338682214
13.9249860678723
12.9413230369792
11.2510712683597
9.14182854689308
6.91188772801695
4.89366508361928
3.52155957437448
3.07314895005929
3.33988966017005
3.88040299493199
4.48877136793028
5.04721857103275
5.12628804499469
4.16638470062108
1.96659013607877
-1.18007554124266
-4.64915469674346
-7.81001980808303
-10.4972319544892
-13.0357790456681
-15.5435997976603
-17.5358522701995
-18.4618674835848
-18.1848817322871
-16.7878631957156
-14.4960038223332
-11.8661544212413
-9.34656710891809
-6.54414389679566
-2.62057260122474
2.42533932364258
7.4020078987713
10.9304150050972
12.4031239909083
12.0380333969112
10.4749853273471
8.37606588328609
6.19580523790053
4.31446727342686
3.20730261542581
3.09082213602523
3.53374290619903
3.86755375457724
3.85284780921403
3.61098738513746
3.2031334441692
2.64784239181903
2.08877170170545
1.6705219378058
1.41796162779104
1.28209655343004
1.14460456507927
0.901985694497271
0.662671525914911
0.610635371196584
0.677087319937616
0.748858533268447
1.07831682175578
1.9396991922516
3.05073755526683
3.88261940652281
4.28579611347632
4.35512537718713
4.08837871631577
3.58752758584588
3.13405759424674
2.75016848565632
2.12875008228348
1.12915073035491
-0.157951833054696
-1.85548021652065
-4.20818100865334
-6.95739779767964
-9.31435932848751
-10.6500309807953
-10.8999639220587
-10.3896662707316
-9.57194653107178
-8.80245307264208
-8.15387272346959
-7.52179319361103
-6.8206146677182
-5.87467689413915
-4.39124436313581
-2.36010431978078
-0.208071029872827
1.65530859978192
3.11467118771449
4.10203697924839
4.49159337670447
4.27373611442234
3.5370147445683
2.4692552766331
1.6474566095559
1.89534957306937
3.41186657259326
5.32396901328501
6.36255840820692
5.7752349529022
3.68803340959593
1.01255402302276
-1.1266617982172
-2.28490809397901
-2.91688107625202
-3.59147464276929
-4.35002546277859
-4.89239834553212
-4.89675325787536
-4.07573237517332
-2.37467890616745
-0.193277819937922
1.86613727699949
3.38050747331201
4.08453403132664
3.88524326825558
3.25642503245228
3.18988321830256
4.29800476126188
6.20904732678068
8.02853898139145
9.03603804721273
8.89657030291801
7.69949372391258
5.93261586896177
4.14916335958013
2.65572302189881
1.54621985810519
0.740015489044003
-0.0379016740000706
-0.943426672866113
-1.70878388554304
-1.97975930089697
-1.78907515192805
-1.40620877177148
-1.03488425873306
-0.927082782184143
-1.36869166002265
-2.26402380318335
-3.10972478875381
-3.5887345302098
-3.96202236984211
-4.86604812105943
-6.78095052529149
-9.37332004339538
-11.3109378568806
-11.2809121465051
-9.36929627529148
-6.97991791846953
-5.34928484698738
-4.58073620862362
-3.99264792176921
-2.79449573061922
-0.490768505321951
2.71713335269741
5.81390425367368
7.64913872728356
7.7585117834015
6.40533709010188
4.20499209383011
1.98947857258352
0.605880228810404
0.438693859234
1.2349871209217
2.40708661809173
3.33331650411859
3.55895169770645
3.0115023270789
1.957893072698
0.701983556502592
-0.531457929030262
-1.5737111410704
-2.43875701970216
-3.24959052255529
-3.84525712740977
-3.83697088192445
-3.15960782160688
-2.04097689196817
-0.455223082402665
1.67695175870125
3.86381916839718
5.47724193612362
6.67633890397741
8.02925352696202
9.34976146720564
9.70218981233956
8.49847972187913
6.06781403949715
3.28686813451338
0.996414318931892
-0.437872555991764
-1.2953562207892
-2.14851108268628
-3.28375444226993
-4.57660148666551
-5.76401629881581
-6.57193037572701
-6.7844284115257
-6.49557400396765
-6.09416582020202
-5.78841239443301
-5.38270936458013
-4.61446182376396
-3.44546162221618
-2.0412316429941
-0.709054989084635
0.248854702801942
0.778027986086362
1.01176637027802
1.01406435424093
0.876258364145455
0.881906331088915
1.14915911837548
1.32428139564372
1.04281281730186
0.446702820949798
-0.0436885082392323
-0.125784879115503
0.362353217345088
1.34688292565505
2.37112414518969
2.99073506705653
3.24983506795466
3.40691321592932
3.48525478828231
3.44898001924623
3.41397044155681
3.36772580571094
3.10212283594331
2.61647108772292
2.13052110681073
1.59942928777768
0.716370829843293
-0.51506127635711
-1.67449063384435
-2.44367086849707
-2.84404664709647
-2.99316203108192
-2.96405825366773
-2.80390623459137
-2.48569842666906
-2.00074803472026
-1.53086742396838
-1.25359966278032
-1.05483650804557
-0.74363444551929
-0.377607069058965
-0.100679893310003
0.0781387640821816
0.122168699366447
-0.126983724616279
-0.742833316454175
-1.63478328630086
-2.63061398491266
-3.4695530474129
-3.95787053767033
-4.27955925018416
-4.78562127506464
-5.40118705198884
-5.68086827364979
-5.38622902936587
-4.51558374110368
-3.00217411720722
-0.959832225737955
1.07362025302209
2.68679103888133
4.07621760055887
5.57857818016788
7.09487990975072
8.27334138836865
8.88244047698806
8.81001709597903
8.0584938563071
6.84227599397387
5.38720825937674
3.7126424970988
1.9354280072567
0.531764934490988
-0.146626068102997
-0.369610240770503
-0.663366604139479
-1.21355410709283
-1.86968630484013
-2.40976178302968
-2.62842020685869
-2.43845197115572
-1.96597713751525
-1.43461181409886
-1.06100879856791
-1.03439485563832
-1.27750957440567
-1.28401118333537
-0.583862725514917
0.726317697964018
2.22955411197613
3.6580264975239
4.75574094023217
5.09338170341225
4.46580111934256
3.19090892125091
1.77355563261782
0.507250757521347
-0.630124433083094
-1.96072451031435
-3.76208301195533
-5.68325353096906
-6.88817502677494
-7.02419814923904
-6.61707984615503
-6.31922713408545
-6.18939426288032
-5.81281745249565
-4.70962466075284
-2.56784622895081
0.540450858629628
4.0987803098718
7.45361442311003
10.0195630178256
11.1448231298552
10.3097178625263
7.73121229211618
4.31879671995509
0.841318877988779
-2.48519228886112
-5.64312044561781
-8.54011233579835
-11.0220193776486
-12.8001159419611
-13.5277883325221
-13.1522525614903
-11.9399610129285
-10.1272209557533
-7.88708683557659
-5.528153864033
-3.31207425214995
-1.19465433272309
0.99820733140223
3.38148720350783
6.02758342814268
8.67844720754626
10.5216528014845
10.9557765587261
10.5353743870433
10.480154632048
11.2872446302205
12.2938241896359
12.4181220429818
11.014785418104
8.32553596298344
5.34792197820768
2.98853586285391
1.28780800167656
-0.244901691053784
-1.73795644085639
-2.90390163886631
-3.67978484343422
-4.30167520278096
-4.80218269964199
-4.92526685683727
-4.48930684951179
-3.5508256973232
-2.37285436081745
-1.36059815198312
-0.773956672217436
-0.500559180911168
-0.359828324335154
-0.432364365384094
-0.79043612170027
-1.19225850212118
-1.34265142844917
-1.20697879655069
-0.937219810175196
-0.75030554442919
-0.835560818793178
-1.11175173841929
-1.25803824526924
-1.19189236771545
-1.16586456254817
-1.23859931996026
-1.1229518375817
-0.663781208877019
0.0032476021482843
0.720573639503121
1.27969928296167
1.34692810791385
0.882601849105628
0.345309941151189
0.114107434653815
0.0713518678514471
0.0105202687416202
-0.0030381608899523
0.0788627832476018
0.0722550716364952
-0.164206136789316
-0.589771792225488
-1.16937043476713
-1.83665209981856
-2.32513505666703
-2.41418096933739
-2.22849262552953
-1.99977880135874
-1.76280531146914
-1.5111470885279
-1.34871577230737
-1.32516634825184
-1.37627962604898
-1.43076190853074
-1.37564057746715
-1.0844712664717
-0.652222785224035
-0.353397760614755
-0.280738210908804
-0.3030695271072
-0.325504645519514
-0.284472969462865
-0.0628494226020768
0.292777684979119
0.537011628343685
0.622492937380054
0.785281265572904
1.14553111123848
1.62841903240777
