-0.316978859056895
-0.16490741558004
0.0013105508839907
0.122652501122256
0.0716310478401963
-0.175210516002074
-0.417656799676726
-0.494027433496774
-0.47045430509134
-0.412503141098042
-0.257563290278307
-0.0317498360946446
0.127761458961773
0.216556684476451
0.325137764319354
0.417473382785698
0.436703625208276
0.485878073927199
0.66308403735548
0.924462464566982
1.24110526892992
1.59577805631079
1.78880839293507
1.60040536855274
1.12097343541044
0.617852002814927
0.209987217511918
-0.0861762622479943
-0.232712126914732
-0.301495843278727
-0.46941676136528
-0.743433289840097
-0.929527994704593
-0.918042258544742
-0.769332441715885
-0.560791702489599
-0.381283644412845
-0.355783243398251
-0.438138269240831
-0.362259106883127
-0.0192012641473361
0.343296466079271
0.452037503492234
0.28008003153576
-0.06154263801533
-0.413302938637419
-0.585185400369729
-0.549174246213237
-0.501386630337292
-0.566818944631582
-0.665906787710596
-0.757243010789308
-0.903534543913132
-1.06532669045622
-1.13480269152426
-1.11545742810751
-1.00106917276279
-0.656946112826749
-0.0732501434947463
0.509322545986722
0.920670625902006
1.23101471149046
1.50582004266689
1.69317377930503
1.77542381487881
1.77921803128609
1.70117017760809
1.58301550604173
1.48882718624905
1.32542121615358
0.930911271472298
0.370804056793917
-0.118591264740338
-0.453279249792
-0.705202256581645
-0.875195705596433
-0.93461750738141
-0.96560757220679
-1.01875543500944
-1.015708962194
-0.968898190491507
-1.01582396393361
-1.10910404754271
-1.02051618848422
-0.724704124933686
-0.434236637022869
-0.273289163607545
-0.217987321482384
-0.23864731006653
-0.264280723624761
-0.198225240169017
-0.0977260638940231
-0.0870406811856267
-0.0858987309173959
0.0737392628129531
0.345128470564071
0.580259811256943
0.776889781001139
0.949031368928722
0.983210163995453
0.830022323738864
0.60279386392625
0.406745162305323
0.30912933514604
0.414721266215447
0.716470971278291
1.00173449034248
1.09287581179055
0.997039769171833
0.747907197815588
0.363851210042852
-0.0226309895564273
-0.27397183121773
-0.453192963806511
-0.672639892239497
-0.849306438445211
-0.859337111005735
-0.774324888946057
-0.707823991683645
-0.623958048326895
-0.483671904228352
-0.347152780033158
-0.23330705857262
-0.137189857335486
-0.157142978926447
-0.319360740696909
-0.426045915229378
-0.360504971406299
-0.30097641507495
-0.394801801096613
-0.530121739267851
-0.599135934724648
-0.651421463749809
-0.703184689738521
-0.710130226561245
-0.705310491669252
-0.700411850038019
-0.596719780044856
-0.399698856795711
-0.273843329200741
-0.243899878760086
-0.142001119639676
0.0977984525282573
0.400697228420832
0.749589585100696
1.13384927907178
1.43510847125483
1.58726743563221
1.66638084802224
1.69973640851233
1.61190897794681
1.40054135160487
1.13281522499091
0.801577459736757
0.411504062483108
0.107024719118261
-0.0135162904649418
-0.0690132085112232
-0.180830607754222
-0.282225102813582
-0.300301837850549
-0.284519349067297
-0.263302113489566
-0.241987334811071
-0.324582160181303
-0.547582344343101
-0.71572354348969
-0.675688117731594
-0.538537092110285
-0.416969806340249
-0.240684570711891
0.0133818135846347
0.230907441167026
0.364362511996549
0.428006532676489
0.356280534968096
0.149094073687198
-0.0127463931965702
-0.0339606568497458
-0.0472444059292412
-0.148170373976263
-0.282408297240932
-0.428894747102539
-0.584005883031401
-0.650724758724803
-0.632797245161977
-0.735190368379924
-1.01715232351843
-1.21863908279144
-1.12714610630953
-0.818305121703557
-0.417511843076799
0.0510404026869555
0.498814553861455
0.764322846467142
0.823582834242532
0.77925375356035
0.683798771321264
0.562611379062374
0.463034108461073
0.319712498304268
0.0047457497188854
-0.384062402537585
-0.58175303098267
-0.531287443792694
-0.386820110476959
-0.215523369984581
-0.0051532689098965
0.176357460845056
0.28153823996383
0.357183334673631
0.391282798977277
0.337423387632517
0.305618148169204
0.427844416947187
0.591625045730695
0.591989709893737
0.420793240663156
0.189435865729409
-0.0277850317333356
-0.145287516391276
-0.132473231495112
-0.154635700108858
-0.347518467359685
-0.529652731721314
-0.435880123129586
-0.0866130576814642
0.305342698447902
0.580133600056277
0.642611408152308
0.492868057186173
0.313440957324487
0.272311077967076
0.275784870917531
0.175295919604796
0.0759478488606855
0.133043522316353
0.230090054065717
0.175161347362065
0.0019461339700744
-0.188244892561664
-0.412501828903284
-0.635212192146838
-0.715038053055629
-0.639315164768493
-0.530173462147314
-0.425695922856749
-0.300662631530325
-0.183388153245509
-0.064830841819664
0.111516509258006
0.278740297097633
0.315579939748857
0.271189833552803
0.25427399187769
0.219535811378396
0.112578737160511
0.0081497099014342
-0.0851551959876429
-0.245134627477136
-0.355922622159718
-0.204450065815476
0.104936023157203
0.240501976207176
0.103638795553051
-0.154733584884642
-0.418306768574184
-0.59717717171265
-0.560493592097064
-0.327731648447114
-0.108274851248771
-0.0151653793399824
0.0303691418681299
0.0732900436033516
0.0634096670520323
0.0160779591554255
-0.0060061333171696
-0.0183065856644428
-0.0243774127110889
0.0668161653790091
0.269636402672249
0.454727948997881
0.545138162306249
0.556636580878322
0.460752743256334
0.263065040286871
0.107292141249813
0.0645493355964911
0.0113060090441746
-0.114169563200882
-0.205693036742741
-0.226953980924737
-0.233238326839602
-0.155456793826431
0.0935169541654098
0.368703477650979
0.465139013413912
0.397550376770023
0.264786554875734
0.0657989543436656
-0.164963730242115
-0.304019902182768
-0.322255622417104
-0.28343760102046
-0.194639311596968
-0.0712186786739473
-0.0020761611667361
0.0155377453280228
0.0831383042061523
0.153592546264547
0.0574969747788304
-0.186823951890927
-0.381887558371932
-0.460052190861661
-0.507086782970467
-0.534222518766501
-0.486804371262066
-0.387214938569401
-0.25874235386416
-0.0656355760131703
0.126793715422807
0.183950696681528
0.181096553647922
0.335662868040697
0.63967984013509
0.88486757683261
0.984774968999445
0.973000175387242
0.842311479477271
0.637637237921344
0.494441259709949
0.421199079292559
0.283992300906046
0.0517801786298255
-0.196535250306553
-0.438094200870134
-0.638235698217475
-0.690057065601627
-0.621746846184019
-0.617368125657989
-0.7078986408994
-0.735845323567108
-0.648908541468639
-0.518691097480084
-0.353554367390186
-0.183510730832284
-0.152684280509586
-0.288861175381822
-0.415698979685633
-0.4397123091724
-0.43492849112573
-0.370790155637286
-0.0892775216182463
0.389117971518988
0.835659641010332
1.10103223794694
1.17805247736082
1.04861310924367
0.720120139545831
0.308173928912137
-0.096031762731008
-0.466755573434503
-0.682302260063493
-0.604878350694478
-0.337945124332574
-0.108749053245642
0.0308446845856382
0.12656393309373
0.141040427183412
0.0854079857391633
0.0791695257023818
0.125320517048742
0.11237921549157
0.0809427878892348
0.164932905066571
0.306744030823774
0.336942276257641
0.234615237283477
0.0892932615148811
-0.0115138918031096
0.0445580050397903
0.259531315327986
0.369146228766762
0.147146976663631
-0.231018180121696
-0.440472647640382
-0.439229799467971
-0.378950558337487
-0.316817085945763
-0.231371584016409
-0.118316488931399
0.0338600342360847
0.18726936191896
0.206740987229003
0.0657613731352648
-0.0231772156675525
0.0888962037783234
0.231277578112124
0.194095020190948
0.0420879903884017
-0.0647947770536461
-0.105337840828239
-0.103225329968245
-0.0791861687198187
-0.134014747512167
-0.285918369143141
-0.31506248601257
-0.0738814651732783
0.225528437963853
0.306124902413444
0.183742401557496
0.0421699875592457
-0.0002314424708258
0.0835788970294079
0.196632994275514
0.157718665361956
-0.0145521057189116
-0.0483963621535611
0.153356555146166
0.324513924214854
0.24631711713921
0.0225646285121265
-0.155888182757753
-0.210416139212661
-0.139449622308405
-0.0483478726431418
-0.112536958716571
-0.321326376263602
-0.447556647150626
-0.385638037457892
-0.272400121483447
-0.215832869381704
-0.172604426448463
-0.115968878874972
-0.0751332613641414
-0.030172857309712
0.0186096449775637
-0.0203035090967885
-0.128627449328367
-0.0920016599719939
0.179438163380371
0.465724110317582
0.526853583808929
0.341959316754966
0.0109727153042567
-0.326586891126016
-0.517666038792975
-0.561322913481915
-0.611772493808352
-0.681924215344306
-0.602329948857105
-0.355239278702505
-0.126385244750751
0.0030465978833685
0.100695316085139
0.178860898745158
0.225506270526675
0.297465845995381
0.380943608466748
0.386542895596503
0.381416143239283
0.510428235721081
0.675766051651012
0.65378609652258
0.46994430145074
0.328764477991158
0.308068801379571
0.379474239969095
0.524628181331658
0.645045027166286
0.587948820793423
0.367084200043831
0.136695809085466
-0.0583775507849707
-0.269732725348651
-0.445297871813271
-0.493495075509645
-0.450607800485971
-0.363020028553709
-0.163349706341529
0.147051957261615
0.403524690126242
0.493020456202736
0.432030601433283
0.218555238829941
-0.133289932646039
-0.485970593780338
-0.73091576007781
-0.890267803580691
-0.937392054851332
-0.78741425722713
-0.533060460103348
-0.36799634099149
-0.283619607998998
-0.158007022977552
-0.0274238057047764
0.0433811731563517
0.160252793112473
0.387946675590501
0.583235565257906
0.635701438405202
0.604936347552099
0.538006774498814
0.435892143827839
0.376312390488122
0.412451723024397
0.460169785341786
0.457671710720511
0.435458944317961
0.343097226825383
0.083257299320735
-0.245311184616189
-0.428605025119544
-0.453226832920355
-0.473512561030371
-0.528778072128662
-0.551346227369827
-0.551904158148298
-0.571973418970393
-0.597632115364548
-0.665162149607347
-0.822604166544188
-0.920364337727866
-0.7505666035792
-0.401104159311655
-0.152488613248433
-0.100004053967135
-0.149292940415741
-0.201526478952469
-0.132582464243366
0.143923059707329
0.461546362926022
0.553235996796474
0.438402262592027
0.337266853502644
0.291215346233521
0.192655966387585
0.0291289314700183
-0.177421200336026
-0.456249698666942
-0.722899187439086
-0.775408951892659
-0.538498186583115
-0.0932585504131596
0.447996661018428
0.871554890670164
0.890694395729184
0.502873131424404
0.101966397201998
0.056207162211266
0.376700638952669
0.851838930013043
1.25628879032718
1.41525503361899
1.30968328258614
1.11784116511069
0.983855414177958
0.839216519148894
0.587950142497135
0.27642485571863
-0.0360446975330944
-0.322184225737674
-0.454256404387667
-0.336163068969631
-0.139993354241502
-0.0931033402478707
-0.153626281951485
-0.184547715873902
-0.223659813935758
-0.334538653417854
-0.464082379575211
-0.59941634789424
-0.766855673502763
-0.853306540965982
-0.754489002038918
-0.611433904316281
-0.576776032333491
-0.52637826804484
-0.292431540927097
0.0535132500918174
0.35302013771928
0.5183596587209
0.455378745859145
0.143918284429329
-0.207195046090287
-0.361673839137327
-0.323756080250225
-0.224146168631822
-0.135386659995715
-0.121227330347662
-0.227166694558635
-0.3536281600529
-0.361291340237272
-0.286387916724904
-0.24176263386698
-0.203111653919364
-0.110562370756006
-0.0265542148381062
0.0149966238485474
0.106230349023809
0.244796959330582
0.287711650139936
0.230753052287268
0.220661228478469
0.273063869140388
0.303392790438085
0.347710087545051
0.440691984193229
0.45372742398568
0.316407423035449
0.163081038441809
0.0924972353416307
0.0553136100383674
0.0321472475719522
0.0315550297151959
-0.0334776415484817
-0.195017693705781
-0.309031768248476
-0.292679887710954
-0.240669164040826
-0.191923539575484
-0.101233827014397
-0.0631088879603564
-0.208120910883977
-0.43564513020959
-0.563704522207911
-0.593735460234343
-0.588731062774964
-0.525162779339802
-0.43896772847985
-0.449710964042054
-0.531419686539294
-0.513723511387299
-0.341164863691365
-0.0988865336994924
0.164626079328136
0.409027392299771
0.522046933304337
0.4955221538491
0.500703981393508
0.603625887802201
0.657650670764922
0.605574910354236
0.581940313043611
0.660704182214763
0.813110628813037
1.06387292092089
1.38520352026296
1.57191504257765
1.48387664098381
1.23713722405177
1.00013686240741
0.820828432144213
0.701778802954905
0.60688013665056
0.436507168670262
0.183629590259382
-0.0478692495189717
-0.288629977807853
-0.664039230053925
-1.05599925361139
-1.19998099555952
-1.1276819133325
-1.11034317014689
-1.22857297387405
-1.36239337646473
-1.45951216923663
-1.49878680395159
-1.36889427029868
-1.02465023406167
-0.607268362235597
-0.291048041624076
-0.158804538654359
-0.233409783802537
-0.452623300913074
-0.643045602308224
-0.679771793624001
-0.600259742551207
-0.456571604631699
-0.228611480177195
0.0335296439136425
0.232299098809988
0.433662205673951
0.768486652950999
1.1500645785851
1.37600049907545
1.39376891276462
1.22737978993019
0.873272867616324
0.45706509589631
0.182800574577529
0.0131418486462083
-0.250137544799338
-0.561815886430709
-0.698420117284352
-0.660167784777628
-0.632729312718312
-0.668548172475127
-0.707540122561216
-0.736086384746475
-0.719122420074704
-0.582137939048636
-0.343504404514454
-0.0589159936894121
0.301525512007656
0.718762267439355
1.0363979581296
1.17097973442729
1.18823945801827
1.09307502991809
0.825902697527856
0.497560460948584
0.332766277312766
0.373467785569107
0.488781561035397
0.617917291289611
0.75889795489013
0.826832449332115
0.765325945825567
0.669489947266502
0.61730458102207
0.547660670645118
0.396461134486363
0.145038862058134
-0.251669714849808
-0.758174478138143
-1.19273461168047
-1.45773171794166
-1.61904314536752
-1.64328843424897
-1.39484287591547
-0.970495079857804
-0.65620958690269
-0.528133080307896
-0.445213599145558
-0.346922635904091
-0.227262371464274
0.0073294240406636
0.360769751960393
0.651122959402435
0.788164234069167
0.888562553081374
1.02875555157867
1.15149172960354
1.20450962451292
1.14865586830637
0.940678408835365
0.657541689581132
0.446242960564403
0.28245633390756
0.0199748183665846
-0.324404543987274
-0.601027992974742
-0.792080953163886
-0.985598209342957
-1.16844082243367
-1.27867008710612
-1.33804814526816
-1.34374095044613
-1.22522275405356
-1.05243947358876
-1.02105629899207
-1.14431545089416
-1.25442546545213
-1.28316504525399
-1.20979614612924
-0.863613959668046
-0.145591594291761
0.696706727691611
1.29044380824718
1.46702983312392
1.26171326496908
0.847161257662032
0.502235413716922
0.386334935861626
0.399160690418058
0.448026458477174
0.627420210755207
0.949533398522375
1.20581494700395
1.25425860390705
1.14521754307447
0.928583920922073
0.64751801225267
0.455351407635838
0.449762068479547
0.517554431726104
0.533229986478503
0.507621574911913
0.439386052314101
0.278560554252541
0.0896268770112037
0.0021202578089972
0.0021229944726761
-0.0126586813944856
-0.0443043498415945
-0.0590928032900442
-0.107489664384691
-0.206553547206931
-0.288286394980726
-0.378421619598685
-0.569237435555609
-0.772997331427665
-0.819151679570907
-0.764063321699657
-0.778023742366489
-0.844457078747592
-0.864712881777606
-0.859357576129046
-0.836666113376347
-0.716975041030845
-0.518877014556099
-0.340891317250059
-0.150261320835306
0.119182079495255
0.365464098613933
0.491128110274623
0.578814229101684
0.667968349784693
0.625142755641911
0.392662001999619
0.0762465475958387
-0.253862619672216
-0.553915079452748
-0.688005878523802
-0.616025881845331
-0.539252652535424
-0.60369941862413
-0.64700578293665
-0.41963154636812
0.117661127818416
0.78219928914672
1.27681712701798
1.34095437649253
0.996252082649859
0.575536643760825
0.342646607681823
0.232602157569569
0.116802951741621
0.0672221468735641
0.165121512057232
0.313564473064764
0.392995685571638
0.365669347592945
0.204695357116225
-0.040015520021968
-0.203887984260031
-0.244897588370157
-0.308749611365304
-0.414718396104701
-0.39600633258551
-0.244723363966066
-0.148747899172479
-0.155793112568345
-0.154990854906567
-0.135709664979936
-0.155734710264382
-0.187511214998773
-0.212055937517497
-0.250635705900903
-0.210857981888905
9.54575334172498e-05
0.220013922073242
0.219706313146878
0.0492108993063851
-0.0929570092320647
-0.149870272392801
-0.146875673766004
-0.0926022483967483
-0.0809065251458424
-0.224901240513115
-0.429897626780205
-0.484944551144708
-0.358455990356751
-0.168790840945926
0.0379983141046555
0.241271403235597
0.32608233028787
0.249739202214704
0.167026582042031
0.21349647208165
0.355033125734999
0.524393880920681
0.66227100589912
0.642432982521232
0.417145641507304
0.139445621967577
-0.0570790872073522
-0.186045349929169
-0.193704000167159
0.0449053463371681
0.421011172465599
0.647397760731657
0.646420031808443
0.549374470021128
0.401777411708921
0.193590646341716
0.0135488086529707
-0.0929547091080737
-0.196156003873136
-0.268992612168854
-0.208459164616508
-0.112860483104078
-0.189130992200459
-0.413006644193647
-0.590577750511495
-0.645665311447117
-0.611956399350973
-0.523211741076754
-0.466666350954789
-0.528293495635352
-0.609898365088168
-0.530423610386381
-0.318767070667419
-0.172977922673254
-0.165039465691595
-0.21112313662167
-0.255735416349323
-0.279236901476234
-0.238649159381415
-0.15186852269538
-0.0863038673686406
-0.0160559104051113
0.106763640182922
0.21332248476015
0.292740166330671
0.515192875046328
0.919445166467259
1.23552215111356
1.2430468074976
1.02016456946874
0.720889900679076
0.436505019151832
0.294147836780474
0.344057461480967
0.404665406568608
0.301621319822108
0.0875308982474453
-0.178970241075755
-0.569057772991931
-1.04072438199241
-1.40737270851429
-1.61482078753488
-1.70142395841244
-1.54694507658251
-1.0339847916938
-0.355235613362153
0.151929092105377
0.363061507417687
0.375399493068554
0.321953051810042
0.29843752837293
0.333666711601227
0.378632968530958
0.416254959161981
0.519815156732603
0.697245735781321
0.823545911163215
0.85463202329038
0.904540295699275
0.998393752186936
1.01205693746695
0.931778708887101
0.879582197399261
0.872801193465278
0.836902091600911
0.765289932141554
0.63829339384402
0.387275707513444
0.0991160244572031
-0.0385758994223262
-0.071850131266835
-0.213366513498007
-0.470691526518678
-0.713382797322409
-0.974926966328733
-1.30756451601082
-1.54478691554419
-1.55522972007223
-1.48897938018542
-1.5137913334318
-1.56693743859984
-1.5117708465067
-1.30397900524907
-0.999055296795588
-0.778039154957871
-0.817116194848663
-0.985536834634346
-0.917731253148758
-0.491231294727516
0.0436492932049731
0.453432071484338
0.741689778034668
0.965105688585189
1.11860948326548
1.22041445804456
1.30026102791477
1.34126231877517
1.35749966922386
1.38029381924336
1.30292656413531
0.997940398123308
0.604758510354237
0.380373097143662
0.321264382257597
0.269480744721861
0.238102618074981
0.292809084664157
0.325911216125891
0.238052117085326
0.108490429426037
0.0129208898847835
-0.0625109403246654
-0.0801160885216329
-0.0088878800559477
0.0366085359301628
-0.0240139463986408
-0.0853390590946853
-0.0960953870322999
-0.186302060750809
-0.391369688429948
-0.554747929808867
-0.595143893038332
-0.580607921224434
-0.55227725940317
-0.52346236323684
-0.547725974305671
-0.609602878894146
-0.611629233458927
-0.552457425872914
-0.515901716625018
-0.483031870953947
-0.370712159372158
-0.200626013757817
-0.027574187372741
0.190175874526014
0.457854503462222
0.638500310734328
0.649575581695877
0.563940272722889
0.40922918109944
0.152082751613686
-0.067363302325452
-0.0373089493482669
0.181825308082436
0.346526078205064
0.373152892217739
0.30622040856243
0.145289381335302
-0.0514580883555729
-0.143761196149901
-0.144527610003698
-0.198785618136831
-0.292563476221553
-0.289436477478858
-0.200277342548402
-0.12368629243628
-0.0453036460314638
0.0768057349987272
0.216285422234381
0.386804683898131
0.598269660217732
0.701889513824191
0.562719377132207
0.302186175536661
0.118100839848176
0.0317306927478169
-0.008921225532407
-0.0156029202225595
-0.0583107043040696
-0.217987336714839
-0.410924915524015
-0.502389981791202
-0.531461922357493
-0.584701054316218
-0.589531939383181
-0.482335871630303
-0.386492009780402
-0.382898733537355
-0.34721292552198
-0.217972480749334
-0.134715459824898
-0.166177515174979
-0.209620551347036
-0.208839816668915
-0.179349497861702
-0.083856169541501
0.0654568998142343
0.150107651588597
0.166801699467404
0.251876870451013
0.400548171609045
0.471694626203184
0.467146606589693
0.482068982238838
0.469951633285916
0.361572413706704
0.256544795886895
0.255147422326551
0.311589587283786
0.385198125408985
0.471447861842679
0.463818591342836
0.281121825625013
0.0670405592569381
0.0013822808837407
0.0542906598422581
0.11477670806207
0.158534236162639
0.170878122541448
0.118015109587009
0.0344070739300254
-0.0495255680899669
-0.204968616557695
-0.443799262999608
-0.605690881521718
-0.613361238355901
-0.646340023449062
-0.847960464463283
-1.08425828238772
-1.15969797222183
-1.00093281327512
-0.549813952457474
0.174146069883762
0.870329398167964
1.16025575101284
0.975507964491499
0.513933142166165
-0.0145814273968872
-0.413053662022488
-0.533503248911837
-0.440827175880671
-0.317007969123829
-0.20895365957218
-0.0996099344629213
-0.0700463306405902
-0.133047235477361
-0.131316501611602
-0.0056077157086022
0.119868251534165
0.222091215461888
0.401482996775726
0.60471022171226
0.678845466651212
0.630454550713532
0.539830268827354
0.398647773330342
0.252363844171231
0.238616587118801
0.329681618867021
0.329071813891428
0.200859218822654
0.104330247092307
0.090934484174427
0.0634186609962271
0.0068114121508201
-0.0090032942518327
0.0144536264682287
0.0552939490373025
0.134914842588014
0.193237041793079
0.128276644781558
0.0159343477089078
-0.0020867732733161
-0.0037256625848587
-0.123741339339687
-0.243089881867034
-0.184563072231076
-0.0300900196104524
0.0384901696520923
-0.0117061648998621
-0.150073891214032
-0.351750946687948
-0.502397395815506
-0.492314241255556
-0.388144165854074
-0.309722040690696
-0.273785216875978
-0.297050177279356
-0.411510477018048
-0.507863621227585
-0.459701032888062
-0.376033560505979
-0.420847648510867
-0.518189803454415
-0.53341466693781
-0.526068573368215
-0.564330520767564
-0.547594667657862
-0.407548471656378
-0.233196153132027
-0.0941417012811702
0.018067519833932
0.0603344479728461
0.0017021542766389
-0.0216775895248304
0.143398306575508
0.447106964064376
0.769945297414419
1.10741788560544
1.43274530758642
1.59303175084158
1.49764901296104
1.21382411367156
0.849346638808245
0.538523698238301
0.435998712949894
0.517939563263503
0.566217248867779
0.483314236703133
0.367538559113471
0.236852867888673
0.0203341543821449
-0.188114185551096
-0.230101540848065
-0.178969942900522
-0.223809936154415
-0.386947105114009
-0.597460695143163
-0.845590172885523
-1.09100597320389
-1.23251868674071
-1.23931489168508
-1.12720507315613
-0.883757734214288
-0.592061250929479
-0.442451810588192
-0.469821256124424
-0.507420493464658
-0.478732531029003
-0.46701883644003
-0.473223404041763
-0.390619149233232
-0.217330465797601
-0.0388320367304128
0.146591112203467
0.354830064528388
0.491338385197429
0.520253866194113
0.583891775184051
0.769850605243492
0.973966425811533
1.0973094000569
1.12705828306945
1.02565459667872
0.814408201394524
0.660629648691683
0.62135692308916
0.499389648305356
0.173206402168995
-0.187775982033995
-0.386181047589507
-0.400748605353872
-0.286251666152043
-0.14428070617458
-0.130227215880521
-0.24813253497434
-0.304757112495342
-0.244563446682329
-0.260677088873307
-0.449992233288245
-0.669202856325675
-0.781842634841876
-0.759179380727378
-0.593241976936032
-0.350469704661812
-0.165666588616775
-0.0292019111935012
0.193551645622947
0.467109983338486
0.604905299023615
0.603735983445506
0.650083983098652
0.793578195946073
0.892101012791095
0.84778299577221
0.670174993226454
0.406255450216329
0.195549802194195
0.213081032887469
0.401527564910791
0.493079589132899
0.380431624063607
0.191743285478157
0.0061963187764937
-0.206722345700537
-0.437137019140625
-0.667730374770758
-0.91326771861397
-1.08989124686396
-1.07674109186649
-0.954841317083446
-0.909218748918282
-0.939907922016637
-0.944918699304335
-0.94031143927173
-0.941229176721502
-0.848132066753994
-0.644469863536535
-0.431718908659152
-0.189747496909212
0.159085700546085
0.468114130264455
0.512783503280245
0.336573516674861
0.150519534960535
0.0412150005711482
-0.011369892350488
-0.0258761677324779
-0.0453586454615122
-0.0758864268344281
-0.0042775430217059
0.227311900767175
0.46667287596933
0.574418944156777
0.63822603700149
0.761700260345857
0.849047689087753
0.790201611777832
0.616541390387977
0.34558625492129
-0.0159007338831534
-0.253656476795334
-0.11168517491915
0.295791454450799
0.585019717902562
0.559137139301543
0.291960768028967
-0.0648172916315853
-0.324865324852146
-0.33848420210423
-0.167981606946621
0.0144284323698947
0.187508207138926
0.407632681297369
0.618474588175149
0.777780389220979
0.960409375342319
1.1448607721329
1.17007063576411
1.013645846134
0.813262570165223
0.610052391902011
0.373739048868478
0.186967545420262
0.137257858226368
0.180436376235103
0.267967169789154
0.377634961778383
0.366042843704661
0.0930332178342662
-0.306256015343534
-0.576308166245544
-0.70869364667844
-0.865108565291994
-1.05846871000077
-1.2116454825176
-1.37786037159861
-1.61305410726094
-1.80502055772343
-1.86606326034053
-1.89653128967571
-2.01220058904857
-2.22503340363627
-2.50825229450941
-2.72932645678065
-2.60358515986613
-1.96477207705793
-0.957401068506026
0.170572800426095
1.22826543721478
1.98669975293256
2.26051274053389
2.1354191241752
1.84960528254431
1.5159596910218
1.17146707232858
0.899927232942378
0.715233382129275
0.565299206516636
0.523812874847489
0.670536161977074
0.826607449772608
0.762579247177694
0.544170765521417
0.352196127248451
0.182984021548026
0.0092299524644504
-0.0387854035385217
0.107796648258671
0.311611546802867
0.447518833777894
0.524619792698805
0.537217628648727
0.446563023316638
0.321962544930206
0.266119676436735
0.237133193640393
0.143640487244035
0.0168374508735809
-0.065804187009853
-0.0789722637329752
-0.0044876142261177
0.124369885205344
0.183435615441918
0.17332533449985
0.300894534552121
0.622723991460942
0.864485678157516
0.79544189871475
0.49492009718748
0.127530705463407
-0.235219950551595
-0.529811621586065
-0.729946218204544
-0.922086834508005
-1.13947388382925
-1.27982798718899
-1.33266150013897
-1.42345656266145
-1.53470369900873
-1.47704737845295
-1.1547815223225
-0.602171229965577
0.115450960311435
0.786956550451357
1.073731123623
0.885221324964303
0.508432652003108
0.230622460884163
0.0920015903145233
0.0571975242887142
0.125569953402646
0.221537943897089
0.229159903246543
0.150361108396756
0.0505361774957721
-0.0676099853493745
-0.182874610754437
-0.218673351460914
-0.204303999125584
-0.232937404080618
-0.211387227431766
0.039472006722193
0.448671793643335
0.775404840933327
0.928022113557489
0.922619525856796
0.717271662483302
0.341467619272956
-0.0226019684645304
-0.245795913869232
-0.330456898154892
-0.281489120756916
-0.144854437765467
-0.0784419045305366
-0.151900193225876
-0.243009172843395
-0.28287630247985
-0.340098061921584
-0.39363339063899
-0.361917551402233
-0.357195837191814
-0.555699598215482
-0.87973773178626
-1.10977070147413
-1.16896457224964
-1.07532622253339
-0.826577870155647
-0.493515102540884
-0.206084666850136
0.0315450010508677
0.304780299546742
0.584453955938069
0.774115364202562
0.885216968026546
0.958322048296403
0.949211733871822
0.88774189797982
0.940068767240661
1.13110108993723
1.25730169946024
1.2061736311868
1.08807917484933
0.994988680971724
0.889414324483843
0.710086409564026
0.405618011844743
-0.0034962674204101
-0.3107573763895
-0.323151533591754
-0.189006509879915
-0.213287707860537
-0.411998234430107
-0.587756571466605
-0.698759377580062
-0.804448599553144
-0.835002185631909
-0.724509145607016
-0.579353994461203
-0.513770630895014
-0.520242224071112
-0.570142260731701
-0.633402647346452
-0.642527122172307
-0.612332583071991
-0.651719278277923
-0.741890794299111
-0.729500449212281
-0.603460713580068
-0.515409003489687
-0.507226768587855
-0.476273685243125
-0.374535196448043
-0.191938627369535
0.168971203675844
0.743430016677437
1.33330505442893
1.6965200384196
1.76857737146626
1.58505370990709
1.22669345294685
0.894024368002041
0.736948862960832
0.623510288738961
0.365454142122713
0.0475212795043388
-0.138740473223429
-0.180221217249978
-0.143254553736509
-0.0479732773176341
0.0243925859463069
-0.0267540706522931
-0.140387561962944
-0.210301446324368
-0.291003933441518
-0.450198848551082
-0.602749300316554
-0.688983878771472
-0.773114460578543
-0.840400496214092
-0.770450741905033
-0.547152871507512
-0.240316222551474
0.143334538662296
0.568401123081336
0.890015716105288
1.02528825706701
1.01582586794421
0.875440145650876
0.610845463387386
0.352827706311715
0.200085085527337
0.012327908066765
-0.382519224243701
-0.891291960461012
-1.3037120661629
-1.57167284973454
-1.71905008011849
-1.69310481779601
-1.52159417400023
-1.39552476468102
-1.44357013160801
-1.60092911628971
-1.67376518626675
-1.34185284456409
-0.315888433055691
1.21834201250513
2.5499718042919
3.08771470767908
2.83542315141024
2.15549610771791
1.40900106535171
0.876870699113796
0.673938955515754
0.673838573387823
0.708308512765752
0.748916105464518
0.782902865575912
0.734988426981684
0.599548912703522
0.4251893708963
0.194812545418183
-0.0592905427067579
-0.176440686408031
-0.122823289904643
-0.0985452096292156
-0.218070531763984
-0.3548778824156
-0.413963362363253
-0.469893896716616
-0.568585691068905
-0.652461089019009
-0.697573641831141
-0.710569733113062
-0.644512042911133
-0.5066935973406
-0.42621869793957
-0.444207782837684
-0.425406543790776
-0.318313488403057
-0.256839429719234
-0.305413059980969
-0.373836759344355
-0.422661229649016
-0.502461443095347
-0.623652863374233
-0.764284710551981
-0.87994475499078
-0.823064720256111
-0.480598268599294
-0.011284001592593
0.318689336484877
0.476143135163448
0.580974175106996
0.649168679256153
0.665549488097481
0.695467416289574
0.741309937340091
0.747699035134256
0.803818397559569
0.999974333642105
1.12415543776772
0.891254228890206
0.385707977016511
-0.068090223377756
-0.322239353203923
-0.419057688760273
-0.395095421332968
-0.296916451476737
-0.224581570808176
-0.230628409005147
-0.286995501978513
-0.347003630881881
-0.337057863063651
-0.199403021252398
-0.0595976066088824
-0.157916581457519
-0.483887180198147
-0.723200972866737
-0.67018580916587
-0.403982571207286
-0.024619749078638
0.433280060205631
0.825846220181689
0.969107311089093
0.845803826668473
0.55098171129464
0.201034850207757
-0.0080966576325884
0.0611640545411338
0.24821648544008
0.292779380125511
0.211148770241968
0.174413574059848
0.186305121380961
0.190042285134615
0.263122474109711
0.43000289240067
0.524462724356935
0.424364547163891
0.194420930939175
-0.052673549280785
-0.221872808440764
-0.250566485441096
-0.248685378756695
-0.437057282766015
-0.805516324523081
-1.07808004916828
-1.09102722716965
-0.933848318933988
-0.713872883431229
-0.478517070703125
-0.349344479868267
-0.44548302043206
-0.683500157073542
-0.851613513042895
-0.81546890663794
-0.539274166947444
-0.081293391538658
0.356089411540332
0.606342027878113
0.763019635104715
0.960054263770503
1.06803082943395
0.929343703879671
0.675636999351058
0.493547999530303
0.340938095708676
0.149437796236308
0.0147411786417058
0.0199486702637157
0.14031397169762
0.348670982825545
0.564544216083914
0.605998900498492
0.418078884097537
0.16192894111634
-0.0555786476272824
-0.263254973891746
-0.407104712888645
-0.403901940527465
-0.374733263194178
-0.47980679586231
-0.63517623298187
-0.671944502080557
-0.5828124026028
-0.425175834566341
-0.234821453135047
-0.128925375541113
-0.20850844083499
-0.334013908917218
-0.272149630885159
-0.028783468298011
0.213880545256299
0.394297059649565
0.561038287119038
0.687223876542435
0.705235048774806
0.593463663979125
0.328781912068412
-0.0372618409972472
-0.258664995704094
-0.149771417952127
0.104275783007197
0.193478197475995
0.0878291965993959
-0.0669302060385042
-0.207694079514814
-0.278566041046132
-0.180218188607267
0.0553773258435193
0.30154553747076
0.540879508756544
0.758712643293339
0.783766759954843
0.536838811243129
0.224093255388296
0.029300344139999
-0.120005037633344
-0.314822889563994
-0.504246371204942
-0.657150730402487
-0.791630487755612
-0.853799592132579
-0.805754048783155
-0.738681248040369
-0.732332361305834
-0.740421398919522
-0.683747674978198
-0.501443086517324
-0.147436322289034
0.288074980166533
0.564415254097248
0.579450961470815
0.508441426847085
0.488958076664828
0.414120243438692
0.220373035931535
0.0762210843976321
0.0908567315564039
0.13569276491553
0.0864058035410872
-0.0398859872574833
-0.208027682709778
-0.368403401184658
-0.426928773974071
-0.401304446480382
-0.407462384041524
-0.390621358261223
-0.177644354906356
0.167853980236922
0.397843170511192
0.458754507706917
0.482327811759331
0.512993105151492
0.541871904947459
0.626999274521121
0.744935424726217
0.74797180262731
0.607429016338743
0.459856213871647
0.389536079212149
0.400306462783606
0.524794554512621
0.762447253702046
1.0399339142565
1.31956902285471
1.54713421445523
1.5223249405622
1.11238281543883
0.536141828540315
0.13044257664991
-0.089159120493026
-0.34676632906835
-0.689222955259927
-0.938684624519903
-0.979180385191975
-0.871066841414781
-0.774454111215711
-0.861710009251159
-1.14455623819111
-1.39430191061164
-1.44824830334566
-1.46453298087041
-1.62036121091109
-1.80238573067829
-1.86943816047596
-1.91854063288068
-2.04834032289664
-2.16814420968767
-2.18662045056651
-2.09035627920443
-1.81777048143271
-1.34531132053429
-0.81394671749825
-0.335727358375735
0.13908331592344
0.618818298531463
1.03180416764249
1.45666831872308
2.02977331271272
2.62867174270922
2.99961619088976
3.10044559825504
3.01485413168124
2.72727562952094
2.25164740039707
1.76254044491225
1.3984871731138
1.11963285902214
0.845536937252594
0.569042628859582
0.334899164583897
0.23539493042595
0.332793303820101
0.47423524636904
0.376914872751507
0.0269068348003643
-0.25808021063398
-0.285042847734425
-0.218587388905284
-0.282341904206085
-0.527304655120303
-0.904882506145534
-1.29299769725701
-1.51915697527102
-1.56557096232655
-1.59705617833784
-1.68188483950449
-1.73795725742124
-1.77162381566495
-1.84431258715544
-1.83829438238492
-1.57782554041749
-1.09237449238076
-0.507358711978673
0.148993884715111
0.850484949602731
1.52033220482659
2.15076016276748
2.70963235397886
2.97664041569585
2.76750413147468
2.20798603360345
1.56269765805536
1.00023817215016
0.663126699520111
0.651015815148492
0.792894410937525
0.71758386792272
0.241101448398415
-0.506840547886442
-1.28848150159644
-1.88143141633619
-2.11921598127782
-2.04192776467167
-1.88590998276626
-1.76527954111342
-1.5641681438006
-1.24694058619121
-0.979862967368685
-0.857928891841722
-0.805506289961998
-0.757525850997848
-0.683241299512876
-0.535290606347858
-0.381709603833504
-0.38388669544816
-0.51001954519522
-0.547844362067066
-0.44428493516374
-0.311637786749385
-0.146366873558741
0.130629636140355
0.483262431953442
0.884504467753174
1.40321614905802
1.95462189574596
2.26910277024553
2.26457234225771
2.15267224849185
2.14571325389502
2.33410239195009
2.73563275281712
3.18341501521322
3.33258644366437
2.99047175572325
2.27455230598246
1.39720258344999
0.527992693210123
-0.176170201091625
-0.679193110595675
-1.14086003639784
-1.67113597091595
-2.15236945350615
-2.48157153057234
-2.75868953757611
-3.0672513646607
-3.34427136316131
-3.57757600344181
-3.80714601889131
-3.90681229167761
-3.73035360702676
-3.40925669927753
-3.1452282059139
-2.87475673691628
-2.46819574014248
-2.00842703299954
-1.58833575720272
-1.10923311502923
-0.470555207051521
0.30765151578909
1.20574793260927
2.17918389360861
3.06115437549249
3.72316817827749
4.20713741010042
4.55452346403034
4.72019071333205
4.72616752451045
4.65445274366204
4.50794353680246
4.29398140500403
4.0961003338732
3.87958057911219
3.46785360490781
2.84089619126195
2.17287749853755
1.52461896108305
0.80223176357285
0.0082591238528508
-0.7604650422368
-1.51692304088452
-2.33067586273507
-3.14643635996413
-3.8479730525817
-4.37974090879837
-4.69193329422645
-4.78183034035232
-4.84446366400246
-5.073828618502
-5.31204432724276
-5.24971712594485
-4.89590327781648
-4.47859617322636
-4.03711675989121
-3.4700172842999
-2.79694558271839
-2.10694774369495
-1.45613632440438
-0.932362335787653
-0.565092033116758
-0.175236952554367
0.417100351259596
1.13678762288285
1.8282300983966
2.47815786537475
3.10522081892242
3.7183906383336
4.45510625064661
5.40507974379326
6.30871537740992
6.7935809855659
6.82164970092268
6.60340438709312
6.25820715472879
5.80385999297745
5.25705809205413
4.58235873517037
3.74912663524606
2.87080222126696
2.06927991883573
1.26634254920046
0.347830778800047
-0.583158858604251
-1.35469408146564
-1.96958671423216
-2.49147072313596
-2.89239592434924
-3.17363005658251
-3.39673610975874
-3.52289436840662
-3.49362176048691
-3.44221972610451
-3.55100819827729
-3.81433565624081
-4.14723112354411
-4.49109086570361
-4.66533683535611
-4.43857386391896
-3.85415372627435
-3.18220416302157
-2.56529053864683
-2.0024721768888
-1.53734484550802
-1.16136511008377
-0.732426020434874
-0.228915359866465
0.159118023202944
0.33421101077517
0.419749793030536
0.552109391458495
0.79395807814357
1.15908065995107
1.50254157450221
1.58095523425776
1.39767554257265
1.24282403178716
1.28623362226144
1.40639258394615
1.47425115940309
1.53176151183121
1.66468149974032
1.91915885574737
2.30157500468179
2.67536173824829
2.7818748773721
2.53946096497335
2.14126447383089
1.72198322385727
1.17230430331868
0.379377166840009
-0.599806568913039
-1.61297906583759
-2.43702348208724
-2.84797680025307
-2.8803771202043
-2.83599233050152
-2.90586524496957
-3.02483261151219
-3.1091748705348
-3.11070229704942
-2.88359716854193
-2.33034858958439
-1.58396717653787
-0.804576533996164
-0.0075117449518574
0.744135015673769
1.29847680433475
1.67676645990728
2.03033691213255
2.32634042331619
2.42325750353264
2.378979692859
2.37486343185775
2.46561266714224
2.61301069361654
2.7888736893174
2.93674449698704
3.01668195894065
3.0854695420522
3.1500542444997
3.04762558787897
2.67621746944964
2.18773408594249
1.74728436088338
1.30270933127493
0.788431505454241
0.317490423506298
0.002200008255276
-0.167776266145267
-0.194134441491199
-0.0914504134940517
-0.0160587176497222
-0.0950845490845604
-0.225816479353294
-0.260028134019737
-0.203783479374326
-0.113951108796886
-0.0612080830422346
-0.215246975411648
-0.635957246400069
-1.03053695890531
-1.0530602516535
-0.735148783853065
-0.353935027472863
-0.084019964305298
0.012458783165047
-0.0734237490961249
-0.227796171121077
-0.345637410051181
-0.510435764245055
-0.776506040807711
-0.952371725339395
-0.897278645013033
-0.795516233550853
-0.884051750182035
-1.15918490204384
-1.50813162905063
-1.87123235020633
-2.20424182797511
-2.52376070531391
-2.98301073073776
-3.67839666580462
-4.447332349365
-5.05724546908501
-5.47523875570012
-5.78442029070673
-6.00203749490106
-6.09459672653787
-5.98024394930966
-5.51779826956839
-4.73286698016436
-3.94177929778796
-3.38846554364553
-2.95309322662881
-2.43186101964714
-1.80659434273868
-1.07950352821722
-0.214252714912561
0.6413825583
1.23682611692034
1.5568585147416
1.77538165347675
1.97755636385397
2.21168576780966
2.61472822337347
3.21824725993699
3.83632729051777
4.30826135258907
4.65272170312915
4.97368744265316
5.42218669029635
6.13049843671112
6.9839977274773
7.64425415747449
7.93104141892368
7.96490756575882
7.9076561833531
7.81622505120444
7.70718252996052
7.50568130717164
7.01456202720408
6.16413321862955
5.17234256073072
4.27433457003155
3.47220575348428
2.68858328387759
1.89572931284427
0.966596134197184
-0.268708781116456
-1.69548257465267
-2.94430439982664
-3.78435852342357
-4.24613639780879
-4.46669851687633
-4.6454874351812
-4.96237344599532
-5.35365546061952
-5.56991121252354
-5.50251335216565
-5.21289366638292
-4.72975201900505
-4.11582717110451
-3.58699485774092
-3.28632570909536
-3.10877557701124
-2.89241608782919
-2.51792548683721
-1.78674959363278
-0.567036851842413
0.922900262600883
2.27895863323194
3.28804298503039
3.9514700370384
4.33893327643827
4.54672623527226
4.54645088758983
4.05859553825804
2.89520326224846
1.39682684481887
0.199536826459237
-0.394280677006486
-0.565915871679776
-0.652468554495947
-0.943675789547351
-1.61834433915973
-2.58645474427606
-3.54482738294721
-4.37648925973068
-5.29064726243403
-6.47708614542234
-7.87269619508449
-9.26273443189771
-10.3493513214266
-10.8214883214728
-10.6061764942884
-9.91549613635724
-8.93001873227191
-7.67140250111667
-6.19119021695884
-4.55297152082571
-2.67041704379645
-0.488254904358214
1.78911319227599
3.9096960703098
5.79556038306634
7.35371945711644
8.36737953475691
8.72779147702112
8.49049044856247
7.69213321735108
6.41361155786292
4.93869008398937
3.57507942102678
2.44632501312637
1.60901549913522
1.1370032180573
0.968884723436235
0.902978154471539
0.812538944536127
0.703878116827245
0.610763428849376
0.590240400225417
0.701361374147916
0.837577769274698
0.768512991878421
0.493750710237802
0.328488172127292
0.543624444531272
1.18076576526371
2.20616437752567
3.50658710110945
4.80092544201159
5.88400059794329
6.81813972600428
7.64022945428893
8.15573536773419
8.2438389810022
8.04172310592887
7.63811552505874
6.85044610345142
5.38870307348886
3.09500359790064
0.170112034753389
-2.69505446100408
-4.7080874982335
-5.65424129663691
-5.9241026628314
-5.91861832903461
-5.82920714191064
-5.85821758578314
-6.1445085349024
-6.54843875348352
-6.84817960298304
-6.96444916954523
-6.79098321126317
-6.12737324215229
-4.97544143407762
-3.62281460809569
-2.3331082231931
-1.18082463096746
-0.167037153256286
0.740800676829619
1.62205214950152
2.47153097780446
3.18130042430432
3.77123876676957
4.42172457924719
5.21320279296384
6.10859912263859
7.15059879518763
8.29523866963556
9.11606115676677
9.05861401606587
7.94672326867309
6.06178390335716
3.94746562981314
2.22480426368259
1.22082835981825
0.649306547080614
-0.0722771754347232
-1.24359460862146
-2.86451114920676
-4.92876555204321
-7.35677575686838
-9.84573100277884
-12.0719994877747
-13.8565483868978
-15.0411183353529
-15.4903029436538
-15.254133923903
-14.4827381614122
-13.2441065768368
-11.5984568093571
-9.67960349345077
-7.59127568458797
-5.44228575248787
-3.4967925038515
-2.00816770797492
-0.911081270037433
0.0753885588596492
1.1016642328732
2.15583495741449
3.23831965316928
4.32774839820001
5.28467275200951
5.941995086238
6.14490651392321
5.69853578490657
4.58827205951881
3.23910370005364
2.2045133337739
1.65889901345256
1.48131226366653
1.60253280574614
1.96116967793984
2.42768171999134
3.04260090977108
4.00012873773086
5.22975485116543
6.33842571600601
7.03604428197779
7.32088957691963
7.31277051479484
7.17102412305643
7.0283199248836
6.81435990867689
6.32792649348857
5.5175684923942
4.45489310093268
3.15769729826143
1.74317601890845
0.556164710576796
-0.131608271210465
-0.314598780555161
-0.0067786365735643
0.843913228220796
2.07975452827378
3.31962161952634
4.29222268328054
4.91248552464698
5.08294136133807
4.72143575470198
3.92375695215647
2.85829816866356
1.62287429380968
0.386755451036252
-0.558360490255643
-1.08383810221606
-1.3294253104149
-1.42228781621208
-1.34036249503068
-1.04576180433449
-0.497169621942567
0.361158207387754
1.38807341418646
2.20268089660004
2.52983853742467
2.39591845502306
1.95425732798566
1.38489737932374
0.902282515094033
0.553047203038494
0.097350290471575
-0.697407347278535
-1.85185168817317
-3.38218237458708
-5.34322707932058
-7.51264295076573
-9.38282264519815
-10.5827867151247
-11.0923600026887
-11.1229431280141
-10.990530828162
-10.933004992536
-10.9047178356131
-10.7324600081963
-10.4507629647983
-10.2012215425773
-9.89291739649963
-9.29949860769213
-8.4065143979148
-7.3834124925835
-6.35793684510688
-5.45855005391951
-4.85555436563237
-4.52555745558659
-4.22788390548967
-3.87012567793841
-3.57321656891361
-3.28647838524973
-2.70639487864555
-1.61686015090382
-0.0151334045118075
1.97259731446399
3.99415619240234
5.48339055590781
6.05429451121129
5.76562355896316
4.95426276074913
4.02919284895485
3.33927392127688
2.93118045328259
2.53265857813343
1.99047517165925
1.5104668604432
1.31017052170459
1.34631095038443
1.50020681358106
1.7118122840425
1.90404475980708
2.06013798177469
2.30207280862653
2.70400156963838
3.24159568491777
4.03082218935222
5.27061611951864
6.85339211512703
8.38845315372215
9.65651663025344
10.6921082390387
11.4314823339019
11.6908906797968
11.5875697467772
11.705909386219
12.7574021869825
15.1514923383419
18.7582535747391
22.9297670425988
26.8439081849919
29.8851690589772
31.6763210031245
31.9987951295158
30.9126253097677
28.6950649162224
25.4417686852164
20.9838611187641
15.2588550356016
8.40604411811079
0.572314546773025
-7.86673481607726
-15.9730026117263
-22.6777740438249
-27.5446250262483
-30.7937647504548
-32.7695432024518
-33.6476079807812
-33.4079373775524
-31.9573308873162
-29.5780643109461
-27.1950075520185
-25.7455749628823
-25.3296412070056
-25.3626954911725
-25.4614821873304
-25.83708341403
-26.8354163511453
-28.2260185165424
-28.9758800375859
-27.9185962627289
-24.839381446351
-20.7165103229871
-16.7078942151452
-13.1601068882165
-9.78042357447984
-6.31723206895474
-2.68992057728781
1.1186134796561
4.78902104126478
7.51370509638213
8.49776718455691
7.59839581714605
5.53522492194802
3.67331436662979
3.37257509674749
5.1534138469735
8.52206441007145
12.6724955344009
17.1086545586226
21.5961123382211
25.9204213817385
29.7979346562282
32.8060251792218
34.482093299963
34.6791539935735
33.6539127298313
31.6939083440211
28.8961186962259
25.3225635683923
21.0901089622459
16.378372733164
11.5597596364471
7.04263392632456
2.76473085880269
-1.72779634796866
-6.42284722396416
-10.5057042874351
-13.1711986833403
-14.4500561471931
-15.0498222384573
-15.638528749831
-16.3693159355909
-16.880691594402
-16.6961195362697
-15.7160438520685
-14.2668413559771
-12.6756211916156
-11.0094717323663
-9.17568282630823
-6.93881644030223
-3.95979695356081
-0.305006176305384
3.15928195726987
5.35822735720092
5.98045746987408
5.6220851378779
5.1816392319076
5.33093533512722
6.29984639157283
7.91559253145348
9.89829192429252
12.0561647333509
14.1017570157704
15.535878287951
15.9076398356837
14.9802832339499
12.6444111330773
9.07084997656184
4.95478355336036
1.18228459747294
-1.75852459728094
-3.79319365736545
-4.93643893363968
-5.26421844344503
-4.96346737518013
-4.17412636139519
-2.98410054126551
-1.62961362103765
-0.445205253850952
0.348448003243807
0.570629922677476
-0.0298675150701256
-1.46662606236363
-3.23685850435452
-4.71649001820978
-5.78786534959516
-6.86785119651529
-8.45543901858214
-10.7714744357468
-13.5593802737941
-16.0852080735775
-17.5895606104918
-17.8406792570751
-17.1256517661811
-15.8728780238019
-14.4912003459075
-13.3251646258639
-12.5174387996448
-12.0742560975876
-12.0969117988602
-12.6797800386733
-13.604509970318
-14.3801830109642
-14.4890736567965
-13.4910540786628
-11.2365339679089
-8.1535243110245
-4.96705241235722
-2.0492667221938
0.613083665041848
2.97906893992917
5.04050051292189
7.19963282940205
9.9395493915746
13.0894891381272
15.8093159115217
17.3536386465746
17.6938923412962
17.4069223482209
17.0391958751958
16.6508164858619
16.0575021809941
15.3665079157234
14.9007851900989
14.5618325319006
13.7265370170882
11.9972712975427
9.72001952897252
7.60835935377548
6.18134609265671
5.60059225387477
5.63081071647572
5.69280302642482
5.2843414795554
4.37317673914106
3.26569867055146
2.30588715978111
1.77213524945764
1.7125912760927
1.79337201904848
1.62023694880126
1.18634498850867
0.738710422379141
0.394586424227428
0.174274738024368
0.134581481223816
0.193127663930845
0.126701144468092
-0.0111341360260782
0.277488142694756
1.50422613284736
3.65433725921543
6.0080037534429
7.53107647276741
7.75040236102412
7.21881954589724
6.70791378060934
6.02113686599633
4.17429445889667
0.808242481408121
-3.09848430103898
-6.07717771128282
-7.39253984704648
-7.39420377130477
-7.03750970524458
-7.17538160399522
-8.06737228305891
-9.42399673506431
-10.880579876379
-12.3211883884651
-13.823813270719
-15.5085676001769
-17.3688564683832
-19.1343999579575
-20.5310868388873
-21.718160515895
-23.033306095958
-24.2353989576048
-24.4956135532776
-23.1959981643885
-20.308133656417
-16.1221487265676
-11.1440923920661
-6.10612842419493
-1.50728618122598
2.81433205864352
7.30872927815451
12.0303445104969
16.520977097638
20.2056837933477
22.7980257535112
24.4121337958945
25.2429888992502
25.163785795369
23.905342603992
21.6010381169776
18.7565710737576
15.6850016324623
12.3823527604962
8.94310366513425
5.67585183479113
2.75973747362757
0.0774023662158135
-2.60247399825109
-5.43134855119274
-8.32125540659101
-10.8195099826993
-12.3502022468287
-12.7128222323955
-12.1522672465305
-10.9975058877298
-9.55899084565764
-8.23940218136225
-7.31229818386925
-6.67234574546834
-6.08752130183761
-5.509196430413
-4.94362538530208
-4.2981405778154
-3.49708750051812
-2.48639746145556
-1.10557706242741
0.758752571461763
2.90798102569677
4.91339101674496
6.40350169852461
7.27146849741175
7.80673462666698
8.5022742844382
9.42409324750264
10.0007803505577
9.80784988597151
9.25369199772003
9.08731542355411
9.52040171797089
10.1634791368941
10.5629459038536
10.5852656107566
10.4868133514132
10.6742946606393
11.2028784356505
11.5622907788778
11.1478512241909
9.80765536458165
7.75203726861535
5.16885007767921
2.17235925208719
-1.07359679632801
-4.34407550055733
-7.26663449424154
-9.29011772337664
-10.1232818949954
-10.1858494534081
-10.256266909879
-10.7102397964847
-11.3719697859711
-11.9789936553818
-12.5349956472394
-13.2435362626938
-14.1340158924058
-14.7339361486339
-14.3703145320468
-12.9888618256819
-11.3418475883548
-10.1195469106651
-9.2646175290186
-8.36194706308909
-7.27230886586234
-6.13564456906423
-5.11593866252772
-4.36818900538457
-4.07524463280678
-4.42207246551664
-5.47573667163841
-6.86945551565779
-7.6703505364919
-6.9625472356757
-4.61612536730634
-1.21821454261896
2.61937605903207
6.52510098813607
10.1324606387205
13.1012177032818
15.4229541495226
17.3973129887412
19.2789918784844
21.0495210636122
22.3350325624657
22.43776107574
20.777993242866
17.5059734891629
13.4916124082448
9.69966663765958
6.72097049045845
4.67708360925056
3.28516495362407
2.19139767825758
1.39375902576101
1.08232061378163
1.02475716981215
0.488676120073944
-1.09277262705137
-3.52502333435034
-5.84943745834174
-6.91151252093538
-6.29346051409463
-4.86753612574071
-4.17388397437417
-5.16493176265395
-7.62586325197804
-10.4783934601567
-12.3834084340229
-12.566865785608
-11.5868339890441
-11.0050894482021
-11.9481094119696
-14.18571682387
-16.6620389709254
-18.5035244654304
-19.3866399356741
-19.3039441416375
-18.1832874300026
-15.6713338100816
-11.4215612081683
-5.75875442341264
0.197683596926116
5.35701951736571
9.42413265280205
12.7115180382345
15.5280281875194
17.9415995353148
19.8494164255151
21.1214673878942
21.8032850453025
22.1211474362855
22.1962096533658
21.9313909508513
21.2025942177102
19.9382329477726
18.1716857249223
16.3795221513249
15.4973419664475
16.049470912269
17.3535527077153
17.9239348301819
16.548397298697
12.9806900720662
8.06863886209932
3.22992688484287
-0.827259016494259
-4.95921426001514
-10.6125662202371
-17.9458616672719
-25.3515531814454
-30.8071650748102
-33.4034179837446
-33.7226803590448
-33.0939998317099
-32.513898158686
-32.1366757064802
-31.6314035376879
-30.76166247591
-29.5151833196248
-27.9432495392866
-26.084263013786
-23.8791408756687
-21.1018058519334
-17.6308711752401
-13.7393309196999
-9.7185753732361
-5.32043785096553
-0.069556277379343
5.96319748475341
12.1278294633546
17.7549872222988
22.4149820404662
25.9272777258993
28.404793901769
29.9443190388784
30.0810754887994
27.964329173212
23.3188709567738
17.0570391759469
10.9431964909648
6.7387416052715
5.34768449551238
6.43852028071781
8.92856009599546
11.8263437838969
14.4882622153739
16.429492090354
17.4551164007781
17.8810079041537
18.1846615423641
18.4412271645325
18.2557700467785
17.0964860332032
14.6178311364096
10.8594177376966
6.22415223611769
1.23124454354048
-3.61775183575327
-7.76221164615223
-10.722421916075
-12.4866259447943
-13.4879845823962
-14.0793877575921
-14.3086398642906
-14.172031313516
-13.6030397423306
-12.2106239482079
-9.593817370371
-6.00978594951525
-2.30466717253531
0.87532119279787
3.59195625219493
6.46930873119426
10.1589634819075
14.6544357670729
18.940843919436
21.4558112159175
20.9390491905406
16.929670358326
9.95014474878919
1.52486351700601
-6.42032864583383
-12.6572164144423
-17.1027518604239
-20.1949528462073
-22.183067624684
-23.0811349406728
-23.0139506504308
-22.5024689722834
-22.3718054412228
-23.1702665599539
-24.7156826251034
-26.4356239791324
-27.9133383249851
-28.7411786131015
-28.2482885498267
-26.0832667949361
-22.9683814856905
-20.2618449819748
-18.6688177655711
-17.6614071785512
-16.0660899997679
-12.9531272773556
-8.16113959579833
-2.38151986469215
3.16738081996104
7.29175194154727
9.3530229207147
9.71271627057011
9.6885569517877
10.470138190671
11.8269994231025
12.3859941553485
11.3621837076708
9.55125041827522
8.56621525491092
9.55220735483023
12.5495037451053
16.5530843892289
20.1673724547502
22.5636734824437
23.8623379707666
24.6334136047991
25.3159764551313
26.0466500662992
26.6225650904512
26.6634454940423
26.1228878645874
25.4548674306084
25.0229124511175
24.6776755877309
24.1640700276419
23.5489318123087
22.9445296948229
22.0429608088698
20.1091173296482
16.3972296929126
10.7529501555096
4.03617164879788
-2.23361754550233
-6.92301920119448
-9.88861335844796
-11.5580221481013
-12.3795106860141
-12.8297232071385
-13.3769195576733
-14.0720675737751
-14.5292431059206
-14.5259093313849
-14.3593139807959
-14.5523704150569
-15.4234207931968
-16.899779176726
-18.5878072390151
-20.0715705330992
-21.1474477720004
-21.6945263176166
-21.5175030003697
-20.5317008429578
-18.9019444072972
-16.8448497011251
-14.5657775336975
-12.4493781432548
-10.8871472418565
-9.77376648121613
-8.48087834062551
-6.38629242785647
-3.29278680874857
0.4815822432028
4.2643929331199
7.49404846209912
10.0486659191412
11.8725981195596
12.5035072062245
11.4695872941645
9.0522505108612
6.23874634868893
4.0452393640636
3.16085385578081
3.81098169825989
5.27900458746053
5.72923492467015
3.3212329735286
-2.08591053575168
-8.47178816333363
-13.0756753742782
-14.4863315127561
-13.5484766678288
-12.1831402126361
-11.311031498509
-10.2494380971138
-8.16695620718413
-5.51837674653521
-3.70302436167842
-3.65811469165324
-4.96978928420181
-6.09259168051934
-5.45234326704812
-2.66694893640221
1.27208944882469
5.05824342053344
8.0612419846207
10.3277983777229
12.177292725487
13.955152123274
15.7064253414255
16.9695459326432
17.2391537483517
16.5777290164963
15.460991194515
14.2094402239682
12.8921178628666
11.6076051503683
10.6195545315597
10.3561903570111
11.3147298367236
13.6190653573809
16.4557803880031
18.1808980932049
17.3350903011636
13.7465859625962
8.70716797525129
3.98570445614957
0.484783442357235
-2.1341347681538
-4.44340939825718
-6.21929057283868
-6.80690690617957
-6.19902933325334
-5.20213425549551
-4.6656039306985
-4.95007336730291
-6.01729827965054
-7.71803701829765
-9.98636961300707
-12.7540542009131
-15.6430166493648
-18.0447008457069
-19.7114440778236
-20.8825767224183
-21.5979227267118
-21.4014403636599
-20.0262194249598
-17.8750599802839
-15.5289638138464
-13.1458426146339
-10.4686918538859
-7.17383496167229
-3.33898467315766
0.223969290207527
2.49064990280664
3.40139368609819
4.11443804475564
5.75207413710284
8.23021178266818
10.5689244147391
11.9907631018478
12.4084241771971
12.0685685312435
11.0491234434471
9.20669675069216
6.67099543313963
4.30489233548074
3.2648657179949
3.86783299631614
5.19250923282485
6.00876489674668
5.8362130788056
4.9758647162135
3.79388438089863
2.1818353362493
-0.199656355622393
-3.05215112910676
-5.11212689912775
-5.25597674975204
-3.86416365393403
-2.5329361064445
-2.48291109198706
-3.69850287860686
-5.39231646274935
-6.72779192790202
-7.19974981411107
-6.76431496971594
-5.62887248344247
-3.90902783102027
-1.70205011491115
0.719426411959325
3.27274130975574
6.42764214062829
10.638830060967
15.5108886664453
19.9612886640205
23.1193836618032
24.7795399604764
25.1549604133199
24.5350238559007
23.1855084537003
21.4112761748891
19.6476157176457
18.4258607323499
18.1614645278895
18.9968321282239
20.7938608281677
22.9471334727065
24.0232011178594
21.946024071814
15.0655110505349
3.36623648974812
-11.1536948582894
-25.3135800398126
-36.4108952287458
-43.5079116409171
-47.2439374308302
-48.6934691229151
-48.7356655176917
-48.1122572771342
-47.2556381891858
-45.9545181878617
-43.7037202679741
-40.5114483808633
-37.1449058155757
-34.589698850057
-33.2549942361617
-32.4806909423242
-30.9154063405121
-27.7514465845478
-23.5454003328235
-19.5660302343855
-16.4980198950593
-13.9437749501213
-10.8714944209662
-6.39752560607203
-0.479347580643331
6.04419099936551
12.3564262500315
18.5202155300958
25.0949908845472
32.0579946372721
38.5632108736788
43.7147134836814
47.1561063774423
48.8996195229815
48.9722946817153
47.4027724856125
44.4785038282774
40.9505348939887
37.7986444481695
35.5589972719207
33.9665686954332
32.4111599536071
30.5541771096836
28.4108992749625
26.187278771535
24.193793132376
22.6009514323461
21.1835956961793
19.5427457252221
17.5090327485237
15.1161089486472
12.3967032220463
9.39851084058382
6.05761042491819
1.88368446101939
-3.7632244653709
-10.8040668767608
-18.1547067987624
-24.4746177693283
-29.0678383294614
-32.1604818627359
-34.5173836892141
-36.703799924757
-38.608997099075
-39.7150963660382
-39.6699978846591
-38.4337247505479
-36.1086156449587
-32.8859225030758
-29.0082641191826
-24.6865247826718
-20.2881421680609
-16.5524259147174
-14.1080970638984
-12.6738346153904
-11.2361127373741
-9.11182523976794
-6.36026591960393
-3.24118469421648
0.0128211762338377
2.85489916935576
4.58656303716785
5.08809979150028
5.01080981927553
5.18682944008605
6.06908059453788
7.66557777939134
9.796386791828
12.3163969895062
14.9758616879235
17.1462011553357
18.1306694222394
17.8701629017993
16.8645474575249
15.2981551555311
12.8242856038918
9.33911569130032
5.43085492492147
2.02470531418571
0.0252683173163275
0.0906326005809556
2.12780434653745
5.06338455347019
7.56132837564393
8.97162173882201
9.42183582138576
9.15997485489346
7.99739420466323
5.36264957234737
0.950068887373061
-4.58020717942189
-9.73522672982595
-13.3086603607101
-15.321141272663
-16.7160696113644
-18.3001125585941
-20.0988433614904
-21.4961901712391
-21.8385674793667
-20.9953512450994
-19.2683829160032
-16.7258895879994
-13.0012128333395
-7.91706949604925
-1.8956800125763
4.35824828456446
10.0931632110715
14.4166647050934
16.6227256032513
16.8196263328304
15.8610107903532
14.6247066173448
13.5855250943745
12.8679486835326
12.3527475202708
11.7832202122186
10.8625881261147
9.19172402564027
6.36336574638946
2.46432120230148
-1.68725085792384
-5.08061616121261
-7.13402345152754
-7.77091256401133
-7.31706816234483
-6.40709697339518
-5.52609717618763
-4.4995824421997
-2.76045770191022
-0.135433819549438
2.93347260102464
5.85168089591282
8.21205175543031
9.81837614296442
10.7872804583787
11.6030975467948
12.7979982724504
14.5544816702346
16.6396925432191
18.6312739711043
20.2740161761444
21.6500874156656
22.7253604601368
22.7402894910771
20.6262588434429
16.2534255650696
10.8256846044921
5.89556725906474
2.32939449116152
0.128062217766884
-1.28284645284567
-2.61363826995233
-4.14618418674449
-5.53262218500562
-6.27419494703505
-6.28811918241895
-5.99283939195006
-6.06031723042079
-7.05399302130059
-9.08194225639749
-11.8333594452048
-14.9788086187339
-18.2980306650499
-21.4671006568092
-24.1620090873672
-26.4259612931438
-28.5392496934686
-30.4765977296527
-31.8193443761275
-32.2311077020533
-31.7692402208345
-30.7238826668324
-29.3457530737458
-27.8090040969947
-26.4926570297468
-26.2660030692047
-28.0008872213557
-31.2752723305605
-33.9301185352837
-33.7013466263394
-30.2233638583169
-24.8551556613733
-18.7414355425866
-11.72224124988
-3.17477891672951
6.55124683700911
15.8425386649213
23.1159217216774
28.3744477375176
33.0763528641462
38.2777619500079
43.3846057422616
46.9879786804186
48.3686980583351
47.8738352111514
46.3874419694076
44.7688076304846
43.3305821700442
41.5630032500927
38.6270619635018
34.2055293391645
28.7761798074982
23.282813072248
18.7223407088358
15.7593742080296
14.4429540115383
14.2851273041699
14.5692839615234
14.5733654551294
13.8149125672569
12.3413581186721
10.5765881950773
8.71694455828977
6.600314584586
4.3543283897025
2.67727076749841
1.98230307275869
1.46509882865594
-0.512903733492356
-4.95449656636787
-11.2148065918603
-17.6433715812136
-23.3788017244507
-29.2223700750707
-36.2926592335469
-44.0506798866634
-50.3076828956835
-53.1745303111761
-52.5121387196377
-49.5591080293509
-45.6688747971064
-41.4714464847995
-36.9344286081223
-31.9917041671098
-26.8097823219167
-21.2695560851502
-14.7250101808602
-6.91831423724694
1.16387389980111
7.95137252308744
12.6322305486058
15.5619154629807
17.7999827287128
20.5528335672321
24.5284785601599
29.326349716456
33.5761649840774
35.8379239902289
35.3795231043632
32.3681735871626
27.6859466515614
22.509233033835
17.8011034514568
14.1235431966229
11.7617632059151
10.6617472310605
10.3004843721513
10.0761638706345
9.77737610536405
9.16950911306595
7.24069547130025
2.55513357755042
-5.38773307827641
-15.341943888862
-24.8985087867298
-31.9435130259284
-35.8913009673357
-37.7163466166812
-38.806253554336
-39.9129077103656
-41.1032577282013
-42.0681203656376
-42.1402267761711
-40.5679985339669
-37.2220240072713
-32.7178101271052
-27.6564498328673
-22.0705091978377
-15.6155936772997
-7.98231285619966
0.699857728784438
9.53206018230707
17.2141543091712
23.1114271520655
27.7750224849502
32.3007905280758
37.4425868973833
43.2312629414167
48.8969903604773
53.1445521125328
55.1249224737102
55.3858794069424
55.5120790466038
56.6253439891231
58.3399669025658
59.1331829533515
57.6329641948159
53.7009441177645
48.4226124824964
43.0958465342308
38.3858738124478
34.3750501889679
30.7984853240486
26.8479666366911
21.1970952310202
12.718079579597
1.179401102683
-12.6653208379804
-27.3929545741667
-41.4912886937309
-54.0387257159089
-64.7708581268429
-73.406865342816
-79.3494771375319
-82.2777533117778
-82.5890682480479
-81.0311374411591
-78.2664995566257
-74.8521146264788
-71.1743521011146
-67.2095563732547
-62.521841142641
-56.5767370950678
-49.1728637666005
-40.7782073190173
-32.3435805904495
-24.5233638339811
-17.1422955461292
-9.54129594133023
-1.25296124317425
7.67154240599694
16.5608300269069
24.2146552119847
29.6412033981392
33.0813196825446
36.0211282898742
39.9184182191133
44.9661873569387
49.9699182303039
53.2231949778679
53.7800309930577
52.2040377882628
49.8996643853803
47.6650891942913
45.3031369632839
42.5422249550559
39.5966998773571
36.719435753674
33.8666507377765
30.9531320413016
27.9594666636619
24.7125081794377
20.8609416095194
16.0634234010899
10.1836579174169
3.63163711222496
-2.41807513473845
-6.56038515727831
-8.08779612741749
-7.22578474048611
-4.567658321967
-0.626509000971808
3.94614729108431
7.84080375922118
9.17198482627983
6.69479780715394
1.16418977906669
-5.00138290444715
-9.75543262059499
-12.8572202605203
-15.2821382357063
-17.9031861780343
-21.0914848049257
-25.0101380011106
-29.763864341062
-35.4369402476948
-42.0321976365052
-48.9676671503427
-54.7388605463078
-57.722610703559
-57.3883491205619
-54.3929916509745
-49.7819021428175
-44.4871093493968
-39.1059876804069
-33.5489758507441
-27.132742009152
-19.3914800706301
-10.6404792432759
-1.69221988324607
6.67586132866095
13.9998745418776
20.2377602358576
25.624987159628
30.2234601173483
33.6417858274811
35.2761386095008
34.8543813313652
32.9846400382724
31.2435355165107
31.159655556352
32.6488797998223
33.8426270064212
32.925377375825
29.8952252298315
26.2497145289206
23.3227395309814
21.3188598158911
19.715260556598
18.0736747661055
16.2330853507998
13.8800708951672
10.3897054319283
5.53435326963062
0.259621171738131
-3.76893732094171
-5.54413634703792
-5.39182544102375
-4.45361773470494
-3.94019946968689
-4.59960505967018
-6.19540099730319
-7.45796291382172
-6.97729728110169
-4.29135164076601
-0.220529833080738
3.56198329756589
5.43690005184048
4.90156019148279
2.91959140301205
1.06916963092674
0.447253230715794
1.34105889464454
3.30681604302464
5.20457195667771
5.69321016110285
4.19433533028594
1.21844441769187
-2.40348056385068
-6.49693413234256
-11.8339960370668
-19.490562542466
-29.5716333197611
-40.4177659449961
-49.3786344575504
-54.5092530545066
-55.4389476643922
-52.9211342352893
-48.0021261552856
-41.4659896414387
-33.6321968886489
-24.6801724285528
-15.2688802372099
-6.50520826845493
0.916629306684377
7.15232852849721
12.5384380580144
16.9321841297132
20.0706252878753
22.2746706532848
24.4202239719357
27.191515766378
30.4199565895386
33.2473650570938
35.0880242003219
36.2767845911304
37.4428101629976
38.4303337373209
38.3234627443983
36.4244087654352
32.7065455465272
27.3694760755619
20.4760930485806
12.2326392127194
3.46632911706307
-4.40022995301655
-10.1525839703501
-13.683722646275
-15.7911292845062
-16.9851192949639
-16.9461286587186
-15.2131367573071
-11.7727653644976
-6.9117468413312
-1.31769727244802
3.44371810830232
5.43647321756424
3.9880352335793
0.507078902974331
-2.74624778988789
-4.5807442546299
-5.36645692073009
-5.87257331263302
-6.14635715358502
-5.79838952175255
-5.05523236419809
-4.87362793713876
-5.82544174479175
-7.3920402116428
-8.69889583140356
-9.51405532787557
-10.1890253454349
-11.0623441120621
-12.2741200434394
-13.7569187290516
-15.0555628570292
-15.4362083780779
-14.4336123359112
-12.1941956510869
-9.2752773624251
-6.15825890205233
-2.74197317530138
1.76030638644927
8.06739591462932
15.8216566373171
23.5699798868133
29.6772356066368
33.0104958632964
33.1743766774069
30.8067569280955
27.5030769602168
24.7607608524778
22.8068164369957
20.6361130995196
17.1800300711328
12.345539980282
6.84412361801756
0.891063398644694
-6.68794666642113
-17.3768257271554
-30.7369582155638
-43.8012983852703
-53.087183817095
-56.9051836503861
-55.6621225942549
-50.7227476105111
-43.4807486803232
-34.9649834828018
-25.714825811904
-16.0563377026345
-6.50571739475687
2.31322709082471
10.0159033416125
16.4552939610392
21.4975123085139
24.9573605591835
26.7342988026244
27.2089810877577
27.5830451754495
29.1637991846828
31.7539296477598
33.3002692627281
31.8055250757755
27.2057247671894
20.92805707102
14.2307149626345
7.62081822812612
1.41769346688645
-3.89259243254951
-7.8961186779851
-10.4982941825083
-11.8348741587114
-12.110040238883
-11.7782133021823
-11.8365076956677
-13.3398976079654
-16.1133034627429
-18.2253857300961
-17.3659497689382
-12.893428902052
-6.32815239641378
0.113316774975596
5.20959675594186
8.99387247315061
11.7333186514784
13.1866747678198
13.2161407794704
12.7885268728707
13.3968128625762
15.1185847744008
16.1277979346178
14.8110733987616
11.67948849893
8.51375138467477
6.3005422097742
4.73732209544669
3.14095529107365
0.978762384579076
-2.18715409392076
-6.475841961599
-11.2654047097185
-15.3296888548274
-17.6085415852462
-17.9003123449069
-16.8255231830081
-15.194042375671
-13.5688546281436
-12.3721351038063
-11.9394126441573
-12.1923616600762
-12.5646227532625
-12.5072283122201
-11.9072250124089
-10.9602301747773
-9.80393365413418
-8.24325679748783
-5.82584644983776
-2.49056160141735
0.906664810897175
3.34423798493357
5.01580438907698
7.15236972878027
10.1485792338645
12.7009464933334
13.324684441218
12.0471799490854
10.0993300677695
8.50678401323422
7.44128790525505
6.5598929657103
5.640418006862
4.996528700405
5.25777929559765
6.69660418956026
9.00391416947753
11.6802153458144
14.1983098561361
15.8560791128811
16.1181900768703
15.2164741917241
13.9282824221608
12.6880323938052
11.2376593561035
9.11447346872411
6.30385207699629
3.56740347894766
2.1367696837408
2.65133160410471
4.15852282639236
4.32929714344763
0.820014736512283
-7.2884015849476
-18.7961455329096
-30.8425332080326
-40.4166305355724
-45.8261018755022
-46.9865780238657
-44.8189770479392
-40.7022190474376
-36.0188834830177
-31.5090156212797
-26.972748927628
-21.7785616296018
-15.5237932414188
-8.22171684203301
-0.367302310823797
6.97875769454872
12.7230551594251
16.7657351347501
20.2530355260445
24.5355551918039
29.889431011993
35.2574654928072
39.181729654247
40.9225910717289
40.52844644672
37.9988339846282
33.1160150388693
26.4237948012727
19.5864552078098
14.011390765263
9.48270060663402
4.77915014221324
-0.603531965385338
-5.81914416789494
-9.56341609571426
-11.2601616128701
-11.4501232173478
-11.1656596017274
-10.9724615350401
-10.7205358703357
-10.0607655501082
-8.74035912563954
-6.45025566351358
-3.06927781290994
0.693282108768165
3.43449105738104
4.26003438862683
3.68424514967401
3.03259336128543
2.87291995141278
2.12226350176818
-1.08591946841162
-7.4141936237953
-15.2230262242582
-21.6624646620587
-24.8229102622211
-24.7693640389867
-23.007209915922
-21.4586564618581
-21.4337098986488
-22.71325966953
-23.6684199556548
-22.6894413218868
-19.2913653950163
-13.6810031052468
-5.94955974742923
3.61973233041414
13.6496606706467
21.7072460505975
25.7633394263096
25.958665788696
24.7809210641697
24.8841012797815
26.4931532933932
27.3151079293576
25.0713566166187
19.7353357835152
13.3799058389315
8.42052167972696
6.05755310908531
5.81921401884459
6.19633315346925
5.78906560341558
4.11458977151166
1.66189551471006
-0.58174715345989
-1.79483671611965
-1.8434153782285
-1.21572343499474
-0.402482670543416
0.458038510926076
1.20751785378189
1.31147566693054
0.216427466460064
-2.15722758565827
-5.50446543916168
-9.4083740810471
-13.2665676632908
-16.2293437662839
-17.5604154915704
-17.1620858884217
-15.8056817627413
-14.7409843456648
-14.7165080568851
-15.276326684976
-15.2923660914853
-14.183423226753
-12.2395607514192
-9.73564427741544
-6.23086986510951
-1.16817339302976
4.82649944750933
9.64074387748816
11.3057133802228
10.1445164486237
8.69756153352722
9.05895894125454
10.787531356993
11.8196244781011
10.737373499258
7.65578014241975
3.69911500190428
0.372797340192092
-1.06961323229826
-0.440503903409928
1.17462689488203
2.25261407383351
1.87807763118199
0.143174192499511
-2.10753987505439
-3.89614147759995
-4.7337976529087
-4.72200327861648
-4.13775291785399
-3.21553670965685
-2.29161083413239
-1.67097569954558
-1.25764159937315
-0.728825172015097
-0.104407181518489
0.226641177028851
0.0278815283139126
-0.522580106654791
-1.05346317738098
-1.32622120527032
-1.35311059773733
-1.16551352609295
-0.522639449731061
0.819469285171176
2.55790645969399
4.14460032811616
5.73119529405956
8.06187904653984
11.1925034620417
14.0875182283084
15.8058017508119
16.4259756333035
16.5295992586499
16.3327882216504
15.5823374991089
13.9843996476171
11.6362172861041
9.18305400912805
7.45351674542671
6.78440365002405
6.74187235596027
6.47950142926502
5.28446417562518
2.98433815124051
0.152844792758534
-2.12852864541032
-3.00568571062139
-2.45995995824304
-1.25043243392485
-0.466327561117923
-1.0863666691745
-3.51367359995145
-7.23215798555857
-10.9789052861707
-13.4012518506288
-13.9181472554753
-13.5162784255062
-14.6333528237507
-19.4063176639389
-27.605664939551
-36.6423801823676
-43.6561297651193
-47.2517437324694
-47.5777485454579
-45.6619597627034
-42.8047860198983
-39.8656956040968
-36.6610131796395
-32.1573053835574
-25.4473426158173
-16.7035019066481
-7.23530829375133
1.61657988801482
9.78779490878993
18.4833159005385
28.8203420757229
40.6981660757536
52.7360791127595
62.6927690536959
68.1369616658647
67.7268163476473
62.3689195788783
54.7794867129796
47.5465960901217
41.5877343434667
36.2827413673472
30.6350423395044
24.1509748973637
16.951998992167
9.5235209690064
2.62024877244828
-2.81655504505734
-6.33772896309346
-8.87586869291036
-12.3163887700843
-17.5896010978479
-23.5153118698347
-27.9179705295458
-29.5908665181379
-29.0890581867974
-28.1409746636925
-28.3471178179195
-29.8179773282979
-30.9547108470123
-30.0252040957829
-26.9067678681459
-22.9138033333955
-19.2403459325896
-16.111037572481
-13.1709940783492
-10.0919848024945
-6.77637278893348
-3.22603407641957
0.734616183818779
5.47261751803646
11.0026319084863
16.3778063790825
19.8360255195477
19.8678335067399
16.5127042257252
11.7406746341578
8.2310766211066
7.37983593883155
8.4033096943701
9.30896070922065
8.55953370594541
5.99198528754761
2.71150396536116
0.265865724740233
-0.537982512745061
-0.260272412344669
-0.0707741031055222
-0.43094016325529
-0.8690269926702
-0.855948268889699
-0.351821858335808
0.458578466058429
1.48941225337291
2.7363383229486
4.13609729094981
5.4483417750586
6.29139079720727
6.44572577196872
6.10442560369208
5.73847991881712
5.82364358208773
6.64940298569466
8.03829941619367
9.24628770775477
9.57823168902906
9.11667524501237
8.40479967152084
7.47607685363451
5.69790843295813
2.55519507998642
-1.80038128575483
-6.69123304304975
-11.2388972157839
-14.6138209642351
-16.331101536088
-16.50600400631
-15.8307677417111
-15.2075998540979
-15.1932973877356
-15.6314103898921
-15.8845419968963
-15.5434134681852
-14.8347894905168
-14.2471584483647
-13.8839699728967
-13.280185892593
-11.7627035532136
-9.03325498992631
-5.56871488329
-2.36241590358306
-0.110173470738817
1.2364387138742
2.12294052801602
2.96532705652543
4.1420030700742
6.00221578154745
8.65571338399101
11.7899130290179
14.5694536170996
15.7941827997741
14.7691371820787
12.2561957735101
9.93528384272915
8.63564461722427
7.77167630412039
6.79609575503992
6.35500150857427
7.39062619727334
9.60029211984553
11.4050018824598
11.4033035315289
9.61649857284907
7.28116068982354
5.536009686775
4.49230996711954
3.61607226523772
2.62762334791409
1.61347179562271
0.495521085602696
-0.980577251541256
-2.61981997242988
-3.59904596134074
-3.17622768715583
-1.47767917821096
0.429680827776925
1.16192080272744
-0.179167601986797
-3.6149369934509
-8.48172353604714
-13.7537310334884
-18.2177462397307
-20.828599980214
-21.2353566301265
-19.8507713224525
-17.3838975505691
-14.4235973406164
-11.2224352895535
-7.57723752451008
-3.19131655637449
1.53731782926068
5.4295244313824
7.60223878155546
8.42499190052999
9.13405674171492
10.5199800602381
11.9624139122433
11.8156542721325
9.17867073961895
5.37416279825679
3.02570217181364
3.36937749465132
5.04257910833964
5.77422495845329
4.70999281338585
2.86840677602619
1.89090643948221
2.67904682046978
4.89621158976978
7.41438125194337
9.1656942283638
9.56366074817102
8.31049978689377
5.33877818176104
1.1898493746144
-3.01199699530873
-6.38646423037624
-8.89243384834445
-10.8835948101378
-12.3411731464785
-12.7977062408296
-11.9193613103941
-9.98829895659788
-7.65261651441557
-5.13420015695696
-2.0268291246186
1.71332870208973
4.89969383541728
5.93210093780518
4.49324152711431
1.96178838461523
0.132271141811811
-0.200323374516327
0.460409440678981
1.08816729589481
1.16460551196168
0.96174042585222
0.858122895041268
0.731435391105945
0.245435268342313
-0.607479770346338
-1.48384006338304
-1.87555466456578
-1.17795562908961
0.98847306712792
4.19767868238859
7.07873232447685
7.98533931416756
6.11400657947197
2.33891435913182
-1.11078624816976
-2.32673243075599
-1.30995357183191
0.335757800893128
1.20105600166034
1.10212370897045
0.444662211622006
-0.725703965222935
-2.81418610521225
-6.14572855070829
-10.3612074167382
-14.2308820603789
-16.4373509412038
-16.809970055551
-16.4048062878393
-16.1487632689499
-15.8187382902582
-14.540771692547
-11.8992645690714
-8.3279287247497
-4.53573849584822
-0.591930587229937
4.28815748416542
10.6840147486134
17.75518899183
23.6339437756462
27.1302326156975
28.6246862772356
29.2780898462277
29.7697210578071
29.8024516494591
28.5474767621225
25.5574389585088
21.2788720156521
16.5695129658896
11.8588571063025
7.02634988946706
1.91055717390927
-3.38345636554394
-8.5448805888221
-13.1755242391613
-16.9859578239155
-20.0366125947958
-22.6493574162677
-25.0671554063701
-27.3783184254091
-29.5587596088084
-31.1884166665767
-31.3929739949923
-29.5942238046085
-26.0905406379373
-21.4868572665139
-15.9920431027387
-9.77618633066521
-3.53851629767463
1.85530235753312
6.03964806111134
9.22237176020561
12.0008687740813
15.1849862616891
19.1680917836322
23.1752733712721
25.5689255658001
25.2450362974775
22.6499377614481
19.3349467450189
16.5516281318898
14.3465748168061
12.0448441431845
9.33781492879595
6.48100907255425
3.60928610449046
0.507513392946115
-2.91071338201279
-6.43874221608244
-9.88316558171424
-13.0491549232362
-15.4705157068207
-16.6110174905265
-16.3584709783026
-15.087311389092
-13.3291256137387
-11.4689078622741
-9.45482326145533
-6.70057511562646
-2.70494278173811
2.08904886619559
6.49152049145921
9.69036909130892
11.7022460543946
12.7325475474383
12.7226826825215
11.7147737748335
10.2258614680336
8.9572935570281
8.13708586453614
7.2291110920101
5.49448617432574
2.9602531613616
0.560912878369129
-0.866572746562297
-1.37751422496076
-1.5147354022613
-1.57681867874453
-1.59162789607494
-1.6432058723368
-1.97945046608394
-3.00680709881273
-5.08631327671667
-7.93101277976869
-10.3187448971244
-10.9194091558795
-9.57473510673249
-7.61537855992619
-6.79090366096375
-7.68717004976709
-9.05532011829721
-8.94781061250076
-6.79801386038383
-4.17211536665416
-3.16191005449306
-4.22523316771128
-5.90305559424728
-6.41877130458166
-5.17370019377715
-2.84791262603101
-0.472497629155025
1.49661175796321
3.32755230802802
5.40103566557771
7.64291372848106
9.51260383644733
10.2091987864913
8.96662748702618
5.78856687364349
2.08793733249401
0.0287179005776644
0.851142778151457
3.96652818979175
7.64669456215126
10.3671235018822
11.6506358088194
11.9774422970693
11.9496730898578
11.5794970101984
10.5599883880528
9.04941021383865
7.73383160259611
7.08142564733461
6.77198236948713
5.79630363155939
3.11032261217801
-1.37583843393916
-6.27134517675355
-9.62235455209815
-10.7144175664906
-10.8014277640974
-11.8760408129722
-14.7637768881104
-18.3584254604277
-20.5629304480472
-20.0252536822213
-17.1314608693924
-13.4105999468699
-10.1193218728353
-7.50518148988959
-5.10658467920944
-2.26747066469957
1.53152636197543
6.29498871914054
11.2828990270288
15.3018111417413
17.269830494946
16.7133772486207
14.1431662244458
10.9122825106399
8.25705047788261
6.41929380628279
4.8813108436477
3.15873732286678
1.07045530038453
-1.3388846609269
-3.70533240110341
-5.46752552823631
-6.35769794685583
-6.502039064965
-6.00305152160022
-4.8593072039283
-3.30277024804004
-1.7338316817173
-0.256899580226756
1.37033598960498
3.24789011286112
4.95655242206349
5.75161814178295
5.21221842482161
3.7206471357499
2.1375714573152
0.98867690000565
0.213170504848307
-0.356180123097339
-0.73356710949141
-1.03599129247843
-1.44581016219552
-1.76293290091916
-1.46492531257889
-0.308168576604897
1.51385494390485
3.64793437330571
5.50314573780163
6.19241339215712
5.25446803503056
3.3308751862974
1.65176069264933
0.961102886185904
1.09959407988673
1.24784053532524
0.40206879152592
-1.95814585949089
-5.43798085991329
-9.1266816155691
-12.3637581880058
-14.965661219889
-17.0090838246783
-18.687638968074
-20.0945587787121
-20.8373516970412
-20.0623607893373
-17.1355822809594
-12.3530610633805
-6.97522445264747
-2.38824475806344
1.06455467717055
4.31453422952501
8.29273063212127
12.6240326726048
16.0560358055934
17.9547087046905
18.7662197732644
19.1015444867157
18.9909672311515
18.1384993171478
16.485891072178
14.3979001635705
12.4891756847385
11.2614801463617
10.7709211776979
10.638849024171
10.3316191387663
9.38331967700799
7.59513171845898
5.22219505506652
2.75925636645377
0.40801610306222
-2.04031597390928
-4.80565281433916
-7.83840143616842
-10.7804990060211
-12.9436380343117
-13.6222092166306
-12.7727479905659
-11.1518471076577
-9.62156725433045
-8.63222242759798
-8.33410219240807
-8.65186936520708
-9.28634570253443
-10.1533286963851
-11.6080280197405
-13.6541678716329
-15.2242383136397
-14.9286771547867
-12.455322760072
-8.86705954048414
-5.63471039169458
-3.48870269957505
-1.92003333984689
0.339054926697868
4.11379044347773
8.97086405213158
13.6860550411974
17.3316112206676
19.6212066001949
20.4205895247107
19.4595413226552
16.6819521910929
12.6960764341118
8.73278325292743
5.98561962665921
4.84275274025248
4.86652773265866
5.50603016362468
6.45063568015462
7.27790094111542
7.38735795085126
6.56269078947274
5.19349705751144
3.79590201583326
2.61641543438603
1.6227762017613
0.49488031702471
-1.26598741771676
-3.85948507257498
-6.90043618246731
-9.78640647835853
-12.1829555266621
-14.1204085502972
-15.9062828808565
-17.9485071930416
-20.3942777079905
-22.965460399789
-25.2475779570062
-26.9029329619591
-27.4848660618653
-26.3626563751148
-23.0613124953926
-17.634932794125
-10.7928628966598
-3.76835336630014
2.1975954024701
6.58713563113642
9.83201368568144
12.7650071946565
15.9566433135889
19.4168239149698
22.5017083600569
24.2079959897022
24.1275609536044
23.0779435082158
22.2397270482082
21.7417185164012
20.6136363629429
18.0509920743626
14.3292291824171
10.5725672713208
7.84305947815764
6.32903790275288
5.38734760282187
4.46496768659249
3.69477373002616
3.35919576191069
3.2392660100022
2.93629552878152
2.46160450165931
2.08681731477148
1.9009556928256
1.82229055069305
1.80851172855469
1.8308215087579
1.7201848908202
1.08618465632882
-0.514516361113673
-3.05618255541764
-5.71890789271206
-7.49892071658062
-8.30560564460369
-9.22889222579576
-11.5701817854163
-15.5836119136599
-20.1030381102601
-23.4766466008707
-25.0519918586707
-25.6394987615235
-26.3228751063092
-27.1645214726494
-27.5463538191939
-27.335068831887
-26.890828687647
-26.1482693445298
-24.4519446426077
-21.0980653972033
-15.4414166517699
-6.93791735592866
4.08849538241498
15.9587417560589
26.5193457826822
34.3026986957492
38.5611118485305
38.8240671834351
35.2025968722612
29.0073563168296
22.4418527120404
17.2878345727973
13.7917995497965
10.928862373413
7.84153341084247
4.82766229074742
2.75313405392536
1.84547605196636
1.46332690379875
0.845776182523065
-0.239361670754835
-1.4298995731218
-2.1361262191654
-2.08820391458687
-1.57605448033997
-1.05125153383252
-0.59331335807961
0.0752134663261542
1.18597548446339
2.69645420226281
4.28875532977518
5.44313433694504
5.73581963644734
5.24461113154858
4.45234769952862
3.62697518724316
2.52990899198597
0.808109792345315
-1.54083456696794
-4.08782978799121
-6.20607570175523
-7.51640847499521
-8.22582084575384
-8.87744868804277
-9.769861689254
-10.7969735054893
-11.6789054101483
-12.0848644402368
-11.7904188159519
-11.0004543021871
-10.2144484925201
-9.56386509862259
-8.6844229232078
-7.40595305376386
-6.09630348187834
-5.14583186481816
-4.46425471143818
-3.49686819025965
-1.46130795938266
2.16508893753812
6.89576339783201
11.0724258332888
12.8748089908333
11.6851203883822
8.58778339882667
5.65011880516932
4.47772165356373
5.06381971098014
5.97907451786943
5.81390687680098
4.3774547004626
2.50888462991459
1.12615357544097
0.720053061713146
1.38657519262401
2.85212000639805
4.47651977783651
5.48665032679398
5.38509080138736
4.30972540486882
2.99636365016211
2.12477273205999
1.68896238632169
1.28037716638942
0.807312563098294
0.481384973447507
0.352407602388532
0.450936693027154
1.11197011043344
2.44947220539692
3.69579410113433
3.78737175460753
2.6637963084745
1.55197235666303
1.80816372739852
3.47087306057798
4.89593581853011
4.01035827081631
0.194128407080977
-5.16115889408571
-10.0460171911851
-13.545462610905
-16.1382585013683
-18.728147272194
-21.6639362778845
-24.5324093634389
-26.6119096506965
-27.3725930967561
-26.576005650898
-24.1775342659362
-20.4215036307559
-15.8827773007999
-11.0064850564432
-5.61493055129725
0.767428347489453
8.12038501075271
15.7244450120828
22.4932491206197
27.1641790031402
28.6514579681636
26.885619866608
23.0974456906445
18.8431248880443
14.9785780247916
11.7469829979746
9.32751125975748
7.89742586328674
7.41915305522795
7.61572630075581
8.10374546299458
8.58595630474937
8.92652992756305
8.85172493715469
7.71272184480711
5.08824719879164
1.73081378100353
-0.610681673246888
-0.680231357610608
1.01953843754427
2.53339612309485
2.11647109259312
-0.273380653332347
-3.14260542197459
-5.02794808221786
-5.57194200151534
-5.14061531116145
-4.10925302199857
-2.84908420165745
-1.82206675742366
-1.20954879829089
-0.765411312271
-0.333839757317674
-0.192175039018773
-0.637560406491847
-1.51208996054413
-2.30748230231287
-2.57259848896812
-2.27035358888697
-1.91186711238833
-2.1654616571228
-3.25351009153923
-5.05066454311123
-7.62768026847689
-11.0013290531023
-14.4281450135164
-16.8073925358564
-17.8311887335327
-18.0009081105828
-17.6045473733066
-16.4595789767925
-14.5440329412994
-12.0755665211412
-8.98853779771895
-5.05513153696968
-0.679269301791732
2.92531656937434
4.70363076108616
4.86066688994152
4.72685799997669
5.34952980888492
6.4764116394439
7.26879153649246
7.68086996415799
8.48813008556091
10.0407070284063
11.6264934997116
12.2335862645854
11.5967995090282
10.3399117627157
9.24124558052058
8.48424719298317
7.68191262938942
6.60551017526555
5.59199251251274
4.97455123839853
4.44896443916866
3.49004513770886
2.13961092824349
0.882450348703825
0.0181054045728087
-0.390370745692663
-0.309015683767416
0.0731930806647578
0.303099859184194
0.211126500553037
0.236923097567159
0.984558990609785
2.62011004190129
4.67382800701269
6.2483900242644
6.6115563511744
5.80079739046298
4.47537797546233
3.14780465659068
1.82237168296455
0.237725654331697
-1.93327939527497
-4.92215706191099
-8.48577036813286
-11.8722528399298
-14.4136163500738
-15.8953128600584
-16.2761251380659
-15.4872200196423
-13.6563664248952
-11.2226175033416
-8.73530901929023
-6.60216381461338
-4.80399707581526
-2.7295074091724
0.330890811314261
4.29218763314941
8.19464236263227
11.1072837881357
12.6729698366692
12.7809779768386
11.3913404279558
8.84861191536779
5.82745518174964
2.85061297770539
0.203760573695207
-1.78496392310469
-2.76333745813818
-2.65573141875096
-1.89442163890076
-1.46157339290547
-2.44164242458094
-5.05507141107016
-8.1888912827813
-10.2080945145327
-10.190936174351
-8.37843773412986
-5.81055415124116
-3.56424700839741
-1.8854907895403
-0.0479276582975663
2.56203874459256
5.43925746603016
7.50725656626899
8.43001686804727
8.93928531371084
10.0141502559
11.9203142136776
13.825425750278
14.3268369166204
12.621958620597
9.11799629126642
4.777292006039
0.244363595005607
-4.09418558281263
-7.71240570084357
-10.2112539700584
-11.7553899573559
-12.795781034325
-13.4755134992201
-13.4616786830829
-12.087957354765
-8.64019013405874
-2.98279389546168
3.87457942445936
10.0601144627797
13.8682784300471
14.6531249715025
12.9617050602292
9.8832512455064
6.22616090465531
2.37133221069316
-1.29772568638594
-4.36874187188073
-6.81109394441859
-8.81880024999379
-10.2130126490675
-10.5895804361214
-9.98091912672787
-8.72363874102984
-6.8397446716103
-4.23470852136951
-1.29444520166363
1.35890962921827
3.49353414790015
5.18836295936856
6.40369323774554
6.95544856743472
6.70739527728673
5.75885841838169
4.70834542470077
4.48388446279609
5.36729667553319
6.33401580235006
5.94433125244961
3.86608214989135
1.0718698714832
-1.36508810891925
-3.19581746120513
-4.76728145999661
-6.2994548604314
-7.54537880587383
-8.10668617291475
-7.96047857239985
-7.39117579421375
-6.36734595350791
-4.46391331160529
-1.60270501570686
1.58827278958442
4.33822091012909
6.25764502442818
7.26368408812323
7.40996747466619
6.8097192402928
5.48447789630031
3.4615881535094
1.13126520259612
-0.901453562370045
-2.41303980657889
-3.53836235668996
-4.20152984467694
-4.16110320530846
-3.54675077367427
-2.78872077110681
-2.09674305240929
-1.37127063315322
-0.426082773078258
0.895172540042279
2.48805366945121
3.75545770892668
3.97890441833962
3.02710971422082
1.45920998567702
-0.0108032592115696
-0.929267194684851
-1.18950116562111
-1.02532800182923
-0.792622207425646
-0.56999652133331
-0.133565057886692
0.680475910989771
1.89913183731193
3.57628095695563
5.58092790187256
7.32034874422631
8.06634542757152
7.46147479085589
5.55383169494702
2.6479980784549
-0.733781893907167
-4.02754207916176
-6.80488124853399
-8.67585484226913
-9.38331142082123
-9.25790287033136
-9.11725879763047
-9.38907906701509
-9.72270922470556
-9.62956347207655
-9.11641150503404
-8.6540090353852
-8.73988013899119
-9.15488388837831
-8.48746680436566
-5.20858770776525
0.294802796571098
5.53892280921885
8.32581553236476
8.67448721375947
8.09040710613956
7.77011635481637
8.04711613419894
8.89691577639649
10.1751005439629
11.4135071827631
11.8389720666794
10.8852375012456
8.83757406597246
6.87955374340162
6.13731219572944
6.56425913940538
7.00525857960451
6.31209938620435
4.16587667297045
1.10841640274171
-1.77875026218294
-3.4370636788284
-3.48046611857965
-2.23778953094051
-0.178279837137539
2.34608587703259
4.8356868470319
6.6037009763668
7.12660720079785
6.30842565615573
4.55027699815
2.55933989100861
0.655868780148258
-1.77272121918903
-5.619073008471
-10.8393352867589
-16.3783496891411
-21.2327014004112
-25.1129440304406
-28.1565857828136
-30.3823877782157
-31.4034161010681
-30.5808803371787
-27.5667579231344
-22.5801642770571
-16.0035198013209
-8.09576657990833
0.51377153678343
8.50230754651413
14.712960466444
19.2074980150083
22.9114416933315
26.2731054111849
28.683659557102
29.10218132983
26.9139027683495
22.3708900616213
16.5868431642018
11.0940028683814
7.15018726344081
5.17217908754019
4.54148666901384
4.04994291527414
2.95149441239764
1.57621898463961
0.600900792513179
-0.031988589228289
-0.989329314146466
-2.60952293055528
-4.57232541416224
-6.2520195194575
-7.06688644010473
-6.8280590708581
-5.96914656887767
-5.04688387608221
-3.97905628647068
-2.28085884056219
-0.0349345706062352
1.89053708076362
2.62026955551065
2.01535899447472
0.771395454989282
-0.121636807757097
-0.255681586036499
-0.167886180963571
-0.62588253642897
-1.67913078845764
-2.63811494219625
-2.79256674597244
-1.97662967754981
-0.732066704517527
-0.0952573283528715
-0.864681335591787
-2.89119292401839
-5.36965458172543
-7.75316957107883
-9.90665365368857
-11.5402328625099
-12.1774660747527
-11.6823369982243
-10.3530050128168
-8.57628616523683
-6.63280305422427
-4.59759515886166
-2.31569361693135
0.246368234445035
2.75851904885644
5.03605671334222
7.46210127955348
10.2931198466446
12.7972809421233
13.6991684717094
12.423272386283
9.63020829333378
6.69109046654106
4.71866130203047
3.89998167103121
3.77061193044088
4.10255028128379
5.06860164354483
6.45953746617776
7.4249580564009
7.30050749817345
6.2184391062985
4.74417052768117
3.34665739226032
2.29106105524207
1.62940861218099
1.18728150987256
0.766456897445494
0.30311526252561
-0.299597520718592
-1.24461024602094
-2.55311013495816
-3.96910788802703
-5.3084176852232
-6.67444375115396
-8.31432989478527
-10.454353731712
-13.0759962038914
-15.6323910523297
-17.3212085534577
-17.8575199165821
-17.6082818411092
-16.8594957860707
-15.390889414315
-12.8391657438313
-9.12563492889142
-4.60448137410295
-0.0651335189331355
3.66503329593632
6.39271866393543
8.57671035981325
10.5943184477839
12.3548327816178
13.5812885564763
14.02755587283
13.5449540128008
12.3268707680757
10.8655503619449
9.42341837234714
7.93822598438673
6.59417280415923
5.91230142247109
6.01323855573279
6.22205951579354
5.63318179380741
3.86579842407005
1.2910542454186
-1.24018126800827
-2.98588027353799
-3.87767226413283
-4.40482320765021
-4.80629245609005
-4.60951008425175
-3.13144096387116
-0.291269828716161
3.03323156750584
5.320799770958
5.4307703254874
3.72601550853644
1.95594823475222
1.70421118999644
3.06355890982341
4.81197889261963
5.54594124412555
4.67684850716963
2.68271281983315
0.449746566672526
-1.60713515373906
-3.50323162141807
-4.97392548372976
-5.51610312114641
-5.1481879355446
-4.45940146331445
-3.95829290363699
-3.99975371961489
-5.10805055092645
-7.57032680206793
-10.7553594523917
-13.3868630929767
-14.5198802876335
-14.1316287460725
-12.9727428912709
-11.8684216036915
-10.9363162869022
-9.60313008278874
-7.58279236189953
-5.46401538858079
-3.91978876447992
-2.67603030043772
-0.776030174307625
2.28059136262674
5.92975693083073
8.83566709399151
9.76280661173083
8.70151286519928
7.24942481418385
7.32350670708571
9.33477236855359
11.9770384031551
13.7122596178072
14.0514091529411
13.4938465706558
12.6489876640011
11.5578337506555
9.81176332619459
7.20640934707971
4.01368743427519
0.604642244122527
-2.77860301473557
-5.8083026280356
-8.13600782404712
-9.75754953592639
-10.7957657240984
-10.907388211353
-9.46667753551839
-6.36789484989469
-2.23401929405986
2.07876418836951
5.89225716002683
8.85653515525805
10.9871718916419
12.4481555835692
13.2606718049798
13.3808808064407
12.9289908732242
12.060321381502
10.7024776228743
8.62427491153813
5.60339220469618
1.38743555787742
-4.17303338692391
-10.6794986183753
-17.1361105526307
-22.5466939340553
-26.3679803052231
-28.4135031354107
-28.6689343515828
-27.2361606360629
-24.3159528912683
-20.3548938536503
-16.0839690883893
-11.9362185533617
-7.52009846565573
-2.25619765657927
3.5862712373604
9.10475298618116
13.8141919194359
17.7878121147233
20.8744740386453
22.4544831973373
22.1008887405824
20.1782809606193
17.646355580342
15.2042137040197
12.6512093427647
9.37464391651307
5.44511671430207
1.6801304343263
-1.4248940337285
-4.12143201619782
-6.61431772457723
-8.51901047914678
-9.30707824207186
-8.79946934493141
-7.16476491043177
-4.89189493550337
-2.77261286992533
-1.444565448386
-0.797320032426006
-0.0086643567585315
1.78595168128756
4.79689479661846
8.29036304636876
10.9731686395038
11.9091685498416
11.0300095820286
8.71317759306789
5.33087483534056
1.46068447794279
-2.04372764264071
-4.62044508792118
-6.3147506222197
-7.42579528760937
-8.23413531501402
-8.99320807164876
-9.70626578415664
-10.0253875192865
-9.73440363759811
-9.06253513728768
-8.23220767113479
-7.10770225620846
-5.56698130285914
-3.81335275857931
-2.13021570653953
-0.65372210061981
0.592157014760883
1.67119247624604
2.59584716368971
3.11019452531592
2.96407125663928
2.45678859072493
2.2683423330854
2.7133964864985
3.50645698581399
4.12499941933604
4.0735814508165
3.11012007994346
1.66108400114092
0.713431407282823
0.872370603789455
1.81660315003547
2.96122881288073
4.19642243213472
5.652247129376
7.16890499713961
8.27143890797065
8.40216219131727
7.20189514914259
4.86256580055505
2.05170211539252
-0.755547224048042
-3.63033625445334
-6.7344265319933
-9.80737136831256
-12.1985293233564
-13.2344798578591
-12.6741976556572
-10.9332263100724
-8.6277590891052
-5.95112265248798
-2.95219611021647
-0.218506021368233
1.48747520515683
2.18185543002831
2.49559934920164
2.65018258298195
2.28270061183813
1.24607611421611
0.104169832557803
-0.168014563197592
1.11241057679544
3.67730306160296
6.29164769746101
7.67176216618027
7.52230963874436
6.64863391336692
6.21473358159207
6.87587600325923
8.21937501499316
8.90941632202594
7.81790282481658
5.20568302613924
2.42341767265203
0.437006228138079
-0.879361393543575
-2.11470283225988
-3.62048436833514
-5.38405915996877
-7.09899231025358
-8.41974607863117
-9.35663135163647
-10.1726377053704
-10.8767526066956
-11.23987491682
-11.2121878659906
-10.8301225999043
-9.90128940711303
-8.2664363005151
-6.1017052384717
-3.56582473087084
-0.539683657584737
2.93569049814214
6.37266013595032
9.25397513486945
11.4320003361689
13.0625328103853
14.3980756222894
15.5589766001866
16.3600059770442
16.5166332484835
15.9524923462471
14.6450393924058
12.4550312335525
9.52800455944773
6.49345871466469
3.74255596001225
0.884724290089199
-2.50334901355825
-5.92278307673682
-8.32574105550638
-9.22743923137115
-9.05819748935753
-8.66969601506771
-8.726112976279
-9.25370442454668
-9.62912004674387
-9.22001002403032
-7.95503622727273
-6.17289685684775
-4.37548190484834
-3.3167475368863
-3.64793667881352
-5.08481277189711
-6.50728131953159
-7.26877039210941
-7.95755565461012
-9.52374850321474
-11.9205756107284
-13.8816600533097
-14.0480468096011
-12.2583618280691
-9.6169603384796
-7.31631970004871
-5.71033674494779
-4.4731534530239
-2.91440913451891
0.0221325087466177
5.06185764277478
11.3385091907076
16.5415414250343
18.8271746687455
18.199521431725
15.9666810924727
13.4556447777835
11.3583352527634
9.75409262345187
8.47245361203548
7.49777066160513
6.91346385587633
6.47257941720237
5.69175680869025
4.53109510254727
3.50025705445228
2.97062303070777
2.88805359216035
3.14571959698881
3.60821507975317
3.77412779494076
3.03028238740993
1.33957784051607
-0.63087129586529
-2.06067020831711
-2.61165310677521
-2.68285689020662
-2.96373664883036
-3.57280106201562
-3.89532638795277
-3.44619059609415
-2.49288750679655
-1.65225381384099
-1.33789251469903
-1.70704968712598
-2.61435891776959
-3.53847318323125
-4.02177530390946
-4.16223214102366
-4.34005558029152
-4.66208154205779
-4.93347755435055
-4.88095943425207
-4.25065984692561
-3.01944162360239
-1.55544351754712
-0.262226828761057
0.854188661193556
1.99249363394252
3.15073599488932
4.19802716943747
5.03868239122773
5.38351130906413
4.72128679521486
2.90541796693
0.506195620637954
-1.67935079440091
-3.25682824479217
-4.35459607573175
-5.40609041727047
-6.72824316151535
-8.05899370848972
-8.67537006786073
-8.0968281924814
-6.42794006462133
-4.06914315117749
-1.45959298650382
1.05636418496042
3.46960596941297
5.90460954653064
7.89703842833917
8.44272091144728
7.15188267060084
4.80516265811998
2.49935454149697
0.806663877243243
-0.143360941555587
-0.418254399406717
-0.223558114731621
0.345035242381714
1.37591867648117
2.69526977851456
3.70861519587563
3.96447688501887
3.50450595327898
2.48526837858889
0.854554333820636
-1.43717046119925
-4.20920464416972
-7.1520978916458
-9.97563358293218
-12.390836887491
-13.9841649990149
-14.1566340081361
-12.4924339824768
-9.4848193888767
-6.50573421113882
-4.45733972172001
-2.69242852783346
0.200749861799864
4.77904581939639
10.187531173075
14.7558652411387
17.0041068275244
16.7406020724233
15.3609416082477
14.477382257314
14.2284619945775
13.4650344560526
11.3941015814909
8.40511621085783
5.43093345549884
3.02616368432535
1.03382709220503
-1.02337170429881
-3.116181941954
-4.45223953354552
-4.40566939935099
-3.43858321845002
-2.65858736280028
-2.71299162459231
-3.41864761088347
-4.15220285197836
-4.43146080013309
-4.45397343997486
-5.05376090860238
-6.75006375624782
-8.97485098751296
-10.6158897324683
-11.0826653063706
-10.4807881508147
-9.12622774520993
-7.37489673912388
-5.60452597156912
-3.89135255399266
-1.91848146958905
0.520758701047054
3.12894432957045
5.26720321326517
6.3408500047388
6.27557991296897
5.86580245986115
6.20491152495766
7.40157758790702
8.27006744277935
7.57010470749319
5.19169242133266
2.0546280193715
-0.704454761312387
-2.41443406751072
-3.14985242533707
-3.40624723653879
-3.44162590227195
-3.14839645055529
-2.49006441387183
-1.60571195969365
-0.55658584713546
0.538152440173035
1.23223222475591
1.057530552343
-0.0448667654331409
-1.81382334450155
-3.84566116056693
-5.51293270449101
-6.09466803541183
-5.17684901359245
-2.80062354656155
0.593454132996759
4.11025721299269
6.59677719423112
7.33287072712944
6.4625905198626
4.61890130617948
2.40319059385254
0.29806808873426
-1.39544653597365
-2.71344900966867
-3.73019755219121
-4.11147610118832
-3.43260172563606
-1.86763657508754
-0.112232724048648
1.30807111752597
2.40239811270344
3.56197391246205
5.12690847686032
6.89477740044223
8.19529148516439
8.70555057830061
8.83944018313625
9.00646549923879
8.98767743254652
8.45787449523656
7.61077027154098
6.81429887780297
5.9953708955454
4.65006659908851
2.27442037818254
-1.19232469478843
-5.17188856068508
-8.86084256074272
-11.9040378645727
-14.3806502349067
-16.2830958567042
-17.5257034708223
-18.2867756194155
-18.7407984562562
-18.6068841339203
-17.5124831295073
-15.6085289813914
-13.2960467460016
-10.5561672585939
-7.07322091874051
-2.88308433887569
1.46566932559117
5.24980124206352
7.94031005707361
9.52633225546965
10.5140376938205
11.3324277079435
11.8677904521986
11.8082128836174
11.1215736752551
9.9617355557012
8.48649073795604
6.95840929510548
5.71664394739785
4.99981051765371
4.94427454253735
5.48290518079101
6.07331373464646
5.98483025196786
5.06462484259031
3.77755960922293
2.47821261950069
1.21561692545167
0.150076553539997
-0.519215754797619
-0.952651079095038
-1.4265364979647
-1.84209245860559
-1.89703650935752
-1.54678277099579
-1.04537202414071
-0.741369962158171
-0.899641341784966
-1.48049967866616
-2.10452411304726
-2.40148544192606
-2.28357781103399
-1.8319747841256
-1.24645294442882
-0.981369152860801
-1.44643264161866
-2.40596379031178
-3.15803083283831
-3.4260615105915
-3.57654804271788
-3.93669472606998
-4.40537509040992
-4.68003337026249
-4.43594864696327
-3.4398674228697
-1.80216060151509
0.1255891651936
2.25167663961594
4.75814623089564
7.47205749397778
9.54323972170048
9.86966686599155
7.83802017032741
3.92631182579156
-0.343575026198328
-3.44425002173494
-4.96738332191412
-5.51995820832151
-5.77362417780762
-6.00137115664886
-6.15224153881088
-5.90350638482511
-4.99973018687695
-3.82186358131083
-3.11241641737091
-2.94884292450458
-2.58744616660946
-1.50973468844189
-0.0938074736125217
0.897306781226118
1.09104468348959
0.718939900694138
0.378577415256958
0.572888512266067
1.2544034499868
1.89720169304248
2.14389722355827
2.23081559879722
2.73954272331762
4.05905637649411
5.87658465348919
6.99292943704428
6.11530561721755
3.27309612209536
0.0725574082669448
-1.78801784028349
-1.93959281298502
-1.26830120955525
-0.972334354279261
-1.71614776171213
-3.18614212894995
-4.40776459485158
-4.71757176464321
-4.22739284286493
-3.28506250018451
-2.02981993317703
-0.645026893811039
0.538661939291877
1.39983792295532
2.07742747611797
2.65290463948301
3.09378715845956
3.36265595738724
3.38684555987076
3.21451309870532
3.29276539217124
4.18938460212512
5.95237857874022
8.03632081312557
9.76481161655371
10.5814120698911
10.1240573440461
8.51161176320928
6.41403275016508
4.50713408774816
3.0003524817631
1.80335438602617
0.759553813402816
-0.425317902532043
-2.04179667708816
-4.01473819406892
-5.96541488205961
-7.56315664063802
-8.60113688972787
-9.00350338907495
-8.98630339890623
-8.94232356714315
-9.12866065197836
-9.75537558575284
-11.0997860007951
-12.979215328333
-14.40468474418
-14.4092807633006
-13.0614821000428
-11.2271866344471
-9.55318400857232
-7.91256169084901
-5.53756560306417
-1.67608652172029
3.45387627077269
8.43767205019672
11.7921586254919
13.1650329442475
13.2163559847737
12.750934953765
12.2041248015028
11.4974536073601
10.1372961613152
7.7799496040936
4.79225057110799
1.99127576442361
-0.121990385188748
-1.63204306905328
-2.86542294844484
-4.0100943916822
-4.89054704066074
-4.97582080891525
-3.87272144160405
-1.86133095463529
0.384596919862564
2.54488382196747
4.74995302649761
7.07153454621279
9.23760530602655
10.6619000716892
10.6231352283557
8.79576847494637
5.72030175358273
2.41071951856271
-0.458737298482271
-2.70092608326745
-4.27436658331198
-5.2187434384726
-5.66922580206987
-5.66843470853461
-5.26419682581301
-4.82607318588916
-4.78562455356486
-5.06537101817243
-5.18955934978757
-4.80095684035869
-3.72955194141091
-1.96230853344883
0.0162231252553174
1.24766417043458
1.10356960431356
-0.0843997069183645
-1.29737645575201
-1.57540402429345
-0.640135638448889
0.922182056623199
2.18762928393554
2.78494843886986
3.08744676955868
3.45365854803176
3.68458579008432
3.42868914388044
2.70598575456278
1.79226930595321
0.902945496460386
0.11621740869375
-0.625521025002497
-1.40322468591293
-2.08035571272604
-2.40349545561748
-2.39342103099798
-2.26496036214219
-1.99412623163705
-1.43020425468738
-0.736308755334558
-0.229249723156558
0.0900803919066176
0.455257847366744
0.970911225150441
1.54565996272172
1.87647913059727
1.44204308096829
-0.0297950057025425
-2.0635516731427
-3.80769335745102
-4.78736381726765
-4.98115506982617
-4.48557889483597
-3.44637149815382
-2.01360832082361
-0.193545967936269
1.9232876576463
3.82208554437663
4.92836597610968
5.32961903071897
5.75494185451705
6.82786717363855
8.50861926603697
10.0496660391925
10.3076434387775
8.45978380993471
4.72795729152071
0.19130270185353
-4.17595360541634
-7.98669333335125
-11.127475024566
-13.4833406495677
-14.9247045197708
-15.2353937066094
-14.2239542301217
-12.0906037858254
-9.39918744088225
-6.6317215235571
-4.08210646035621
-2.01005838277457
-0.424976908532506
1.09794776750696
2.94360512149048
4.96530110277243
6.70558492340982
7.85357610929738
8.43047144188687
8.84616529811322
9.61565449371321
10.6112465685993
10.9231471612391
9.95461282418745
8.29325863722888
7.03106860614208
6.52989581029055
6.15728054291537
4.95657249436493
2.4561617836137
-0.890935835379336
-3.9999686425353
-6.02887858005068
-6.88136599134998
-6.84075301117641
-6.10203545665531
-4.85133596227675
-3.40620545803401
-2.03227425684263
-0.87775563741918
-0.0411631178051979
0.72680743520919
2.18060774656825
4.7589610835213
7.6592706082824
9.27021681513495
8.50305080789055
5.50930665404783
1.44202925841355
-2.25950492021062
-4.73192998102292
-6.11368981008883
-7.06056753313876
-7.99947992065875
-8.94766156555786
-9.62262219244731
-9.51481538217127
-8.33953288984697
-6.62458938527473
-5.40204098152414
-5.2092877069257
-5.72572680984431
-6.26391256635219
-6.29255961058916
-5.70817544342619
-4.82325951622513
-3.8522009663276
-2.47129069953161
-0.295546273381533
2.41349435005029
5.02898570424257
7.26550943604117
9.035001609572
9.9248948260408
9.51503168736553
8.08633764928691
6.49432777928105
5.42985757513859
5.06193314858726
5.10854263463346
5.00739961056224
4.31491380988913
3.09894015450321
1.77169269594225
0.681655892371989
0.0739932876896434
0.0924830538697435
0.507303659565431
0.770430571116016
0.610248058015912
0.384111741566371
0.788722745885181
2.28114640719124
4.49726625362949
6.14490223778599
6.00313480634686
4.2487081587696
2.27425403052446
1.06653127728229
0.336175375227346
-0.694542453299928
-2.24644279283553
-3.82338867768661
-4.72121043476029
-4.71551595208223
-4.37313891676787
-4.45337102985871
-4.98799091688949
-5.31826186124076
-5.03891306312551
-4.53918430711767
-4.58842399489386
-5.60466130214522
-7.25786291128114
-8.64535003125213
-8.99573727762058
-8.28093416775713
-6.94767645209588
-5.13564578742421
-2.62278588734007
0.444389883957113
3.2831020028102
5.03277548674979
5.27016736341433
4.10653315910698
2.11262231612028
0.0122956098338426
-1.6837593655912
-2.56370763812497
-2.12657158677986
-0.337900196707809
1.86524575759982
3.41251720112555
4.32696402608802
5.42468162056371
6.93149885591138
8.04693581940417
7.88047679283818
6.44644434681385
4.69623487993383
3.61315887809733
3.26840159936764
2.97738320313724
2.36289621739273
1.73729405120937
1.352661386075
0.931599659947065
0.151007146484276
-0.910278717231436
-1.88915978508908
-2.30941501717897
-1.75800755347705
-0.334193600158697
1.22728499870835
2.28511505548272
2.95166287643334
3.67050516816985
4.40275131246002
4.60632092196216
3.81155724732952
2.00036866614224
-0.348551249251161
-2.54837247060024
-4.2885487629276
-5.78058161128807
-7.10225915281537
-7.82373085855948
-7.63520901193296
-6.88520564774599
-6.12040630749055
-5.45493208111882
-4.65019505087256
-3.5374825728809
-2.21822842553202
-0.970969068626758
0.0572534599676096
1.01152575163238
1.95106751166519
2.48378552766431
2.19679113240101
1.25900233901992
0.14639549748384
-0.9887028971705
-2.27087033494026
-3.71406079980699
-5.17418200753364
-6.38476480059789
-6.92145909040544
-6.474727112712
-5.15622110816955
-3.21857165762995
-0.623520501408271
2.73679618876756
6.52458778468667
9.97932686963956
12.3530887754727
13.2116624113607
12.5980799680401
11.0056461323807
8.85822683423836
6.06753417296886
2.57436272842521
-0.859825778315193
-3.08219808922271
-3.70527304458869
-3.31240984066567
-2.64846680584536
-1.99607321946549
-1.17459538631369
0.0821032689088117
1.61920249982654
2.77974004721255
3.01565398908945
2.3673543090233
1.20671924647729
-0.0651639205046072
-0.961150750220916
-1.17853894557999
-1.1045494544662
-1.462207953281
-2.36345965728744
-3.25351880033213
-3.75034928931376
-4.02757496743162
-4.41970246688414
-4.94966706600144
-5.12845196293414
-4.2059369813599
-1.95831377308603
0.7858299871578
2.73704749025597
3.20380816181908
2.36232478953056
0.776187872250969
-0.979501878228188
-2.4580948916391
-3.5278346820524
-4.35008146696618
-4.96248718518935
-5.00969659915122
-4.01555739961405
-1.8821918668642
0.753771935387409
2.65412890408552
2.96599134303054
2.28912996233129
2.18718176135884
3.38127684584547
4.99153753346772
5.72190694587573
5.18881925493036
3.97032939572709
2.90703961691093
2.45102287437806
2.34373085644496
1.9654425599433
1.13794194225062
0.310143986786416
-0.12247541998588
-0.28648627450445
-0.555623888820737
-1.12922308223267
-1.83006672245503
-2.11310066123548
-1.5064465594529
-0.21986773345806
0.931688094686079
1.23541924144912
0.469866586243863
-1.2005603547403
-3.30623016523766
-5.19225094003666
-6.40384653523514
-6.86888629451871
-6.62124341572788
-5.69497100314675
-4.41082378668587
-3.2680011260916
-2.29601649753245
-0.935811150211256
1.2469357943136
4.10145081184481
7.15223100294435
9.88263577956467
11.7896492731254
12.5369470360878
12.0648357569285
10.4979349341096
8.16852810777481
5.64382226597914
3.33094567577884
1.14374715966808
-1.10608712696799
-3.23827766988001
-4.96568986186015
-6.29552326189331
-7.34999165800685
-8.09457952518287
-8.41259864704766
-8.16711151270278
-7.27738180073269
-6.07620847607684
-5.2755312055434
-5.12358369754638
-4.97681805102779
-4.1459850892728
-2.76414337805646
-1.46985500894257
-0.657997292817907
-0.341630068426954
-0.384780183589415
-0.609544380533537
-0.882051242431841
-1.18642443200394
-1.43409674210425
-1.23581312536777
-0.126982325284328
1.90528564470595
4.15170899450258
5.39599169083184
4.65844461895128
2.225027301138
-0.109759038928842
-0.355118290054714
1.9685619716681
5.52844604222978
8.34310407256629
9.1672537010431
8.21308068101961
6.80560456097337
6.12730225426588
6.26382120886704
6.5436624920635
6.41790937208794
5.73041350005652
4.59362312816509
3.36183541782729
2.38053306434215
1.60718942276861
0.828792639680647
0.156520834322386
-0.163600930280243
-0.259999070768708
-0.52280211237118
-1.19967900490629
-2.3676368996669
-3.96240025636252
-5.64414741748658
-6.9733654261997
-7.82908898309381
-8.44209765031854
-9.11262275465687
-10.0805438087501
-11.4171390564065
-12.8055872715425
-13.6965844647509
-13.849218460343
-13.3507374878592
-11.9883100522391
-9.17662784133571
-4.8456413917137
-0.0418027395007943
3.6188157820086
5.07862071068369
4.67837633600606
4.0466538361215
4.73971394545792
6.72793596479429
8.53347207869895
8.86578214416271
7.71003651055524
5.97390664852009
4.63288820218345
4.12441562998436
4.12846343573091
4.02060468156287
3.67663097989458
3.50032262976662
3.64188513083401
3.74132550304921
3.52075726162753
3.11920972479057
2.79475944734518
2.66412364075821
2.68543139604942
2.69418349092838
2.60093448579085
2.57195385973088
2.77165232889861
3.05039595105176
3.20468817899366
3.34991738534203
3.68983926102602
4.13091903748531
4.43009303916323
4.45592117624163
4.01628303881642
2.74265971527761
0.442885453021217
-2.6563232314421
-6.0905609680927
-9.27716734241388
-11.5772177050185
-12.7069313535137
-13.0082299496782
-12.9648112435801
-12.5950635126846
-11.5284202356767
-9.52958821198411
-6.97656123654026
-4.94040169505348
-4.34259972120892
-4.66989213598284
-4.12801038937058
-1.62386301726698
1.9264580529686
4.70315764419291
5.81564132176948
5.67682796512235
5.1624538485621
4.78533480808333
4.38459574089924
3.53819067935378
2.40389941998888
1.80752221042732
2.26344518848145
3.36608867594961
4.4088759676871
5.16636658748131
5.85959873167199
6.73028316047497
7.80761515222108
8.82512585556464
9.28235310635689
8.76325883489179
7.23992217915188
5.06988847225259
2.83382723864253
1.10155273772542
0.0473308131049831
-0.668981432947353
-1.39218435037447
-2.07168579654444
-2.63380771383097
-3.3102387971335
-4.23270095771383
-5.17636488351015
-5.99827618563269
-6.79524520461553
-7.42868075801194
-7.4908479609209
-6.93504302463973
-6.24932373351064
-5.90007697343225
-5.92518390965923
-5.99234715441279
-5.61249332681723
-4.49280768900651
-2.83977103294496
-1.09546189625244
0.590568952549953
2.33370433870128
4.13231413210261
5.82583013495255
7.18539444874038
7.81327780862652
7.28521215198576
5.58913350745053
3.18249359905693
0.626662057207904
-1.59866784238138
-3.11375385177039
-3.83052925687333
-4.02906898172664
-4.03822355201119
-3.99822340047486
-4.01077389781423
-4.16640835329205
-4.26410701735829
-3.86341417324277
-2.77681056893106
-1.23956330500549
0.406279735153505
1.91258170227742
3.10837561211468
3.91829448725547
4.27791461720074
4.04974229524881
3.3717780531808
2.96514539051357
3.52247916655611
4.75937536074028
5.48552808794996
4.63232429134842
2.10548289712565
-1.07737352700213
-3.39213238649387
-3.95064307236239
-3.12481951271027
-1.784931079883
-0.246727378140765
1.54658716100941
3.2764546865656
4.4009874316957
4.7967873473914
4.76484123155249
4.65382646736296
4.73187643737686
5.10192325394537
5.56355912926209
5.7817538656104
5.60642823859444
5.08068405868616
4.30581183879705
3.47698308448991
2.81630199553566
2.28207688048502
1.57119685818666
0.487741054197001
-0.982192293011359
-2.89916887746832
-5.24095355897348
-7.64132005219422
-9.69364333882584
-11.3551250302123
-12.7213556224935
-13.7143472402041
-14.2649121753832
-14.4333975321967
-14.2060152840711
-13.5509062125707
-12.6178928464965
-11.4448951081832
-9.65757405018183
-6.94503969440203
-3.6594790352319
-0.607813100879776
1.54332257142496
2.55957132419744
2.7362950446807
2.79938419092326
3.38967622087611
4.62287317167277
6.20789856269204
7.68245205167797
8.53536155951007
8.63329805326264
8.55257886196681
8.94745886047389
9.64043154568171
9.88027079563858
9.413310842039
8.78807330978874
8.65897518698068
9.15676611933717
9.81204540980409
9.81332426452229
8.55160838756036
6.16064140196106
3.36264246118147
0.808610983880128
-1.10708908120382
-2.01572773354741
-1.77414740472929
-0.810094022387779
0.223772165170547
1.05448936049185
1.78582938069921
2.52460319981246
3.19674666555918
3.5587626369382
3.42191405025973
3.00440429697363
2.7797117885405
2.80670443429738
2.63919888274915
2.05178949209713
1.33275714151923
0.736360752882232
0.148985205961352
-0.710030726524608
-2.22812134989886
-4.8699799854247
-8.72966811800084
-13.2783476916186
-17.8459036462893
-22.127843179518
-26.1124817097834
-29.7662084752946
-32.7517720584075
-34.27642566788
-33.5222452434944
-30.5241852012321
-26.2838999169459
-21.6820322523512
-16.5486235565069
-10.0131929156714
-1.46376419503309
8.8803420904496
19.8130044664416
29.3941578226384
35.8106244246447
38.2082132696201
36.7209626496331
32.1819671076269
26.0964110460519
20.2745766616887
15.9105748770476
13.1668732512342
11.6292424325444
10.7197864165052
9.81629070450152
8.58924852725866
7.22634524336285
6.0193552049367
4.96746947952981
3.98603705445423
3.0996051362581
2.26836044167293
1.41384929352231
0.606685365498661
-0.131254461317211
-0.980831517694764
-1.91292183581532
-2.49180159243773
-2.45998636971686
-2.16831764666233
-2.19128933930572
-2.83405041343378
-4.07161018637152
-5.63566665822628
-7.15823888238846
-8.45271885651991
-9.5539939306416
-10.3985744240256
-10.7915404357672
-10.8289710711987
-10.9328041850818
-11.2554778144082
-11.4298243039252
-11.0792538215892
-10.2663778570266
-9.37615575929962
-8.74946773087463
-8.32404729622537
-7.60415478629817
-6.34017487560305
-5.14923731294576
-4.81141614111452
-4.95667110493308
-4.17251599698116
-1.51948726946768
2.5815397483003
6.91715868516035
10.4456245752616
12.7628586104325
13.9973451584178
14.3177043526003
13.6114307014174
11.8147389238067
9.31079730652034
6.6740202777303
4.284567143904
2.42041215220885
1.28851840256526
0.731438165344519
0.345993630415752
0.0071433573838318
-0.165212563746914
-0.319884350802308
-0.838874377699857
-1.78060747568451
-2.73628646036777
-3.19862292486772
-2.84058995600127
-1.63176266738931
0.0526450627336824
1.62374781403241
2.73393098804527
3.31862395005822
3.25475967769594
2.46240487479643
1.33996861005293
0.601450844940312
0.622947106288045
1.19252656129618
1.76036558078092
1.80175112550374
1.20979841490315
0.390342634596531
-0.282960640220995
-0.95175647743813
-1.91538780025667
-3.09714608152289
-4.18750175008895
-4.95252394031983
-5.17902818724632
-4.80387634902558
-4.26922113208727
-4.19555021532728
-4.53622822675001
-4.51071595700019
-3.45647745380694
-1.47942098350763
0.624389590390928
1.93903205766141
2.17579606921752
1.94607825074516
2.08695698001102
2.84984757334699
3.99319369723752
5.30080318616762
6.52510820331646
7.0987994700196
6.47688093865137
4.75976746066978
2.69378432877728
1.09569752351246
0.326730801716879
0.127193936387275
-0.0036825841277395
-0.0705303759417441
0.471976501861102
1.71107024564348
2.73094802825935
2.60334695094244
1.4553505674832
0.0624428269310964
-1.19466455329179
-2.5879910761731
-4.57698664376724
-7.23884983348827
-9.9420433784689
-11.7262125737087
-12.2341334074742
-11.954341615084
-11.3604544738704
-10.2822763515095
-8.31915363388338
-5.41371994456468
-1.92591346044991
1.44087377843321
3.84618687701476
4.87617519607914
4.87845503338079
4.56325509587287
4.44406699884174
4.67953456212798
5.11746115134313
5.40767862617246
5.25511085025916
4.53620721886594
3.18923888179898
1.35726528203917
-0.288248153585838
-0.925122238270312
-0.563762313430254
-0.163956987184719
-0.487126091294989
-1.28276267783073
-1.78170299259542
-1.46492216251055
-0.201731300633663
1.84010224823093
4.21227382624558
6.35470311674707
7.79693959083157
8.27390044526037
7.97042407651916
7.56325436978991
7.56225543648126
7.69051240773468
7.29068164633254
6.10803780436801
4.33371036512656
2.25057679353902
0.193192204463737
-1.48681178216736
-2.65289782154586
-3.32044582084223
-3.41957368598167
-2.96923214554292
-2.29229180723813
-1.70670452817455
-1.25459131951981
-0.929031788331059
-0.754055363536023
-0.522010120431058
0.0221353941625135
0.590253139469677
0.409741149963163
-0.99715630051726
-3.41718387380384
-6.33274228768812
-9.37969394086064
-12.4066066628404
-15.3172882676433
-17.8742230414534
-19.6224919475864
-20.1474281463695
-19.3626224519174
-17.3715353142201
-14.2977877682511
-10.5037335530899
-6.51236858228051
-2.3395319720661
2.55637879555657
8.25292377204211
13.7873093812051
17.8972738227326
19.9416249976821
20.0692094064714
18.9633112948629
17.399461732984
15.7076013422891
13.7736471922227
11.6215575148748
9.55019633853934
7.65702261960548
5.78597443818449
3.95568775734458
2.3083631567612
0.732468748919056
-0.968657922951521
-2.66001644188887
-3.97043329650926
-4.66061800147983
-4.77103932681427
-4.59874883312118
-4.50593549381811
-4.56419988246394
-4.49809224300315
-4.06168286113209
-3.22459166330026
-2.00159125658728
-0.532341164966316
0.683931986181044
1.19270179155645
1.21321681056418
1.23968731151178
1.10863120861235
0.228532324459589
-1.33475948551687
-2.7675186996705
-3.45668834567434
-3.4625260751131
-3.21538321173323
-3.15049213039067
-3.40251752136905
-3.653318173232
-3.54503171839457
-3.16088639094207
-2.71460001000135
-2.03920497539774
-0.900761323610251
0.466918871340439
1.63584401151443
2.52303026869983
3.25496361618933
3.69666172508801
3.38573073328576
1.9326485879561
-0.427339332674025
-2.70548190371544
-3.93857895141553
-4.10939902407432
-3.87572666969075
-3.52336342098369
-2.77784231715392
-1.52142249577801
-0.0483999120312347
1.36422702718491
2.65259506931431
3.80024544449691
4.83875829097612
5.87304819891198
6.8102997010028
7.24303144563314
6.83176004015308
5.65558111052865
4.15263079406343
2.91378524974833
2.35961968347515
2.31061917710934
2.11710554962863
1.46053991686064
0.666326847836776
0.0789105982578144
-0.362318668719742
-0.788491691398025
-1.14699925068922
-1.38419770324092
-1.52791314005748
-1.64263439461643
-1.94909380880007
-2.79528608387922
-4.34552328069258
-6.50709881933532
-9.06688417743321
-11.5089101090529
-12.9260803571081
-12.6869394027122
-11.0687904518397
-8.82102852772911
-6.32307255729805
-3.51116241896774
-0.418434448685111
2.48868307814057
4.54687947538686
5.62683494117629
6.6416642894303
8.80119260806597
12.018682103196
14.5239034664806
14.5196504607417
11.9226640832588
8.15302872282213
4.6297001587788
1.86803846886352
-0.356469948826555
-2.4726852972696
-4.65929007476115
-6.72748749558864
-8.42911350338556
-9.67713724212196
-10.3572336514895
