5.69551275904497
4.96533608710773
3.528459737474
2.83782277315963
2.6855417587359
1.61003994108592
-0.138603676222017
-0.835292030500188
-0.0365011994602223
1.60426580941668
3.08988062753189
2.97938254499834
1.21966743360149
-0.133983916512593
-0.152894512539219
-0.250001369688744
-0.855054414075163
-0.592431369725304
0.592937412271179
1.03930284961299
0.234597595668476
-0.434403035545666
0.0808021241760562
0.929613688942006
1.5213998638363
3.0006914866325
4.62052877030344
4.04280135578866
2.78685388092052
3.23342101639225
3.07742583552951
0.538287514948216
-1.60648469252636
-1.39413838081636
-0.29877295319325
0.0304917178806016
-0.174937761231777
0.0550680395115579
0.466125812824527
0.467717123398294
0.456322411208357
0.206144336556912
-0.75198885108246
-1.34921644810233
-1.16762871249855
-1.90711929328052
-4.03085826800347
-5.59303078555879
-6.1884027001148
-6.8416441016902
-6.24210815256395
-3.94333972769571
-3.03471354532628
-4.83772315294901
-7.59719876577416
-9.84604876742963
-10.0757950759856
-7.1465919208416
-3.14303395746613
-1.57681564260244
-2.23686199803478
-1.61870886750196
1.3558881500149
3.84653490732881
4.15468035480625
4.17523454163319
4.97254248820086
4.9889945952802
4.2841933599678
4.14790249915017
3.15841340609071
0.107163036145765
-2.9428115982201
-4.54508038478582
-5.91293874106172
-7.83227678867217
-9.43535513311307
-10.3571160766629
-10.9111173758817
-10.221636410683
-7.20867871659419
-3.35689968843453
-1.38425866326469
-1.17576489439446
-0.829080765961562
-0.0411655640524589
0.841500258181553
1.53720810273159
1.47421813534918
1.4682236415105
2.40366371601016
3.14361241931741
3.26777606178225
3.93914637735195
5.32847196286651
7.10157079803306
9.66558641108597
12.6472349857173
14.6349361646681
15.2263476585549
14.9821227035912
14.1359612856307
12.6775632243693
10.0670754321329
6.60693761903104
5.21440670781612
6.64209061414634
6.49364387355208
2.68598239710967
-1.71555477406572
-5.16574787123865
-7.8278612173384
-8.6421403680802
-8.09253113362748
-7.22895828485894
-5.06211206782866
-1.78692098236228
0.650723891316899
1.5018479276814
1.15533518879048
0.181150660445649
-1.33431371970071
-3.19055225687772
-3.80643361893817
-2.86038403522943
-2.48142334255648
-3.29911938638878
-4.23268015322749
-5.49810116775367
-6.55391186566418
-5.30792217491556
-2.85584761583854
-2.18050046366502
-2.95181616625404
-3.22443999485074
-2.05434287635913
0.431793925371094
2.38424333257992
2.21875020778024
1.12156738323779
0.896126994922427
1.42476243654521
2.04121396961447
2.39540057441579
1.49804658791345
-1.04625183902616
-4.03411073627592
-5.73142450896878
-4.75073002249751
-2.03664069218769
-0.902231480454212
-2.27117833438953
-3.51324147488875
-2.79455080135045
-0.882860366754498
0.80717765363761
1.95568179322301
2.52772254647969
1.356100654071
-2.19532275433502
-6.01021446028021
-7.96919715845101
-9.02540160202774
-10.3499152951038
-11.9174050757171
-13.8447771775254
-14.3700732791963
-11.2009512753711
-6.76906974111856
-5.6008048500716
-7.70489498455921
-9.8144572546464
-9.56786848177818
-5.91249496777135
0.178598045175189
5.01994105838533
6.25838825855708
6.29220631471023
8.18925749171016
11.4789127045575
14.2080221394541
16.0881410924789
18.2565472395163
20.8664989347942
23.7383794492935
27.6405392277578
30.9512519922956
30.3262998134292
26.2626181975886
21.0696643706806
14.3077663858864
6.02536797182343
-0.971739699444243
-4.31501567233539
-3.74372202921527
-1.17309777067114
0.487195282544606
0.427053180078205
-0.414421968418222
-2.321253709914
-5.74876775524048
-9.62531849816427
-12.8811039621606
-15.2446199875999
-17.3276990949783
-20.0175974565876
-22.2962345428346
-22.1960537430106
-19.9159803449631
-17.2232010263718
-14.6583794470292
-11.2913572428796
-7.10969867470274
-3.58471100889124
-1.42432256953065
0.216163007798935
2.72683668705701
6.92544074364218
11.4678133086471
13.6968944478739
13.7382212343608
14.4408248819054
16.2798198418257
17.0713853601589
16.3284620213201
14.5919601745082
10.7512868005898
5.31867558518962
2.14584035681967
2.73314969294092
3.95629698215302
3.44135234585417
1.96626809796049
0.190391195366586
-2.28447525936205
-5.36197801173697
-9.19524070981978
-14.7677148311411
-21.4990305865823
-25.676551381268
-23.8650988254336
-17.8795108205114
-12.6641363695773
-9.72292047213793
-7.9567998364603
-7.86042962194849
-9.20565308282586
-9.41396470794097
-7.90222188133881
-6.70778872673553
-6.04084881829245
-4.46195287904821
-1.99841503848946
0.16786542724154
1.23136024003021
1.72975036421033
3.1419147266668
5.34916430150119
6.70087092749566
6.9836043152441
7.64458625954746
9.63187932497007
12.0033443924431
12.95101442728
12.534208650546
12.3896810716736
12.5512836932702
11.8977779068252
10.6467165226329
9.222052790997
7.48606319935192
5.84277192390269
4.20934702041949
2.12998512535098
0.790267642570044
1.63445096450745
3.51495508831424
3.4988775976814
0.569401338878724
-2.86746418439064
-4.63287239011921
-5.54110914000908
-6.64742121604597
-7.25882886639717
-6.4088886683557
-4.68892050582754
-4.18596013171452
-5.24648182300849
-5.88262930043695
-5.17653035828264
-4.14655899090975
-4.25631336230385
-4.83751016166403
-3.33786816404288
-0.0443833757010416
2.46046445981343
4.15510359487791
6.63972476953154
8.70351917232902
7.78697836735924
5.93899566942223
7.39253936565326
10.6661359716375
11.3867432442432
10.203426286775
10.4103918150619
11.246020464769
9.77429695328932
6.19693715386575
2.55950225080343
-0.133691618597268
-1.61227237922907
-2.35629415481321
-2.60017878756019
-1.40239080697598
0.838887878370283
1.48391499635647
-1.241336365471
-5.23212822343289
-6.29108607078255
-4.68656598005997
-5.56069813674102
-10.1009270348444
-13.5191554954627
-13.543460206684
-12.7389836966984
-12.3404311967844
-11.4932209913329
-10.7278295002676
-9.90530624843899
-7.7528566886637
-5.77276578433838
-5.52391156838806
-4.98403474878501
-2.64290244500495
-0.503109586746539
-0.782989902915249
-2.34838868047494
-2.59073911312195
-1.36002642686271
-0.131145682337106
1.07440502359301
3.06087049190445
5.28753241571866
7.10122758106708
8.94319836033267
10.2853934050512
9.95039004895453
8.71309490538871
7.87757448663633
7.37610293954807
8.00620555323348
10.7997988578635
13.3193925336993
12.6827887994123
10.2705948853884
8.2010937376045
5.78747819053858
2.77679921599102
0.220276805566055
-2.63965764494018
-7.54295910272218
-13.6665380059768
-17.7321147022135
-18.7173392536102
-19.1845521895356
-19.7286880635162
-18.1864562715839
-15.1767793258252
-12.9042512623143
-10.8187506522732
-7.81175404273623
-4.03995639959504
0.188336868847672
3.83554884579346
5.73340128374107
6.07114529844316
5.80123727015279
5.64579384247855
5.71760144221159
5.87979481503185
6.67711707091923
8.84113807053743
11.8481566196229
14.8559964237811
17.2321622081946
17.5644584274039
16.3916445691442
16.9119560971458
19.218450307018
20.553615965226
21.27381915631
22.2400587187202
20.719717997867
14.4621070458583
4.48361250158981
-6.56974118114863
-16.1850503971635
-23.513569026318
-28.60930065376
-31.0657817471862
-30.9232979371641
-28.1543041114238
-22.5463666737189
-16.8610781058076
-14.927979084549
-15.1187060115683
-12.7771783840913
-7.79517318135946
-2.90200380032506
0.942092359852613
3.3438746946303
4.43920269716514
5.66674336681801
7.29763417792376
8.7812364561155
11.2106550045624
14.8977887441612
16.8391117968054
15.332189453397
13.5193913148828
13.5877120872608
12.7653277011053
9.13575446724973
5.05162865011016
2.04232489471396
-1.03736388475758
-3.69273277337995
-4.41926446593
-4.86202481246542
-7.35913255278333
-10.1980977683599
-9.92157247251561
-6.95620806880434
-4.52751863104974
-2.76123969218652
0.161387476421758
2.32311913408247
0.90807638442634
-2.21124465632519
-4.20138594933448
-5.84750154253611
-7.9705254913434
-8.87200698428347
-8.56633109005179
-9.81908307603466
-12.5437979581701
-13.5619617708672
-12.5466250919747
-11.0712751171898
-8.17071631853105
-3.33236376737629
0.492838951329347
1.08602785036158
0.434916457925133
1.29258257001521
3.17860982795116
4.73318682014971
6.20639408377546
7.63372770667052
8.69242208994621
9.80184886252876
10.6867996117203
10.1998576324729
8.91875773692161
8.40071246917366
7.68659033040103
5.49792308575808
3.49320956090331
2.7854361469662
2.4402678819951
2.60018594872698
3.62367825458971
4.19668658279249
3.42511377167075
1.85299606017152
0.124494532522649
-1.21345041935744
-1.96831567917533
-2.62346423447929
-3.39047434295045
-3.77845068938226
-2.8820487005714
-0.765682282983412
0.51249617105918
-0.269612140468331
-1.53407040837489
-2.2560618321345
-3.64620542683951
-5.19541656303195
-4.30362434202258
-1.6888514551475
-0.765928718419264
-2.12810420372569
-3.64259700310878
-3.51824333183997
-1.10394376712067
3.33396191997398
7.98030542244349
10.1977911957462
10.071413278204
10.359142397623
12.5943169235515
16.1486543014044
18.8176789153971
17.7555664155291
12.6001916451099
6.76996111335372
3.61644788829528
2.1340618673375
-0.0516835325543188
-1.45121190635981
-0.182086301700639
2.20346658573992
4.50866390017276
6.87536609920464
7.39088063869719
3.79389530497199
-1.74110372982508
-4.70043897557948
-4.48248727553762
-3.93747805413258
-4.96183384078349
-7.38202350635984
-9.82777908798231
-10.7584813792963
-9.66171291291076
-8.09944206588699
-7.98599687922419
-8.27358800006433
-7.14540037508543
-5.68331174807856
-5.18508233364723
-5.16973007117738
-4.76205377776373
-2.23255111854324
3.2870875119126
8.83993885249252
10.3821129931407
7.58266796532823
4.35309920333872
5.11000966230314
10.5514783453211
17.4516194251165
22.977318523166
26.7351596602826
27.9535278918107
26.5061858363737
25.2079731304803
24.0791743506001
19.5319947406702
12.801856717716
8.27585470699624
5.66700025590526
2.12195771842877
-3.54738064823675
-12.0669615124554
-23.3955601433325
-35.0883626521366
-44.7785134521875
-51.9672067698486
-56.0572131400724
-56.5421963540655
-55.7339196704023
-57.4231966451379
-61.0434730293617
-61.9972012845714
-59.9275107974723
-58.9908233171195
-60.1632021394311
-62.3495073318247
-66.1028802569133
-69.1075844483541
-66.8599828342643
-60.2469314146597
-53.7902971422755
-48.8453156178771
-43.9390833737491
-38.6668747540972
-34.6150443879437
-32.3240760756609
-29.4527974482512
-24.3911144020119
-18.3554639759789
-10.8445239342939
1.63629328335383
19.1177767477218
37.7343334184225
56.4641218526026
75.8856051229545
93.4839446122448
106.975509606428
116.891423639149
123.390893786125
126.304892284166
127.896569783177
130.728214476025
134.137491527913
136.33875130082
137.071244092117
135.984575732367
133.217423965782
131.073479385686
130.334094251397
127.469685455
118.478122163379
103.828129300232
87.8382590331789
73.350753251638
59.7502548922766
44.8954966448211
26.3472083504913
5.25879870126632
-13.3249198075617
-27.7871703814942
-39.9023300155848
-49.6985684511223
-56.594456693289
-61.3949596135946
-65.6936762221453
-70.9716564800303
-78.2658185551467
-88.3430318326225
-100.838887578944
-112.185430142219
-117.980818360844
-119.000827373189
-118.269850782124
-114.564057105923
-106.33269713138
-94.7392471913064
-80.110922214047
-63.8678692834581
-50.0962258845201
-41.4549660625188
-39.2687054646433
-44.5062995420286
-54.4274278723006
-62.1168661262431
-61.3879703271839
-51.2927613810894
-34.6369405404382
-13.6910839402264
8.41919981169103
25.9107022534593
36.2750198786686
42.6410502342882
46.8110720805481
47.0254289612616
43.1315958874175
37.1536615950789
29.4919152387952
20.0017081326314
9.82775543617339
-1.29459270879732
-14.7360406834056
-30.0565911990484
-46.5436235704763
-65.229441398264
-86.3856020338818
-107.604903158947
-126.556850740252
-142.634660031406
-152.591118887632
-148.120079835845
-126.767966112481
-101.255022892145
-85.2791545081944
-77.7866652244114
-70.817079004664
-61.0512925021629
-48.7256943797322
-34.2111975153597
-16.4096551042628
7.27767782460983
36.3932984246261
65.9783681902039
91.5604218061195
110.243349543142
119.574883487115
120.345037499607
117.173569942337
115.237203433379
117.220095204754
121.389082583449
123.340678148543
120.763755854071
113.313952559879
99.6114068020415
80.734017260679
63.3514466215083
55.3052725426398
61.4752625819962
82.2323143179642
111.727684850396
139.664092098473
158.282849180156
166.131706920357
162.287666695089
141.492576571261
99.3628004527284
41.3297684871438
-15.4617655575271
-52.4987854637466
-61.7093597722734
-45.3170224589914
-12.0167538373264
22.0674711806166
38.9799310575749
32.2513530671935
9.76544990359137
-18.4539558286731
-50.4370765384959
-86.7287437482947
-117.994450929166
-128.062973133543
-112.124472853211
-81.0400456408119
-46.2021066429339
-13.2853380046203
10.9963368394689
21.0404351457515
19.9867320724226
15.4007444012817
10.3369321700071
3.89003336078355
-4.09827678679465
-12.9548604201632
-20.1556429233853
-18.0646954831535
-1.0070151082794
24.8210771743741
48.285091420889
64.4350487844496
72.5472664140266
71.8443494752661
62.6051068195803
46.2797948310532
24.2607799995795
-2.76520782292504
-35.4817547772183
-73.0019913509797
-109.917947770677
-140.450392086141
-162.723964646778
-178.166004278216
-191.397901387339
-208.639879463138
-231.975192330829
-256.371172664805
-272.848727927563
-276.514371396522
-274.068559068377
-275.656155996239
-276.003924083769
-258.152933240845
-217.744010236868
-169.085265208108
-129.130873480706
-103.220291226594
-81.7641973436581
-48.2303639316543
5.83935419497016
74.1431847338348
144.764980593556
211.232729079667
272.205780029927
324.016936070786
361.478910757337
388.703718707357
418.65849117509
457.636256525952
498.926566548558
531.731049004999
548.900410238866
548.551781292587
532.803506644205
503.954266801828
462.731708563875
412.607852101084
362.399570059541
317.431289126264
271.37962581498
215.379211337103
149.195213647141
75.5097847227303
-6.57757959604591
-93.7515853396248
-175.024323704869
-241.987766950007
-293.364809813296
-328.54357677348
-345.068950659787
-343.134428870505
-328.4722176301
-311.469106905516
-302.948521244836
-306.713794100126
-317.585963530125
-330.347140369161
-346.486182036776
-367.792039465755
-388.583452184528
-400.445937044517
-401.587626494377
-394.484371228524
-376.301018222158
-341.209583158549
-290.731832696053
-232.903026051285
-173.540561990911
-114.215142808279
-57.3127190069737
-9.67864698147218
21.1546820355685
35.5405333927183
43.5639900024513
54.7828111939609
69.4395592773016
82.5283997840856
91.1303372511995
95.5127394694146
97.9526742953517
102.422908354748
111.435203270946
121.506595651487
126.385355516536
125.100261566585
121.732671746375
119.386217179295
119.594674035273
123.220240280942
127.874466513119
130.722957668706
132.870376099191
134.979162898697
133.344608261155
124.609045485573
111.311973465246
98.8437289953047
89.661044873432
84.9341406615617
85.4940859244216
86.4692655097786
78.33116241446
57.7942932587043
32.7446888520356
13.0109606087651
0.10919852558738
-11.9007210751918
-28.9745177705696
-51.5367800876756
-72.753496921638
-82.2015229200315
-75.3753874176809
-58.1839997204754
-39.6281337417388
-24.7939739917171
-15.6016681462475
-11.8493939453279
-11.5289239355728
-13.1679979922861
-15.7340387478849
-17.0889991507614
-15.5614554684889
-11.925921367757
-8.86444720002152
-8.22959063219374
-9.55764564436802
-12.1361936495114
-15.1360203330621
-16.5050722755392
-15.5403058501663
-13.7100859094115
-12.0313708327955
-10.4122479155308
-9.64632866333238
-11.5605657976995
-16.156375770676
-21.0706962281754
-23.9909878761504
-24.1068170089924
-21.7235052812759
-17.9614235477154
-15.0206839114261
-14.3636168399004
-14.7793064726684
-14.1907149036953
-11.6963883450699
-7.33528096093332
-2.37709226284524
1.91124242416906
6.73956807823262
13.9626070213985
23.5993775486203
34.6700982751737
46.0752964141746
55.5956968953277
59.1511463177745
54.3855708343653
44.5323757174095
35.4868655643046
30.2187953660955
28.4890856374069
30.3809661917017
35.3147252530476
39.1550112043998
37.9505615050749
31.4340873778682
20.708696924343
8.54121846970949
0.584918383601335
0.255367174555211
4.93881629147761
9.89177507840314
12.5017280676422
11.7189716511052
7.03310210824798
-0.242373559586506
-7.20245847102187
-12.1408335138972
-15.4124114508408
-17.2757758164637
-17.419214283743
-16.7543167235367
-16.5422397904091
-16.8292785502743
-17.5337935559651
-17.5283125396648
-14.2776538750929
-8.41354539089286
-3.09444901098685
2.3410167775895
11.1473471615821
23.9671007453665
39.0047471834177
53.3480305245677
63.2887486138794
66.2437634941041
62.3636843702177
54.1753833162374
44.3482507351123
33.7005134523908
23.0432474138097
14.5570250801029
8.0963363171609
-0.229310004415338
-13.1639115394483
-30.245578072279
-50.3461331435543
-69.8803406589929
-82.293792110752
-85.0991778411811
-81.4904652457217
-74.6570114797871
-66.5029659039229
-59.7457948017071
-57.1221295531036
-58.6034832560936
-61.34988345017
-62.6112147034918
-61.3922272839221
-58.3049545321034
-54.6991784744269
-51.2044659385576
-47.192888402153
-42.3630913055734
-37.5573330753129
-31.9678920082393
-22.9787494531048
-11.502531449555
-0.94913050326519
9.17712946877032
20.5324474504108
31.6233300639643
41.0620286317465
48.0172345928987
50.0653716337748
45.3655122647393
35.5611196633105
25.785803893405
20.357040602516
18.4167853538202
17.9076034523367
20.7902196152648
27.6539280540749
32.5918956938699
30.6472688808888
23.8200474051032
15.7376038800038
9.16733841820015
6.78334721857115
7.11186666273752
7.54419036039476
10.7206875425341
19.069519566985
28.6357863669798
33.2458991677268
31.07031007435
25.6105182026186
21.3899436020983
20.4106395975969
22.5543928544284
26.1457830507665
28.7392921312247
30.5374263133539
35.4839070503195
46.5300407818837
61.7364667198552
77.7496160483577
92.9174009122953
104.521761458891
110.322894312124
112.59938375424
114.062743090263
113.212042714454
106.791391033474
92.6615274440943
68.9825465304796
35.0707801098378
-4.17203350157789
-40.1556402320314
-69.3210714220677
-93.3721574363731
-112.802651923731
-128.392255013791
-144.194152837795
-162.091924702643
-179.44350273616
-193.53999101517
-201.363857264796
-199.183833551341
-188.19446580128
-174.745905251124
-162.925455338298
-151.926037405759
-141.746036247468
-136.299052599921
-136.783197569124
-137.786597559287
-133.969944321731
-124.021052419447
-108.429224833413
-89.6119837479507
-71.5225001351591
-56.0204554961507
-42.6147757876303
-30.631367068274
-16.9835853250083
4.42264351894248
36.5435816959566
78.7798265201728
131.085359035921
188.399273623011
238.950926123222
274.789853238659
295.148865727503
302.107775804188
298.719201666649
287.153656041747
268.33680223744
244.214855254162
218.548000338425
196.084946078152
180.727961988642
171.271115016703
159.813525562697
139.824457827917
113.585300850883
87.4433114293307
65.0496098855551
47.3545096451271
34.3881508115771
25.7755873200339
19.8486368050757
12.7986063703397
1.0601824748795
-14.8841316049557
-30.8891346532661
-44.2213270178077
-56.716192071706
-71.2021641098327
-86.4076231968902
-100.220414147952
-117.42045565653
-147.507207171065
-194.645765476367
-251.72048150505
-301.40825067132
-325.386882932244
-316.574024753588
-280.818023603314
-228.230257931923
-167.664979654589
-108.388019694795
-59.5447297965287
-24.1177245773268
0.885980444522538
16.2830573389097
19.9185639232792
13.5565208232459
3.15740348559452
-6.03134940212586
-9.78598216452529
-4.62395836014106
7.52854892577179
18.2233576718195
21.038890561325
17.7378738350707
12.9382335598991
8.92062679146827
7.22606432343156
7.99380408524353
8.86381797037257
9.51242974217024
11.9381274513543
14.1580785931538
10.7522504269188
0.820877689098347
-10.3943281718975
-18.811192215644
-24.5025788028701
-27.2753258808221
-27.4092024985063
-29.6369026542879
-37.5286960131357
-46.6194048124043
-50.3189578757861
-46.959799930917
-34.9033384893351
-9.13433072424184
31.2209757090286
78.2920081090956
121.137657852959
152.915339555782
172.516069143207
180.529253554706
174.270051787409
149.312972392194
107.668348555742
60.4855514581153
18.8892057860366
-14.301982396712
-40.7743893431413
-59.8499650228037
-71.581238926925
-82.3854297869472
-98.5529732818351
-117.389964513334
-129.944846946028
-124.182825462875
-87.0408883069207
-18.4418903635212
61.2223161014284
126.931092471801
164.90104024761
174.814809577284
166.218354253237
150.16847700984
131.192680568748
109.086897000567
85.4607580798675
63.0732672831577
39.8814894291933
8.81352248671665
-34.6360087769884
-85.759402630089
-131.950588000258
-158.315133460315
-153.712328359953
-117.977189393897
-64.219528551637
-9.99158117573616
34.4218233002218
69.5969004402177
101.447312162704
130.642624622651
146.579365184049
134.741151756037
92.6260295334064
35.6904949059484
-16.893621467048
-55.6738604788551
-78.2691610392745
-86.1894296701744
-84.5500844531867
-74.5524786766757
-48.9319197289034
-1.67520447967122
63.6159647612753
138.278285987564
210.961859095362
266.813750026767
299.171485140877
319.003125993809
340.023318065945
360.517645591746
368.367961495095
355.13906198513
320.25820573569
270.111378613733
216.838558863087
171.476958212387
133.761244850144
93.1522592674049
43.3358959405654
-8.94117132613199
-52.368257794861
-82.4375599862933
-102.413328298418
-121.173569608336
-145.81324674895
-167.723143158348
-167.880895299897
-142.647692895921
-112.216151119151
-100.974852553919
-118.64743815375
-160.327396112794
-216.966989309884
-281.894907844499
-349.795548066768
-415.712840540064
-474.545305551881
-519.846240331737
-549.41642371298
-570.07267579115
-590.204212845292
-612.794684748123
-637.505981423588
-662.186601781634
-683.92195653765
-701.83052992102
-709.61000340865
-687.002939775487
-616.098075149898
-501.406771545669
-357.849081069001
-195.61292361468
-34.5423122129686
90.9042581818212
159.446524305512
177.580929687599
160.895488561955
117.860986123739
52.8602095353856
-28.8699384595183
-118.806656743543
-197.957823192354
-239.298590751165
-230.268311352268
-186.855761750869
-137.238677057691
-98.8424779884672
-72.3003171273947
-44.478839314583
5.69619729286525
91.7323659468272
203.418580558648
317.1897871238
424.579673873488
530.505867186305
628.564696379449
711.019572041259
795.71784913062
907.326564382923
1041.69620041016
1173.83991500794
1281.56996161617
1346.63183739184
1353.37028530757
1292.7809697562
1165.39752094794
992.994488552464
822.776427877257
700.627337627397
640.101631776506
624.468546635036
630.200909240117
637.605812914246
629.142761538789
591.023096546725
513.401742897468
389.030838381273
218.650948268126
19.0436947148202
-176.81108780425
-333.620814553917
-434.110548286724
-485.300724976658
-503.545526857885
-500.901637774817
-495.206833090106
-517.200272639597
-582.968143642762
-672.19950544736
-749.07581852379
-792.057628177745
-807.424505311636
-827.542341832494
-884.187635059117
-975.76265664916
-1068.79370887192
-1125.02681362213
-1119.68616676635
-1051.92289578128
-946.803321256947
-833.444029759165
-727.354189812803
-636.154101844898
-553.765096942759
-446.805549419963
-274.926632207838
-31.4244038562889
247.381694267528
508.107885655647
702.514258419791
800.198189796735
804.807704016615
753.55631530918
689.348285446331
632.799708831563
576.887943472481
499.917728982941
380.284462440297
207.249283317614
-4.41763996622234
-208.216395657074
-353.863983572559
-428.249229410611
-461.783650524931
-498.194692172408
-563.522281087079
-657.627233281431
-764.725609617406
-866.605879336896
-947.958871462265
-995.468379376678
-991.766199720929
-908.838688299592
-719.105374751815
-425.892771320016
-78.1148012513647
256.710667413606
536.914496079779
764.364052963297
958.525186025429
1115.6913417955
1203.31454223797
1198.69566013529
1122.41917131641
1025.88815434403
948.532800516637
889.151245202452
819.997289495044
724.930006340285
622.93434132487
558.914693066525
564.456726061363
627.419667861272
706.615531348753
762.382030425851
766.90650796088
707.682832318328
598.929495973515
478.895527504872
378.695304720603
297.469232460193
212.691162156166
106.606401783746
-21.5368261468622
-167.097494211744
-332.962278765695
-524.534620204999
-743.530184999084
-985.52181917261
-1229.61077122115
-1437.1358526672
-1572.27757891044
-1623.90156563841
-1609.84359916731
-1559.49637696914
-1489.42778181644
-1402.93788012455
-1303.87754187138
-1188.29666868205
-1034.49319938916
-831.925385833042
-614.856512192966
-441.88566741602
-346.378856161589
-315.61549316891
-301.417069970602
-250.139289709837
-144.101600693806
-19.6621266534276
61.9460835707725
68.2388184667978
35.4732410818038
53.1067479591145
183.040953853339
402.021913693678
640.142681981769
850.175160436362
1030.25518610118
1201.55865184755
1373.00155306959
1531.32421111622
1661.34216580265
1760.85282332534
1837.90780461078
1909.29427484909
1997.45665205553
2116.91459914072
2268.48875087022
2429.77057763206
2536.84460028875
2512.19942039644
2325.28313459634
2006.90288949192
1617.11233105175
1211.0749249355
817.585200102581
437.816693824378
62.155870218652
-318.083659286305
-709.863258955865
-1114.43841729668
-1517.14739641363
-1880.37316275108
-2158.94862073655
-2339.24324132037
-2454.22842281106
-2546.73462727463
-2632.6114710718
-2702.10161845351
-2727.70164118067
-2669.33385152651
-2508.46331077331
-2285.45598061342
-2075.60424535492
-1929.90350495641
-1859.48829794209
-1850.09705923052
-1861.45699927492
-1837.02932936401
-1738.85350222431
-1574.64105904755
-1392.14584701095
-1240.96490547167
-1130.95708385109
-1023.3353700843
-862.343262374925
-615.092636201083
-283.886744044337
104.627174615769
528.86116908931
1006.12199664754
1569.2722007585
2185.19709007753
2730.50355018156
3082.39258914251
3212.03118708319
3175.53364402304
3046.13535387214
2867.50842357068
2648.97053512353
2385.00439860884
2076.52144248784
1740.58151350929
1403.5430710631
1085.75259253944
796.680179352642
543.557445604585
335.110281608589
176.965637605428
72.6188406791773
26.9401158253194
42.1614279126606
107.781966062107
192.327276551289
257.06597168247
297.616898156274
360.740181808558
488.037362049525
643.005473621112
722.710551351114
648.788415893729
427.038330267297
121.790632092919
-197.04262185233
-482.178392606237
-718.289399387576
-918.453650919189
-1097.90876294016
-1240.71110108038
-1307.86992855611
-1287.89941414914
-1203.8944916246
-1056.8665302764
-818.43399045328
-501.344296443024
-186.062333866735
40.1278820118489
139.390470637529
120.892967056495
20.4410380908259
-110.707972404237
-230.158262573147
-329.834485001044
-426.110655960222
-532.72923165854
-649.692110451288
-766.50116255858
-870.946365679785
-950.539288592585
-985.70634419429
-966.522971767478
-920.651794106543
-889.828370800946
-875.235917073007
-835.691307083742
-737.765301944263
-585.892916722721
-402.4587325821
-199.658047288794
11.2086334252856
201.306298482143
342.449198784407
430.571100475019
478.186519621999
501.05850738718
513.336813892672
518.332446182462
505.503470716503
461.941319995781
379.590088160037
262.645615861964
141.005552837234
50.5688554529094
-7.74716502547071
-60.1950793625212
-119.92279580291
-179.018181595533
-220.449591166949
-218.056579369959
-145.525998521522
-6.44326851036827
151.572472031559
268.316130222418
324.578622482934
359.042496311175
419.637303291907
504.217373582926
562.84079486184
546.754623178358
442.007776542931
269.188682653989
67.807484278618
-119.763498418653
-262.325317769997
-346.180287627401
-367.90909204078
-331.111614308001
-257.608154619325
-182.39453890016
-119.830834372336
-45.28409449151
80.2624981366284
267.07241096579
471.152275757926
619.806348120575
677.494690656093
671.14205476081
646.180321278663
629.738294192701
628.784564147517
622.500402890014
563.777889536626
421.933640184393
232.610905300691
92.3492051086656
91.9640058792808
253.065082427902
517.599567736374
783.74871418112
962.268063034755
1024.02906105505
999.570571056098
932.580231537155
847.11487812471
746.453654854437
618.512013494081
449.921449006958
241.254742131857
5.37839391546041
-243.800223933402
-497.013275434116
-739.262539950586
-940.00409393032
-1071.71655231575
-1136.17180557489
-1158.36969566331
-1152.33034430454
-1104.8723435286
-1012.27039248743
-920.97114686498
-895.156656028738
-951.628191567955
-1056.47721750702
-1167.18305509469
-1253.34374956317
-1301.34393047314
-1324.3155894951
-1354.88370543238
-1412.57915857431
-1479.32723563529
-1514.10388529885
-1492.81162793159
-1422.51853678916
-1320.32270554082
-1203.41943119503
-1093.31131965535
-998.277388970144
-898.904883956857
-759.387107192784
-523.550697548844
-114.000171146713
498.236210735314
1222.78010396067
1908.07488485773
2461.62262069455
2872.36742964589
3151.99557675971
3304.84907254362
3344.33162411341
3304.99388127115
3223.50219821177
3108.4516110136
2932.21350731489
2661.41414085013
2296.45971751313
1873.54209450502
1437.39011549195
1019.51822998173
633.098599854427
282.600984677182
-29.0678121438606
-305.096532302897
-551.65449280893
-769.943843639398
-962.48665001366
-1148.7562524121
-1372.32311385362
-1673.03029637644
-2028.41626958729
-2337.90669854868
-2501.31547437738
-2502.55175308689
-2381.99258006236
-2166.50267952621
-1871.56618304618
-1523.07146662799
-1146.92541441004
-770.733713652204
-436.045686956407
-189.165639184207
-58.7609486587617
-39.6943884655689
-94.9097617929792
-174.463573581088
-241.435162703847
-286.699019277786
-313.80905321923
-318.519706771383
-299.262120231185
-271.253588727788
-251.101587422612
-239.191600263332
-227.824897495182
-216.176540447943
-205.536627415633
-182.257581466478
-113.449215814814
39.2495785306732
303.380005160311
669.073231119316
1050.28485686857
1311.78255645025
1377.57539532187
1280.20198407392
1098.19357317869
897.167487368242
729.253811625939
631.654714700581
607.612463702706
636.152450244065
696.433343166245
763.938321827079
816.804214543594
866.501384660705
942.495804126884
1049.92457954079
1178.92397037886
1325.62762400577
1475.45358365687
1591.61376071547
1632.25886823388
1571.61430711075
1410.94930542176
1176.91834504377
901.770263596152
606.260856383406
308.378438654939
22.7542763961705
-265.378757728713
-598.342036681426
-1005.37987373337
-1473.37217879395
-1946.29540011897
-2347.83266947833
-2626.13049369971
-2783.82699832775
-2857.2748228465
-2878.83152039147
-2871.38128049237
-2853.2031619133
-2818.97152505128
-2729.79476841488
-2535.4843494878
-2207.29074429952
-1767.19410692048
-1283.99614266898
-822.45595765476
-405.102187840624
-31.7271316793754
282.548461407166
517.948833259031
695.137646943522
859.90719553957
1018.2451100115
1139.06351660095
1216.69048925761
1282.89250622593
1359.49252888156
1425.78687922342
1436.60309945832
1376.63232997583
1295.41128669551
1266.28287795218
1317.04844494514
1420.91176032435
1524.74998917072
1571.34338833197
1535.49397514618
1445.33230896579
1346.44415975035
1256.99543476892
1167.67788291144
1066.24504190857
943.797366418435
781.529988827118
554.199543316879
263.899300881249
-45.1395124722443
-329.029058485383
-577.784253333659
-781.911512330294
-907.219505557904
-940.047129783592
-928.147071210338
-941.56957239079
-1001.88219161497
-1067.41516634676
-1081.57612159331
-1021.4090251419
-895.798069933741
-719.510728605118
-514.35866461528
-318.108037511482
-166.994472689195
-74.0340793492458
-32.0459345194774
-26.0992181031815
-33.0615759692258
-29.443703021967
-10.4592326101642
11.1574995976091
22.0344364021074
29.496148791977
63.8724489629452
128.280866824662
168.209760956428
133.422531038718
36.1364659586683
-75.977092602261
-165.398014233481
-220.498976371535
-258.487269477816
-311.536115021223
-392.337793425672
-468.823136480834
-479.431871016773
-384.481897205745
-197.5271980698
40.4699802919404
294.535024368533
539.818515238116
757.261777565607
925.923324485949
1028.42727035017
1070.01652436776
1064.2619436133
1009.84445380025
906.905242156996
770.75349038551
616.856034335133
452.113108118135
279.461363635379
102.900017874684
-68.1884659833802
-222.801249209548
-364.079888717828
-517.420990641588
-707.581765306893
-921.516266717916
-1109.37037459995
-1239.45417468236
-1341.36469727875
-1468.68249431647
-1626.88142895745
-1764.62946010857
-1828.72425733835
-1813.11997803716
-1754.91291997293
-1662.32255816747
-1438.65818439977
-934.195556659793
-124.528033054263
801.763179380188
1583.33196623186
2075.08612780924
2277.17934018528
2262.11528699248
2129.32125634634
1979.94287666586
1877.34800871544
1824.37728597172
1781.00092686832
1703.5089340118
1577.69587236809
1420.92306954037
1257.42856425927
1103.13963079857
965.70033531367
839.154654998273
705.898560301389
554.089427922439
379.33870112797
172.259688574689
-73.9364607603922
-349.802831374254
-640.121827259996
-942.929599318319
-1274.04975840558
-1644.47196989068
-2006.03273440938
-2231.97439596616
-2218.82700609619
-2006.71244073637
-1727.42796879447
-1473.69579430582
-1293.01416858772
-1223.43307737487
-1253.25840190138
-1307.32472425802
-1316.41903625006
-1268.04896432244
-1187.00604357028
-1094.9847582671
-986.473717742404
-829.445288233999
-601.473193099038
-330.364983595814
-67.4912609274985
182.783146890634
457.472017262221
756.842418336965
1025.91118998521
1212.79081888215
1305.45875846036
1318.68385331909
1267.34789110986
1149.44333389379
958.226820025905
721.080328740307
514.328261454019
416.888731886718
451.281988266857
577.51668575815
723.714953695923
814.532448101132
800.747246591195
685.741808180116
512.993578228042
319.377164854848
119.143756372643
-66.1409554590494
-189.545168387187
-209.553334476511
-143.951467752192
-64.7504301132029
-3.01602655954165
110.235504013307
360.077231318421
726.80982464014
1086.95163702137
1320.81063875428
1393.64353976396
1347.2290177768
1238.4055099487
1084.32715411461
865.130190138133
570.252199133532
217.231497412579
-167.347319750728
-558.285111981672
-923.551611122675
-1228.7320841195
-1464.83699593228
-1646.92940388642
-1754.02506174717
-1700.29986147363
-1416.49765815538
-948.426096224812
-437.006079353625
-15.2289561668694
254.146390474004
376.683410144441
397.146066884047
363.361958608557
311.501454946751
275.538066593877
278.663286685792
305.490267364697
308.481640438432
251.111859064274
126.914451963483
-54.7515489691208
-272.718814628269
-492.390510350469
-682.826275549627
-824.382120088369
-890.007005941492
-852.821284027471
-731.018250757832
-590.328445280215
-488.189615616697
-430.772053105029
-366.632475132312
-204.45074778569
140.523071454957
678.082177998175
1292.65048976057
1784.69530792092
2005.5404885436
1947.8741689559
1707.98603511225
1394.60601146525
1072.37500870166
759.359211767961
458.886343956379
181.27749328233
-70.7345405468895
-313.6473338423
-562.311076380396
-813.104467910082
-1053.64164221353
-1272.07954852314
-1457.02875151193
-1610.09329507016
-1748.87485874537
-1866.25829877473
-1910.97730948759
-1850.78882895514
-1728.13259384183
-1614.22508938296
-1518.58874768786
-1361.89243442149
-1056.75317956085
-622.175499915188
-179.793922848977
169.179707681183
411.926177221628
573.38072305156
665.23762311395
710.273553809271
760.825777118978
841.510253077781
911.847182584343
919.438614870863
849.41638192012
719.531028649253
567.504702274385
444.592666930525
409.021218263071
508.505611166898
742.458315939802
1047.61311483951
1347.13771694371
1599.99643917021
1781.7060693213
1853.74019830114
1787.09758255104
1597.87123652468
1334.45540405354
1032.12670216163
696.156336554468
324.485910741963
-74.5401624585709
-487.932770072724
-906.336477811847
-1320.2390245546
-1709.38924868227
-2035.49097949326
-2233.41877323721
-2211.16251920597
-1912.4781004576
-1401.52620023701
-826.022952592454
-290.496871389285
183.376449139504
591.043913445732
898.223232540543
1076.09329298758
1152.63636153066
1183.55626283131
1178.84721307726
1101.77422116048
934.772609596508
708.40925364365
467.773731681682
237.093736383404
17.2076078682382
-198.736803237614
-407.810852944295
-589.155877179919
-722.864222809777
-815.606841388062
-887.794712203705
-945.519274994724
-979.612413673265
-971.420023675927
-880.309284450536
-628.845353108629
-146.451447520166
517.59199715974
1169.79095211776
1614.44102282402
1771.70086811761
1661.35432865508
1355.03323740443
942.084810189033
487.185390695333
17.0147708041893
-446.712212050647
-862.24335746312
-1186.82921991498
-1407.98795630926
-1539.50287231036
-1596.38737172737
-1593.33069330515
-1549.01482260686
-1477.50582253844
-1387.95349704631
-1273.34232079278
-1096.59096159653
-836.949788175375
-548.973750002491
-321.369726055954
-181.254341146422
-83.417051762211
29.2511235071306
205.696179815266
483.120377891217
838.650373150629
1187.14994947131
1469.45618416875
1689.60294679277
1846.49801677464
1899.91380666864
1830.67292424618
1676.91300296837
1489.20462340883
1290.24746919592
1085.20964662462
885.63331576664
721.787795782449
627.756206883255
605.037456378517
615.191817300724
606.488008201015
535.756519265277
385.078464714656
165.726625156715
-103.167903694658
-407.653178739732
-729.633175314328
-1032.280475888
-1257.27099338257
-1361.06155098624
-1354.66453132094
-1265.54968791816
-1073.1019259761
-749.41761857615
-355.328096433489
-19.4293724191711
175.940616571157
232.415513148469
184.538574917802
64.0462494537172
-101.297508093787
-288.86552047099
-474.76915113185
-610.619316668117
-633.404375378694
-538.352737927142
-415.090482595538
-364.620232983573
-414.114894237873
-532.351805528804
-667.952340917726
-767.403939746842
-806.901147705481
-806.465715058683
-801.328438398461
-817.533114731805
-869.798081989129
-939.197578391239
-938.029469091173
-746.382150846146
-328.951412623752
202.817366323505
681.65655496706
1013.90827406518
1190.64944650453
1227.52569894966
1140.4364172351
960.977428830887
758.536928200773
614.688888336389
549.820409789415
512.29069485913
448.396020618733
343.710762136988
209.443187866146
61.249026308185
-91.0050674043142
-235.31840716595
-343.710265962568
-374.425691816425
-282.747161555071
-43.8728679862191
302.154471104992
643.411481603737
875.167248178228
974.169894618137
978.157536357347
926.155688348065
835.133602041869
709.299183518476
550.680183426339
361.101072150567
147.420612833884
-69.796890062464
-264.500286539441
-429.051572590075
-568.021359743203
-655.930152806872
-647.422422244128
-548.468605054434
-421.062537698789
-310.468347946909
-212.098792477138
-100.75344211644
34.3988944448837
176.585206251712
287.462541535734
329.35393613514
292.07738366944
194.539678720717
69.6097705038699
-30.6369002946091
-38.3561980992056
70.7917787251373
226.313753438021
317.643997987009
300.968037128004
220.378435803049
134.771407739781
53.5114221330168
-57.9773823760178
-228.612390837823
-448.683083064898
-682.937910387275
-905.769382560953
-1115.0245405378
-1311.59491597297
-1469.0118794445
-1532.10633298713
-1471.86719797806
-1334.52867926728
-1180.09920855377
-991.69847975151
-719.876177797051
-366.107685107466
44.9101575373769
500.24025609433
961.557523221587
1352.44407105001
1601.24928363277
1680.84728263676
1615.4621794708
1457.08975475748
1253.51206185607
1031.21746842027
800.541714972559
571.828231585397
360.365462945371
179.137914555094
32.5746690905195
-83.8092470352462
-172.01190364556
-223.057419787621
-232.595045000632
-214.595244895197
-192.773159716499
-192.312370088726
-235.787966693539
-333.538280515546
-474.85188799834
-625.872240265281
-739.571692986234
-769.035518682365
-666.328658836442
-394.985297748098
15.1427637611619
441.054056545834
737.928259522195
837.557412469099
775.424201930449
641.866677035011
507.162390041478
391.063992989919
292.825834328354
217.152704212043
172.827970892254
172.921485402161
230.785004013652
337.417031626671
447.213231624139
502.222761569554
477.975373273533
401.048771373812
315.140135543047
235.254833211816
146.095119482883
37.5611357443819
-83.2924514330133
-214.715805674139
-360.613959544816
-504.515917748264
-615.995426577112
-681.533651018397
-700.687720115692
-665.777932046494
-579.125570148647
-480.006086434642
-425.515205040182
-443.356843706459
-512.078401725597
-580.205089637765
-597.923315821502
-554.951685929938
-505.723560187712
-526.402994155155
-634.470530058986
-778.736329098892
-902.116324160941
-981.041640009362
-1009.16888046922
-984.834116105667
-925.812950232686
-855.058178989716
-764.102627643353
-634.535433962194
-488.545355728763
-367.65482897746
-271.241136864639
-156.968096367384
17.5997733763621
288.240513696289
689.80926142945
1215.54652222589
1772.18465972808
2230.33456928608
2527.35264962939
2673.4520558331
2682.40216605267
2554.57423844824
2300.16427961222
1944.27049773349
1522.54856472766
1071.68008792302
615.291082969464
171.500670619004
-222.293809452775
-519.367943646598
-706.911401556684
-806.908073251787
-834.68280146934
-793.717149845812
-695.339396351611
-549.324914204015
-358.717859372769
-147.000452524903
28.5086792869555
110.986615586469
89.7611018780262
-3.2503573695276
-133.527641185776
-276.999856831687
-408.771626015472
-512.843873275043
-602.600282890912
-709.542157685954
-844.404952884196
-974.245472155241
-1043.02560541866
-1017.93402853814
-909.108846875289
-746.926245713411
-563.166583548157
-394.973593767381
-280.997072371999
-241.046809061559
-257.786641498609
-282.809275121475
-272.289428614922
-212.946419202612
-118.413826922268
-24.7367738367442
21.9727505889937
-1.95534004774207
-87.9115680674559
-222.042594275299
-400.200249365218
-596.376257352425
-731.647559156226
-716.152254666921
-522.525088869217
-199.011317647106
166.438448101759
485.206910008786
703.482114000966
814.833292508596
842.442975968886
825.035206787277
806.252363482296
807.201997413265
816.486713524203
812.075582953441
773.30209870171
681.213863761831
528.127109639557
321.715937379656
80.7824618956628
-165.41006410771
-378.707662800794
-516.165688679716
-541.623543353198
-448.160627074363
-270.897203446975
-70.6398046003319
112.180448194525
296.348240227569
532.777519352109
825.436424489598
1100.28828423255
1273.70268270141
1324.92325593276
1274.47001346327
1129.1470056954
881.116572588216
544.890411231627
172.70814546001
-181.13514559999
-498.765379863723
-782.624606870442
-1022.91189527112
-1204.00388072481
-1328.02401127663
-1411.01963894623
-1462.6963215797
-1485.87601858613
-1480.71128561762
-1428.38083859028
-1283.93903959396
-1005.16542801294
-589.124811344941
-81.6339956397708
443.69920338818
918.953403831278
1296.6349018888
1547.7133309623
1674.48744204222
1716.13440502743
1712.35896106852
1660.79458417352
1519.54324781469
1244.10752147347
818.986701125419
276.95810596639
-299.555170142546
-800.472843243323
-1115.24164744341
-1186.31551034176
-1066.82341065958
-863.366829072415
-620.849709158878
-340.215082009747
-61.5407650907313
156.121314207807
293.464439923872
367.681754764122
401.055799885171
398.22220362811
341.030906816334
211.38509953023
15.0568060254913
-225.624850361833
-488.350794244031
-751.608944736341
-990.349393052184
-1172.86845217916
-1270.34901552469
-1273.06814110841
-1165.30806846475
-904.960463652012
-487.845086876098
1.23619693029489
442.750419598641
755.018705049978
912.096548758783
927.786556894963
837.080152384394
683.313065308869
504.792563053967
323.554419337994
141.562510032863
-50.7265482383808
-253.63066039848
-449.870660827638
-621.727817018891
-769.253882670748
-906.373937120226
-1039.09620230562
-1148.2564689432
-1189.25075806382
-1102.98241080828
-845.05742894247
-429.933744484388
61.7604531441057
528.544187276362
888.306683065556
1100.80779490582
1195.02119937317
1254.73299872704
1333.68453099673
1398.19432015959
1389.55102191319
1308.2740601338
1183.71992660793
1006.73747583108
749.10389221994
415.986878479923
47.204420768984
-314.354010715312
-645.286279920712
-945.45859400467
-1225.0887854613
-1484.54593952606
-1708.29622544805
-1875.99852654471
-1967.37685561213
-1962.57025529693
-1859.14498162174
-1680.39251062673
-1437.5881212236
-1090.21197629106
-578.59912182723
101.369738887444
864.909550836356
1561.31150841977
2046.11515421389
2264.83150730087
2260.51586730909
2112.9531762636
1897.65746014002
1678.22043442563
1493.55871830123
1340.73530928175
1185.06091129692
1000.27894662275
797.265830258983
609.752313786792
461.314157191443
355.42023464208
285.56630002887
239.489412792427
198.628915904325
144.085350979452
70.3904221436628
-6.41755616437246
-73.2228354259927
-150.648366105133
-270.534568661512
-431.423362087704
-606.721743433147
-775.877764001201
-906.105092961676
-936.259223989448
-839.122837126855
-672.337366896858
-526.040710114481
-451.864494128967
-458.437326119723
-540.519946990143
-691.794742650727
-896.89111090966
-1131.82046366945
-1373.87266465523
-1592.92587061838
-1739.56003170507
-1753.02693630976
-1584.5554713712
-1238.74862164037
-801.186538413152
-388.445911778761
-66.6600644430356
153.220897611155
283.376317315262
366.049790184648
457.280872084558
568.108306869651
671.079980378426
770.645249597746
902.014286883531
1058.12680005366
1174.67553473153
1196.41153983997
1129.03869843543
1012.52332913413
867.641649606712
698.387878814914
525.88296280515
386.465074526908
307.654489579031
300.671009956842
357.452690787939
444.321757439436
517.3268164006
554.806146049683
568.908810840918
578.779211746556
574.008722206057
520.739106198294
404.774343644865
241.515931311457
46.381153099089
-173.521889181654
-405.285017079382
-630.723851516246
-835.945862696578
-1012.6293657783
-1139.40265042782
-1156.53408152853
-1008.78682652114
-738.149655056249
-468.217959525516
-282.272223486794
-166.873375522066
-59.318965339253
83.3914305123212
248.412731632485
382.94314119522
441.351305623734
421.621896619152
367.387554879405
328.509242261894
312.108244168533
282.909053380199
213.115481219556
122.336619607203
65.678794179073
79.2456724628784
146.002782753776
226.892128549286
298.464859216041
343.427469630476
343.663170947006
300.38203884366
232.895575061728
151.500052489663
52.9933058720269
-56.1039822444145
-157.359395896333
-249.442315864959
-357.865235463907
-508.025169713767
-696.60099888577
-876.449005743762
-956.877060959893
-853.005313080409
-575.577676246492
-252.377469369354
-29.5339002583603
33.0701380097414
-36.4382781573026
-185.483482392491
-377.427554028791
-582.222364895392
-758.501852198085
-869.824432372122
-904.709424542552
-854.953858243372
-697.089856168473
-433.039911795038
-125.684057935993
145.699869150092
347.834805562612
492.989609047647
599.037044739389
668.793294799463
701.554951950782
705.542215501953
695.510572474227
693.939418047336
727.525692799548
793.693685288247
844.375791078409
836.201419959127
774.900608840233
685.517965915933
570.95109395741
425.436810155154
264.195760413996
113.238207209552
-18.1642074121867
-130.141818128182
-203.515084811443
-204.319973024243
-119.115768709885
28.439559540766
186.963507097085
289.328566935383
276.54373539501
133.18946920732
-102.858787454609
-366.867054725561
-606.185895831479
-803.89927835892
-968.004584149936
-1104.66610368254
-1210.36078401563
-1282.56725244213
-1324.28666797372
-1333.16261810328
-1290.11815801924
-1155.82301864977
-888.515638923865
-496.025242477647
-49.2982484539402
385.707827915165
781.139829828631
1103.18812959052
1304.9454651478
1373.95243965736
1348.42185883312
1279.60888362281
1184.60100176521
1039.89911322412
823.159709179028
548.280354910435
251.888279228592
-37.9143210357935
-311.442407505031
-573.288823786746
-831.153347967277
-1071.255455076
-1255.88248380331
-1368.68958276507
-1434.66706990728
-1456.57823886307
-1347.13192826882
-969.654644651308
-282.564146405238
560.87455244522
1300.09745806747
1765.89386392682
1961.89743119329
1973.07993001611
1870.50433880952
1701.81137410848
1496.52635017073
1264.58959110847
1017.48945543234
776.572078118921
547.598054166661
319.136785139256
113.274758181862
0.201697490916032
11.1041608689068
75.5864082308174
94.4304067804308
34.5385123493802
-70.8813540543014
-174.837048623122
-248.898352168128
-283.038178788918
-274.473540797375
-221.793160325566
-130.293683684669
-20.4783890047424
88.3208873345739
207.172987775737
352.750568476194
482.638475006965
503.657455837655
367.322612563697
123.162090424432
-130.913323121295
-321.961025825324
-438.07132067423
-519.590248736793
-614.141397807267
-745.239728581345
-916.569383300596
-1115.04460703181
-1309.33223341173
-1469.10531819366
-1583.72250896158
-1656.88091662183
-1697.88872030492
-1714.0832201185
-1700.5305338271
-1651.73965245327
-1567.33906370141
-1404.90928791255
-1082.80454864813
-602.138057777917
-91.8313850248539
320.503583181904
606.306857326354
800.99326689409
940.211154097685
1029.11451096466
1048.50077354487
989.803212478384
876.027228402247
744.036016789164
620.519724935085
519.500504719965
445.403749801702
389.928352563046
338.216612754733
280.327366052272
213.851562926403
146.37010486783
95.7496948897439
82.7162886290235
130.098134727868
265.121889435313
495.058876878071
772.538038445136
1024.25890242281
1225.56929818713
1401.0538570908
1554.37461512602
1652.60177249954
1671.36686938236
1607.67962826976
1457.51071350243
1210.89722832409
865.962225264567
438.742044950118
-33.452945399336
-494.859221953197
-896.439851687792
-1225.3361650931
-1489.57807649613
-1685.15763781051
-1808.46084992626
-1879.54088892349
-1924.10763583908
-1952.31477951385
-1972.45606449378
-2007.77765203801
-2078.30408820522
-2158.7971840727
-2146.99623758321
-1899.38085638087
-1370.31906526435
-704.279675441617
-114.276337760286
298.964631971489
558.157398648811
708.667908544225
773.776245593321
784.611711217381
786.568157232933
792.339510202213
772.733048780878
709.444741448092
615.267562104642
502.926800506442
373.724969118834
238.550014088327
133.709847906408
106.936140818764
171.717056575466
285.484485839474
401.565583634296
516.778593900497
634.129385448921
723.839874521216
754.048320072118
728.976171199095
703.982288393164
770.155521297098
968.120225909276
1216.22398552976
1388.91634321522
1461.25852857395
1516.72853087319
1617.21600732464
1720.47052183145
1728.28682865382
1583.40132326785
1315.15793243586
994.78263630005
667.809273575603
351.42832234594
64.7702847629511
-173.526015402813
-368.075581012544
-540.546774978036
-693.853975790316
-804.79827402316
-860.870654152768
-879.330045705106
-876.537712664821
-840.540218800155
-754.205253294458
-632.29502261905
-518.805561019397
-458.405630798957
-476.871817209863
-568.6392759976
-695.80490293751
-819.326418512258
-927.889106465044
-1003.82114130281
-969.556538854342
-728.984140564471
-292.179263813537
184.204092040508
518.831528577493
637.546716996971
575.155332595491
402.894525042212
177.147580466318
-68.1916122292539
-302.208351725409
-487.146136704243
-599.221073247996
-650.946548292264
-678.588376980901
-704.950074299648
-718.67700402033
-693.921171870381
-628.253427110219
-547.85956399213
-474.291573440218
-405.739990740447
-328.002253481984
-225.951891149357
-94.2552467682883
51.7995698000463
182.394125602901
266.239392886824
278.535406398702
217.28034435837
108.435642550513
-23.0394736713547
-174.791417789799
-356.232502179429
-573.22963785426
-817.472841292643
-1062.27559433029
-1278.30391639757
-1449.16097925059
-1560.42291869707
-1587.63661849729
-1508.99859805063
-1314.3669957965
-992.851830043048
-539.600213592923
9.20098841130419
573.547999422258
1069.58940430695
1446.20940767651
1700.34438546782
1864.8812174806
1980.94312592125
2083.5219140583
2192.53642673969
2293.26145123107
2332.78237867681
2259.35496360469
2066.22988277236
1789.50140245652
1480.84449420489
1185.76571871501
924.626371322831
691.795267871574
478.119278667986
284.933384124276
118.215262773797
-17.3280363739414
-114.857320393879
-167.657043896419
-185.623702507541
-200.288233573916
-243.684228025153
-323.373715471601
-404.477763547401
-423.274380649376
-359.407981576915
-278.365653365261
-259.916511422889
-320.006739118451
-438.085057006336
-615.133992315412
-864.010168278608
-1166.96188797443
-1475.19904303283
-1741.54171664494
-1939.83269494921
-2076.57422199451
-2194.92076831008
-2335.99392841079
-2488.93216136222
-2596.88243539758
-2609.78434178481
-2513.54392437038
-2291.40412350415
-1893.81138740421
-1308.98195471499
-621.555648087003
60.33355111803
673.759771414276
1175.66232357001
1543.78841431065
1808.43592082582
2010.3913691004
2142.30466836091
2174.3288992948
2109.11099558243
1982.88477361591
1834.28740263163
1682.36665415255
1519.27895438712
1326.48704539415
1104.41025218184
878.659975320957
676.505205893905
506.383812880274
373.442329223401
309.142111013802
350.703867699945
493.271792733655
693.343448667441
894.766044411532
1041.45458907323
1115.76841903162
1152.35433229418
1171.35397474028
1138.21869436184
1013.47072807301
793.062212473045
489.083095807321
110.108535141775
-326.792457609469
-781.627109904647
-1199.0119360365
-1530.95960754536
-1754.59198790971
-1862.96019843709
-1842.57745969902
-1685.25347157345
-1427.67912146656
-1149.65453673639
-917.61001486453
-752.665927349451
-655.857898738631
-620.961647836611
-616.965635840428
-591.277006230062
-488.261471153202
-279.372643484792
-5.94238220042919
248.383364235379
443.137649132472
584.961332337903
669.876057347187
685.288695596849
647.425664198654
601.878091470128
593.501645306676
637.412001810287
720.833454931256
823.272488398822
916.800637648573
964.233516865093
933.488703143473
814.64584539897
631.795589412542
429.07633825708
236.58186844081
60.1190700623211
-103.936481621307
-260.725308732791
-416.808645974418
-572.979855606104
-716.625330124947
-823.587615758471
-861.249400181519
-803.962182320785
-670.886201951129
-526.006517359339
-422.089274170392
-378.910811235871
-404.558347100956
-492.310961620284
-616.979125046093
-747.216406584232
-838.266539213343
-848.315579881296
-795.466612996181
-751.829388273606
-760.418462381758
-801.55967890569
-838.401803450089
-847.39692833033
-810.343501914078
-711.497446865481
-545.737489739269
-331.936424679172
-115.257542957964
76.7355219108034
277.528634578456
533.589570824106
822.414161145782
1063.18272395742
1193.55886305666
1208.70252166282
1144.51043672687
1054.21625456711
994.955386755773
994.337655964005
1018.01623788616
1000.02990624085
905.686366633155
744.818206083522
546.050185760727
340.785186681085
152.792061032692
-8.12185455625892
-144.098888957876
-276.176909484696
-442.259021750695
-648.724831020903
-822.167617850664
-855.644325699853
-720.583992249342
-494.709366517988
-268.14137004006
-68.8544383431192
110.018167429495
263.304307316923
378.821336153687
459.419365713491
517.51473515664
561.150068066336
593.279525955211
606.370069595464
579.984054385558
503.159811812344
389.030336820629
259.73474342335
133.188509374036
13.5480169284479
-119.059386791422
-283.783972365403
-459.324323057927
-595.914930765908
-670.301307120776
-710.739968083616
-758.356725221218
-799.397682266496
-740.066533044713
-490.636532674688
-86.4092816505798
333.674140368923
653.949953180646
822.40273293281
823.417686531515
685.73535603954
480.567849172792
271.968614070564
80.7665839264725
-95.0459834449915
-244.571599062474
-347.509117860914
-397.823025661939
-404.114522400934
-380.288290915573
-348.440155257654
-331.042560346063
-329.209091657656
-325.758095815117
-312.69355345055
-299.465886125834
-295.425334294494
-297.949863664241
-293.346542400112
-267.843154095513
-228.186731758629
-189.493991949178
-135.326933735654
-44.4797325826163
47.5872598401035
90.3015582479799
100.871740703647
136.612633008086
213.719569540535
298.00735920095
350.893793223186
360.505203920058
338.400653847806
299.373197456771
249.33556993808
185.328692976824
94.7177677219408
-38.2442331538241
-205.751398192445
-360.79930482514
-450.171273439136
-463.321677838696
-435.222755653839
-410.287918726282
-410.002029235482
-413.049821726355
-365.13676719112
-229.677612958995
-12.0844658228215
277.534226945952
632.873808436166
1002.27072271506
1291.59472832253
1438.91834809577
1449.7612712687
1358.31101141222
1187.19956374475
952.19023167092
679.856886943035
398.83639020363
126.804518625898
-119.805599017778
-317.321879962572
-443.345070614084
-490.685116935342
-478.568402414343
-441.142305065944
-389.477288749854
-300.326634017015
-164.281041775246
-19.1082470385728
105.712721744858
240.292872502161
408.446203475231
556.333241123411
608.365447328763
546.221575769659
394.593168342382
175.901920452988
-95.9575439022356
-402.027316430766
-711.474828780563
-981.864170349721
-1166.5593994987
-1241.24490066436
-1234.26163011625
-1201.72454281367
-1160.80117588249
-1087.35942778488
-977.548784572613
-862.602846877944
-764.419139979475
-668.79908681443
-546.249889025475
-390.25143893293
-232.435113769945
-117.009274704811
-51.8459680188045
10.2600027437365
127.109385415027
304.35034684609
476.105477139667
560.195511402178
547.363308339705
500.155280576239
463.710331730137
431.218817015879
380.029150611546
299.286649474707
198.846386874124
108.786179449202
59.6547170091494
59.4975824962891
94.0277230572207
147.793761560165
223.356739770668
330.151320889503
453.927590372501
561.667221868539
634.181986921406
668.317174619082
662.452605280043
623.020023809452
566.56057985081
501.597568754388
424.543602306835
331.60008808725
220.912031592138
91.9100791571051
-48.2077339861932
-177.575255989766
-267.509408154418
-317.211338615981
-372.515599694078
-477.749390842151
-612.497757545241
-700.474161185061
-687.347466629669
-600.19188745297
-505.156037820813
-421.96442846056
-338.47009863478
-276.73044496275
-265.146693550344
-277.274796422448
-251.698419963714
-153.10332887461
-2.89991343915293
141.86118914771
237.879125503515
275.851397782357
261.930160220658
201.738855376187
102.002368041786
-22.5942566382924
-148.232087652401
-252.053831610829
-320.361931183968
-343.686680765467
-321.424452509592
-276.80304322507
-248.628762956331
-263.561233363838
-313.948961686114
-354.24646247071
-326.952912771008
-197.411823786479
33.4977029477581
323.134742191886
588.32314260175
750.398807646018
793.650855684304
768.136995860453
732.880054075099
701.841434487287
650.119544830252
557.141717027722
428.539531071584
295.189645032123
203.009906346297
189.71842045106
260.441713446343
377.896927466934
486.692867075211
561.133891301503
612.134836489888
647.945345972992
656.10459490852
622.50570656553
548.596280164221
451.30339509791
355.028716701341
278.34538668563
229.223566030725
211.946077115362
213.548399125708
186.626267037048
80.8785574050728
-108.84045557987
-344.86234667594
-583.034980907674
-788.899385482096
-941.16195336519
-1051.71151106563
-1168.38902664389
-1329.18773307055
-1522.16763479841
-1706.09605893376
-1845.11427744149
-1886.11618315189
-1735.26970896727
-1336.29787533477
-769.980002052475
-206.283271417489
237.53227088113
543.875259491929
747.196736448456
895.983233257307
1022.25642925496
1123.31184012046
1191.1586249655
1236.68036379416
1268.48980612665
1275.63626213423
1242.96082173187
1172.10135537784
1076.22467879155
954.564273324138
792.563735219829
589.133304904331
359.311928603438
120.918138557244
-94.2978978992421
-233.48804045048
-257.630393775735
-186.062879541126
-85.7273021629379
-11.4382333007399
21.4385085508025
12.3282304287603
-42.7455303702657
-144.548718136074
-282.417973948965
-428.882406462258
-543.322472479276
-598.460391908779
-604.717816311938
-594.34897284073
-582.914101558508
-559.635484399749
-515.728257696929
-463.008633316194
-416.232787468458
-377.793847938337
-348.901400069377
-335.686665154948
-331.897071881857
-308.115096452283
-239.206654918501
-141.835422487721
-63.2236532873755
-36.5422623753754
-66.8806577066295
-148.919550638159
-281.272465593549
-465.615869409072
-689.804944532385
-916.411452950902
-1108.34904147388
-1269.20190447285
-1431.06049932597
-1593.92141576285
-1713.9852459962
-1758.09575818724
-1725.37321286292
-1617.07681250455
-1423.14244198061
-1129.13640570312
-721.596625095083
-214.377602017893
318.471036199405
773.731442190173
1100.44406086755
1320.91296802538
1473.55040439079
1572.46161388943
1623.26141107758
1643.54822885388
1649.69351153505
1646.41385430777
1646.05034245551
1671.98535464224
1733.20919311319
1815.33286587614
1888.15329193186
1916.91751151809
1898.62866357886
1878.94054502611
1883.28434832081
1851.13789016547
1690.42762431553
1371.73505447591
941.833154951197
474.453374084403
14.153120798367
-442.003884675829
-900.871191656003
-1331.22275787108
-1686.70492933221
-1947.97893027635
-2128.03418642671
-2254.12515312248
-2336.21975035882
-2331.03582579884
-2158.33646247987
-1776.00751899516
-1225.62554706638
-605.067577406903
-19.3208189328337
452.511205645028
776.558417255525
962.038235982624
1041.3346245633
1054.49590117266
1034.70731109854
995.405502701688
939.347192696744
873.765365529902
802.146320094378
709.815341657916
572.244743179535
376.732317663558
136.530978088005
-109.096299870465
-311.64064859037
-439.946947031815
-502.355099154566
-545.79726976029
-614.693344454144
-707.444874400721
-792.467537832765
-862.089430839179
-953.192951948148
-1114.10367093421
-1352.41237206037
-1614.01709266382
-1816.69182935459
-1901.91727106604
-1836.34314585633
-1573.50197073975
-1083.41333367167
-435.191247757363
229.911911272588
816.323218526215
1303.0877275865
1688.59468126905
1970.69221121937
2159.63760504808
2277.17843125506
2349.7481783486
2401.25218929261
2436.28114846565
2436.85114012519
2393.20260686243
2323.45302953648
2245.39772050368
2152.42852587413
2033.02706387649
1890.13627398408
1726.48339360813
1525.72434394859
1264.35285743055
936.939256188285
560.299762405648
163.669471715928
-222.595720792739
-587.844369667507
-956.644012043433
-1371.55957793409
-1854.60538802519
-2388.48237285928
-2926.94459505385
-3413.40731253632
-3804.64548978037
-4082.70962751304
-4233.13691409453
-4231.77520105215
-4073.72222740664
-3793.5195618051
-3439.06175381087
-3040.04856446205
-2612.10923006901
-2177.17405070798
-1764.82186970886
-1400.24581546198
-1095.42338400655
-842.610637288329
-623.128909328707
-432.262709904739
-279.165822190224
-148.103670296844
23.5372240594529
298.424967513578
671.04067675529
1078.10142375912
1467.59998256288
1815.67867054201
2103.15837747557
2332.83125131445
2541.72488168727
2752.65328224546
2938.48132285286
3040.636746252
3003.22235896474
2810.69878712194
2496.48956674904
2100.06050070059
1649.63256303574
1203.97316561904
861.547594808122
695.189023528531
698.225562501975
805.447781860382
949.030616936651
1092.54715114607
1228.83421972182
1363.05488819696
1500.93036794167
1626.89573887561
1678.02176098905
1568.63482997367
1257.75739430822
772.000612436693
173.215024986129
-459.812686764058
-1039.25261322817
-1506.85286672143
-1857.22897662473
-2104.97945081358
-2254.90084039293
-2304.71231050948
-2247.98813513956
-2085.98683998249
-1847.70511384213
-1581.63092313058
-1330.68027748435
-1125.4978277865
-985.94126732097
-911.599793586209
-889.893760344911
-927.168324805318
-1035.99158993337
-1187.44455255364
-1323.60522563783
-1409.68646965786
-1433.35275526714
-1371.89790470776
-1203.63756719619
-946.888545334085
-650.274229324585
-349.465348111629
-65.7763865640013
176.158610409135
373.709308168041
584.957216248104
906.355104454583
1375.36189329069
1904.34141133982
2353.08191798233
2649.81172740031
2803.88129387374
2837.95049574512
2762.15222088596
2599.58275224561
2391.11944612833
2171.69333004811
1960.81151099085
1771.78901157353
1623.11458379053
1533.073013624
1487.38531523188
1426.72113713343
1289.24451938838
1050.1755299201
711.990611079435
288.196934644033
-189.162788164805
-670.350660373132
-1108.8769618429
-1475.87559381138
-1757.15194838833
-1949.54471680381
-2071.85027179868
-2168.96492616625
-2277.33512093787
-2389.43900084139
-2478.14631844543
-2542.88916918494
-2606.37409384358
-2678.70938892388
-2737.62464397434
-2722.48398667095
-2544.37618862105
-2153.22009201743
-1613.15789278566
-1062.02180195296
-593.361657536491
-220.173075892128
74.036163734743
301.697196636253
476.413723728714
622.3442156786
766.921743676335
919.926604326278
1069.19047449879
1199.17227329868
1304.50819287123
1387.41572442389
1448.82376385316
1484.42059012887
1485.4758190056
1437.81007505418
1324.4875972133
1139.68010427477
905.031506205518
667.310330937172
466.491897214785
311.647843429941
202.348258149742
142.394274738684
108.273558396199
50.550835720778
-55.261312280681
-197.10885340447
-350.101104272108
-480.536909039281
-557.02081488258
-572.022291182357
-533.159568777597
-450.927827204705
-348.893092148972
-261.699637725236
-213.762921865783
-205.433211165398
-221.05606901041
-251.081215322065
-296.806325143594
-348.458531539686
-365.266087659245
-292.994123005742
-124.857582511985
72.1984183409338
221.07407963915
295.275245683662
305.090725002636
264.608361310916
182.628474814646
68.0875938583142
-63.786245240815
-200.21970346747
-345.463400438031
-509.755304165208
-686.650203754495
-855.536556301518
-992.069952686022
-1068.70805640647
-1066.09997153468
-982.729361456786
-823.111558729698
-599.474773512866
-349.764137874024
-116.163877534746
98.9256406417564
326.620594182189
588.874162160514
878.15306959828
1160.39945475577
1388.83424620642
1530.41990956085
1581.32409243316
1556.33121923918
1474.4539117234
1356.07113888128
1228.45481269189
1132.43661813688
1112.81980598671
1183.49108996475
1301.79870374604
1397.43643187994
1427.80497182503
1385.60304551726
1261.36357436585
1032.53333958236
693.841695223099
275.237846333437
-173.480816440708
-610.857131507013
-1033.134385209
-1471.54911704927
-1939.0230422967
-2390.44666756284
-2737.76200151378
-2874.39845978152
-2700.65810303643
-2201.19499598549
-1508.25004218485
-818.300371259634
-246.412040458042
201.232356855837
553.848365360116
820.920224817799
998.248803688561
1098.06710644713
1157.67059979743
1223.11200222672
1320.1873389677
1428.09576661666
1484.13752120655
1428.08680924849
1250.81020817747
1001.18938874358
749.755241518965
544.852791901455
387.736610175227
237.194470476711
46.399049246057
-190.323124468989
-430.005986258472
-629.187952717268
-785.360675909305
-919.113768696045
-1045.40527510649
-1178.7524994977
-1327.63292284324
-1473.52632321763
-1592.8011068502
-1693.847706645
-1800.39818599245
-1905.65810473054
-1967.42855922435
-1953.36678737259
-1873.60450132621
-1754.8086951282
-1598.69497265843
-1384.90153834263
-1100.82865520723
-753.480049817905
-370.506375046002
2.63958063537067
335.411492758115
639.688186081868
936.594490882646
1216.96622436501
1459.44645998132
1660.11648563685
1826.70606577569
1965.0373001167
2079.81283866152
2175.940904218
2256.86973464948
2323.3924318652
2364.73528909254
2349.92742110825
2246.09102292673
2052.96765062341
1803.27342672308
1528.79217856359
1245.16625788396
963.25669760351
691.446173806565
421.230639678539
127.23030857171
-203.296652937661
-550.70813309779
-885.070823410558
-1193.85715926521
-1465.44645513608
-1659.58077319984
-1738.14112567885
-1713.41447989866
-1622.18411014494
-1486.53245880775
-1334.83325916803
-1211.43928495219
-1139.3093864671
-1104.42136497424
-1083.11756164792
-1064.46313752017
-1045.57262750489
-1021.62999728076
-987.010321001424
-937.52436946205
-865.437766073811
-756.921022459891
-598.606948042014
-392.043380901794
-163.512014216994
50.7047294980895
229.741855783892
372.040573379364
481.938009614489
563.265181841718
623.659590930764
677.084660897902
736.93798863542
801.482913297648
847.596071766717
855.567871478904
839.75306368492
829.18076855498
824.14156986374
799.754735359808
741.665615572416
659.409300268176
576.021347179404
513.872220009384
486.691142833997
500.346794835599
548.905860201087
604.978531217578
627.200815604276
584.59511160834
470.816303543317
295.883316689691
68.7224892943725
-208.277202083998
-525.793975981742
-857.854189452809
-1178.52274474396
-1476.51967671378
-1740.24043161417
-1950.32844510135
-2097.75105929207
-2191.93230477153
-2251.33911162435
-2292.60742496439
-2316.62137057986
-2289.40595757727
-2145.13666715202
-1842.14386258698
-1418.69079326319
-964.503425743135
-546.546316323077
-179.196549990759
156.838760969331
482.551099531821
797.917272810422
1084.47316348905
1326.62103874199
1521.78096816376
1676.9712507409
1815.81390591246
1967.06209087976
2120.04366631183
2229.00237781787
2270.73829970641
2255.72068126857
2198.36554574908
2112.26085809529
2014.5847157349
1919.21929211884
1837.07055039362
1774.79089264711
1726.67069429764
1687.28812028564
1662.4602700951
1633.01127081319
1525.905224901
1265.61017491093
849.425737146063
354.291755430491
-119.695574786126
-503.785410890702
-768.987617974303
-907.984385299649
-931.584236543352
-865.192908784553
-732.156039582125
-552.536209532181
-349.635098134229
-146.489850146105
29.2193022258495
140.865063857639
163.493542071706
104.138939644585
-8.81213089733718
-151.847109385741
-324.96760082749
-551.169000845339
-851.804068671186
-1218.35394348376
-1605.47857609589
-1952.24240010799
-2221.48741212432
-2415.6115124834
-2547.09267575629
-2613.38445170756
-2605.59945104577
-2514.5194053855
-2329.40527297479
-2054.45171666395
-1719.98903537428
-1369.20254382449
-1039.76022714665
-748.274042479339
-485.862055332738
-238.332764854442
-9.08263869719019
185.095792118379
334.700162856487
446.073186972956
529.91185459566
589.873743568853
630.484212168682
665.992374689422
708.680452538844
755.1498893837
791.722853655097
807.54564577547
795.339569484277
744.492353815255
647.220525324652
513.459303922602
363.851307962947
198.974510645826
-12.3911825520574
-302.057237276958
-660.425116475454
-1026.64625838885
-1307.91391994199
-1389.02213073063
-1156.50399997472
-597.762088456839
133.434448800848
828.025831766887
1376.24847051761
1778.18116085889
2063.34185877736
2246.65692959993
2338.14102197404
2356.98046799682
2327.42749344192
2270.57594616368
2193.69911026012
2085.97497004575
1941.52457551712
1785.30345512242
1664.06520084708
1605.48585268842
1582.47738755655
1527.20510189996
1384.38360826536
1144.24170674811
833.317102624076
482.01963755429
91.658637623297
-366.671144031656
-914.236488742556
-1539.95143143455
-2211.68084235879
-2871.40706196441
-3416.51771090914
-3743.37452917852
-3827.72751406834
-3726.72808138498
-3506.62038383003
-3202.94885571927
-2834.42339296132
-2415.39684312459
-1960.249967847
-1498.31862883484
-1074.25563858726
-718.034160440623
-424.008593101452
-167.739107527884
70.3920741002566
308.030050251033
567.775898230035
856.755105286578
1145.64514741076
1391.31736580071
1576.20278477655
1707.45371530329
1790.1282359702
1817.12652504205
1774.68495512258
1655.84290698277
1480.12938225668
1289.57778808982
1110.97942919052
943.660635743808
795.425713505314
686.12920888479
603.764223103788
511.456751395249
407.795344784201
336.838852148779
330.173530387946
360.19020291295
360.419434735264
285.804688144297
143.027643489613
-25.6292702917959
-171.392129510537
-265.762551575938
-309.710483170181
-316.699051473061
-298.588826133603
-266.882065067445
-236.910094904254
-227.35451764981
-244.438993709443
-265.047798083668
-256.893892600645
-221.190808437
-192.245741116885
-194.606587322792
-225.28426709726
-261.882506875843
-262.980115722517
-189.916871672232
-47.6944944233599
114.822087134347
244.217136495322
315.080279162765
334.983874932917
326.664072716165
307.168577611303
278.193661993454
232.596503744573
168.455392310581
83.6539116251457
-37.8903400758174
-209.94105723324
-424.356847788294
-671.211168537334
-961.826543595144
-1306.63192265655
-1677.50147597865
-2006.840103802
-2217.98154053783
-2259.56681581657
-2132.36127567193
-1884.10279496359
-1573.32618727255
-1246.33761572169
-933.085781779338
-641.515813994091
-364.493042190789
-100.203230952679
143.848807618039
366.125405469272
583.075037492375
819.231213147316
1081.08273931611
1349.85151997057
1599.3683223916
1809.98578558659
1975.2421038819
2109.39858461608
2236.43990637017
2356.91259531791
2441.96389834722
2468.32648733297
2433.48513853875
2337.26962073465
2177.22485177332
1958.21394992588
1686.52315544532
1358.49490521364
968.561475970615
527.801450652924
67.9944605475736
-370.156930031697
-753.32796354375
-1064.90642120598
-1301.32871108865
-1470.16787752509
-1591.02532696723
-1683.4018294731
-1755.05541548602
-1806.63132591035
-1839.7961488345
-1858.94380487835
-1870.70691197811
-1880.91463146824
-1886.5446704828
-1873.79923557626
-1827.52764708988
-1740.09965571297
-1617.19269704831
-1475.77598545357
-1325.92056368091
-1160.74430545065
-971.777348218085
-759.41290596817
-524.763608932013
-269.084169981545
-4.2637546127668
243.965961501895
443.81917095941
573.265445861321
630.418334505286
625.898666902634
573.997536368927
492.944045294617
400.716105640673
314.167854723223
262.615215043032
287.354134858969
404.499813367682
569.691727834701
709.465019779309
794.152249617659
843.248542080917
870.982549648887
882.539266260784
904.522197778592
962.627633381826
1046.59861215353
1132.50708161944
1211.2643898087
1278.2608201101
1328.52620284691
1364.38010553365
1389.49705126546
1407.03832484071
1420.46870636688
1421.77621563479
1393.90049695176
1328.19928470703
1226.14951116929
1090.90913440937
918.573096491117
688.45927905105
378.531399237424
7.21114750372143
-359.398688558002
-659.391602455483
-880.493141897257
-1046.85978361736
-1184.6436207753
-1314.9759289576
-1452.95617229378
-1591.69888581957
-1703.53456863793
-1762.09869924241
-1753.92239903568
-1679.40266806413
-1555.2649722308
-1411.75580975429
-1275.03822977251
-1147.81541070683
-1016.08691647635
-870.91409681853
-709.635650477322
-530.510324267406
-346.125667056167
-187.595155284164
-77.4235327126149
-3.38019808329922
72.6882129015029
183.429533079925
339.716473647877
537.710709946881
761.748070978839
977.703157517732
1143.8903382923
1240.68714484389
1283.8516448175
1305.62490267548
1326.57791431664
1341.02617382887
1321.22106837711
1240.0825809835
1098.74513230846
928.035299937262
753.148162047473
562.823296229645
325.490534965613
27.8486229526138
-309.405092992796
-641.479730042188
-923.955639212444
-1135.16051117609
-1276.06232066685
-1359.60457813134
-1400.37217188611
-1402.60494571315
-1365.70421830962
-1299.95743299084
-1219.87620627073
-1125.49427518333
-998.604533627781
-819.068877391163
-588.908140292363
-333.136247702636
-72.0529464868693
192.747928097252
464.102773236462
736.134620178786
992.086986544724
1209.25263258373
1371.95166963836
1478.93978386531
1537.18950982227
1553.82395502187
1532.24236732882
1469.63695283471
1358.73994311315
1193.58866444698
972.892477626122
705.199452762853
417.715611375161
152.818759061967
-54.4168825142028
-200.353563011683
-317.028431551483
-445.985236416148
-601.727236524978
-767.53968773591
-920.168898088893
-1041.95578892544
-1124.18308087614
-1175.09999905241
-1208.10697120377
-1217.38652118216
-1180.46398927592
-1083.3632934055
-935.615931946973
-765.856478366538
-607.267947785928
-478.74691670314
-373.597504327671
-274.602239515309
-179.976096818502
-100.001012231049
-33.7021330565857
30.2877402120689
94.142668978838
149.196297471068
187.601029739274
203.762293182724
191.17978536838
146.005205749778
74.2759461777025
-6.30382530329361
-79.3405401680821
-141.705776264204
-194.524213344503
-233.892708699442
-257.759738455607
-271.205085905952
-278.683385140979
-274.25153029192
-247.818870600833
-201.18115295746
-148.56645431254
-103.54320067882
-73.6762764689073
-64.5058392741735
-77.34745147988
-103.482144341498
-131.060168951456
-153.274173405103
-164.952096783192
-164.6079882406
-165.307122092212
-193.287744006479
-260.122637196774
-322.402862713857
-284.107933050799
-75.4547040870835
270.266439978021
644.105734077263
953.924576680432
1173.37120492671
1326.77218323597
1447.7682138303
1547.70434181996
1622.06882873979
1674.38413940295
1712.4050050197
1730.38225253242
1714.77114802858
1663.43484406825
1592.87100773367
1526.90362219157
1476.91793014738
1436.42308194985
1391.54476122545
1322.24884371837
1191.16139481817
947.575040437786
560.484145733542
47.1858758825725
-538.612799023951
-1129.52328573693
-1650.3847519089
-2037.19037404555
-2260.51249263641
-2319.00358281065
-2231.73810554085
-2049.70385643717
-1847.11233759123
-1679.55961031215
-1556.50479820477
-1460.95611165353
-1381.37808512641
-1311.78420650103
-1236.45552804745
-1137.1183971439
-1013.93473525865
-881.969771492525
-746.761714023461
-600.971981271612
-442.227773027338
-273.138348169486
-79.8811214189806
166.641085069511
469.223804931225
781.764364948699
1048.3245573913
1249.65808465001
1398.76636830941
1507.93765931116
1578.73916989864
1614.82391767841
1624.9751139621
1615.19034774218
1584.19648609038
1521.87789088255
1413.51654020029
1253.39585281822
1052.98572728828
829.019260483573
584.968775926925
308.449099546193
-15.8847393724251
-386.255827708576
-771.309009681652
-1125.07714004767
-1411.23651993917
-1608.3993309584
-1705.19357531506
-1699.28243330957
-1603.69722987257
-1451.24971905503
-1279.50549905199
-1111.32614699947
-955.401700800415
-813.730901708917
-682.370512222209
-556.368466206024
-436.037703062816
-321.595585973992
-210.841630275949
-106.678336000052
-14.3807886428572
66.3868405500334
138.948553021806
205.310749287992
265.968460376341
318.916950517087
357.573441701894
372.334312837855
361.636098729134
341.370913262935
333.743837557359
346.151477651772
365.151967472388
370.395496025283
354.984833479862
331.211750993128
315.551019911326
313.706455982555
317.251675395442
306.305370105388
265.976587401537
205.956826154307
148.428949995862
100.409228356971
52.5819925494583
-5.47067750997343
-78.8879211317861
-166.118127042104
-255.558105178025
-327.020514188961
-363.799817688334
-362.790684243456
-330.242668341582
-276.534292560384
-217.685827968733
-168.465149960294
-130.093907969206
-93.948455859597
-56.8676533715149
-22.9250976221639
7.6625421275657
37.7589561312113
60.3939059597858
56.1557934146143
7.57143846377407
-83.3142164385839
-194.846348323479
-303.310682049697
-391.835961023726
-446.993417332182
-463.379733758779
-448.907410010862
-415.272949128524
-364.49746054988
-279.956769463239
-129.564673890778
101.849137773394
382.184509700627
653.546015899951
874.372440877414
1032.89110961695
1138.63908332738
1203.09855086688
1224.98949409669
1200.63841305382
1141.00439523879
1068.09949385556
994.572889396664
911.36779238562
801.598139980146
664.094750374806
516.56742697626
377.0588549102
244.728287755396
105.294174762443
-44.7183186960874
-201.858872650179
-383.135077047254
-616.143300737931
-899.445868253358
-1191.7665908074
-1426.4178404334
-1527.43311307658
-1448.24329468928
-1212.4459870327
-893.062730767158
-550.600145807877
-209.598935352375
114.745631980867
396.255528859743
611.538666071883
756.566329145144
843.798895867468
894.606399138828
931.674662170716
967.851625892899
1005.14682893497
1042.42020975979
1071.23146359908
1070.47445014622
1019.62512311515
910.010274126917
738.89337689405
506.115022244003
221.050059080597
-97.3598750071099
-433.299411856074
-773.965809005775
-1089.62468613985
-1335.45877172338
-1482.8551501212
-1531.56422436837
-1492.60531012856
-1380.16980499704
-1222.28393576676
-1058.21973782961
-912.6675999249
-781.947528123414
-648.846419214037
-504.000274685329
-355.576613495984
-222.232970870655
-119.395711804572
-54.9739965413868
-29.5916199176694
-33.5537679822608
-50.6099793985687
-69.0235509468602
-83.9528529521563
-92.32566699601
-94.2156931776165
-95.1404288358045
-100.829045415465
-111.987489761336
-122.752989767363
-121.823961541393
-98.6636620686494
-50.6378977598143
15.7434689869393
88.7474425388108
156.914535245298
213.481767225128
257.706773110984
292.870095717858
322.413913080091
348.343248044852
374.098308928306
404.582549958624
439.43330573522
471.0511753682
492.397581838489
501.800986839197
499.568780104814
485.040406058008
458.095293937081
421.997889332992
382.270380457275
341.461607005341
299.173030946481
257.746943302218
221.49749290866
190.538081912939
159.454032127401
120.744998848799
71.3963311998243
17.7334973362329
-31.8084530291612
-77.1235296281499
-123.255967674187
-171.92032712408
-221.140295150409
-268.465419695244
-310.426842619836
-340.415158271688
-352.469807859852
-347.605407688621
-331.031386999805
-303.879479475819
-262.030002460414
-201.901579990696
-124.788257967848
-37.7181234721928
49.5819003242333
131.126478975157
203.69892589265
260.235930867652
294.437624981098
309.122456594023
309.471307083028
291.227032856509
244.396004675265
167.977640593332
75.8893982461064
-12.0086322764734
-81.3529941685418
-127.768558558104
-154.765938768233
-165.038088310307
-154.247501957055
-120.036043685538
-75.0229360741971
-39.9628218724558
-24.4386389465042
-25.1542544749823
-38.9024095343258
-65.4256350777412
-101.542063148212
-140.96438627544
-179.656303452808
-218.424272952579
-259.204727775809
-300.706147538212
-339.798146897115
-372.880045540568
-394.129012351368
-398.786426174658
-388.099242534979
-367.365309577449
-342.869757510061
-321.04634842896
-303.561734304594
-283.219568817994
-251.227493709195
-205.915261538446
-147.666186711164
-70.0572411286666
35.4169901179246
168.2368701134
319.689150378581
481.649622289485
647.090474238401
804.911658843201
939.758203174461
1036.65914287622
1088.57600764921
1101.30230782816
1086.40954035342
1051.57256661889
1002.6343415891
945.16408951525
874.708107319742
775.134568917746
633.916790584941
453.256922360424
246.468325466262
26.905747674694
-201.849311992837
-441.83242000097
-683.82514094456
-903.548508155049
-1078.69190634347
-1200.77803383406
-1271.97614969318
-1298.98551997091
-1287.56118876902
-1240.8878289944
-1160.21106635146
-1042.70449171955
-883.355223901781
-684.073355080585
-462.947616060381
-250.78916383101
-72.2468125822979
68.8448092246213
185.184637116069
290.792761068389
391.525227402809
485.478713413052
566.35934973559
630.03144492081
678.374086871616
712.9451726537
732.52133968423
737.648116306484
729.531445603793
709.04825904817
678.207369010752
634.94901726175
572.269262407163
487.516102004251
381.242586013899
251.180999032266
101.112348483015
-54.737159732572
-200.308369579898
-321.172510616742
-407.527813974231
-459.375097144089
-482.547276072666
-483.169333828632
-469.113318918799
-449.365897289486
-428.765424213171
-407.516247057209
-385.347319913024
-362.821903893487
-339.124198047724
-311.069472643795
-276.437820704077
-236.138048702535
-191.435091904294
-144.29329867589
-100.138427751316
-62.8307845002539
-29.9567619473456
1.27625936948661
30.1432647937614
57.1388191404338
84.3646856944444
110.339530961186
131.363476282346
146.589426201994
156.996211776123
161.959936360894
160.275258460776
154.636386131043
150.974241281039
150.819820957905
150.702556138023
149.102827966974
146.251829429566
140.872562315227
131.916128191459
117.840270006414
95.5996878936868
66.4199029790277
36.2404683387799
7.54171521903384
-20.2452339084306
-44.5262798160359
-62.9974603313374
-78.7747477706855
-95.6464572689271
-111.446573576359
-120.036100241355
-119.042489765523
-111.563358698717
-99.7947043508138
-82.7478771710193
-60.496427686395
-35.4428113846905
-10.3909830972326
13.3895529336833
37.582129565768
63.6426913992556
88.8752692212487
109.306074923959
123.192936374483
128.566666347386
121.94987345945
102.741936180148
75.3824353079827
45.2673658574086
15.9318222736287
-8.96635799434394
-25.7673159979736
-34.1540267606236
-36.6468809986499
-33.5673007206522
-22.1930477333813
-3.14886745523971
17.3486225365072
33.2563815899506
41.9722605020625
42.5768311790818
34.5594814374898
18.3946728311399
-3.4484772699951
-26.507163568706
-46.0764837639604
-59.6746376851311
-68.1218903310576
-73.9610725234928
-79.3975232932207
-86.2781921268373
-95.5511112756241
-105.191937401296
-111.356674424488
-111.777704025066
-105.306229031142
-90.0312482446558
-64.6989776682647
-30.3023562085725
9.46457067059676
46.981832218179
73.210194799524
84.8981851317415
87.5242853877764
89.9889217891001
98.0413720630952
112.531244119948
129.752424849651
143.089664529352
147.580517574513
142.11732570398
128.761443062283
111.775787156714
94.9321905930239
81.1552184494488
73.2325908546266
69.8559217411775
64.4185383949748
50.3340724301555
25.361225750418
-7.66946659558163
-43.9424000124635
-80.3302469622668
-113.129043502222
-136.791121360889
-150.611762663385
-160.379486166085
-169.429092888834
-175.408055087155
-176.547267677211
-173.406109292894
-165.712162128676
-152.616492268977
-134.4611984568
-112.758101154184
-88.9444297594263
-62.9316986920566
-34.090753569167
-3.77410633420384
25.2400803309793
50.4351572432745
71.0613081590056
90.3346485617742
112.571646294584
137.756533535858
161.50686129835
178.288388815668
184.636880335474
180.931769936829
169.687803100665
153.044636260621
133.877863564969
117.460710295224
108.165437723755
105.166875722907
103.046392893274
96.7382843289197
86.0785991031021
73.4983394419961
58.2468672917751
38.7044932608656
18.235610139802
1.48787044037577
-11.7871797476411
-25.7470337081495
-45.26207269805
-73.3903656190273
-110.493801281598
-154.737152198009
-200.502006908953
-237.531061594581
-255.76477042625
-251.843287144895
-228.887240329051
-191.649120563535
-145.81367029688
-100.745832941568
-67.1353064161684
-48.8594758209043
-40.3205294498827
-34.1701335401543
-28.7963216420482
-27.2739318274996
-30.9106692537524
-34.8228037291289
-30.9646095307093
-15.2255299507084
8.38596104785248
30.3545911554197
43.8511223705293
49.6899313474876
53.3667964125918
58.6194571371792
64.7265400466293
70.9158291756749
78.8377486993744
87.1734845544351
90.0493557293468
83.0112376507082
65.6668764791589
41.8053147377119
19.7593757329983
4.4517468574358
-9.87816541439472
-30.0063977608728
-52.7780914402074
-69.3520760009727
-73.1770821668907
-64.0513300519317
-48.6022421873386
-33.2099566940827
-17.2167488914536
3.33466039371369
29.4889315690486
58.8260479168401
88.0775538218028
115.574960919435
140.327624462392
160.782811052105
177.295074515686
191.562008120831
203.121996640562
211.362528568654
217.291214250312
218.382825779741
207.166004528937
178.316105482804
133.541442966587
81.1621725981663
31.1670927643247
-13.6298725346579
-57.6503996808554
-103.108005691403
-146.297849162501
-180.137992655098
-196.938335837081
-191.83678105338
-167.073891478831
-134.35014253479
-110.171820537096
-105.302126052931
-116.680652082092
-130.452568279571
-135.715172391941
-133.134545499507
-129.374545729162
-127.4826102624
-123.242876290041
-110.372450996475
-88.820946554513
-64.657396108611
-44.6711060625051
-33.8450620491128
-31.9008377089295
-32.4770126694393
-29.9339210210621
-24.025556049784
-17.2120084843379
-10.4193116664483
-1.87309836734137
10.9747509578982
28.3286002660837
46.4972494937822
60.763691930406
69.9905601887039
76.508812368988
81.7380037152029
84.5516261941832
84.0484689912945
81.2592561156402
77.8538659625317
74.2699573414469
69.2671761236159
62.7914686655531
57.8130810869647
55.8102376298825
54.1794834478279
50.9495869626361
46.6527642398648
40.9247964701281
32.1641218148616
20.5794949385461
8.67779242612329
-2.45580599618084
-14.7380983179361
-28.8790527024992
-41.8932872371771
-50.3390707047892
-53.1916985215527
-51.1936666310539
-46.6891172166937
-44.4496919431504
-48.6358480949508
-57.5035587948536
-64.4262288765923
-64.7434037000439
-58.3703257589829
-47.3035175799997
-33.5558021654627
-19.4114557096271
-9.09887409319656
-5.30941209170833
-3.06009772163604
5.77348377596817
22.5702412843349
41.6152385260157
56.998343701155
67.0878509486621
73.1451519708974
76.3430328518233
77.5460506065709
77.5069626728982
75.8237192009246
71.5714661910452
66.3245829917774
63.3646699305718
62.7658453455763
61.5601072298581
57.3043736313412
48.0147388488114
31.8747676165331
9.36002805436482
-16.1694273091827
-40.6074978549439
-61.6977805358717
-80.12916048608
-97.0133101178501
-111.038946477233
-120.121024723376
-122.711332878202
-117.415750742174
-105.271344526066
-89.2877225488551
-71.5120031882936
-54.2814571215233
-39.6193232987599
-25.9458483623718
-10.1433014630328
8.26743746606935
27.1312619211386
43.7353145508552
55.8623607530956
62.5799497852519
64.6296015337289
63.3015900908389
59.4617475602748
54.7075374475087
51.6953985727468
50.6323491476728
48.1504726538815
42.3298915624229
36.3582835013789
34.4707036858387
35.4481627932842
35.7871594816974
37.0886213185159
42.2029834662341
49.2762227420561
54.7975682092982
55.6686580121384
49.5212974547701
38.5701115918642
27.5002054355722
15.3015022767528
-3.660859474751
-30.5138543854361
-60.076865332782
-87.0750169261582
-109.925039286801
-128.960009872943
-145.154722627663
-162.552432302401
-185.435471262467
-208.677266000955
-217.802241693474
-202.073583389939
-162.048443788662
-104.991700036933
-39.158955179737
27.0935074597623
84.310885410544
124.703878887426
148.186699963691
161.35777573645
168.777456041284
170.503941104484
166.5251455429
158.261931645186
147.898243083063
135.263840303402
115.284673340973
86.2070074134789
56.4259702667237
34.5882337268426
19.7171439529615
4.9402437539312
-14.5180671496959
-36.5966921639106
-56.6630978340957
-78.0229352748834
-110.084500766597
-153.204884909636
-192.791280371814
-210.148236205788
-195.653992335516
-153.168237017393
-96.7710736070401
-44.0632747593779
-7.58943915425378
11.516084043498
21.2197059448275
30.7818287536081
46.6912874488732
70.5892060829565
95.8452509339828
111.504285367654
113.174579101344
105.5446875199
96.1900495626183
91.8531882776533
95.1799515370376
101.864622940854
104.817669994055
99.9564658865694
87.1542925650764
67.8606852008602
42.5904545766257
11.4576299766978
-21.6187322228984
-45.8514567715476
-49.780139040921
-32.8316578453312
-6.69649761663563
16.9005469674386
35.7791100137095
51.6826771875274
63.2019278592678
69.0984413612471
70.1904881921006
66.1831648030494
56.8907651867332
45.3551759692897
34.9971028655278
26.542444538088
20.2343929453545
14.4232386074453
1.82440570736387
-23.8972678931873
-58.8770911769435
-92.8783565131386
-119.937218784254
-140.247017730881
-152.822512737955
-152.948179960688
-139.552524083216
-119.399950904586
-100.967387273929
-87.6645263444138
-78.8783030259375
-74.8362249504864
-76.9206070258327
-82.4263135783935
-82.5329535824651
-70.4255784660918
-50.2354741615181
-33.1683010085257
-25.1345280370194
-21.8655912036228
-16.8308675699697
-10.3473571843282
-6.79671986549077
-5.32716561465259
-0.250019070563898
10.7065203304032
24.852192394776
39.0051342054839
51.5556801295528
63.4531103803067
77.648221233033
94.8707326724932
112.632211614251
128.855242727847
142.917137825078
152.874636401313
155.06106036211
148.04771228484
133.822501052498
115.212651117312
95.4096286176294
78.0506987798351
64.7477750182061
53.7874024423006
43.0953305855382
31.7848130674864
18.084360244946
-0.191351886275264
-23.9638665022647
-53.1600335254808
-86.9900145220955
-125.035592708399
-168.252892917036
-216.188483569494
-262.583760876288
-295.942125627113
-305.232050192121
-286.947246242289
-250.851574927988
-216.016763648287
-196.793200188168
-193.322155393141
-192.103511115025
-175.7118961619
-137.659276602637
-84.0099187751232
-21.5559592353992
42.405253739781
91.8911113708078
112.26775869969
107.848242046448
96.4139415644526
90.916234015537
92.7359934962633
96.049548163462
97.4496061531888
101.938204653
117.21901051099
144.609434000279
176.531129593026
202.71562537686
220.488550139669
236.348810724909
257.738587741846
288.007106102297
322.883381567463
344.919065086549
331.511526998903
275.532669297693
192.036474116328
104.951313257004
32.2075393480165
-20.0692504489407
-54.8091521170646
-78.3725906331482
-97.8456202158524
-118.801807636979
-142.567142618634
-166.96173818242
-188.722218255641
-204.295443784552
-210.528870281608
-205.540405441156
-188.847096177357
-163.969115552385
-139.132000630863
-120.175834189946
-107.433784170752
-99.8335599503777
-94.5182275694455
-84.383791659821
-61.2735921758512
-21.7423612096983
30.9806323711718
88.2447499964466
138.163876761238
171.173261135601
186.236173659534
189.590981920728
186.670281126001
177.355559295316
158.533007832435
128.763404084868
90.2093280741579
45.7511031943796
-5.10849556198772
-63.303924291826
-120.433264979085
-159.243159993734
-171.732618651359
-167.787880499283
-160.477112468645
-155.239394452211
-154.314162035793
-159.906341872794
-171.005299109247
-180.185226376154
-176.930098027889
-156.985660217346
-124.991308835657
-87.7866022168832
-50.3502380215634
-15.1372984078439
18.6556715584384
51.558487400464
80.0089526748109
99.2487895020753
107.102655305266
104.703177554985
97.3442960193612
91.9119814804341
91.8662090552642
97.6497820156155
107.247675760783
113.264739528172
106.966376536051
87.8875286014814
65.3242086350458
48.3605938600075
36.9437335645326
27.8178614291614
23.9881359498014
28.60875107763
36.7241266835243
43.3385512100436
51.7580671008251
66.6268597019269
87.9045582769797
114.178103690852
141.240274451422
158.465536864008
154.504119702125
125.996684454417
80.8874996830814
32.5727806178399
-12.1621117015239
-56.2077884933773
-102.647609071692
-146.137864977547
-173.97320641087
-177.720238707846
-164.889540943054
-153.313618812141
-151.657447281637
-150.707059330966
-135.741860840029
-101.398570789886
-53.8999864046329
-4.33508543703621
40.936497057976
81.0693606985159
111.893701545336
127.375432201803
128.641807494866
121.873248417313
111.812311690579
101.420614898237
92.1283889042723
81.403532345904
62.478867416558
30.7557062209639
-10.8631359692619
-57.0670400808041
-105.620526676648
-155.482144789701
-206.342113850382
-258.528083392407
-306.072418969957
-336.024499891167
-342.004517684644
-328.22785770393
-296.605494964791
-243.176919391196
-167.892521093431
-78.6670614383094
12.8958703627478
96.0768297010596
163.533280850214
212.817713289552
245.881894416367
265.337595647227
272.716565966031
270.368715852046
261.204898870885
245.525018172686
220.799628466844
188.479026439567
156.032780158948
127.36479386743
100.258342286052
73.3567351422845
47.2737477124189
22.0120509707559
-4.07291824972747
-33.1339922506994
-63.9841738668205
-92.0496202994882
-114.562424146444
-132.709829345191
-147.312459508288
-154.422098057152
-149.322056864794
-134.497635960051
-116.754315538372
-97.4703626679428
-75.1109852210049
-53.8487413572533
-38.5702996056973
-26.5837962343635
-13.458092231565
0.0686813992355124
12.8893418934723
26.3916058703978
39.0627293473137
46.6991904469961
49.1635929914054
50.8061122219032
53.8389868232005
55.2994469455019
52.2929520936881
46.3643031019049
40.3153947733563
34.9252734906064
30.3059572746758
25.9694096495953
19.8409731394336
12.6099392049651
9.78202967716864
15.221486582415
27.572735630355
43.1986469676658
58.5182575185665
72.195076797669
86.6965203516044
104.075500840526
120.707703802255
129.889635421558
128.917867800149
119.911028693627
104.24515508475
81.0477485226368
51.609810621201
20.5027621829591
-9.27784793790901
-39.2063153360003
-72.596025279512
-111.411322226348
-153.030381692899
-188.263924772762
-208.54331010664
-214.492669643233
-213.022396151013
-209.476292430243
-203.234531144448
-189.333239877713
-164.878336445527
-133.20786931232
-102.04301787434
-75.2160301382167
-47.2050308124275
-12.2837860044776
25.3985046556703
57.127896592069
78.7879325718033
90.9671757824543
96.2108343904199
99.9190019382956
107.826634125134
120.343293797276
134.960235659368
150.366688279787
163.835603428277
170.942831142015
169.540728055801
159.459141193498
139.765379043303
111.129986083059
77.9911893426467
44.7164774127304
12.6613610136081
-18.1513197970157
-46.2890789883259
-69.5509697785052
-88.0218671190556
-101.368673125694
-105.02787394456
-96.641823555799
-82.2222266747372
-71.5976574347891
-70.8020604677935
-75.8303039771901
-74.2409128794024
-59.8851741632734
-41.0686690026303
-28.4433197008818
-23.3973985676888
-20.7717465078539
-15.3795015155229
-5.40823763095882
7.89766511497038
21.8117762180872
32.8165815733289
39.7515521470656
44.7367639629951
47.1545654257793
42.8536918578976
32.2639453310801
20.4834651062097
9.42379406809285
-1.07789354473448
-9.49302871718706
-16.8843054261691
-26.7410665171928
-38.7628682591793
-50.5026070089288
-61.6741419547198
-71.6002640926051
-77.5163922637814
-78.6654588661648
-77.1483957774264
-72.3811556657489
-60.8269375400035
-42.8342468402594
-23.5253657648493
-6.58250225822059
9.02583584880533
26.4772765755921
46.3830475155559
65.6054966888104
80.9357115116096
91.7739169565796
98.3410181605111
99.3269732338974
94.2388271220936
85.8773656908074
76.1090794970784
62.8559846160214
44.9645916758938
26.0994547485079
11.9583438135475
5.04107229477515
2.50231853185311
-0.260673091560121
-4.72457997134643
-9.36305560236169
-12.9799130748012
-14.8110922598318
-14.54230697846
-16.2751184268137
-26.4760850904268
-45.6619852792621
-66.9805311754067
-81.3802329678555
-82.8977415111294
-72.704682534937
-57.9786860245407
-45.0380061404092
-34.6015915759881
-23.8619087473791
-11.0155655452666
3.69617733863951
20.0941304156617
37.7565840977493
53.4754673192837
63.2153649570098
64.9027035579449
58.1432488551494
47.5844358025855
42.2155450655368
44.6526844898681
48.4248222907449
47.3992374140274
40.8304602363177
30.4293228302479
18.2039876510479
6.68890931502358
-3.19483957278921
-12.9646900865332
-21.6084821881889
-24.1149057208689
-18.3529224182691
-9.23185165479174
-3.20061632501094
-1.1862941909774
-0.72883057711189
-2.43225516189751
-7.48153459792685
-12.9643947598968
-15.5721551982321
-14.0094734166904
-8.84818039949841
-4.76842092553173
-6.39181905298337
-12.6963508933417
-21.1278311868134
-31.1228735704545
-41.4105439012062
-49.6302814606033
-54.2748715724956
-55.3198497638291
-53.5026387014596
-48.3866152865839
-38.9984283392231
-26.175244490755
-11.1160247767617
5.60948847736816
22.0477412680426
36.1525763690721
46.6880274319093
50.1443322641385
43.533765486025
30.7919320400762
20.123186475057
16.5504465067248
20.3520157296106
30.1064188758953
43.2146809238064
53.8050857984377
56.0191859458053
50.6769502645011
42.6134283652447
32.4934369742847
18.2702097973807
2.26724230347236
-10.7362926274616
-19.5939558285982
-24.679068803354
-24.6124761774968
-19.1179500830765
-10.0885984312104
0.460210562079435
10.3408664454936
17.1681159564644
19.6991539450877
17.5202939716911
10.0359590715023
-1.27939385469813
-11.3125060518254
-16.9157164363292
-21.0408220834052
-27.8505945409992
-39.375385560777
-56.7497742862826
-78.4587260894064
-99.8942686434157
-118.046667035962
-133.148967902846
-142.726796849466
-138.210419088766
-113.735513745602
-73.9457435130554
-28.731822531961
13.3262597448641
47.3102006290369
74.1968222870231
98.0776215463621
121.186086789068
142.776684390552
157.839753043739
158.958664482755
142.82748305607
112.581646473899
75.8635536817567
41.8742969540318
16.2135643930893
-1.31969635858694
-13.5127491117824
-24.6727503894517
-38.4638309699264
-50.5683990515466
-52.0462279984066
-43.9579825560286
-37.1394990001721
-37.1925833416129
-40.6828042059016
-43.2329931931412
-43.9297487479859
-43.5926524838032
-42.0581691675945
-38.7048012626921
-33.3896630337882
-25.282579311988
-14.4512834756209
-3.4300649348207
6.5176502340134
17.6970315736005
32.2862510774089
48.8982646422096
63.051382882793
69.4175757856698
66.3429842920883
58.6309801337245
50.9501234931985
41.956518517577
29.9785843251444
17.7597211274612
8.30396481128737
1.43864712388297
-4.03063066191181
-7.85391091372771
-9.47041541082434
-9.40256731395948
-7.98260375201965
-4.84515936894306
-1.29133212676706
-0.216548136764833
-2.32391186271259
-5.99717207910643
-9.9128013793581
-13.5921217298765
-18.3226773017644
-25.7540977715119
-33.8357256532542
-38.848453153766
-40.2659249715885
-39.8696476283146
-39.2097361492069
-39.2614071735583
-40.2751394345986
-41.703652858088
-41.9505610509927
-38.7531332320629
-31.6465549851771
-22.6263898911933
-13.4301506302114
-4.42113688084591
3.93965300137402
10.898511533175
16.3250915931444
20.2547502546816
22.8996418985154
24.8586284896072
25.5068994031283
24.2136616904866
23.390080812553
25.6411885824594
29.7577610038155
32.5747854922677
32.3361727989397
30.4694098153525
30.0736092826883
31.2591019536064
31.7591393764138
30.9591089088935
28.449662885461
23.6618243561581
18.4344130391641
13.6752479896795
7.15230080714014
-1.16708025364698
-8.31567538530168
-14.0962331366309
-20.565037744942
-26.779599796182
-29.690344207891
-29.1393986586559
-28.1675369866704
-27.8996931384077
-26.7109005295934
-24.7287169148416
-22.9133497525247
-20.1146049193969
-15.9286650773417
-11.992612539742
-8.18965885750852
-2.64392914118583
4.20272536478198
10.4090213509025
15.2842457799008
18.7946584207609
21.8020642978544
25.2650954485389
27.9371606532382
28.6639672031596
28.4280641427495
27.6484441489716
25.1331404431191
20.1167568589576
13.4469301699949
7.66423049200326
4.64270704382199
2.59824808506837
-0.529527805365762
-3.886935066015
-7.37506248536127
-11.8535354942425
-15.5817530502696
-17.1990635922686
-19.6141209103738
-25.2555609404146
-31.6879204250443
-35.7685696923332
-36.8046953722043
-34.9552625443746
-31.4273446889705
-28.0165160753155
-25.0151219532438
-23.3901749214535
-25.5486810566253
-30.5485551837937
-33.3909288462167
-30.1259396385208
-21.1660804030853
-9.62755642990421
1.61608826363865
10.3919295809221
16.6536112894346
24.1475118242046
36.160971302211
50.3322182092495
60.8368441645796
64.2163649988292
61.5690347689385
55.6273833883211
47.3271923368844
37.8521831780846
30.8435726581301
28.2236795761856
27.7927956395191
26.3958709905033
21.6597028787528
12.1013503482586
-0.806484682190048
-11.4732515480517
-14.6646209069325
-10.2328355211369
-1.30664315335479
7.85462316196624
12.8936592281074
12.1797665734739
5.23363404744057
-8.87806190091669
-26.5828216105071
-40.6270448178447
-49.3088776498585
-57.1622007691852
-65.5290428800277
-69.0954981056148
-63.6896996602452
-53.012220338767
-43.4810450213827
-36.7445424355791
-31.6353358889131
-27.2345348699202
-20.7388151139266
-8.75824319239146
7.55673540739735
23.2763380307104
35.2642129318561
44.088763388047
51.5818928973758
58.5030979882561
63.9601502546717
65.9307652364788
62.2341559124292
51.2015431464298
33.6799843999535
14.7769202564376
0.36908244383293
-6.72847952324951
-7.6695040489411
-8.30934371585884
-14.9512958695017
-27.6041181334796
-40.5659631150709
-48.3543308623359
-49.8274698443776
-48.087607196142
-47.1734621471821
-47.7133671871044
-46.7082910053267
-42.6998152904216
-36.8910231015148
-29.5599907815682
-21.4652029412394
-15.859897478057
-13.8414952176256
-11.6216785042816
-5.30088529738066
5.28373828095014
18.7180927726766
33.5289157474452
46.1091058054097
53.5511961847082
58.4795119538625
64.4208241696271
70.6739452430181
75.4987123506167
76.7829660558495
69.465551994036
50.9400042104611
26.7600384095143
4.45502941751739
-13.26371886696
-25.6778553477905
-31.9513470168285
-34.2893355674727
-35.8784464092462
-35.2925403038947
-30.1840092930269
-23.5085540894555
-19.0454077047592
-15.3462200433812
-10.0258236534439
-6.50821669472254
-9.87214590404848
-17.0369559449332
-18.7318574432731
-11.1971271796525
-0.0242489865849776
6.97708859125692
8.14364458496479
8.41363434561224
11.2442483096718
14.8742625611739
17.7697642311124
21.2277705315762
26.181334008984
31.7103383960234
35.7403489230642
35.8150871159536
30.9256837577408
21.6290892990566
8.73248601267211
-5.10843962667651
-15.4508672111826
-19.6864480289692
-18.6113083182683
-15.9846143285108
-15.8655717009926
-18.4657731930782
-22.5186580913548
-29.7951234279968
-40.4503653860447
-48.9580351010001
-49.8560530264176
-42.5402843606145
-30.3573891847922
-19.1291000337281
-14.8220842590774
-18.6688606304779
-24.4534632819207
-23.7996494860429
-15.5865511902401
-7.92470803834878
-7.67196809113362
-11.7106641031161
-13.8056072417409
-12.4897793891723
-7.43352311138303
2.02119043741846
13.7637222982738
25.4162935879134
35.6345738697096
41.929151672556
43.0941704951195
41.4785723175904
40.1345702143
39.728674616225
38.7968026425429
36.216025145856
32.2869402909733
27.2053866351896
20.6725601880396
14.1037590625568
9.77457651076772
6.7724156551818
2.6919055484017
-1.2471535943424
-1.43617310625956
4.26095335084258
14.864631304267
25.2308018727302
29.4330024718789
26.053968658748
17.411823773394
6.46051521035491
-4.680500479526
-14.5307904893794
-20.7696848418629
-22.6615658335668
-23.2900347054512
-24.0984428254483
-22.1202251911901
-16.4053675488403
-10.505109478973
-6.93837426259559
-4.96606171175122
-3.50295220181823
-2.83848197123386
-4.84517724497509
-11.4326866796009
-20.7036506875819
-27.6141375330046
-29.8885979563056
-29.0399207929773
-26.7455149451677
-24.2501142843498
-23.035323571125
-22.98576760158
-21.1974867678773
-16.1611622830046
-11.7023677450876
-11.4813916741315
-12.4076434610124
-9.44529224691565
-2.32490262025173
7.61991772631584
20.4942266768676
34.3184418347607
45.4939070426581
53.0051614060687
58.1986668217655
63.0324322600469
68.5826322010105
73.7137612564711
76.8900331970249
76.701570097381
70.1801303378624
55.88516686802
36.9584082682659
18.1498876990742
2.7365184119973
-8.76471667078797
-18.9591797809589
-30.4588681360231
-42.6451677408849
-53.1325745008149
-60.0476413288179
-61.9688736324959
-59.6889205221562
-56.6495597548941
-53.4485495073299
-47.2861017101359
-39.1617261980631
-33.8584652437251
-32.2907674035362
-30.2976244160631
-25.8211749255113
-22.5272044217316
-24.2296751015618
-31.0160772162184
-41.8426539585419
-54.1924242504296
-61.9661732288891
-60.1696645876124
-50.7797192601107
-39.6220540240721
-29.3487393517236
-19.3829034388056
-9.36679057713343
0.576076642558965
9.30015200465788
13.9031295833062
13.2306689636894
11.3337388948436
15.0430445635719
28.7286668254728
50.298909142621
71.2850035446859
82.5169616791514
80.1787802515891
68.2148652415935
54.1427717326772
40.4260852028822
25.3125141860554
10.5255173941356
-0.332096987766661
-6.0132215861338
-5.64445786606323
0.790946259936504
10.4693588330004
20.6720255386006
30.2365867551833
37.5155524578274
41.0276425540375
41.3407743548992
39.8693530684947
36.8812892298894
32.0989705455183
26.0499533140802
19.7451114103968
13.4608351080592
7.2102178523748
2.26341962915393
-1.9122400991621
-10.6872357668354
-26.723362997362
-43.1251955296194
-52.6579769738255
-56.7809128407229
-59.4198871921521
-61.1353479894783
-60.4683294582105
-54.2348985172849
-40.3415500255558
-22.6763454313653
-8.06151089987238
1.16824241264119
7.36156625910296
12.327584950748
15.3255236883028
15.7286094148123
14.8263545825848
12.8364772765113
8.78966134399521
5.17605029888981
5.07126278217469
6.07140229393235
4.31911999986767
-0.203212139615263
-5.53298772894977
-9.77257859966158
-12.4215427427735
-14.4009820853686
-15.5189343468673
-15.8279128019352
-16.8465890565916
-18.5307041406618
-19.5419998284974
-18.885697718006
-15.7001706687519
-10.8799906851896
-6.29044046928036
-1.25775281037677
5.32709836996149
11.3934060834568
14.7622920746259
16.5783624747098
18.8510658099721
21.9996101969878
25.5426665769077
28.9980540376496
32.7776614294681
37.638357113142
42.8696979805614
46.8082008509929
47.724535463678
43.9000265320244
35.6960900158467
25.2498735671929
13.5016448567245
2.50606465243888
-3.77770049656925
-6.06556648477602
-9.88595714315785
-18.3291811865365
-30.6916405017681
-43.5162376144476
-50.4737947087121
-48.026651960195
-39.668598154203
-31.431637663826
-26.56877962156
-23.9930635026611
-21.4289516305066
-19.7876904030332
-20.6257588454478
-22.3899847382695
-23.2975294697394
-22.4698420566165
-17.2682893309341
-7.04413506521706
2.76144934582524
6.99152398003987
7.21469971122324
8.25436924085907
11.987608866889
16.5480432984769
19.4744274537795
20.1577566003551
19.9237551393382
19.9002217406942
20.4463356973432
22.918103829376
27.4616469367955
31.024999620385
32.424153817785
34.9562600456001
40.841634154351
46.7866518890755
48.3172461396188
46.5828209920201
45.1332319869798
43.530980465968
40.8779089806661
38.5207713404889
35.1366726060852
28.0315127134221
18.9325666896603
10.9062361064304
4.99223847168732
2.73857468314715
3.93127149626448
4.3132261103505
1.0852274896318
-3.92420023668083
-8.94575014211484
-16.0657428660786
-27.6619232917993
-42.8398975600084
-60.4613973690748
-81.6403042510262
-106.27871332599
-129.264374024071
-143.017532240054
-143.114095765207
-130.222679263144
-110.288541496428
-91.5043893460687
-75.5978350729089
-57.4343959087287
-35.5282153824582
-13.7355304704441
5.77127281228522
23.1648275283669
37.851818906281
48.9028764386402
57.1579846282964
64.3387806864013
68.9532122005964
66.6069232925813
56.4299781602381
42.5642209397563
29.6427725307601
20.9188914886203
16.1743354973289
10.1310552155913
-0.131345825868746
-8.89341092636216
-10.4363565912123
-7.55600507189735
-4.74520526576145
-1.33419730738983
4.78732565828602
13.4736306378697
22.8172777830767
30.3922720737443
35.2477114258909
38.2363965341244
40.2710321199273
41.6871359664231
41.6601492477525
39.979903453999
38.9880406973906
38.7809774161734
35.670205457168
27.6958337693181
15.6838548702609
2.92488712732733
-4.54029235381565
-4.83066998006151
-3.68580333540851
-4.84932352724886
-5.34530522867349
-3.5800398380668
-2.73155515727927
-4.79897889048919
-7.14609293408431
-6.31638388122028
-3.37358103177205
-3.25951975450402
-8.59360785885299
-16.2073583054998
-20.8715183300171
-20.4327752379236
-16.3761405647193
-11.4727202462152
-7.77200346571701
-5.82918364409911
-5.94602042817255
-8.75236772199907
-13.103072933404
-17.1270791369612
-20.774548083879
-23.3952925264668
-22.3247764236008
-17.596520422438
-15.0372407724792
-19.3309631860069
-25.9001159738879
-25.630550042643
-16.211067279006
-3.79244236943392
5.83019959846473
11.7390279983803
15.1413826631679
18.4675236168642
23.7231022584533
28.8852864775137
30.1554128002273
26.8106313801284
21.1746348686569
15.8802607480218
12.6172089556426
12.7569989222619
16.4032030777985
19.5095818072436
17.3197626124704
11.4796178342752
6.09129675345875
0.836670227961199
-3.57729144166871
-4.07759332490832
-4.00171934308864
-8.58922129289898
-15.5239299316642
-22.089318889026
-30.1835351003396
-38.3913174286887
-42.3917371266078
-41.9314588407021
-38.9247681888207
-34.739928265735
-30.4226478071421
-24.9295250759772
-16.5930189007528
-6.56156252017384
2.75954314256002
10.0222776874805
14.4269981923329
16.2949624863869
17.1213360821556
17.727243213865
17.4585894804931
15.1301007165766
11.8236438798251
11.3961923442943
15.3569495552313
19.8417913459018
21.1905935709438
20.728271188277
20.9879511299318
21.6953069374646
21.1602184331954
19.1104075016059
16.4010168565398
13.3057391318026
10.3871842807539
8.31371386933116
6.56806857544595
4.64991400807823
2.53665948392422
-0.0407347420622556
-3.31904532188337
-6.81405651917809
-8.90038108493084
-8.92064401853045
-9.7638485538954
-14.8005178148588
-24.8464840212057
-39.7006044828631
-56.1086427418102
-66.7261928510778
-66.9501487396237
-58.8387904922703
-47.2536794906
-35.3023156784507
-24.1123194261743
-15.3871411841107
-10.8774051518905
-9.3301946669658
-6.57519759431543
1.67149998137425
15.9449466621355
31.8152384925336
45.8437077269764
59.263310755593
73.4084094406931
86.4945401810655
95.3026619041247
96.5283556994194
87.613125920598
69.3396481679512
45.5585421181767
20.6669582428882
-0.0510450815648703
-12.3146672397089
-16.5311405036466
-15.847313589447
-13.2644242363664
-12.0209504142467
-12.9813394605174
-13.6593773110038
-14.7761120697153
-20.121830781524
-28.3773202519816
-35.1918463406608
-40.0217137670211
-43.1986017048725
-44.0156923972199
-44.0606354285847
-44.3849825210082
-43.3592240339728
-41.218691477023
-39.86282003093
-38.5677067307181
-35.3168166032421
-30.3785681444193
-24.825877583222
-17.9147171819351
-9.71741447368078
-2.40279297473436
4.92785274548744
16.0382337496618
30.3730556095406
44.1438627727587
56.6547203154692
68.0194233899935
74.7210086199929
73.5828286806901
65.8125107715173
54.4578862644757
42.9880564555188
34.5913329032429
29.6352451746588
26.9576290457913
25.1536151022307
21.5939346946289
15.3925794594442
8.8749669195229
3.43653297710054
-1.96195828215112
-9.67007025248859
-21.9898406528182
-36.6563076612312
-47.1541316979728
-51.7530089783561
-55.1623257975802
-58.8388818133049
-59.1354272488802
-55.7336253586663
-52.7585076500842
-52.3896267970223
-52.9533631417069
-51.258335076529
-44.7707498982079
-33.6889504886076
-21.6009526866006
-11.9545711390972
-3.6765224591259
6.43098956137683
17.5027953844556
25.8701231779655
31.6977132684257
38.502145885076
47.2511809772019
55.9702034219642
62.3636416265102
63.9611788638086
60.7029947319017
56.7052909047125
54.2955296182757
51.4529952737822
47.6860477285109
44.7158504678555
40.9670521864987
32.9361027831807
22.3782161051057
15.3701255519757
13.5915946883982
12.247910083377
7.23346841175956
-0.878550311333772
-10.186933871841
-19.5122687033853
-27.7999630454278
-34.5789047189787
-39.9398220740158
-44.0895230180735
-48.0272740884042
-52.6479287766743
-56.7846871897016
-59.52561304114
-62.2438575438639
-65.2274883396068
-66.0776905985084
-63.4609526749491
-59.9801503196371
-58.6619338731305
-57.7577586569091
-52.870490845929
-43.4177875792486
-33.1007523520421
-24.708522681558
-17.6460991582358
-9.21107485387254
3.80426924844609
22.5166219076541
43.56619969197
61.5370905293232
73.6334170119121
80.0681646043634
81.6496581179232
77.7907377862562
67.7483698091156
55.3981518460931
47.2922669026672
44.5897116765845
42.8323516925896
37.7400094557385
28.280403492705
16.6961208226398
5.01423424040096
-7.4300092126988
-20.9231364025748
-33.9862007279621
-45.6310844136448
-54.6512046675609
-59.0364196000194
-59.6159270502092
-59.0415253279154
-56.7303972809312
-51.0487006463328
-42.9239503069693
-34.3190031423254
-26.1936227422668
-17.7746726288943
-8.77581451840923
-1.00232364767988
4.94132409442527
9.78821027504981
12.0067092527574
11.7109517783928
14.3576134552035
22.7864748072756
32.9107488031451
41.4084597199283
48.9353011764553
55.0255588962682
58.0880811507519
58.6428728244201
57.4415881573601
54.436924002946
50.3853811904917
46.7419279533962
44.5747880282058
42.9065720406088
40.1030554718137
37.4060303010194
35.4636167542309
30.9604813001189
22.7895072770572
13.8597718779842
4.52920185851327
-6.45702002203551
-16.7013521048247
-24.1979257045743
-32.1577170338408
-44.1539404308358
-58.9580314554638
-71.849470328929
-78.5236004619921
-79.2658245517232
-78.5610390144335
-78.9023530213704
-77.6068873602408
-69.9414014904008
-53.9145987619409
-32.4843422443236
-10.9143194224703
7.19825332485462
20.1732121387945
27.734247186717
32.0270785675543
36.053272454257
41.1463302175465
47.4672959206433
53.5088010843361
54.9990663880919
49.324781678856
39.0776079544826
28.4960708966235
20.4480230699639
16.6134142591477
16.9671114610727
19.2586236053292
20.3611327900247
19.0307450797142
16.4908967397913
12.8951876057632
5.52669837326776
-6.61328523152791
-20.5035642507352
-34.3129813647859
-47.6486098446145
-56.9698565058097
-59.9163232370422
-59.8093120704169
-59.8659850181256
-59.7366276598308
-58.3963879170968
-54.6060778784919
-47.526747450454
-38.9387837162717
-31.3378912638713
-24.8782508944658
-18.4797673754681
-12.3547288635225
-7.83741203117636
-4.98442603902394
-1.8943073680517
2.07104789150731
5.48649301885925
8.86137656006537
14.6153481083586
23.7838219013404
35.6733437317722
47.8022440667614
57.3136042362228
64.7704651864329
72.5346453242143
79.8296446440867
83.5247229962596
82.2325847470733
78.4022887755785
77.0836950303898
80.8303985382073
86.5623788821881
90.5607250953531
91.9360446162859
88.3307670178606
77.2532827252611
60.5168574863479
40.4205666657377
17.8881480828265
-6.24373295495744
-33.2357383790188
-63.675285959122
-93.2194597482727
-117.622756657599
-136.899038117113
-150.559083725443
-156.553657763744
-156.082372867126
-152.918990344376
-148.727183332646
-142.843919303952
-135.075449280821
-124.439857113231
-107.119001032136
-81.2796820897279
-51.9650185877326
-26.3092592364022
-5.83354181458845
12.6921158143048
32.2188948795195
54.6174137468527
79.2876920540139
101.600982206671
116.910334259264
123.735273661462
124.218337818038
123.045827241241
121.796789175634
118.145813135652
111.929942755814
105.307087953015
98.4252205412412
88.6728222721242
73.9373571457547
55.7947566263874
37.9942013956286
21.9420647453775
5.48719548693439
-12.8847564778794
-31.7992523305327
-50.5814151610229
-69.8823030250193
-88.6454514527117
-105.841582255949
-120.969503916643
-129.621761297417
-127.488599724272
-118.47736052223
-110.254329149063
-105.159130648065
-99.5852255033983
-88.8724903735571
-71.130503277346
-47.5093893532913
-20.8877792659905
5.11336387638536
27.385277016064
45.1892221518466
60.7620363857732
76.7303745656733
93.1380531337547
107.286707724704
115.9822702618
119.204732274639
119.293991011853
115.696698865457
107.06959758887
96.3025403032773
87.1510508829112
80.1580706773759
74.3825314877292
69.416364456351
63.7329207146498
53.1612654325468
34.6016207547236
10.8959640392005
-11.7021135337015
-31.1042317181223
-50.0627436817239
-70.5971780177946
-92.5761032922754
-113.852533335339
-129.183100472039
-133.572882495681
-126.481854811251
-111.544356903935
-94.4933147699159
-79.6289821605221
-66.5730602183167
-52.8321831385034
-38.2813162406151
-24.8843044762768
-14.013912825389
-4.97324235274941
3.44439732573014
9.80655072780296
12.4989213619874
14.5707673932063
20.6108158036155
31.2976432243534
44.8004458338766
60.6147086949523
78.5302116328025
94.093407395747
99.7009936272904
93.3560132221896
82.0441047582799
72.7705730290196
66.1424484450949
61.5024799056958
60.3562519430944
62.9626164889194
65.7693576899241
61.8678237597523
45.8804407198775
20.1409428425386
-8.03827613163725
-34.5318542881161
-58.7126146166984
-80.2474719623471
-100.632369289985
-121.572388110849
-141.250554372575
-156.729015465711
-166.036383409664
-167.747757041196
-162.001314165679
-150.245701643757
-134.03289058099
-114.201296286209
-91.2509976499081
-67.9019745786098
-48.1689757025666
-32.0212981992702
-15.7873119471659
1.13487110367335
16.4099801989021
30.7339552174592
46.0650285583296
61.0017638591478
74.5815132884544
89.2503553312819
105.213140687107
117.675445513869
122.639565655304
121.599882603957
118.036904282195
112.316093069598
103.348675946485
92.1210783685269
81.7687578530598
75.1791302983284
70.8445831816851
61.3925788057257
39.5339487721381
6.8620452951767
-26.7552359400107
-53.1615837495172
-70.0880420635361
-78.786472111265
-82.7052721544496
-83.2884747364096
-77.4381849928355
-64.1471437135976
-47.6229238584878
-30.3845332148874
-11.4564060655948
7.67949460585866
23.0414443738203
33.9766351643563
43.5598364744584
52.770737636357
58.9924854548763
61.3029333391594
61.7809784814199
60.85952181858
57.2718784422212
52.9479032071607
53.4404405864909
63.6414307643241
84.3182889707583
109.794098426143
129.715733279274
137.261693875408
132.929010149581
119.356383848782
98.0433653386131
71.6839811566356
46.2057008992662
27.7866699013476
17.037472990878
8.38092457531825
-4.38948124473774
-23.6821774451291
-46.8510177783951
-66.5091242438545
-76.7719810528579
-81.2644630060446
-89.4412543760012
-106.862320340065
-133.486687355816
-166.053734208104
-197.862094651284
-221.749912988242
-235.09544831585
-237.671264244884
-229.531071705911
-213.541867105707
-192.547995049328
-165.308063988758
-130.677421084273
-92.9073065405777
-59.1199646143928
-33.2041758155384
-14.9657061428149
-3.14833104173236
4.8096896872027
14.1126973347987
28.5988448442688
47.0033120273755
66.8849310931011
87.4574146279709
106.662666789579
121.001077416785
128.069915710088
127.120103864913
118.804563454392
105.692743844006
91.8120786250191
79.9107536603958
70.57634306535
63.2740111698093
54.6961815792698
38.868202106163
12.7429165438309
-20.1422129820809
-53.231586939885
-81.1324607192173
-98.633935941519
-101.732238710164
-91.7132328045085
-73.4874215155647
-52.3438183512485
-33.6632922153452
-19.2249769265301
-5.01331599351202
11.6976244294534
27.5079476813237
38.0924789631288
42.8075398251313
44.6258504621484
49.3470225739395
62.3356055321691
83.1872379908649
102.546838369291
108.462740571939
103.388352952176
105.208210766412
120.160268420666
131.500146640875
125.633752326684
110.795105600799
103.943715412547
111.913219060393
125.87676144909
129.670763173661
114.548136453164
86.3224378809024
58.976923290323
44.1985095063825
48.018249493519
70.8438811203723
104.790952842221
134.863721165155
147.849790349018
141.343479597035
120.977374117103
89.2118322349429
44.2120656991322
-13.4906873212567
-79.2104664443835
-144.075087579102
-199.109920978944
-243.741055100152
-284.234856951264
-324.717227070136
-363.53975848338
-394.378325320896
-410.533845108785
-407.678997709962
-380.88460684447
-324.969690777711
-242.236197224976
-146.646220088954
-56.9574482214844
13.9624324145039
64.4752314570228
101.436421696611
132.298254947423
159.943620031525
183.880881502016
202.961794526916
215.415779585411
218.966447610092
211.350437034702
189.221342762348
149.320156425917
92.378743862529
24.0053461727281
-48.7320846251685
-118.910965693346
-179.273528041933
