0.509878171801815
0.583233273000415
0.65289970258124
0.709338741758217
0.70410015248771
0.657268589486552
0.625419869478052
0.605071546178817
0.553602456845398
0.458410346147301
0.338586264109382
0.247664412138266
0.278275943493276
0.461297775720341
0.67156101715774
0.741058287771318
0.643447011110061
0.480408290914011
0.343972061252583
0.275858966053817
0.276687976151219
0.267896654834848
0.136750645908235
-0.109068058955248
-0.320559960078631
-0.374988238968258
-0.28078331352314
-0.128439853911438
-0.0206921741489224
-0.0182570885384791
-0.0996404555343122
-0.212717530391977
-0.352148547092106
-0.509715002577413
-0.607247339769597
-0.598898023434648
-0.580219085692089
-0.666374527860503
-0.814925303261144
-0.885634722664959
-0.820879533052975
-0.66374027262427
-0.448761631220802
-0.163322783612477
0.196657755509969
0.553691961163658
0.738297664256149
0.63176309509804
0.351671580323103
0.175742403307354
0.228726269212442
0.365594068848946
0.396884748769578
0.29498705188403
0.15267437303023
0.0681778640620659
0.0946465237712744
0.203852444297658
0.29576721693214
0.302038948148945
0.240504373917781
0.144484767046065
0.0386065523426675
-0.0040978088131955
0.075436138483123
0.193558378455322
0.200899303313878
0.0725836671943352
-0.103109220107514
-0.266806330729632
-0.397206256036995
-0.451593245176233
-0.412367339309345
-0.349881331426311
-0.368219462900918
-0.501023192640079
-0.669534919391445
-0.745129820392093
-0.69836953846901
-0.66650482231837
-0.761546348124275
-0.831240585286436
-0.591428983609034
-0.0203629250995831
0.557439476012044
0.814196428752447
0.704169857996839
0.418833120974497
0.204392391372137
0.218400253100073
0.452138989462659
0.763763918834923
0.995811369779541
1.05630337868704
0.945445163509209
0.759930853167891
0.606301736889708
0.455866580047297
0.175251914484391
-0.243203226150056
-0.597166526519234
-0.692910751694154
-0.548711477297949
-0.340861271575089
-0.251594040013946
-0.371610289963359
-0.635493301905324
-0.854633471974986
-0.878297742695481
-0.685870646587105
-0.33360210021048
0.0684362322167099
0.35707906352603
0.460167143982587
0.519140367781617
0.715486671143412
1.01123902455896
1.20009691028062
1.16589023971804
0.964453320165245
0.704210428783155
0.456495579948761
0.244091324308098
0.0526775912066581
-0.117110498052952
-0.215453916619115
-0.214582572105555
-0.174649648876041
-0.187025569817903
-0.301693244106003
-0.51231847277609
-0.726037008142379
-0.781232659089404
-0.611089183864203
-0.344374465511339
-0.139829445345077
-0.0037560747740761
0.117588956024436
0.174568936101968
0.0773059150787319
-0.164616892729965
-0.46785089423006
-0.752323321552903
-0.932033192709111
-0.936886325476436
-0.787564560781558
-0.566473951320948
-0.324840260671984
-0.0844081024243255
0.132053943630192
0.332184845243052
0.535479802190926
0.693087035531833
0.719923858509001
0.612459352224818
0.446101670262125
0.28133797001305
0.153036138829675
0.0916005609524878
0.06776965290353
-0.0141674102641624
-0.195989894888315
-0.404125680160113
-0.530581591895975
-0.49896123224829
-0.294725490459028
-0.0437490264768071
0.0215772376866701
-0.180013062376653
-0.428072668827962
-0.429711784826639
-0.132182289766869
0.265707783143287
0.522980508874629
0.516005281005296
0.281403216450437
-0.018184950128877
-0.190690508229716
-0.116133341739423
0.196657721151661
0.580546450388349
0.768470784760952
0.617569843550602
0.284886393911811
0.0621502372397545
0.0583074806487412
0.155888868741168
0.203654472306157
0.124092487571475
-0.0750297725383577
-0.272912644568362
-0.302178340621371
-0.122100106296711
0.143157363512017
0.348467402658061
0.423963765440059
0.363426963714646
0.232076560783262
0.158129693459241
0.221050209744825
0.371400566584763
0.496862883226845
0.506684654348928
0.362670587682153
0.135178253655457
-0.0027458216604655
0.0435880604972894
0.167865363713873
0.215221720189682
0.160589569542624
0.0588875409795023
-0.0534263383583339
-0.135746787202547
-0.142599782205186
-0.0960208602573576
-0.0711865682796429
-0.109527824596071
-0.220386934437035
-0.423697702646084
-0.710800302239408
-1.01654654199779
-1.28249278141452
-1.48160273510402
-1.57952301359122
-1.57036385273402
-1.51303129554388
-1.41321271021398
-1.14064984496666
-0.597180293457258
0.097849491236178
0.68852296224783
0.993229403032293
1.00594616092774
0.869751435938602
0.759886528270139
0.731002992934738
0.69848417426652
0.591120451342079
0.438481184142494
0.285571600760379
0.140238708245911
0.0250526307487289
-0.0597166644375445
-0.231169599212513
-0.6066742652347
-1.05543945907683
-1.21231540871341
-0.800684066919325
0.0881938468512683
1.01108578047745
1.47531720945194
1.32593843915157
0.855476020269151
0.477387261962055
0.34176468860761
0.337483124212298
0.351676792596485
0.378754041074807
0.443565800785806
0.555514029364875
0.709737829834325
0.859388474795539
0.926108723724161
0.863832344873334
0.668512235474119
0.359733149332196
0.011693454276704
-0.276187191380427
-0.503003466772922
-0.763901127824956
-1.08355926516503
-1.35489690214829
-1.44559152958213
-1.27116138096467
-0.826669472894598
-0.269741371268234
0.114963985743519
0.178496104507884
0.0718461977602206
0.0501944632726259
0.200335450250485
0.4316479678756
0.618699238768347
0.676923459418582
0.588589856253108
0.398733123049182
0.147954408870402
-0.139700392036513
-0.36288293407013
-0.361105711592239
-0.107883100545662
0.217004198999518
0.403206474979205
0.375224476214076
0.186514899239977
-0.0430762558612114
-0.188346040858538
-0.206957858587183
-0.161936000127103
-0.130753491595301
-0.159561068109271
-0.307314390586159
-0.59611162529956
-0.890185965242402
-0.967138707164142
-0.749954811255062
-0.388266874383056
-0.134989223375041
-0.187887541185506
-0.542546819570819
-0.931253167885325
-1.02684700670463
-0.777879956535406
-0.452595953476145
-0.324280436831002
-0.394593583421917
-0.42458608594299
-0.168834726423483
0.394059371313199
1.00331706099881
1.3211499144606
1.23024673883675
0.904152626732904
0.624088162738671
0.585872455731147
0.793885627010039
1.03718743269996
1.05394823171949
0.802727559872579
0.481522824703193
0.254772655410166
0.10013364453829
-0.0608876165986373
-0.230605114508718
-0.351114131385335
-0.343402130173866
-0.152362306971753
0.154536557006373
0.385273580091019
0.406019333325731
0.272490094011764
0.132204130228372
0.0665343658862805
0.0379582293621114
-0.0857990147526219
-0.417063780747222
-0.873892897465261
-1.1964833227979
-1.20721387454722
-0.956628877140459
-0.595072260005181
-0.253461342548666
-0.0544014204526245
-0.0554019070334469
-0.147551372373699
-0.145148975131205
0.011930783616716
0.228923540522077
0.388347425561745
0.436254469945177
0.395532611426015
0.351725137938393
0.37135894381791
0.427840701201898
0.47179818163045
0.518608014734539
0.573136334821329
0.557780507198877
0.427711740050444
0.274071196670677
0.224744040292544
0.310494359504675
0.458290846424371
0.540439646951495
0.442433290678985
0.168140255601849
-0.144331674439149
-0.366919745383539
-0.485685146406351
-0.535193121205249
-0.542020714873287
-0.566703588279402
-0.66647300002936
-0.783263390528785
-0.793580304840354
-0.667733705803203
-0.467318467528662
-0.235449378031667
-0.0030569001654438
0.161160189626392
0.20251231747042
0.136816500291653
0.0238745966310581
-0.0716123722044943
-0.117265138892873
-0.158435121552128
-0.267885646924752
-0.414939077772692
-0.483170576038352
-0.454908144898498
-0.451408144019018
-0.544235996132976
-0.662258993852301
-0.732871205789455
-0.778161887563793
-0.80607594282856
-0.70121856073858
-0.304546095446238
0.376972922690119
1.04839752311555
1.31434633400533
1.08767812199179
0.729407005009448
0.66725257053007
0.958283898013246
1.32427664097629
1.49287003342349
1.38517109139352
1.09637370140724
0.825670281135444
0.734392489382768
0.786045626459959
0.806088514965116
0.717440474162892
0.611607158142257
0.602648449828185
0.710199560725121
0.840279369470719
0.813128627160102
0.491736762008625
-0.0747925421758694
-0.715746033665916
-1.32474115889759
-1.88251524035475
-2.36482283099198
-2.76064323275643
-3.1166904353256
-3.43760862228568
-3.59111031908972
-3.38578234253363
-2.67925899724469
-1.42095857202943
0.232235575841547
1.81154681578638
2.75650860343181
2.84144962516176
2.29941202893264
1.54351950633093
0.875616567737996
0.410276552724745
0.129887139655538
-0.0201694129019151
-0.0604110260096559
0.0015175028374994
0.11910102269054
0.226500854016117
0.269757149243868
0.186037352706743
-0.06578471835732
-0.408389739976322
-0.66784778616705
-0.716631395624995
-0.506564156586134
-0.0125383767739543
0.685527714888391
1.30809556473382
1.55723659178782
1.39024522252796
1.00891568556095
0.64368143596605
0.424915849314951
0.360333577240151
0.35709182248416
0.336361496553821
0.342512667846118
0.457205444764596
0.628371081759205
0.691683082643295
0.549678605501975
0.246763744324896
-0.107564969870978
-0.42021576630966
-0.636263379085456
-0.715031406804542
-0.6047869666722
-0.312985183595374
-0.0153856246689685
0.0428810798698029
-0.180654885242134
-0.474846416976332
-0.632273835030866
-0.633511228168387
-0.576419021320535
-0.561234189985514
-0.639847508219163
-0.7621420059626
-0.793490388080957
-0.668572486419437
-0.474587704597803
-0.318642876060001
-0.198083945251894
-0.0611851185311464
0.0985643717978668
0.252363190125411
0.353772662280128
0.342658027103996
0.214348542895521
0.0574431545237766
-0.039831477853012
-0.0662495108350442
-0.0437439187109813
0.0047631390560348
0.0323303519132073
0.0040204340614365
-0.0491302018530566
-0.0803760922875769
-0.0880679921855445
-0.0694233327963609
0.0062173237270756
0.118110023853229
0.179807108721958
0.149863547052129
0.0633455922607904
-0.0543912530517378
-0.196339825701108
-0.315737604865737
-0.366208598434199
-0.362104606334465
-0.326155396509902
-0.250983961766016
-0.161920400733088
-0.125969551315521
-0.168823667683303
-0.26261496959188
-0.377468707094555
-0.454390916741768
-0.376458560900481
-0.084331225475241
0.309882419249061
0.617659490283927
0.755047406636497
0.777403167238443
0.784625275705563
0.823810159610863
0.844657921348184
0.763805400614621
0.600909075959036
0.483089740532639
0.48831914271606
0.575823115491996
0.675327562398609
0.740756074767211
0.735392958092166
0.666959518169749
0.603471061365312
0.578026593707781
0.536949136976531
0.432201186244012
0.273737680495156
0.0458374361859365
-0.32442774905441
-0.87078584168673
-1.53400807135597
-2.18801972213758
-2.63224931081148
-2.63018642500311
-2.10332476980466
-1.26663351138842
-0.483294007711212
-0.0067898533992695
0.133556524805377
0.103002550841075
0.15348663193151
0.442058778487798
0.891783290102724
1.25711120961995
1.33900299170145
1.14068693132553
0.855508045591989
0.708900256098226
0.753958410107139
0.815405741596811
0.683145243708011
0.332389082123462
-0.0887963425544231
-0.401945561242253
-0.475081092807925
-0.290757684096777
-0.0088253854270932
0.163383695994096
0.198526898365973
0.223924938154892
0.288033722882632
0.302248367024662
0.196431303088471
0.0007123785851676
-0.211063431447968
-0.377994866779482
-0.493766816871346
-0.632978235902763
-0.862302996062785
-1.10669786362512
-1.19339232132694
-1.02638091298889
-0.642896148669526
-0.163248718954686
0.221395953621667
0.31958119199382
0.132097845065602
-0.0931101633941363
-0.0941915172528589
0.152651411061024
0.435848745834108
0.510063809981188
0.300166635810793
-0.0458531953520549
-0.314437414318001
-0.435305730038346
-0.476683505046469
-0.468176254548127
-0.368760469361762
-0.210192085967096
-0.10976693167737
-0.115445886700167
-0.167412361959975
-0.201656955934559
-0.175654956520355
-0.0398184099647534
0.2004841273857
0.432087139577026
0.518348168977795
0.425581774424833
0.273169536979721
0.273908483279714
0.547882695476854
0.948029696224865
1.16092254796774
1.03145753796399
0.703706528734313
0.426204838346182
0.327917287772054
0.381799300510476
0.456584828813958
0.404457002051465
0.202917542398418
-0.0163111910373945
-0.137405214129724
-0.171112634461533
-0.160864503164719
-0.118957349755007
-0.0940331996909417
-0.156165799556589
-0.282682646737671
-0.379999626840725
-0.422889687950775
-0.465611915431974
-0.5303058265359
-0.579913156490857
-0.584644470575776
-0.54957254616861
-0.502118352612075
-0.476281264264675
-0.458516020406202
-0.358597578645973
-0.109093154005622
0.223792694447657
0.477064724608796
0.494339065547254
0.206668061536238
-0.263821298569569
-0.597450417723303
-0.538975428732768
-0.174216182513876
0.174949705717216
0.294791506404171
0.214433961182615
0.0833495573431688
0.046144694363241
0.169087296959407
0.37795330866563
0.517755438263144
0.52241477820606
0.453163152041912
0.371535777938652
0.284478073574777
0.203924630202892
0.155095333789851
0.135104008983821
0.113276319209273
0.0361952931660791
-0.160122892447974
-0.462438023472023
-0.72754812322054
-0.80298406906448
-0.670644165308773
-0.421207916665406
-0.164808719361556
-0.0146646605386187
-0.0424357309180081
-0.174004757496908
-0.225592760424331
-0.0990109024384803
0.133413354010093
0.332597669892756
0.393298025590089
0.291796529749151
0.13265626092454
0.0826582618104774
0.184499040293263
0.312880810524784
0.342827035336576
0.267897098352442
0.157791663794396
0.0928026677768893
0.113076325352594
0.160735944111091
0.122671429396182
-0.0227709964884414
-0.173253128688468
-0.236343845055664
-0.203838072398196
-0.0952559851452123
0.0640561187671044
0.221415361606828
0.342966285684594
0.435294919455433
0.467483159981307
0.38037480620352
0.218144745691232
0.105842302074651
0.0569622292883093
-0.0492070759898685
-0.274940750815239
-0.53864819351726
-0.721530535903197
-0.751842356408457
-0.606978767309583
-0.327854259360672
-0.0164395723147542
0.222726594782363
0.310019123465111
0.195440957017175
-0.0618782044380581
-0.26633825677255
-0.275476411411954
-0.176049445619087
-0.15433245908947
-0.256433999068117
-0.375326739867152
-0.398817984407513
-0.300876495566473
-0.158714033028461
-0.1096009240319
-0.22609901198975
-0.430117405643372
-0.559502906197485
-0.478719252749234
-0.13208805205571
0.394538552285538
0.850839870353144
1.00215447053749
0.866620902630742
0.664452792027014
0.547365811263145
0.494388411458775
0.429178636157938
0.319308718489561
0.196148194035837
0.140594597309333
0.19472348815334
0.285326658229789
0.317294681295471
0.299656863377168
0.277807312359203
0.218254869983973
0.0828515181752454
-0.06168363012045
-0.124083049966047
-0.105327730119369
-0.0563136449564361
-0.008419963739423
0.0042831231863777
-0.044768327179113
-0.117948337141252
-0.153746991850476
-0.14512324699859
-0.121066576633914
-0.126669026788522
-0.251618672772541
-0.551512125108892
-0.925370959918281
-1.2117484485599
-1.38817567964314
-1.52043039168864
-1.55768117771595
-1.36139021387431
-0.929051022410094
-0.436802578565437
-0.0376474184700472
0.30215194704961
0.74402337408919
1.35055235121785
1.90855547272718
2.06031129638659
1.68197937910976
1.03580160225137
0.474739081661561
0.11757993001832
-0.123312608217049
-0.341577220234761
-0.542983781320215
-0.651888121769673
-0.574286232542595
-0.310462894849342
0.0204528606907346
0.308170335019865
0.530417092100598
0.66914484736495
0.660180781206255
0.488673636043552
0.243673383276048
0.0357803596230961
-0.0744712055813557
-0.0891546861475502
-0.0921335728282957
-0.188050220795856
-0.335425217662217
-0.3316785308039
-0.0439335701121477
0.430547582424573
0.865117821708384
1.07256503581851
0.989780273651894
0.704891377166821
0.389762129927685
0.148875539056695
-0.0160975155403613
-0.0968490193937285
-0.0837673235063779
-0.104176006510449
-0.362467658815686
-0.868056576962878
-1.3734998319077
-1.63641209353239
-1.63230204700223
-1.51400944692886
-1.46399285873125
-1.54769881717426
-1.62355597053068
-1.44017542149742
-0.874416625548688
-0.0478104748915162
0.767397794665265
1.30690049729519
1.44780801160402
1.2764919663395
0.994994344525169
0.728266578055933
0.484741300172496
0.293836203884412
0.240849053849044
0.332024390346764
0.451413645414941
0.488236837950913
0.426694639207666
0.324650229759339
0.267015757502894
0.291088505791393
0.322286386156544
0.256623531720016
0.10654717549151
-0.0251834264620274
-0.0873972686513578
-0.100154063675496
-0.0804111087863919
-0.0449504657302017
-0.0406130872950461
-0.0884806585445966
-0.135958717522226
-0.117321273249332
-0.0270288784841767
0.0811286919376946
0.129110081997975
0.073339893552041
-0.0316164525679968
-0.0825398470032651
-0.0606973089879586
-0.0265445641087701
0.0097679771186179
0.0846723112219582
0.164181406923448
0.16500870404879
0.0759393952875192
-0.0433416496158433
-0.142924427419983
-0.18923858834866
-0.162268855280263
-0.105842664799642
-0.0988804354862109
-0.144010722477097
-0.181407231015024
-0.209230579125665
-0.265989016930666
-0.324971930397711
-0.350428093768156
-0.407483127245649
-0.566258087793601
-0.744297400170418
-0.763113342514892
-0.529376635852279
-0.116715013075051
0.282224360354222
0.490124836060701
0.490477837756075
0.415665718443864
0.369039160146774
0.340070639760974
0.31232876645467
0.322809153654149
0.365241845902374
0.362012664972619
0.281321365251649
0.174699338475776
0.0842274602133924
0.017126667455251
-0.0032159860144203
0.0445529780857765
0.141921663958149
0.264355437796367
0.391987114148966
0.467585278309134
0.429234518238102
0.292482500076303
0.130067677753539
-0.0083820762833278
-0.102855200682819
-0.143959984400926
-0.157850293807106
-0.187051354100619
-0.219242086228366
-0.20742415896225
-0.150061083757653
-0.0621281897968012
0.0813822077814424
0.266388573187075
0.382475214324316
0.341550213058807
0.157966704621219
-0.135222242409142
-0.502169597017429
-0.807259533108359
-0.873658717904209
-0.683881461523426
-0.405650854576124
-0.213395225785547
-0.16601988252149
-0.224671643981664
-0.3150119852921
-0.401806109558194
-0.52637302277347
-0.716945392948617
-0.880205687062433
-0.870113936962434
-0.640616226299251
-0.261111306719076
0.155169040116412
0.480670520855894
0.626517684941645
0.61459263270228
0.523611439111447
0.393316017507581
0.276833820448402
0.293181103230095
0.48321821578038
0.702185495756557
0.788174924649896
0.743588130253411
0.650276466717426
0.535004747073886
0.419976834859776
0.371557291551749
0.40167786099503
0.425139618625114
0.364757265565412
0.218129523026788
0.0303049383251374
-0.130117929208889
-0.212879951633439
-0.245691407488327
-0.29321651435088
-0.367544354366169
-0.453632770264686
-0.56235719539314
-0.662114723108305
-0.641064164989436
-0.447032749677197
-0.193120515308918
-0.0348452727272078
-0.0030653595450267
-0.0039982860232973
0.0858239527283441
0.32710274510415
0.62838284898308
0.775057760623281
0.643579039528963
0.335749439178865
0.0285027894602334
-0.206581973725865
-0.362956535567294
-0.407682131721352
-0.317004112810691
-0.121376666434603
0.120385416653531
0.331631443552704
0.422205626996939
0.354589511859687
0.190150659620737
0.0374699994831353
-0.0124773094357216
0.0772616912171923
0.226380929832225
0.243118721803384
0.015475094036015
-0.332445396005514
-0.578254277759065
-0.636856439181984
-0.583059009670238
-0.542601604468754
-0.626755595934681
-0.856773906333972
-1.09057799950252
-1.10359212076441
-0.76812261255167
-0.140151437754345
0.554077909239997
0.993193871216225
0.956905420578074
0.519691827259878
-0.0312360594520005
-0.46779473179049
-0.710620396035327
-0.729831579468967
-0.551411222489055
-0.31921500835259
-0.169980830188873
-0.0802732231495034
0.0477874811821261
0.232458392103467
0.428674901981708
0.591553800182942
0.668214759267809
0.626467210832811
0.507388599300862
0.36967907224961
0.218643492234539
0.0667188327514732
-0.0078723949401167
0.0514221902513124
0.198385307355004
0.346250437592871
0.444024059045995
0.477895195668265
0.477889337248868
0.505857836237548
0.568447792765681
0.607267389847716
0.621891360728629
0.677247613177109
0.750287656736213
0.730077666215956
0.601128218110616
0.458862380023707
0.325199673300314
0.110057725434608
-0.22621445537641
-0.596939223830077
-0.882693877062599
-1.02639046913838
-1.06008490121855
-1.08227859237769
-1.16777179086908
-1.2877907905375
-1.35830956790476
-1.32251770847512
-1.13753278170202
-0.77514123527556
-0.29768911742469
0.170210062533544
0.570724100787458
0.892304431170353
1.04717178863441
0.937970430890002
0.635277728051989
0.345728981635114
0.215834583403714
0.247111306216393
0.338811847608208
0.347279943111787
0.190846501079408
-0.0513610931190008
-0.2246599057621
-0.277819518452733
-0.257352460989684
-0.183397618668749
-0.0747048237567738
-0.0278577336550886
-0.107337361982658
-0.188580021888697
-0.0368465155434463
0.436465095396497
1.01736065887983
1.3104678788982
1.08835418240295
0.537897866310736
0.0705791434723399
-0.11247920081404
-0.141655261942994
-0.184265119433224
-0.226356409114992
-0.199590818091849
-0.151219170135946
-0.197888887117744
-0.401150432381674
-0.722380919057368
-1.04175242710141
-1.23934157204294
-1.30135895809648
-1.3114919881614
-1.3377531940659
-1.37987131739393
-1.38190678915853
-1.23806549897489
-0.879231531036221
-0.41948838391566
-0.0899920934519956
0.0487414713268705
0.194523067157578
0.530303133251896
0.991002250969517
1.36118654622572
1.49159850024284
1.39152725729552
1.20532126882087
1.09211324636559
1.07181131097064
1.05760430823598
1.05076536176218
1.13917142421815
1.28161442161242
1.29631745826181
1.10365083523776
0.806451696695422
0.515106727631798
0.244995908585849
-0.0113127813974704
-0.227443627634301
-0.360686483474517
-0.380223994479409
-0.314078559714946
-0.265359431170838
-0.304892774198451
-0.374637816737039
-0.385455547344907
-0.345158673952361
-0.295477509943622
-0.225298954535621
-0.145508904861389
-0.132897330623012
-0.21552665747233
-0.3256468717537
-0.410344990917913
-0.477043888821538
-0.516719280263928
-0.494442175676722
-0.430461165509874
-0.418322362388393
-0.557090599880392
-0.872007461314635
-1.24686295043242
-1.44377286331417
-1.29218226273436
-0.871651632508676
-0.42907386332766
-0.132420673673719
0.0326908375126803
0.177290027592195
0.366153613643517
0.5014376912762
0.378645976972566
-0.0300639552821129
-0.415575153620668
-0.407089431777089
0.0435868486678412
0.662362693223826
1.14004670739821
1.3094737271177
1.15936055298575
0.824331251652547
0.513120458837985
0.353780538791183
0.324978823928992
0.332601334675814
0.286749528378485
0.137194170992652
-0.0776979766616988
-0.248363546895661
-0.31340942776076
-0.30790094481036
-0.282118989658433
-0.255324542598887
-0.241024766206466
-0.239153939053251
-0.231909361907298
-0.234215952045676
-0.27900667953591
-0.322169952695198
-0.262862824415252
-0.083843163700434
0.137059501633986
0.358171456812141
0.590102853030728
0.793292162752094
0.897028586487606
0.904515429740588
0.867449640491622
0.800764429073498
0.705598415387853
0.6073660534913
0.519319029188853
0.43512755359901
0.350457950737239
0.224709398465221
-0.0129071489330643
-0.340999382932235
-0.618792694082044
-0.747725242797676
-0.760133356648456
-0.714276872702437
-0.633368833576944
-0.568781703392799
-0.568941543655403
-0.566458880817294
-0.449230209496756
-0.256586886903478
-0.174893744828955
-0.331997935064512
-0.664130871924608
-0.954508604836772
-0.992629420172092
-0.776965449854432
-0.549554118120336
-0.540656654264565
-0.715169202558699
-0.842724596532555
-0.732995913172437
-0.32716564922322
0.312799543665306
0.981257724200124
1.38875220501828
1.36855354399916
1.00526519299738
0.543124160344115
0.216871139227766
0.135076252259248
0.242108001237337
0.411143065204377
0.586680365629231
0.757804210752272
0.826247532772968
0.660126107405317
0.278870904460906
-0.14862818813982
-0.480153841323664
-0.685089351181237
-0.799379927627729
-0.861609354596422
-0.840102733114288
-0.617685010275623
-0.155945744193418
0.340321558155837
0.577550685856705
0.498623396911344
0.323290305219606
0.287699618000199
0.453153539547608
0.704653575611972
0.832375437976704
0.690860709620696
0.352147806824189
0.0367190227135225
-0.112477842542789
-0.114764455755561
-0.0710457298781187
-0.102277871158556
-0.295338055695106
-0.600906416217555
-0.83923506321032
-0.866194131625937
-0.667545273927257
-0.295450656609766
0.161593627834314
0.558652111654138
0.782806405087177
0.842396972053978
0.777752637176823
0.576655535568501
0.272091627975047
0.0045605506811397
-0.101082039448171
-0.0406759172329757
0.089025399109852
0.130023478611913
-0.0467787182955018
-0.370904317823987
-0.560199664965333
-0.387707160720847
0.0825509108095054
0.564954751037736
0.790220080403742
0.682356209171721
0.397944862364067
0.176863609613818
0.0885004656707241
-0.0041782606026976
-0.191498724726899
-0.385407464459445
-0.498153893184904
-0.565740722839044
-0.630075386672705
-0.673147675085846
-0.706749383590558
-0.771520559094796
-0.834378956741178
-0.817101860727344
-0.727518400994037
-0.674331846712317
-0.751850892868278
-0.924913923384805
-0.999794305049391
-0.767343664870303
-0.267187549295356
0.168560729193588
0.251684244745306
0.0229403734072727
-0.298288438082541
-0.587056883104484
-0.791439158653221
-0.792185991558138
-0.462402341559672
0.172450929142503
0.906712315190908
1.47978273509934
1.75569202196574
1.80609074889927
1.77246498739753
1.65714672727989
1.34644445683035
0.829097687944208
0.265909626674314
-0.163584620209341
-0.377473382973076
-0.380004821881603
-0.246767665510041
-0.086434063484266
0.0680258470071063
0.267245483621562
0.5026914281143
0.673356760456063
0.731988148116312
0.741013820694722
0.761947591449476
0.786130817958641
0.75736461277677
0.595903228544684
0.267868689382227
-0.112536825670145
-0.354984106049172
-0.432311862147793
-0.546674533155882
-0.906286259193831
-1.51639869271572
-2.18117278138717
-2.60987072887801
-2.56687534315079
-2.04460877627533
-1.27620777448778
-0.543274012619946
-0.0327019231888537
0.169899481207897
0.123026989446087
0.0611537723463387
0.221196588183789
0.607271715908363
0.9824995224717
1.05452415853274
0.666769327541127
-0.0652775443965325
-0.767307111062342
-1.07439123568557
-0.92545334463547
-0.521960619095875
-0.0485091653700199
0.449872932487769
0.993487134220173
1.61436435061819
2.31451905393332
2.98000150529901
3.41262197806445
3.50428459320369
3.30967840381008
2.9536763425068
2.55221666292219
2.18248359602792
1.83666583824569
1.43864226829505
0.953620697013742
0.421446612552315
-0.130305612375265
-0.703784069707464
-1.24441963090559
-1.64298318947864
-1.84328038012014
-1.87859717685034
-1.82885695062901
-1.80006480633044
-1.88357032585333
-2.08553941022374
-2.35288848025908
-2.65688281372999
-2.97444268673034
-3.24721096111055
-3.45276640651661
-3.63210629691653
-3.75862466853636
-3.6868510128626
-3.32577278205284
-2.77125703959151
-2.1898878260847
-1.64067673478478
-1.05180393731476
-0.325545163136391
0.517421699118107
1.25559767051015
1.60810733528579
1.52603117099913
1.26215134493976
1.12649318251918
1.27387600394012
1.68156349136928
2.14974179679197
2.36136720248443
2.15118496849587
1.72707400823581
1.49147967323077
1.65062172060828
2.05714065559344
2.36208303899108
2.27748048239447
1.80711459571874
1.28083691079523
1.0679157972667
1.22731701809053
1.50292046042275
1.60993237693879
1.44204096833116
1.08971034232896
0.756186687112132
0.588204822068233
0.547868933540188
0.509769302306024
0.436825695800585
0.363026247995969
0.280545160582577
0.159520151827244
0.0146464950673212
-0.129389302288903
-0.26799328933943
-0.367128002353057
-0.37265671739104
-0.300607724440395
-0.237205385041914
-0.249322074074388
-0.366825438107558
-0.607963331470609
-0.94254614679957
-1.28997121470422
-1.60697733325972
-1.90203572123556
-2.15409395833077
-2.31699095906166
-2.38495004893801
-2.34697390024618
-2.11226582101192
-1.57809233294588
-0.740085315905961
0.302492349895442
1.36563694420726
2.17454963484917
2.46451001289451
2.16705105054219
1.45267656205311
0.598391079663925
-0.139182666349206
-0.60574694452367
-0.81580353760292
-0.898121129447721
-0.940266406456754
-0.95544197136992
-0.9732946222721
-1.03923474767048
-1.14783045681161
-1.27587075802363
-1.42680047531383
-1.55746475745767
-1.52875177505634
-1.20778240904346
-0.595775073566447
0.132378022155662
0.660839049496111
0.6896339782562
0.208156172171648
-0.420140317351809
-0.769072266047411
-0.717581158399207
-0.453336175232413
-0.221279818251524
-0.147898161357769
-0.199673564015785
-0.217332613895303
-0.0283554939409457
0.443092302701488
1.1503826550383
1.91588649845536
2.44934211108758
2.52818166640857
2.21743733154071
1.80749701584235
1.52949816281548
1.44295264563019
1.54166255164097
1.7752524097355
1.98442404843621
1.99634077809165
1.79039812203451
1.47581418514221
1.16828579822418
0.950751796659567
0.841390716672378
0.74408560618623
0.541889839198553
0.269101565099008
0.101568397797717
0.178754308947611
0.490002585381952
0.891702137987608
1.19280340830411
1.28174439531132
1.19726441847136
1.02273505854148
0.732219378171943
0.228908607023063
-0.486940785008787
-1.27181417800667
-1.93104947281735
-2.31888190741817
-2.42954184361213
-2.42010293113301
-2.45243695950169
-2.52046308653571
-2.52616743248361
-2.4610087578832
-2.39719748287792
-2.38861761321265
-2.49799958105661
-2.81452687003666
-3.31029252827168
-3.75956281198291
-3.91826050576712
-3.74745001030287
-3.41621501305071
-3.13625784276123
-2.9956786968262
-2.89704355049526
-2.68532292621566
-2.36382982099176
-2.08990445812281
-1.92497905334498
-1.70704700995425
-1.19936015861598
-0.275812098169437
0.999237319689354
2.35494132254537
3.42618201592683
4.00187473040775
4.14939256983914
4.0675292560632
3.90289340089299
3.74011259279458
3.65543881321456
3.70587787524373
3.89850562217569
4.15802440855845
4.30022671756017
4.14252257359882
3.72502605505837
3.32517631672795
3.18068541913285
3.27973009528142
3.43457806315592
3.44749401647137
3.20982853599807
2.7604323900677
2.26324191964631
1.86821499568896
1.60086648596358
1.38794386444657
1.12944895356156
0.753342102295543
0.279612709976079
-0.183990496580799
-0.572575360228447
-0.927607923611292
-1.26563853951255
-1.49743817480096
-1.5624527110951
-1.52163569971226
-1.45072180633371
-1.36967165813015
-1.31634842183318
-1.36893266927067
-1.57619375286867
-1.93455570194346
-2.39117468887867
-2.81952514788992
-3.07563490427934
-3.13075457711745
-3.08063964899715
-3.02036423563327
-2.99235276114706
-3.02326602559415
-3.09939836958373
-3.13422268772882
-3.04948886188412
-2.84209004688218
-2.52875247585065
-2.13402680818913
-1.77736915711646
-1.64174539303403
-1.7980927319203
-2.1376696506379
-2.47686701309127
-2.6720607446848
-2.68085884201968
-2.55924856254294
-2.33611865251345
-1.89267723424442
-1.09491606576956
-0.0600074257274048
0.859080841718522
1.39679774981448
1.57261307502035
1.56749205539153
1.53273695307478
1.53783330663172
1.61825723569174
1.83790006823437
2.26820666777124
2.84981941784527
3.34427518972402
3.53490136571358
3.42406484016818
3.16129956044738
2.88287240154927
2.69243691719328
2.65293316872951
2.6848534312399
2.57780800011149
2.20440144326966
1.67081136868894
1.22211554756217
1.0516128920216
1.18343236730295
1.4578178392401
1.63840847573123
1.58037538030307
1.28642226865795
0.850234154087106
0.438907745370514
0.249410406633374
0.31326291406942
0.381438042036876
0.149790849150643
-0.423408671082744
-1.11682217388915
-1.71224785702907
-2.17928988423857
-2.62401873569058
-3.09404124733166
-3.43107218809044
-3.36809750956352
-2.82270667539901
-2.01534329374259
-1.23992088596449
-0.626482092468105
-0.167169461074821
0.192115623483898
0.541297275409713
0.923798719425713
1.23306540927369
1.33794143383473
1.30685630710701
1.37347115802628
1.68492485916518
2.15175891585584
2.50701511841736
2.50510157373482
2.16097246370335
1.79016457800219
1.69103286632267
1.80761228653803
1.84045820047131
1.63492691859518
1.28045388865466
0.868925699420191
0.359997469323735
-0.283977690625614
-0.963165560993749
-1.50713308606297
-1.84565486686709
-2.04994495416266
-2.16165538417996
-2.06182173987937
-1.65064213617645
-1.11362175039731
-0.821527936373108
-0.94626469738031
-1.30662832976464
-1.57427236318381
-1.50876936297612
-1.06175218627771
-0.426046293024904
0.0524456789959031
0.151833696754234
-0.0707249503871971
-0.465877285904643
-1.02243538430154
-1.8305655068878
-2.91109882657115
-4.13109711142692
-5.22809055114445
-5.93706229243012
-6.15862741433231
-5.97293061388268
-5.4781480862086
-4.70337125390416
-3.689644439253
-2.54745064518325
-1.40899651739223
-0.400028815646473
0.353865329218655
0.782483625823393
0.938117518983923
0.97928244603944
1.11675864634707
1.52614877832026
2.16925618637645
2.72854803795467
2.90729080875825
2.79801324150249
2.78819492956002
3.11158845292349
3.63117788324212
4.03419259042719
4.12984987647465
4.00178619635943
3.95278997593205
4.24151908258473
4.80230439123924
5.26537074814352
5.28933215744727
4.86141283947148
4.3100637045433
4.04191921493601
4.16455328119772
4.32881806741274
4.06347519654562
3.29154377808123
2.40345399531718
1.85614704162793
1.8270111773202
2.16785206251077
2.5238582891824
2.55657551367311
2.18159625600922
1.55538197771533
0.813495830185123
-0.0605515535798224
-1.10292683534136
-2.26383448318221
-3.46400946126908
-4.6382744563436
-5.72249928778545
-6.6880179727235
-7.55300404841664
-8.28975682100237
-8.7771486390806
-8.88876774495615
-8.58279583243843
-7.92463752698117
-7.07393588916547
-6.18419818363162
-5.26077405263472
-4.20257044565911
-3.01766932899686
-1.89859706101754
-1.07193106575693
-0.65751752442823
-0.608193640344384
-0.643150994180932
-0.339795787503103
0.477003596701154
1.46244853798605
2.05260625016611
2.01788768042424
1.61386988208255
1.28188356147245
1.30900317635014
1.66921842413709
2.08384728927444
2.29042753996632
2.2885538892132
2.28712815676727
2.45888138285778
2.82280806505424
3.30644169305265
3.81340240119618
4.23481333261416
4.46308022169687
4.43269779543522
4.18440159211843
3.9034836758675
3.8215254234404
4.02518888126586
4.41404527565996
4.83935364907117
5.16778206682932
5.24124787560408
4.95882036416074
4.39835824271362
3.69946403723323
2.85289826642683
1.74667695748696
0.376715970928259
-1.09911709968634
-2.46117308271729
-3.52019901501151
-4.20491014721279
-4.62274179758752
-4.96540932051686
-5.33824957755927
-5.73764989045494
-6.13742709863608
-6.499678194708
-6.75325946427248
-6.82934681341281
-6.66713877569555
-6.19810427209418
-5.42682245600179
-4.48830201033572
-3.53214711053484
-2.63675058263494
-1.90871488932468
-1.50315644712931
-1.41928104459486
-1.39872906981165
-1.13563269210334
-0.521472280509541
0.337741770735805
1.24868796010758
2.06757649408262
2.79088978922075
3.48894684954716
4.11476285319948
4.49252538473161
4.55871177873865
4.46370479125663
4.33795720679916
4.08126584904502
3.47933777117146
2.48587258610378
1.3736191011966
0.59985477188989
0.425332701720474
0.634903832959634
0.747132007309522
0.522348306915862
0.140676781504123
-0.115672718562528
-0.188805024300477
-0.228115751738081
-0.386241903570254
-0.665521573515882
-0.90645296001075
-0.960178893078824
-0.88418997584267
-0.852112677256518
-0.870313957823302
-0.758730438284721
-0.430948004139904
-0.0202022299951345
0.303462519762546
0.515997807496393
0.721295524376885
1.02157492209725
1.40699858873123
1.7560912707507
1.96101134502854
2.01977091603724
1.97239775707368
1.83813238208046
1.692659299369
1.68396042199934
1.84504915107246
1.9911893121601
1.91479433205555
1.59507155682026
1.15150550810447
0.691708390415053
0.243989206678648
-0.244911993017845
-0.848731284176067
-1.53600730831799
-2.13919591254044
-2.50354047278741
-2.63318644180351
-2.67813515917135
-2.83243565969541
-3.22006063255944
-3.77789840943808
-4.25371195281337
-4.38982107629925
-4.06239427167218
-3.19866512425067
-1.72959464067703
0.198850912757009
2.05634446303699
3.15171185788607
3.09747476567927
2.10894648841459
0.886228016796382
0.111911202410018
-0.0338593880518837
0.142179698032336
0.273951282732981
0.200270451066459
-0.109453399808916
-0.590677189209026
-0.980955873292629
-0.947879413344279
-0.476183046704589
0.0111333618286539
0.0419177326959431
-0.44709594282161
-1.08816651913765
-1.4816375311643
-1.56799575010812
-1.55514616317832
-1.51882136897777
-1.2789841434385
-0.772527651716105
-0.327238844867762
-0.348840686665334
-0.84370006475193
-1.41479659091341
-1.65451778132542
-1.44684120522522
-0.98393054381902
-0.578703111272438
-0.398410422439478
-0.340337871151722
-0.200331869457701
0.0896480582079255
0.458050429977322
0.843142203525228
1.26981750266596
1.84176009523795
2.6544194465931
3.60898092128903
4.36335222033023
4.62222293571711
4.44672213185775
4.16616047617816
4.03716316682842
4.06823799089798
4.09819315375037
3.95983213578771
3.60872069823992
3.14127642505054
2.68665281637005
2.30741448068345
2.00160545393979
1.7049523708258
1.28264102447643
0.671236128782056
0.0554972443508653
-0.279127928006208
-0.320309775101314
-0.392356542606556
-0.799575887725589
-1.51267437428819
-2.20751688827883
-2.54032590854246
-2.42494796417048
-2.10122657677988
-1.91053860297002
-2.02089681188711
-2.41675866320367
-3.0511642046557
-3.84807882469358
-4.62283528495517
-5.19034549725218
-5.54046364684825
-5.78108105865823
-5.9483135930835
-5.96159796792718
-5.697225677622
-5.04459053866156
-3.97209830663793
-2.59865689042001
-1.18403625763343
-0.0521417201278942
0.52339226961748
0.493262743714821
0.127832319304262
-0.159965466404576
-0.11422792678046
0.278318305600476
0.915683155291404
1.67157862550986
2.4191187338786
3.0931404907769
3.71354010498683
4.29695913530431
4.79762083980404
5.13920135773768
5.22593630220543
4.97359151400502
4.44680981992262
3.88684803726409
3.47320068159713
3.14736760181809
2.77788272431856
2.3771642352872
2.04698751139752
1.82581166380865
1.68950921650372
1.6168628967523
1.58708378707885
1.56717847853311
1.51916216015406
1.39285957205398
1.16362872246413
0.897741592534687
0.671614524356406
0.415114873460935
-0.0121308982558808
-0.5913931242161
-1.16739664523369
-1.67635894207863
-2.16823279239821
-2.63678961909635
-3.00354927743848
-3.25491476890137
-3.47666068530789
-3.76484967875383
-4.14887753876237
-4.57009560068482
-4.940264992868
-5.2559961253617
-5.58226295284314
-5.86448659248789
-5.89408356456667
-5.57210783209095
-5.0680922807283
-4.5932942703203
-4.13072965095133
-3.47789567618785
-2.462965841389
-1.08485455799323
0.475402501917215
1.96876200619551
3.23058033305812
4.19161149408387
4.79234856861607
5.03102066995989
5.08104173489354
5.19312578539326
5.44871674906395
5.70415295061826
5.74282852295214
5.38605528839357
4.54462755614256
3.31486494951171
1.99662396504284
0.932753023828967
0.335607494180131
0.220101979839806
0.406537195269129
0.644219543305168
0.828911933862485
1.02199318832763
1.20674058047174
1.18851284587764
0.832119770272752
0.258242666857099
-0.286426173398153
-0.659703863627787
-0.892670818351932
-1.12287545652711
-1.46293757553603
-1.8655068396034
-2.16114793653878
-2.27675491486626
-2.3101245643321
-2.3345354229884
-2.27006676818875
-2.02306459861977
-1.64054620259193
-1.26997349402018
-1.03079979766446
-0.927593416916533
-0.841415077665267
-0.632403826915374
-0.285606598027365
0.066408846390397
0.26396713087264
0.242575285588208
0.07757461155536
-0.0604276379926328
-0.0456369998468871
0.108979490870941
0.384416311259602
0.909564764942702
1.75574629842689
2.5939403808508
2.85086988994411
2.3081299682462
1.3594801411888
0.600894363325462
0.286547029315204
0.221232868233839
0.108952957437086
-0.0377070493153506
0.120576646359055
0.821137505876573
1.8508400654614
2.75305000071626
3.29895700987171
3.58708962362098
3.73782117938827
3.69181105784791
3.3306011314175
2.6562017433214
1.79225150145409
0.843530500583266
-0.207424732547198
-1.42031786202043
-2.72806162130357
-3.96311286256509
-5.07788265588455
-6.19444361783642
-7.38748902440234
-8.55502921761186
-9.53175856639938
-10.1866396671457
-10.4000976003987
-10.1057451535626
-9.37764399473434
-8.35045012712364
-7.0650846407467
-5.50757101608308
-3.75025431919526
-1.93221526260567
-0.142918580339611
1.60318452519253
3.33091452907854
5.03440184224528
6.54452410829964
7.54709720481904
7.91721181785535
7.98278716160346
8.26477158242644
8.96086745088986
9.79884733349747
10.352472436692
10.3940708068603
9.98469139172137
9.33717066052675
8.61886646639072
7.86763352186496
7.07672325918397
6.28400311215499
5.51114085633638
4.65768415768326
3.51736438241638
1.91331555320396
-0.128459865866306
-2.29503113314849
-4.17005645158759
-5.59056595230671
-6.74289422057561
-7.8493099158548
-8.8781057599014
-9.63915843412354
-10.0633158824949
-10.3022246600498
-10.5848407357607
-10.9860294489165
-11.3126623831008
-11.2705460948809
-10.7785533561928
-10.0225174246097
-9.17069532364166
-8.1916234701558
-7.00268928630737
-5.62082039946662
-4.09074611632939
-2.40209875098939
-0.549884958785368
1.3673301185883
3.115689861699
4.43893899736785
5.3296245355171
6.15786201319978
7.33927032979719
8.84943409548051
10.2197087160944
11.0187014677923
11.2124128240164
11.0952046993008
11.0083450558784
11.0794921955107
11.1253158426118
10.8605144453561
10.2419803567731
9.5096198549945
8.89764381989569
8.43960481247853
8.0215194019821
7.47995275900444
6.67704850720877
5.5854618050037
4.28103277820526
2.84995880253383
1.40137599612928
0.147315326787612
-0.703707490741603
-1.17641238752427
-1.5379303894118
-2.06744076222626
-2.91552750649911
-4.16735498576391
-5.90637735967807
-8.13809341128622
-10.6384110101178
-12.9182030165571
-14.4856970138079
-15.2379211133611
-15.47419391005
-15.4460681727641
-15.0686988021702
-14.1941311622736
-12.998363591781
-11.9342070173047
-11.3473533727132
-11.1637578166505
-10.8745432588262
-9.8715678176709
-7.95604071714101
-5.53890885935575
-3.27416005677409
-1.53492331781888
-0.23864219576794
1.0147069994435
2.69158906067194
4.95223148323394
7.37255295070916
9.2120910735243
10.0994669579364
10.3611628448323
10.5954528714416
10.9845766040659
11.1162779181201
10.5438474284386
9.49812145990905
8.87257743518331
9.37039045041131
10.7909419046369
12.295627736738
13.1863609911727
13.1986346742492
12.248917623796
10.2950259232485
7.48018816874916
4.20855171100781
1.01796949917387
-1.63281026725929
-3.5739813919621
-4.98425000893701
-6.19214989729598
-7.42359559031775
-8.74401616733938
-10.106753753731
-11.346700148605
-12.2046566029739
-12.4619203978805
-12.0556676792395
-11.0893989438758
-9.79518493274165
-8.43885849158638
-7.15510381516607
-5.88441286981355
-4.52527067954165
-3.10703984135693
-1.77663472938704
-0.65070924043547
0.326301399678063
1.397177970603
2.78974345073294
4.47742120849068
6.26227776962246
8.09536126089218
10.097783709216
12.1740447620269
13.787161801573
14.2658267048703
13.299798187711
11.1396332076356
8.43871656828016
5.94211173608628
4.20641872389572
3.45530345285345
3.55624950181354
4.07193763379878
4.47429491394247
4.50984110377859
4.34945280610725
4.29700167770357
4.43634659618385
4.60942409733724
4.545031738881
3.8925627729038
2.3199624824431
-0.22652158605524
-3.36981299901455
-6.44036902239956
-8.78081531537237
-10.0723569471226
-10.5469598229566
-10.8438130247644
-11.5107640237911
-12.6073725439786
-13.7621944407866
-14.5017356623162
-14.5360873624128
-13.900988358872
-12.8965779517238
-11.8421487979097
-10.9065278657249
-10.15450048418
-9.59329068666872
-9.1098244037337
-8.50268238022913
-7.64800998445293
-6.55197748630958
-5.22399238216736
-3.5845689200016
-1.53856136270842
0.839280738429325
3.13772326331164
4.70782353241147
5.17062840972424
4.91204817693248
4.89415440962705
5.86229032543205
7.79193809965866
10.0533033479336
11.9611753608002
13.213861377632
13.9654207617755
14.5027527022815
14.8734279827295
14.9435537919357
14.7625737904545
14.601843850881
14.5433416016303
14.2250274297303
13.1255945550584
11.0408514217716
8.25408172334178
5.31359016479292
2.664317295468
0.438671651121306
-1.47529595893616
-3.27343626488568
-5.15910562892855
-7.23118100338369
-9.30659708066609
-10.9971097133533
-12.0869605603458
-12.7100523810316
-13.1197219449088
-13.4959061349057
-13.996040485829
-14.6694253410451
-15.1743015665377
-14.8526012247239
-13.3147224238291
-10.8437914319223
-8.09629127539028
-5.49343609422154
-3.00445889727354
-0.486391921954659
1.8493916776331
3.41041881322655
3.76425025189782
3.18211789158418
2.52798193182262
2.57946949080595
3.46576727787634
4.68689422168435
5.6223839347581
6.08877177950266
6.4652710529628
7.27998821669243
8.71098957373203
10.505895427751
12.2863886310801
13.8721278538579
15.3869714068935
17.0118459265208
18.4463436516275
18.7272082843076
17.0160504065797
13.6592616777521
10.0999559832367
7.6253034099746
6.45193335716589
5.96590912237409
5.41519053023047
4.30545008210657
2.54927157804366
0.481557319177971
-1.4221911717601
-2.98968621564231
-4.47646489495821
-6.22530993172693
-8.26484949110445
-10.2654268064082
-11.8255609015444
-12.7373311714941
-13.0023455285413
-12.7149110296669
-11.9915745306352
-10.913509538269
-9.48632852570794
-7.81058920439952
-6.37002264089027
-5.93599387978348
-6.94827410784631
-8.97502818422276
-10.9017535424248
-11.8394386473389
-12.0489030614831
-12.9148114619071
-15.6792868290978
-20.10426687929
-24.6724143065996
-28.1557519436502
-30.5431791629039
-32.2696580577462
-33.1142831248801
-32.3421156873137
-29.6442196556188
-25.5244153181032
-20.8844631734676
-16.4443466002299
-12.3823318873173
-8.28533503455393
-3.48805457872857
2.37903704125453
9.10359867630673
16.1204255430268
22.9484668686399
29.2946710952905
34.7788541376578
38.8975859560699
41.5518797111993
43.4014557104711
45.2682938300158
47.2422640317237
48.780486045672
49.6120869393865
49.9836955202559
49.8942256987679
48.6001394746872
45.2046224907908
39.5948443780214
32.682966928329
25.763365978892
19.598420635443
14.1196658446913
9.06233916933309
4.67044724811365
1.40262804884879
-0.992732829306103
-3.61887738624902
-7.44210038337013
-12.4095490903311
-17.6623516207943
-22.3676607562465
-26.171227467981
-29.0098747607353
-30.76408395569
-31.2640831132422
-30.6274178731978
-29.381388759038
-28.0546286073542
-26.7121228443098
-25.0377017195516
-22.8085452357516
-20.1716309707706
-17.5053301168844
-15.0447230347196
-12.5786852763143
-9.66028539091611
-6.42608617418065
-4.10087741820441
-4.13307103537509
-6.61290477767492
-9.9538334796031
-12.4376714047411
-13.8278255006379
-15.1941537952733
-17.3478582898735
-19.8394404370394
-21.5605927922384
-21.9590284052187
-21.3122964455295
-20.0240113359095
-18.2007086170118
-15.9716924468301
-13.6867167683614
-11.5278631862472
-9.25717526029376
-6.5883688941342
-3.57046265374351
-0.418494989707425
2.82031313568969
6.23950268818961
9.83305802002256
13.397127188511
16.6046772522022
19.1616822148273
20.9846101969004
22.2717258923946
23.4008845214572
24.7321973328336
26.3817391377096
28.06294560792
29.1948817832809
29.2649408556584
28.1095124423707
25.9126410098578
23.0725949827036
20.0839526913651
17.428276879237
15.4962688033438
14.5434214459291
14.5729671030443
15.2112059240317
15.8424179030535
15.9557542360937
15.3065998123407
13.8129477232966
11.4849333732567
8.43564215215538
4.81262814210675
0.773363645407955
-3.36112532036183
-7.05653268752841
-9.85045080982869
-11.6685142676262
-12.7717875006
-13.3928879336107
-13.4497518822506
-12.6480450492695
-10.9223765482239
-8.74362680943736
-6.83893203144647
-5.55090703152993
-4.57034905649886
-3.31443091708023
-1.4626273340282
0.844388165962328
3.13656780994268
4.81716638766996
5.24799423716942
3.79611494721604
0.159996857454302
-5.08403351561129
-10.4826779923053
-14.6820622137671
-17.4883320037603
-19.817567424958
-22.6405011353176
-26.0617132705008
-29.2796542250681
-31.3027311026092
-31.8194408224377
-31.4579170409708
-31.0890678228198
-30.9139277097981
-30.4348512174023
-29.1897553731369
-27.122761248682
-24.2592501476304
-20.4370700223432
-15.4793950132886
-9.40220966898481
-2.40410855969719
5.16799850856962
12.7981039644213
19.8853170198876
25.9817701517553
30.9797852297745
34.981786453057
37.9305183149295
39.5536099063003
39.881443281542
39.5768963389518
39.2877713250598
38.7139975567718
36.7464757596325
32.559981823917
26.2836690281754
18.7487360594202
11.0230041404332
4.14363251217232
-1.17293944456379
-4.79965423049821
-7.12351679502749
-8.67360956337779
-9.79012107409073
-10.5388869100041
-10.9010310732594
-11.0397692435118
-11.2247636728215
-11.3847214819007
-10.9683147439001
-9.5069124346433
-7.16883591334177
-4.51967258673708
-1.86710329512109
0.931433802695065
4.09600662613078
7.53708111834415
10.8126923105863
13.3485373441036
14.6436047439506
14.3406638836183
12.3489773272217
9.07058374806591
5.3036342239441
1.62675035830474
-2.05263505768407
-6.12182247193441
-10.5542777598855
-14.8544216065518
-18.6510052966912
-22.0352327873577
-25.2124584573467
-27.9987195090149
-29.8167640959058
-30.1730209375583
-29.0242702189915
-26.6301188191325
-23.2435513310438
-19.2053570230256
-15.1737035159025
-11.7462369851651
-8.73757949762362
-5.25993683230188
-0.752363621912463
4.32790526115541
8.97424686581155
12.5408164321581
15.1199619793349
17.3486471147934
19.9812061152417
23.3156824190863
26.7582852805531
29.0900733706956
29.3969126024578
27.7761072330762
25.1106069209337
22.21982874705
19.3076215472038
16.1831869262692
12.819579238391
9.53475885025614
6.6612683014968
4.14665020630953
1.51651407180777
-1.70353924280219
-5.43311323519822
-8.97922138350633
-11.6992756213309
-13.6393559701367
-15.3064376009526
-16.9514642218672
-18.4108911190783
-19.5217030706641
-20.2159017890047
-20.2011383012154
-19.0227771720769
-16.5911043564281
-13.3549881992887
-9.84599781198626
-6.24635826142278
-2.49544217909625
1.3055918848336
4.78428851624292
7.74007843820648
10.6370068397947
14.3310397391249
19.0760331548663
23.883971227828
26.9357940125537
26.5623276674723
22.1220685204191
14.5675677783046
6.28070285776594
-0.270185807707696
-4.1798325832993
-6.35338178650243
-8.14459106213369
-10.0358427310883
-11.6014489100196
-12.3216571740753
-12.2218127526855
-11.8825256040558
-11.9629343377932
-12.6717187965112
-13.6470181377904
-14.320264621357
-14.3261381964721
-13.5343466354096
-11.8384372886864
-9.16083907326976
-5.73310569868365
-2.16702207021768
0.975350964537248
3.66136186973549
6.29672433331104
9.1964266979377
12.3091472929262
15.4027755350852
18.2231173526781
20.3387435138738
21.0476035081015
19.7108257166471
16.2350117206733
11.1793704216521
5.45714076446086
0.0110779473325322
-4.40594032005797
-7.50814021186416
-9.68019185519149
-11.6681670330304
-13.7920613249706
-15.4908081684596
-15.8974380159368
-14.9423055192665
-13.6100493218566
-12.8771982606608
-12.6401508136594
-12.0397191510636
-10.6699636723935
-9.01433070698087
-7.64774618777284
-6.34069711659959
-4.1457910754462
-0.363663990867852
4.59204759456296
9.37716596336413
12.9162635066285
15.3894693694365
17.8542912492415
20.9450138522936
24.1936198198437
26.6108335297931
27.5795149811509
26.9739389679545
24.6676130136448
20.4102369842901
14.3990358868239
7.70979147335586
1.78451041616342
-2.56760911866904
-5.53069288012263
-7.72985672935824
-9.53082078741034
-10.8721290997099
-11.5986765056449
-11.8722014773201
-12.2333044792244
-13.142818734959
-14.3712402344296
-14.9494835443677
-13.8927648934847
-11.0295943358491
-7.14916487949998
-3.38162627590215
-0.360738772594257
2.10088861686832
4.42849342139466
6.36883138545409
6.97442990220252
5.71054723779794
3.25767832007829
0.859247433692515
-0.93630810436383
-2.52498790296023
-4.34653009826808
-6.1331283571265
-7.2023191866265
-7.30784703959903
-6.96017658140194
-6.83178073154184
-6.98460011703717
-6.87974096509053
-6.14142590880393
-5.10212170613886
-4.46360479795771
-4.47839001795202
-4.58072474412757
-3.92440055992798
-2.31955975342786
-0.521674854049408
0.547614239074291
0.801571569136979
1.05818546650482
2.15617314253387
4.17991194305315
6.57512931106856
8.83582991890023
10.8929478856213
12.8066123556287
14.2200261476139
14.3607389096703
12.7589673798384
9.88848630038405
6.87356211512229
4.51438747988211
2.72905552857306
0.945853408057
-1.1420998026883
-3.32527737839246
-5.32738428315468
-7.33147148683047
-9.78621193504252
-12.5764741252381
-14.6961140514341
-15.1252331661017
-13.9201531074794
-12.0598149345942
-10.2714659329499
-8.40914939330268
-6.01522105147551
-3.09145822739327
-0.116171900016458
2.53527249211318
5.02952836507133
7.88868033768358
11.3076214480311
14.6735613516154
16.8838018924207
17.2271144337191
16.0136612887836
14.3661221213024
13.216338839415
12.2850585565089
10.1965102006549
5.92636270922649
0.0652272054548779
-5.620164415056
-9.69505034685938
-11.7928419756697
-12.173992579297
-11.2233262369797
-9.41178544038647
-7.22549537381914
-4.94453601611622
-2.72231500870182
-0.863170656515325
0.330085000643619
1.102123227338
2.33557839145629
4.78721839825535
8.23261586764987
11.5061222632946
13.4235362359836
13.6962119362253
13.0610177944644
12.5077676188722
12.1815594982566
11.0411122182892
7.92482439982649
3.10123160674236
-1.55424522845722
-4.17000334557336
-4.43577425336625
-3.42581283258005
-2.39615925338061
-2.2626770346725
-3.82096958028796
-7.52832026008426
-12.8156507132821
-18.1546784008582
-22.1908473155849
-24.6725141043813
-26.1416360552131
-26.956384282325
-26.9019793432366
-25.6917273805568
-23.5293096820898
-21.0081164745094
-18.6060377713044
-16.4702618145528
-14.587176909173
-12.8614391855698
-10.9584508625056
-8.29577017999124
-4.38045924589479
0.816209067333438
6.82770459796897
13.0612328436202
19.1794679574386
24.9498599046441
29.7194257744289
32.4999904670424
32.9032858337931
31.6089744872991
29.5086600676054
26.7787656571947
23.2718551379572
19.4172126855972
16.0794413665864
13.6412418486534
11.6683840080037
9.41070687485195
6.41403201329031
2.86895379256442
-0.354527791774009
-2.15311042427718
-1.96027330089647
-0.208233333679217
1.94694945812857
3.47192831574131
4.27546501052089
5.27635448347864
7.50883394760221
11.0470106412507
14.8088184205492
17.3554412979908
17.8079175819679
16.0990788501543
12.6342877881336
7.96175669461162
2.71166600568746
-2.55651744606003
-7.77969846581007
-13.4536045573155
-19.84991545715
-26.3128001958353
-31.8899528461518
-36.6296015952671
-41.5012416356315
-46.672864261245
-50.4583049793893
-50.6609993304312
-46.9007267101544
-41.1186755979771
-35.6330948795352
-31.009397196264
-26.0744338298518
-19.7511331769596
-12.3805737665936
-5.18507409972828
1.05702548515399
6.43210736453867
11.2849355287482
15.6255643060073
19.0676054067307
21.134000428869
21.8003917614972
21.8954804822229
22.6041164483343
24.2201286808345
25.6070340649584
25.2314975578711
22.6991349108971
19.193272833206
16.5390302506104
15.8277288172799
16.6687581634222
17.6168451659217
17.3947677573893
15.7319265543573
13.0938708583709
9.94728211525524
6.55977630079101
3.29539314507344
0.697171007555299
-0.850595966640661
-1.45717396810841
-1.62134788135104
-1.67786060957757
-1.32524004429644
0.139819764374877
3.01686114246394
6.72484426538614
10.1641502438004
12.4181766419486
13.132807119891
12.5681629534692
11.5213288868666
10.9419065500021
11.2019150013231
11.6739079229648
11.229301725249
9.22908445018014
5.96252371843452
2.19097859245493
-1.51559785210844
-4.95793401230679
-8.10944126540928
-10.954128287878
-13.3688779999347
-14.9973141687642
-15.4804055997813
-15.1493652596839
-15.3677892159561
-17.7539369448327
-22.8378195258194
-29.4801770008398
-35.568283490943
-39.3175081011908
-40.1958636055971
-38.8925713783255
-36.4550449930564
-33.4421508590096
-29.8656194684243
-25.6257361883483
-20.6003807999219
-14.4100263874475
-6.63405788193505
2.43865036754645
11.4328151133364
18.5195373062298
22.5621488329643
23.7368210170609
23.1767277481594
22.1261333239722
21.3431945890852
20.9693578004579
20.6283013864159
19.6527575578273
17.5541751202154
14.5450362487169
11.579856066799
9.79079074426642
9.83642813521908
11.5526755197052
13.8799360663499
15.2305250739351
14.4914410255847
11.9739305746694
9.17744243002103
7.42599344548834
6.80155016171193
6.43056794760278
5.63339228501537
4.63012439771336
4.10528987651529
4.17372988838025
3.96479384786636
2.40127088825307
-0.644848200940672
-4.10154918765379
-6.55657155348144
-7.30717691612627
-6.75145197500877
-5.93745120582184
-5.60196853531943
-5.50094317288727
-4.84372539856902
-3.53986218159783
-2.78557115982482
-4.06895974448567
-7.55137655409906
-11.580478307904
-13.8379878760937
-12.9898670649141
-9.44251073517684
-4.7911839997257
-0.638824166242296
2.19256882119123
3.62744342097869
3.90372564731583
3.31181809164775
2.14138532746978
0.613958332809062
-1.11345715215215
-2.71884158454415
-3.61467039155036
-3.43922831757693
-2.68303443531153
-2.39801950047902
-3.05096908024569
-3.98530124985077
-4.27680825903651
-3.83981076733668
-3.39943040965478
-3.58788335703076
-4.30648958167822
-4.723681000755
-3.63697245924614
-0.161022776516472
5.42208897755217
11.4421532256197
15.7558727952069
17.0858222341551
15.5715605921805
12.1692238235827
7.70256354118844
2.6413046392723
-2.3266471284139
-6.06719075483004
-7.83376407540841
-8.14965043309163
-8.38322760690221
-9.45454725631249
-11.2436388953224
-13.0741026147727
-14.3116484309944
-14.5829952265541
-13.930785438429
-12.8520259204386
-11.8372341956496
-10.7790460634496
-9.07358013209383
-6.38084746845487
-3.12268678920766
-0.122428892228549
2.21581836887487
4.29170966976419
6.84310438157262
10.1656950464249
13.8649670887783
17.3211208022068
20.2912549687035
22.9824946030488
25.4736358509851
27.2019299226132
27.4422048591699
26.4280018589486
25.4400224816578
25.3195972826345
25.3283307741225
24.0639005260266
21.1685224998981
17.4542692801157
13.4820824840441
8.64361147486285
1.76206335995408
-7.61910498703773
-18.4502423761145
-28.4918028315291
-35.5615773801777
-38.7272931780869
-38.4674797706114
-35.9634423027466
-32.4461466372637
-28.9551233341763
-26.1565219208226
-24.0723150077292
-22.0569705074776
-19.3104056015947
-15.7170960050266
-12.2210337394255
-9.95573875826415
-8.65477365982475
-6.29773162754296
-0.971827180941549
6.94418585759102
14.9045548310723
20.4719232193757
23.1082437433416
23.8228631322189
23.5977914902739
22.4597991957284
19.9714927416371
16.3320194083045
12.6483328904352
9.88545636345428
7.68560485445819
4.61915733090347
-0.219070742750773
-6.02600441645171
-10.8381255793533
-13.187927451119
-13.1302516922846
-11.7471056909056
-9.94522687939392
-7.93783432316431
-5.69507740781476
-3.47778415960655
-1.79660410173203
-1.01388568327689
-1.0470758066059
-1.41769090046758
-1.67403561038017
-1.78169555175266
-1.88004819761831
-1.65833278756855
-0.445055432606446
1.83853203101743
4.27962419863938
5.94932897522703
6.94723808366853
8.02434882306903
9.38933216197391
10.3702072769929
10.3001222576814
9.47739520829896
9.04470716308218
9.77661001843766
11.0019928100257
11.0083619336712
8.71890944082928
4.82815431304453
1.15129610558072
-0.963041967105627
-1.4563284345442
-1.11541912554675
-0.718549300782889
-0.677572647812765
-1.23093130603042
-2.59406045418448
-4.68174945066121
-6.81444173186932
-8.05452177158246
-7.96549149231063
-6.87324933627196
-5.28072842048768
-3.14499390637945
0.102996046974031
4.72901619550353
9.92205333655007
14.04054705957
15.8091940819468
15.3053004357119
13.7847706010833
12.5789169740867
12.0375537690144
11.3590811429686
9.49075679365503
6.31819629680057
2.83896409102499
0.0009476375633659
-2.41586337330637
-5.48653688176249
-9.92895298493041
-15.5925222458494
-22.0034946966477
-28.8643465243447
-35.7738234976521
-41.7001627397003
-45.1105710119195
-44.927742093551
-41.5129732259755
-36.5992112393577
-32.0213068673569
-28.3984009614755
-24.9693245535044
-20.476818923412
-14.1142424337085
-5.94646137569494
3.15002379818532
11.8578311300901
18.9407264802086
23.7541026676052
26.600194054132
28.5644421429691
30.5412620208719
32.2180884177871
32.3998616368464
30.5339148120291
27.5177298956943
24.7700758176494
22.8810438327764
21.465348534459
20.0527329027465
18.7377526572059
17.9491191291706
17.7816637008592
17.708731904728
17.0439238989147
15.6663792254003
14.1157860843508
12.8314151811952
11.3940819094636
8.7821190429396
4.53848349001578
-0.481493727197887
-4.8902558599714
-8.35591233136639
-12.0133003780606
-17.0515437631893
-23.1942819858008
-28.8147839578613
-32.2433968013561
-32.7244486239163
-30.498244832187
-26.4505941048715
-21.6250171362369
-16.7753258739949
-12.3169126036717
-8.62292747802356
-6.07528583060024
-4.71346296052312
-3.99227402547349
-2.925602087522
-0.459548133715414
3.96656696416476
9.82259888647537
15.5044441926535
19.340662952821
20.8750732217574
21.2397508360291
22.1572313212375
24.2658261717109
26.1798498407671
25.3481340118605
20.2399732929258
11.9085162215991
3.33972851835995
-2.88254549750495
-6.39738627459876
-8.73297676575052
-11.3694588506583
-14.3241062242954
-16.5811637805263
-17.3748690690201
-16.5547879895699
-14.0740886023768
-10.0524952023685
-5.55125054819784
-2.53326736073006
-2.42912084601346
-4.81960830735268
-7.78940912564387
-9.56737013062616
-9.75227004136187
-9.11590897576187
-8.6128245480396
-8.82567989827142
-10.0229185958783
-11.9941008856369
-13.5772171888994
-13.0324251800041
-9.60395395289554
-4.5920140409096
-0.437484753786772
1.21106300627962
0.394106931360384
-1.75142971833585
-3.98452322794732
-5.56055393698112
-6.45083680772174
-7.23556910249382
-8.55709158726527
-10.3369185914984
-11.4401990502878
-10.3577254703047
-6.52124553173948
-0.952152559163229
4.57749282197251
9.02393751469278
12.6133549486371
16.1255969226277
19.9964988372588
24.0643285580763
27.823153878118
30.8304321162252
33.08886083379
35.135669356124
37.6253163340267
40.6251234174462
43.211550118154
43.8823042308836
41.6482879222501
36.8036363620353
30.4599145821459
23.3656145101482
15.5196558669916
6.99008393136067
-1.36080772770201
-8.32377898490352
-13.362853902891
-16.9929340729003
-20.2354655075273
-23.7723402690922
-27.4866958536261
-30.6395954439177
-32.3689675961105
-32.0813319490627
-29.7598581396887
-26.2400732769006
-22.9311857967499
-20.7706322906951
-19.4641697950892
-18.0612990989054
-16.1804344511068
-14.3313410993477
-13.0824374717701
-12.2379240679842
-10.9515672928644
-8.63281475733642
-5.82602058981454
-4.13576142805023
-4.93717050536995
-7.99459972939399
-11.6304521547796
-14.4546058857364
-16.6207424728841
-19.027392295719
-21.519415781469
-22.4699650278414
-20.3128674267371
-15.1400157164201
-8.61101457214185
-2.60779790652975
1.81512774395309
4.59422346102966
6.40677872748789
8.30543347938361
11.148642646383
15.044276542324
19.2291938959401
22.4245634467867
23.5315418724268
22.5503073925584
20.999052671931
20.8944183192138
22.9436790937964
26.0027177506891
28.3948735151712
29.3218034148594
28.9280265986632
27.6067523896114
25.5682146756486
22.7497742671336
18.945904056463
14.2563407205713
9.44957426515817
5.57753579378577
3.10168546447408
1.56987917212114
0.228752302058823
-1.20193055725575
-2.50857092175559
-3.65963870952773
-5.21255350092381
-7.81745762078114
-11.4294620135337
-15.2391175821542
-18.3008007541427
-20.0686526512795
-20.5532469299005
-20.2966197634285
-20.0320976013412
-19.942013070363
-19.2572368823538
-16.949746969796
-12.9031333259527
-8.1847504547644
-4.15410806859607
-1.49340191487943
-0.0511845253869597
0.67418430698966
1.03943422899667
1.10222753211307
0.776943179924466
0.0844727614893117
-0.684476939559145
-0.990992078725342
-0.332858683012397
1.3241725798872
3.4050053028319
5.15914014118082
6.31106065225141
7.2498083010829
8.47985099243895
9.75247131228768
9.77517856568963
7.11678401055179
1.65896806135987
-5.02839655104728
-10.9443044611927
-15.0359530246997
-17.2108550448336
-17.5787531704935
-16.2365253530671
-13.466564676146
-9.63193882262817
-5.11181018020892
-0.698645941531466
2.36134636040392
3.34281343252395
2.95262597656445
2.79506551216607
3.86578653509775
5.78178679847793
7.43891415753113
8.17218606543166
8.21659864086369
8.24353554918128
8.7112240425723
9.73225766108767
11.3024854865424
13.2953496296671
15.1871924255006
16.0179125158312
14.8193464792092
11.2685347884941
6.12496651148216
0.959962579550835
-2.87688334571451
-5.19378404832986
-6.82200393041466
-8.57969705841388
-10.3575239482616
-10.9993710469052
-9.07015314502538
-4.22719978175538
1.84013055861041
6.21273070056861
6.99341204029485
4.7939809236761
1.89461511388149
0.0718834898320632
-0.717782103767594
-1.77115500975097
-3.98320137051579
-6.81879401537964
-8.90562609081435
-9.38510109266582
-8.38126812300479
-6.38792268131252
-3.78510432822085
-0.9912564899444
1.47050684357286
3.31556022140839
4.63406648217341
5.59003073050498
6.27381620100943
6.88581668207034
7.63364373297251
8.22299498569984
7.81691379604535
5.89801606845867
3.0472207359934
0.539833329536895
-0.777008676902617
-0.973254679692932
-0.676128291172258
-0.79515085001459
-2.46558315533672
-6.36246850193959
-11.6635263647189
-16.2911944987342
-18.7256822384892
-19.3688672066307
-19.8608640826966
-21.2757333391104
-23.1307294951106
-23.8928718806407
-22.3156560887057
-18.5061963886513
-13.79030758212
-9.41776671250381
-5.48082644585084
-1.26530725410785
3.56591510977244
8.52346232598723
12.9606808941733
16.8123421856157
20.5024569250766
24.2453363537492
27.6132521874805
29.8896320325552
30.8058888706031
30.796744888353
30.5313395067453
30.3193785623312
29.8862217155235
28.4984046727274
25.4839930583544
21.08240749773
16.716950703403
13.9109677008429
12.8642486593229
12.466488497195
11.6294984502313
10.0535035791792
7.58114885409095
3.44954789154708
-3.10506281580871
-11.4311261251681
-19.2111721617793
-24.1793502946695
-26.1067724842246
-26.8237600275969
-28.3584787851244
-31.3818745134021
-35.3719234932839
-39.6532533779147
-43.8267767268606
-47.4103437520108
-49.5371694323106
-49.1593892850277
-45.475233424891
-38.3098369539471
-28.4459471953741
-17.6447078207305
-7.88865388273995
-0.185380382268969
5.82089624003858
10.9843557907024
15.743775957752
20.1583862099496
24.229250666857
27.7585829791666
30.3731368480889
32.139139223339
33.6850709938155
35.2055205153166
35.8078511742141
34.5198691216058
31.7169085721544
28.9451479150603
27.3331124435277
26.4281964604875
24.4620578468311
19.7255692662891
12.169484355566
3.93194369404962
-2.12611815755173
-4.83742210223355
-5.65092731978116
-7.07770559761545
-10.354857469907
-14.6153152878148
-18.0492330670422
-19.6359250387844
-19.7399301072169
-19.228965747809
-18.3950870339534
-16.9771065642006
-14.9662535045849
-12.9331727751687
-11.5264996577671
-10.8663075276537
-10.4172839193306
-9.38118280277438
-7.33538345375274
-4.53324589447933
-1.50843279942512
1.40140754986162
3.86287151949535
5.21454270530244
4.94191275635975
3.4005771537238
1.44697057441791
-0.701602081232853
-3.64265439913416
-7.62902406573087
-11.7334933690483
-14.5414600532766
-15.445215408155
-14.8760320590435
-13.2986111842742
-10.4514802355503
-5.95289047976281
-0.377159298593109
4.95903417851066
9.47993070219895
14.0761596944243
19.8620239571704
26.392573447875
31.577138510233
33.4683711373413
31.9465349383254
28.639325791878
25.4746419536822
23.4514587047255
22.4857744178796
21.9232323928366
21.0319550937932
19.2715575902808
16.3886330727561
12.3907029121238
7.57216059485574
2.62997521240458
-1.52658264014402
-4.40773530046259
-6.2825043880778
-7.65997348890632
-8.60047019675815
-8.799508128857
-8.22235525859162
-7.4346841306295
-7.35168447873905
-8.66216790333259
-11.3005217931167
-14.4847210564974
-17.4770973445929
-20.2612785835709
-23.3329558073008
-27.0761446676765
-31.6101105677532
-36.9127000619902
-42.5805564988745
-47.5129589706661
-50.2464842405758
-49.8428973132358
-46.4916857840506
-41.226441313686
-34.9624880939461
-27.7398848789049
-18.9452386523406
-8.27141723682334
3.67454184060429
15.7647571845264
27.1786257770729
37.6370703418765
46.7978749111214
53.6163321617162
56.6451117250001
55.238378329284
50.3353307384249
43.6600199203697
36.1329839599943
27.4871116491036
17.467403025718
6.84661554564375
-2.9662760772827
-10.8776187394786
-16.4347658506774
-19.6359175090181
-20.8389870837136
-20.7294096288542
-20.0063361595702
-18.9101471229947
-17.0403693841711
-13.6658940136376
-8.29049036538819
-1.04628454282298
7.29330322443518
15.5194388004227
22.2518492165506
26.4088096494456
27.9038310169779
27.965775937996
28.3980439236392
30.0878053839595
32.1278818144135
32.601203537654
30.398115961506
26.1704179356978
21.3737698617398
16.5621712662587
10.9753426418483
3.83359074108342
-4.28831408716774
-11.5707278634679
-16.3093128112132
-18.1079631836358
-17.9334880729332
-17.2160883087856
-16.9181617099704
-17.3212014636115
-18.4095142111798
-20.179222787867
-22.6000768120247
-25.4819623357015
-28.4103539173749
-30.7954123544822
-32.1851834751798
-32.6472683330117
-32.5918633913305
-32.0626466201866
-30.5265479221595
-27.6247107781558
-23.8005871303603
-19.8251745104251
-15.984852111839
-12.1162271259493
-8.09676875606129
-3.7402267044168
1.55462110954209
8.28598246117519
15.7784906135713
22.1588336728626
25.8374390040721
26.8701960753951
26.5553256657487
25.8443840088895
24.6181747246909
22.6032521207228
20.4826172693756
19.5602812667219
20.2662226253644
21.2799735904627
20.4055071892926
16.4561945058729
10.3509468638949
4.39405929569285
0.497089553514097
-0.968638426609447
-0.894757197706111
-0.418638119713502
-0.142698720473133
0.0946351831492939
0.899021953348645
2.53267569674548
4.25224284836136
4.60921209071003
2.68418761921797
-0.889499636010108
-4.20088876724087
-5.4751801875756
-4.33890340599795
-1.83880942536878
0.561426111491486
1.87157595547303
1.76477440900051
0.446501966714111
-1.52831005631089
-3.71881425310847
-6.23058401277431
-9.29927501380157
-12.3899980833353
-14.3106484790102
-14.4809110183463
-13.5591934799444
-12.4716163787895
-11.2921974812754
-9.61466486152716
-7.86531799200872
-7.64134389561087
-10.3183371036592
-15.3451446732377
-20.2770082375794
-22.7451669740398
-22.2138762888593
-19.6162554810229
-15.7096023711894
-10.4675476116013
-3.98630007217432
2.8369467060338
8.94495173809355
14.0217918504696
18.2788062280466
21.4896428284324
22.7924460279793
21.7377543458313
19.2374735868754
17.0176355228027
16.1035136692169
16.1177775732038
16.0456198691051
15.3544751275837
14.2717191858595
13.2367071368281
12.3002110298289
11.0667641279829
9.19449831579935
6.89242526426382
4.8021423840135
3.40186580318829
2.68533615121626
2.36875508285263
2.11581049100914
1.52463928718613
0.272238605213343
-1.43248669522583
-2.69532844986582
-2.61532059914213
-1.24815594234943
0.362919583040143
1.3168760861501
1.75026060551361
2.29703237264433
2.92332939760471
2.76435923278165
1.03318494541302
-2.22832413562773
-6.09006020676971
-9.04466958584982
-9.72991531607816
-8.09354771690779
-5.8890716067824
-5.37190565596215
-7.20697194375406
-9.97921393188474
-11.9158365859757
-12.7682127749627
-13.8209439381284
-16.3061361842516
-19.984441871972
-23.1050715455024
-23.6479601615087
-20.8074245175974
-15.4808509918754
-9.41492285031996
-4.01851310294301
0.0142319447389424
2.46503942245005
3.68401771774359
4.89368584028404
7.51791143278258
11.5025783963837
14.6868418558818
14.7082621154259
11.5381332126886
7.36891216790528
3.91136581177667
0.663398885097018
-3.79769287445183
-9.56334015913858
-15.0154443519029
-18.2989118161886
-18.7171021945583
-16.9383280996081
-14.2231642553171
-11.3514487487676
-8.0788559967282
-3.65554144729474
2.10261238385227
8.30163620255709
13.47563371048
16.6849761167434
18.4301852416255
20.5488171937506
24.8466584861844
31.5339638201467
38.9690460301519
44.8288603156373
47.4175719709963
46.119441596747
41.1586765623446
33.2822117225795
23.6232237604291
13.5662278016602
4.39010026126434
-3.16605140441803
-9.02960294107799
-13.6252927093858
-17.7816214159021
-22.5554710007696
-28.4240849149355
-34.3217784821664
-37.9525819692928
-37.6101960472241
-33.7947613493059
-28.9898461389563
-25.734025229148
-24.5129854601955
-23.2902127029832
-19.4612253830155
-12.5969555404004
-4.92324126939264
1.15496629831178
5.40548269111848
9.16646073551397
13.0448290697394
16.0846259636549
17.035801781559
15.7569826906024
13.365282147029
11.4507733746921
11.0868332755804
12.0801203048726
12.9110028080179
11.6381341418194
7.27806899772591
0.604139264076646
-6.24790533205005
-10.9964407171805
-12.4723579677764
-11.3737565734413
-10.0751579556475
-11.1989094334014
-15.6280872202553
-21.6221511994679
-25.9715179878273
-26.1890499216855
-21.967900190843
-15.1220106569799
-8.31625066948101
-3.36043714610966
-0.212300874144397
2.41541587553119
5.4549348215923
8.65572804888494
11.281063276355
13.1535093418451
14.6625506332209
15.9547093336027
16.6082642266674
16.2939027629526
15.5212584677786
15.4597934639084
16.9789925332373
19.8906919810925
22.998748211855
24.718547533161
23.8018185436183
19.9396875200861
13.9472935773604
7.2019326827393
0.760694340527486
-4.82621678033256
-8.89239663901571
-10.3463425916429
-8.35470568842426
-3.24385511857645
3.44269679608591
9.75820295812431
14.225661228688
16.1295328441749
15.4138280867818
12.7942432509359
9.84000814206662
7.92647276428889
6.4088587413533
2.59216341160988
-5.42296888351137
-16.2250069653214
-26.3517338171054
-33.7033285094159
-38.7096294707598
-42.4184540821479
-44.7019618288373
-44.7029997291959
-42.2154896660708
-37.9467930783234
-32.5578078448365
-25.8644435921964
-17.1612027571532
-6.33278460616131
5.28805332335898
15.1004917374837
20.5139009417551
20.6009087185785
16.835662052049
12.022329081685
8.17753003009684
5.44058041199896
3.06399772463321
1.09885029294773
0.651190827780306
2.49394550287545
5.85802875168295
8.94235178383078
10.6028308681733
11.3092022850376
12.3462940733039
14.3027119156767
16.6461116514265
18.7141993902704
20.6106250195181
22.6645939843388
24.1591474072184
23.2558843444632
18.5954458336174
10.7422011252757
1.72821683091125
-6.63160010711943
-13.6604584385607
-19.3658526737338
-23.6825452743457
-26.2341255752089
-26.4503293165778
-23.8898737431029
-18.7826075925756
-12.1921167139158
-5.288527548675
1.37356624121364
7.45335686698819
12.104449054311
14.5111079581767
15.1011265236625
15.3888896481469
16.3675196637447
17.572882175932
17.8646633357851
16.6818449003277
14.4566461953474
12.1650986845319
10.4431817324938
8.7971823994653
5.80181837134904
0.49115042163542
-6.43532379342348
-12.9864145343496
-17.3812741053246
-19.1749272218828
-19.3120175136674
-19.3821636016921
-20.5374721111586
-22.692317979411
-24.6970787818562
-25.3083471788735
-23.7939216838105
-19.6420520800624
-12.3863520976503
-2.43022174459186
8.15251146245679
16.4689445845329
20.8205658232635
21.5784412830254
20.0971103562903
17.4607532674408
14.5450404195365
12.4170981636705
11.7189497197906
11.7929134990354
11.106829525191
8.72636811767608
5.14346491008108
1.66898139048479
-0.794139434147478
-2.39688243172205
-3.91842768690173
-5.73164069528294
-7.24349964200082
-7.50393644892509
-6.35284853324651
-4.7439764212079
-3.78427822048033
-3.50248575029941
-2.74401311497119
-0.481393128484378
2.74981129440031
4.92011624694802
4.12870588539116
0.111000045289683
-5.68816773147115
-11.0953057036602
-14.238975572888
-14.2970731102709
-11.8523047273542
-8.38789352305206
-4.98621316800293
-1.46802149079557
2.96363045266238
8.2538277779107
12.9894301535404
15.6203009088289
16.0737734597253
15.7196836476246
15.5546183173434
14.8708895159062
12.1285419257992
6.79485879284558
-0.164144454336177
-7.34417659065068
-13.8923374146176
-19.5291465956079
-24.1145724851883
-27.3757015665439
-28.839874125278
-27.8965141130982
-24.0762029294104
-17.531903231293
-9.37261942755261
-1.36128153134403
5.06983564056276
9.7240133592403
13.5241627894148
17.367240692316
20.9575556491739
22.652466940956
20.5772651956375
14.2531753371262
5.28595744685684
-3.71654720644666
-10.9594954078607
-16.1028790649441
-19.3789626157625
-20.7013087809003
-19.860460850346
-17.169682012082
-13.5427923019791
-9.97532603871111
-6.91783856501684
-3.87482540314126
0.412182920785047
7.0223567733031
15.7603481164317
24.8851469033068
32.0090519243568
35.5831979253146
35.8168864272317
34.1664057777133
31.9025687647443
29.3172037907165
26.2242995821099
22.7471559754274
19.3345155281636
16.2136304603181
13.0869728188062
9.4232580522894
5.07799274488058
0.654574413187583
-2.81668760211606
-4.6075411890823
-4.73241840309634
-3.86591850768167
-2.96961533140788
-2.66713121873426
-2.57035260900259
-1.50689871303988
0.949784881875303
3.2555810029994
2.88503689282193
-1.25106071999298
-7.82004603010588
-14.6668469179956
-20.9366669418249
-27.2132970423481
-33.8188394564482
-39.6353103670416
-42.9578684236833
-43.2062917801261
-41.2378915812262
-37.9574856253859
-33.267041558418
-26.7847414015982
-19.1086488212202
-11.7026738704716
-5.63757152862631
-0.975477005909108
2.63476250198043
5.36128393737454
7.40720679544276
9.23312692019616
10.9225597654258
11.4565341790369
9.25013550831649
3.73768100859124
-3.67585506871476
-10.3635811835466
-14.2893817567789
-15.3541445177371
-15.0827214215461
-14.7207873302679
-13.5220333034991
-9.42064393082761
-1.7929825777867
7.06913973907832
14.1245390296506
18.9673756714742
24.0429676149063
31.3390088168621
39.6815469259837
45.7109446164208
47.0895833692281
44.4202212088568
40.2650572510472
36.6160319189866
33.3928989446999
29.2810489810584
23.6981334061829
17.5755196300604
12.2984752789077
8.37124410655297
5.31771291968255
2.54150689141391
-0.0444679621801297
-2.11006023482846
-3.30979346709968
-3.57675793537703
-3.38362013641352
-3.97491214430712
-6.95174404740894
-12.8847192382158
-20.187107409529
-25.9356725112077
-28.2009681128619
-27.4272966672719
-25.5256473033602
-23.9770513049879
-22.8026161186791
-20.8400255372986
-16.8906327506892
-11.1390747961609
-5.63727788439682
-2.76432356742132
-2.76482715520992
-3.24427807661493
-1.64536745334878
1.97106002976841
5.12922131134275
5.85170647640143
4.74133823159373
3.91655626163122
4.53154500636187
6.0581421647165
7.6862432037368
9.45640115411904
11.7401217146998
14.2258873000857
15.8215198614493
15.2642426098087
11.597403164439
4.43427051006677
-5.67926991854737
-17.0466331469253
-27.379184936538
-35.1100558944346
-40.3140398371127
-44.0633120341742
-46.7332214227481
-47.2499794820995
-44.2762382827982
-37.8591990546274
-29.4062911308833
-19.9486809264319
-8.86595796413724
5.12202123637687
21.5450314858556
37.2131714730149
48.2440674047359
53.0695197208649
53.0703304463102
50.4864837170362
46.495132357717
41.3437674465917
35.2639472816276
28.5188235059476
21.0863601473394
13.0724615166658
5.36691506549896
-0.617919546531829
-3.97521446115454
-4.90246261082825
-4.40354992141466
-3.7514355826813
-4.16665515636097
-6.34036134381428
-9.75499871422969
-12.7761044234932
-14.0125215803209
-13.5751669880609
-12.5809690507463
-11.5584652176385
-9.99319296799456
-7.47521546056515
-4.47913079180299
-1.61602080556439
1.1831791135976
4.06801047675153
6.32852540502171
7.01229606004238
6.54696539657239
6.82515445947284
9.00210593703372
11.6326069112902
11.8234164141835
8.29489478746412
2.71255545021583
-2.11721596759644
-4.77911352545351
-5.78340606539778
-6.26635824152142
-6.79334548940254
-7.25605570049415
-7.4425149220826
-7.54921502580876
-8.16088807411055
-9.72905558846684
-12.223124776765
-15.3839420197829
-18.9254105241261
-22.0772969230807
-23.3249232990006
-21.4480915604872
-17.0350595474641
-12.4352391535705
-9.79416862281765
-9.26743942020151
-9.37092880696576
-8.80324666552615
-7.39818276793735
-5.34065798759229
-2.31811484575125
1.82994672564404
6.03139231939056
8.56571954854406
9.04232413456783
9.28351946226545
11.8521543353594
17.7353803311715
25.3995947833192
31.8774891061066
34.8798378712975
34.2913951841816
31.9088682848734
29.753106329331
28.5879252646233
27.8729865816168
26.7276339527124
24.7050474647038
21.880926351223
18.5323243556923
14.7461974197183
10.2121190170166
4.41818437595675
-2.84847991339531
-11.1884845381999
-19.842298262873
-28.1914666794401
-35.7606433349417
-41.7571378122705
-45.2819444814857
-46.499664183
-46.9113864402711
-47.3611107186767
-45.9758244095908
-39.4289698564919
-26.7992987117455
-11.3891215887292
1.81629972258102
9.95402412596551
13.3392136682123
13.8710209119144
13.6087683211068
14.5475061887452
18.1544232038167
24.0123807395184
29.3698486300751
31.2211834117402
29.2181532755165
25.9172667397593
23.8865342512436
23.2202115865031
22.2484726670601
19.8999654969909
16.5755338392389
13.101068760294
9.67673556213031
5.85978704379776
0.969996268653062
-5.62191278079204
-14.1594542049826
-24.1342018736676
-34.2898614655492
-43.1122876171075
-49.4244480279556
-52.6214449420328
-52.4726797471415
-48.9720097460311
-42.6604597038821
-34.9256832905889
-27.3389464624408
-20.2582479497164
-12.3372980877903
-1.9901610191303
10.4543817156721
22.3916318198411
31.0760602913501
35.9577796779126
38.5309620502777
40.0846113146169
40.3366406489168
38.4518073012117
34.6446868306132
30.2232800761872
26.4772590211806
24.03836751004
22.9930994374498
22.9913105812284
23.2461786738026
22.8633692544713
21.371131739334
18.8661781830261
15.6355171928674
11.7189072894909
6.8691734171855
0.890399512087212
-6.00654816173733
-13.0820181970738
-19.198027069633
-23.2390843498445
-24.7940824680623
-24.594956982572
-24.0710711050615
-24.2444429449081
-25.044568117975
-25.665615542335
-25.4422714165633
-24.3406975122321
-22.7050003918383
-20.6735081490684
-18.1167362362368
-15.3802312379203
-13.7445041060354
-14.3913466548648
-16.7478657322349
-18.4822107471807
-17.4703309965539
-13.3462901127491
-6.96090787643648
0.985299769730256
10.1691318462927
19.8260686506036
28.4070961936661
34.3909234721931
37.3631465042113
38.0721990690485
37.369747957392
35.3876996318313
32.0126231898567
27.8512729503461
24.0479677571764
20.8580456748127
16.7913484784153
9.80297119746344
-0.407494442215092
-11.5674657668197
-20.6178582898462
-26.1769420115572
-28.9858499283978
-30.312658372717
-30.6228268296582
-29.7366011338012
-27.4783151524352
-23.9019856834723
-19.459714453658
-15.2028566548416
-12.1959704444552
-10.2033342062875
-7.3214069972863
-1.65412540028162
6.42181748613523
14.0287427911373
18.1670025232527
18.2300304879721
15.9012656764508
12.7617246185497
8.74741509361807
3.42830952732971
-1.84204589431577
-4.25072262192631
-2.31114862853714
2.36655814492667
6.44184591589128
7.55753348291109
5.6616717511768
2.50128432373816
0.429300805079485
1.14158599653514
4.48063858863261
8.14499441533829
9.33520904379407
7.49729122042942
5.22308148189141
5.58248618908439
8.3787284402471
9.7630199548604
6.04671085849982
-2.49687284466707
-12.0730373067629
-19.163172868806
-23.0192474544212
-24.4141668868168
-23.2216375950764
-18.4523303136939
-10.3688340101662
-1.27637041611786
6.24600097596653
11.2845439077839
14.5876275896577
17.3977714304326
20.6723032651176
24.7265158554241
28.8683958546919
31.5522511884448
31.4707645598769
28.628677013422
24.1082690309681
18.6357993782577
11.4637806666986
0.98950997567601
-13.1443881280679
-28.6443596048719
-41.7940637786395
-50.28897417218
-54.4995245088465
-55.8994488299569
-54.9269749445505
-50.898520538315
-43.6381089919502
-34.3581356747023
-24.5496537011883
-14.4251825385514
-3.16375606537716
9.25631356267033
21.2144499497462
30.8992039608324
38.0871308677789
43.7991612416315
48.3591163403071
50.4461397293362
48.2850204317376
41.5739468136764
32.15222047143
22.7740055945487
15.1185892366914
8.90801957274739
2.80685205822549
-4.22999394456605
-12.5273826427094
-21.5614255410123
-29.1347427918817
-31.1538395182025
-24.0723554201407
-8.73828120901677
8.68967564735416
20.753034392065
24.1375734987434
21.3920873338429
17.9152036915974
17.7618360476106
21.7579467562285
28.1870726389099
34.3376993777801
37.6235819364697
35.9731344449083
27.8416761890093
12.6398915010029
-8.20267386807711
-30.8389533132054
-50.5894038723205
-64.5051588319644
-72.5077978316531
-76.4018154274572
-78.1118525014092
-78.3726586556166
-76.387384001633
-70.8748569581176
-61.8033538079097
-50.5557301085537
-37.8173136573599
-22.1893845421406
-2.36244294253382
19.4111226347136
37.5297260029102
47.605355786005
50.3644506890929
50.5759869696825
52.4771432324345
56.4775284404929
59.6636974947747
58.6943586860827
52.3172202780579
41.989022231973
30.7524821513449
21.3991880785201
15.0976392958497
11.2535997752718
8.44623545123408
5.46882876944407
1.66091557255575
-3.31646789522278
-9.51050106341117
-16.2196630788157
-21.7376668158341
-24.2276071362977
-23.3798697475493
-20.9426036198929
-18.9809944079462
-17.7050317367728
-15.7078281422968
-12.3216331048113
-8.80062425831616
-6.69528185905626
-5.67380640417148
-3.7107082050696
0.519013318247313
5.88097949824721
9.80121213633875
11.0196064328355
10.8251967291631
11.1973753645293
12.2864735136872
12.6345693202888
11.6604404797893
10.700931703142
11.1584015173706
12.5127286938553
12.8811670663339
11.1238973810478
7.77790646137055
4.11108606997754
0.880180479749848
-1.83619524602881
-4.01856618061078
-5.3107515251882
-5.1917331624704
-3.39793527760193
-0.355007259870723
2.59972051745683
3.76107993777286
2.40837519920479
-0.439863441538815
-3.1563876234002
-5.2963659561438
-7.64414191303564
-10.673812282805
-13.8907048701503
-16.7152599363987
-18.9982452466427
-20.3639977324052
-19.9331112090479
-17.2563431747493
-13.0775814986423
-8.73913024110052
-5.02735752402905
-1.86232913533564
0.96253391141825
2.92497257498482
2.80696019399816
-0.221344979575475
-5.48188216326871
-10.9979659394566
-15.0924332007011
-17.6854988152901
-19.7172264062809
-21.3437979675227
-21.2069758644777
-17.7789360267961
-11.0469461173317
-2.47041222910425
6.31097838104518
14.1095756528175
19.9333525387244
23.1066049163354
23.8689431100354
23.3399255563944
22.7701142616673
23.0495854648695
24.6218498259536
27.2842629550511
30.140670089272
32.1381934735442
32.5599495627937
30.9357503867708
27.0908032569172
21.7039170660177
16.2235451458986
11.5288055005846
6.82114524993735
0.260183009536502
-9.32817155015908
-21.4091153351753
-33.9886506128027
-44.5767287319081
-51.1807561702309
-52.8573462488435
-49.5337257480808
-41.5061199769559
-29.5900600959129
-15.890253155534
-3.54996125945441
5.33788182529206
11.5033097047862
17.3499193614715
23.9784008623437
30.0289456059699
33.3507440760372
32.8819720572291
28.8433964190264
22.1728340240665
14.2622841072075
6.53560525544403
-0.300218002629414
-6.37726032319404
-11.9593818207407
-17.0251686795684
-21.5584053413663
-25.5711687532696
-28.5123081627736
-29.1758682016495
-26.674300599861
-21.3383863242556
-14.4108035240302
-6.94038889313022
0.927020406817357
9.61339577649746
19.0450912710054
27.8668654586455
33.8257350310808
35.2032605308161
32.1928484753975
27.0578688538843
22.6952100181572
20.4611698919744
19.1110101963105
16.1517871724965
10.5358993590365
3.86344358492059
-1.28739417520108
-4.01178146360751
-5.81037590889827
-8.86981993324707
-13.9572755891153
-19.9707079708027
-25.1310881688212
-28.2136731036391
-28.6594615253143
-26.0919665836163
-20.4377530446649
-12.6583420927702
-4.87814981975756
0.702983625376499
3.17795132260551
3.31370252280798
2.78531979097423
3.02179864027504
4.31141078558523
5.44264658026494
4.20482965470545
-1.06789414555346
-9.78989056730271
-19.0286251675668
-25.5238922812512
-27.8036648670506
-26.2884323310607
-22.036324643469
-16.0926401175232
-9.54498890542122
-3.12012014938388
3.4303527315175
10.8957011409796
19.2341981377171
26.7652492279324
30.8849232230432
29.8359315971136
24.1176614877869
16.235049674206
8.97267053301427
3.93645887137398
1.49607166864712
1.32162731357283
2.56308708253945
4.12968877843696
5.44591474393787
6.75763018804164
8.42849062735914
10.2535225327271
11.735705691892
12.693206504314
13.1399799149001
12.6602449369218
10.4626870905858
6.45467192063841
2.0102207214999
-0.929432885864968
-1.66080305806951
-1.24205190746903
-1.12630556614521
-1.7295565032609
-2.55301965988478
-3.21891279361752
-3.89462251274457
-4.87433101524675
-6.17509082246777
-7.57935536511348
-8.8089868735287
-9.53589908421957
-9.35395617777687
-7.97587009745688
-5.64944073727585
-3.41235880011454
-2.73975887042517
-4.5505302486534
-8.21427007864961
-11.6024358893381
-12.6146539129498
-11.0292863347227
-8.71204730310775
-7.74670356688783
-8.46504425683957
-9.47084559577904
-9.29251536465904
-7.55096631253183
-4.61620897445622
-0.799849278630062
3.54191923063927
7.13351576621106
7.6806815442393
3.61740742284163
-3.60946317512635
-9.63752503345454
-10.5130999124796
-6.07432393146043
0.310402859316384
5.17029910770072
7.60256674305398
8.87450338572621
10.4783407667974
13.0649001590723
16.530132009479
20.1090170114743
22.2413539598866
21.1053626263976
16.040534388401
8.49273188958306
1.09908234162091
-4.37743453396375
-8.02354132812139
-10.7486281065693
-12.7744189018806
-13.3977801463586
-11.9110462142891
-8.36247770615674
-3.44222152204526
2.08465500051821
7.60507230400511
12.3468842296091
15.1694666224886
15.0554069533498
11.9247149760935
6.90351004278035
1.83136025577422
-1.62020681597221
-2.89773082446143
-2.99455601484142
-3.51240354848021
-4.83159645895006
-5.51983734490063
-3.98541788030426
-0.433668087572471
3.22490006512472
5.18072527291076
5.10133178709278
3.91246896051205
2.54344872644748
0.893157372595106
-2.00770053624644
-6.73917583746209
-12.4812951364551
-17.4415140730207
-20.2711565446609
-21.0165397500962
-20.8750046752908
-21.1398841375912
-22.1304121441755
-22.8680536663669
-21.7947953169398
-17.9297162935772
-11.5060881638416
-3.7883967340034
3.57081329007015
9.25648299695274
12.8159858770379
14.694083587973
15.773795250398
16.808340109593
18.0741310782335
19.294178952775
19.8761012885006
19.4647790521199
18.3713516731789
17.3205801825012
16.7102740046053
16.2400023430654
15.3286728017512
13.8073223873438
12.1164752168038
10.7984914696725
9.76395392784542
8.02603272035165
4.24026402256905
-2.2455966449075
-10.6509461753451
-19.0929716417024
-25.7780887823
-29.7702351799505
-30.5486796952591
-27.4376104297782
-20.3880965676205
-11.2725313288421
-3.20530083518053
2.26815723471775
6.7949671988076
13.1702936265839
21.7610819353536
29.6405841417518
33.353384369467
31.9336812096693
26.9517336140748
20.3064196887019
12.8796171233057
5.24535290763815
-1.43309919859746
-6.07428866854995
-8.99460112715893
-11.8134025730706
-15.7909273378385
-20.5397950082396
-24.5565348965358
-26.8034664541003
-27.5441998594464
-27.8094814263829
-28.4088130527392
-29.45326257274
-30.4081968154209
-30.345652925629
-28.4180912764986
-24.4552844449756
-19.062687253618
-13.0271149636692
-6.89821449916711
-1.29052093078429
3.01763117606557
5.94645159473771
8.72951405602916
12.7884333104338
17.8765485276887
22.0047785431386
23.5344566173663
22.9957227833831
22.5780053784466
24.0127788134475
27.0983492841756
30.1118915317862
31.4280210953916
30.7040486905305
28.6860779624652
26.191470574425
23.4479015264583
20.2227179200924
16.3103674113081
11.8980517551716
7.64281392904847
4.41956330494682
2.79598979953747
2.53021075828178
2.55238959483053
1.65226901888319
-0.60439828903955
-3.70020118900975
-7.02562241351642
-10.7015392170703
-15.2367762270023
-20.5468871328825
-25.7647572408111
-30.0077151112463
-32.9343855262118
-34.4776607465086
-34.3340513117093
-31.9032577174532
-26.7793687582673
-19.4455766792964
-11.5223888037738
-4.9990907099687
-0.805062415004361
1.89125939578051
4.66257193069733
7.93333156894465
10.2927750242803
9.95138150195
6.83703081010068
2.9474747003527
0.514425471873617
0.0660215365839502
0.44070841179238
0.344523141766368
-0.517556918480163
-1.63206845368084
-2.38348480406217
-2.3462572092006
-1.20722907511686
1.11148464979182
4.0132430299735
6.16125920872682
6.37346833330873
4.71179552897047
2.32817985475499
0.207514547247806
-1.43009325530744
-2.46827618370168
-2.44555986564962
-1.16560040490953
0.828404227355089
2.83547331522223
4.70446287055317
6.69208586911362
8.93322281756607
11.2748659225811
13.4525953870372
15.3429944976828
17.1233662728682
19.0512150996353
20.8936039784726
21.7165965838789
20.5023109234513
16.988399370934
11.860873772953
6.2680121401228
1.19035751526787
-2.95657910795155
-6.28828646325001
-8.97907951488136
-10.8371071926125
-11.4871417765408
-10.9615789663315
-9.95141922396255
-9.41041862849043
-9.90409430273466
-11.2209483336966
-12.4922289635588
-12.8025117985687
-11.9655415415402
-10.8114133929008
-10.5283192708121
-11.5410245847706
-13.0706280225511
-13.8298328909496
-13.0247938874567
-10.6826948471817
-7.32381942738939
-3.531734980452
0.410596968290026
4.74289388244145
9.87614223245377
15.576617632917
20.8178546939593
24.7340023567554
27.2602649096557
28.357833759434
27.133509764
22.6348606758229
15.5389982574819
8.25796752537167
2.77977498509219
-1.51092238187406
-7.40321356147865
-16.8957447955979
-28.7097284732471
-39.0640922331783
-44.9369485573301
-46.2235513505288
-44.7407241760028
-41.8198401020702
-37.2927973208377
-30.3669707772938
-20.8914601785856
-9.731815235077
1.85261911327534
12.9516859857969
22.8441373511021
30.2108010276235
33.317663615893
31.6293419663815
26.9060537176448
22.0778086798771
19.0629397272989
17.8827119125773
17.4503971192794
16.6507217795167
14.8947138257238
12.3335701978447
9.74545508015856
7.9015696494619
6.85658109824055
5.9699664118795
4.65264388757743
2.88028003932242
0.871958402873713
-1.41164768103752
-4.04735350306527
-6.54775193326416
-7.99062252861208
-7.93372590191338
-6.90432547728421
-5.79108485149116
-4.95606042573283
-4.11388388489084
-2.8781698520328
-1.14170259973716
1.03602886940508
3.59152413355514
6.27648908272143
8.44081426557819
9.34662324681165
8.82589608745029
7.37847384554961
5.48176700019138
3.10944913884077
0.181098170924527
-2.80441094803693
-4.99951046142889
-6.05619988308954
-6.51117270251293
-7.28026546976928
-8.8099360252733
-10.6455790491709
-11.737336203919
-11.1657054779084
-8.63209773183971
-4.45750728083498
0.5458941621779
5.12145270183455
7.9030890411614
8.15080529793433
6.17453290357392
2.85543269348915
-1.20853761008888
-5.8997368254223
-10.9753156435311
-15.6491420569981
-19.1470313411901
-21.5438612233687
-23.4910994714932
-24.927731804784
-24.621561764118
-21.4398787192488
-15.6517084173464
-8.48559245099127
-0.911709598820658
6.41465432007713
12.4596114493217
16.0941554290619
17.1495316250407
16.6156373551703
15.7927123915828
15.5536433437715
16.1103148938646
16.9277860312158
16.982464249196
15.6953565840672
13.838807457968
13.2293672250144
15.1304338245883
18.7973355404521
21.7751108232847
21.9535843968833
19.4131766906966
16.0878590232041
13.6288462977652
11.8235935191954
9.11172697535397
4.41091881094594
-1.63773582850023
-7.08982912151163
-10.3015148866167
-11.2534511422893
-11.5152030671021
-13.0043080608573
-16.5067338186611
-21.0101608526338
-24.512783866162
-25.8066778956778
-25.4677527456862
-24.9001675159173
-24.570528601438
-23.4706676519555
-20.2063440064563
-14.3623466724049
-6.86693549542202
0.734905710973457
7.14770530501635
11.3466316306592
12.1276684399434
8.64060793271371
1.88750990994156
-5.07284036342193
-9.35050318227023
-10.5565859206649
-10.561118141165
-11.3169048502901
-13.1946546020726
-14.7336813872798
-13.4115303510696
-7.33854039959471
2.80820359478643
13.59911528486
21.2063764880219
24.0764290136234
23.327043424502
21.0945531087288
18.8949502175807
17.1252486967984
15.4567820383399
13.5602030537331
11.6211175261609
10.2461724186084
9.96488644318848
10.8953957066877
12.6794617201656
14.4296096241558
14.8765879189066
13.1146621404872
9.47631432532811
5.4216981359841
2.30018851097502
0.278791157946416
-1.46877272620873
-3.76986794362159
-6.81273336960751
-10.1515756650165
-12.8696012736627
-13.8220804252952
-12.3223001442136
-8.98323519125004
-5.73850728193002
-4.65163793887689
-6.34046875966188
-9.35139272187546
-11.2112750627623
-10.4798902614228
-7.99947161941498
-6.1361530115168
-6.76321179701185
-9.77194284137342
-13.1055773348242
-14.1099569711661
-11.3557681471458
-5.72096239680848
0.251738171326726
4.31822473731257
6.06971901070053
6.77670058303
7.99939116801427
10.3025120172172
12.9446797437136
14.5839647717549
14.3515971798061
12.3732009467982
9.46117998107832
6.62074034935605
4.83858377672194
4.78070817389981
6.20366912758757
7.85354262927553
8.4356697898309
7.73965579864753
6.46568882767347
4.85491301918249
1.90897067869049
-3.58683986803006
-11.2903541658541
-18.9388868894755
-24.0084300631996
-25.6936703773908
-25.2686841360509
-24.7444126803744
-25.2045388030412
-26.0462166838676
-25.5350879785966
-22.2947654844314
-16.5692290093651
-10.083303287856
-4.63975642337411
-0.860126898219011
1.87342466343811
4.53686450342106
7.56902130005423
10.6309250510308
13.1121399883079
14.8395196085266
16.208527897983
17.6514460575319
19.1672312298867
20.3670454401936
20.7706204800896
20.119276480512
18.7028864145545
17.3650377742102
16.8227461111434
16.8047880694485
16.072759472613
13.5939189943979
9.74528804187247
6.0718130612798
3.56187108117494
1.36846265838774
-2.20010307731334
-7.32170747029637
-11.8719086746284
-13.4022565335604
-11.6142619525941
-8.4998444222328
-6.20906950659421
-5.11788095480232
-3.92806498007132
-1.34930700453364
2.44486029525852
5.86407133339072
7.18690730643217
5.86560001122744
2.89594734592678
0.0550881763240032
-1.50723871387176
-2.19331205118628
-3.36356549320317
-5.7247162452494
-8.58713137588546
-10.850256984019
-12.253441976726
-13.2348476435723
-13.9272749716745
-13.9684729625639
-13.3530848184314
-12.9452332758462
-13.7476588726729
-15.6628443359676
-17.1898091130815
-16.5822093456692
-13.4221895929357
-8.98916647812133
-5.0077673232906
-2.12697509426931
0.306057877502132
3.26219313533131
7.21284666105424
12.0903735522752
17.3164482756659
21.6030911099172
23.4304030135692
22.4565438934128
20.2306416394614
18.8076294128398
18.6036266885306
18.1600033585132
16.0727445771006
12.5142931696103
8.63468522936058
5.14070181733144
1.9979563704453
-0.851360225417266
-3.08595148850834
-4.32051558944492
-4.47917184433424
-3.76773800571999
-2.47833077674692
-0.979526628487541
0.234435769494937
0.825497835153574
1.04408491887015
1.49227033196369
2.09636676355901
1.62523291642657
-1.16708608285946
-5.95247226459149
-10.9557444080621
-14.7946471686012
-17.6905465726964
-20.6098977705907
-23.6478747871487
-25.7156011916904
-25.6782041845213
-23.3710375668933
-19.4569995491972
-14.7291318682983
-9.83895095068399
-5.28333876255039
-0.979267140505028
4.0333736156049
10.5591836129028
17.5326725652054
22.0767587765132
22.0191172447044
18.1416426324368
13.4537865081695
10.3865481791421
9.07742224923897
8.24555011218984
7.13487336419844
6.19604937784185
6.07322692642894
6.52113130845287
6.62750222649553
5.81180487474546
4.27146568435299
2.60077583071955
1.27078732243969
0.419032022398023
-0.0832153414653351
-0.406400646014427
-0.607518465230729
-0.762850584255095
-1.13250684847919
-1.92980144185535
-2.93726347468674
-3.59123893518389
-3.50326288661503
-2.81666991134031
-2.071981080505
-1.6686889485872
-1.30586058310465
-0.147511203310764
2.03447598923943
4.03402976308739
4.17781642485589
2.1780553354827
-0.622617463368359
-2.96589229843498
-4.89266255297031
-6.92629178437422
-8.74599050706258
-9.31509024307357
-8.09675572664285
-5.65782558081577
-3.08095010090813
-1.0993227117377
0.131018919805966
0.744204476143892
0.980793278220888
1.19523118733166
1.70394160145995
2.49635969012645
3.18167884402661
3.24222702765937
2.35558187338063
0.611966213087933
-1.53378340370179
-3.65646877341543
-5.68074004821814
-7.58712296733208
-8.87409213920127
-8.7144939405288
-6.740974936106
-3.38999146057405
0.518957830771575
4.19149451661245
6.92697475012213
8.37038863764775
8.9463929883749
9.62501405386213
10.8257527683404
11.6695377627131
10.7253582974139
7.62439578525407
3.67579537523723
0.689587925098824
-0.635229431139545
-0.946048142737895
-1.09600017797852
-1.23919481173207
-1.14012418330188
-0.93837912304566
-1.19488431588726
-2.21042428722878
-3.56574524731887
-4.47219718963648
-4.44777277288516
-3.41105877309167
-1.22967885959434
2.18479289997875
6.0137946731039
8.5035748194057
8.68031531728749
7.76174529848646
7.88195090281221
9.41420273200655
10.4482367036144
9.12081787931791
5.66208816626711
1.6989036870717
-1.85950448808725
-5.5735081728895
-10.3195545487697
-16.0086052132941
-21.5551143054836
-25.630814896223
-27.2062583212811
-25.906336854591
-22.5206909020037
-18.9017323421283
-16.3962527491326
-14.0941748660954
-9.39422483111421
-0.936166512495152
9.31414337650589
17.4052656475778
20.7546543919189
19.8795064563117
17.0293472552884
13.8078468077609
10.4926308832653
7.12441468407112
4.26220123664131
2.35053865593536
1.02778117640257
-0.283396216554692
-1.37949983455241
-1.51234615415094
-0.585311170603695
0.469797735915566
0.745123847323069
0.444727285204687
0.578937448923347
1.65506716702313
3.00714476711058
3.57781364103738
3.14317940006403
2.45779836220471
2.23867322744923
2.37660146066473
2.31032207318801
1.89227925334789
1.5893264682016
1.90693479996861
2.82695180688807
3.81417631785064
4.24362349204246
3.78241887837427
2.46939273475677
0.612197398107662
-1.31280431719727
-2.81317800383583
-3.64651643539737
-3.95787905974383
-4.05219997048945
-4.01515646249285
-3.62277429724675
-2.64756263790611
-1.23898678122192
0.0151227041636647
0.473879484499518
-0.0090680233949384
-0.916488936577088
-1.49732498974179
-1.3232986227386
-0.400729468288268
1.06047963076553
2.77707677380423
4.40289389635943
5.6446108795541
6.40123222826
6.75129772998568
6.88154492295152
7.04197368048662
7.38847271330567
7.72498646651839
7.48389902307707
6.14253652999153
3.7533424314909
1.0103918490866
-1.36020006866186
-3.33053402126111
-5.51676847984859
-8.27867924250896
-11.1339474307619
-13.3247870166266
-14.6745505493074
-15.4395313690194
-15.5040369466934
-14.3516132252106
-12.0341637118892
-9.74390439006948
-8.9350029284447
-9.77401630223209
-10.7124842216966
-9.8708258006702
-6.83866074098353
-2.91992893196156
0.351435452829215
2.63797862503569
4.73612156161891
7.50416648004239
11.0649302474299
14.7562462935664
17.5453815920419
18.5648534057976
17.4418668203808
14.2571846512853
9.47471187448156
4.14043959355645
-0.202401806342549
-2.5544039568567
-3.6938261609226
-5.77310478880663
-9.94580518117531
-14.4925971381857
-16.1167732935872
-13.4837891961447
-8.91179419296112
-5.95572394020212
-5.59407487472237
-5.42331020765399
-2.5673436389095
3.1645580216869
9.14941484762086
12.6223197320435
13.2240013473737
12.8945648769082
13.4300569568779
14.5429246172795
14.5347901535256
12.3926959281622
8.61847023578075
4.28076706755917
0.0920229191085633
-3.45617532423347
-5.77924043325206
-6.50817126717989
-5.87564067987081
-4.47861144329014
-2.70303199871686
-0.540416537378353
2.00388317343138
4.44311727917057
5.97802967453006
6.2573215772062
5.79864542157599
5.44858000515563
5.48378025800378
5.35781391821811
4.28625727271
2.05713752817658
-0.680111588648945
-2.98272317200793
-4.53488784456523
-5.86797937747643
-7.56404817744504
-9.43027023365592
-10.6452435987404
-10.6063661672764
-9.49532930825435
-8.06361005528254
-6.86157532982858
-5.6107943859223
-3.51281045193258
-0.396391759654028
2.6536486640069
4.17010853773657
3.73980367866886
2.30648649136271
1.1167725194294
0.617750263563474
0.369654876679484
-0.229750839673947
-1.31485698294705
-2.5819835783867
-3.73805171944161
-4.71756343151697
-5.4505426660409
-5.6732769745439
-5.20831930131938
-4.34192914218359
-3.65826145595228
-3.44025232954257
-3.4003300076032
-3.1005583913015
-2.51245442154632
-1.9563010333089
-1.49926760384951
-0.715341300029726
0.764612465602272
2.69507044941931
4.46711117842515
5.73511299571101
6.51329599351934
6.81711992321273
6.56787709203223
5.84934715862761
5.00936551797428
4.4102281389719
4.08925991391651
3.6637023637266
2.69445324283852
1.2788911607089
0.132304860862101
-0.105192674126703
0.520045771767521
1.49886895016604
2.41261642944591
3.05119377844915
3.30495275803839
3.29820706867236
3.47817779057214
4.23524263523438
5.39962510645764
6.27494775077643
6.25045029367695
5.37798024316931
4.30823229389004
3.58469875423953
3.01406363090688
1.88465830933294
-0.147962908669342
-2.56960136991321
-4.49992967490232
-5.53817215094798
-6.01260957071008
-6.50576244344369
-7.2899777686549
-8.20361319074011
-8.8728895165012
-8.91163984569944
-8.0754881127722
-6.54234479233686
-5.05716251913307
-4.47980616387869
-4.98933599964122
-5.81969895436145
-5.85467265382114
-4.45382564030763
-1.81479273802855
1.20766711239854
3.58620416988074
4.69240541585629
4.6562974743723
4.21242994544015
4.09477654935712
4.44329459168909
4.73766349295262
4.40970741483325
3.60028024366968
3.14838254391148
3.64714014701623
4.66090022006035
5.16057742999096
4.67785829932908
3.71973129870559
2.99372833899158
2.52020332912808
1.71248563303492
0.196015972112973
-1.70881949585336
-3.39018633191261
-4.64537248247674
-5.75446250350471
-6.93093307827921
-8.01826989451974
-8.77092290828803
-9.10790271721511
-9.01556459360074
-8.53373914746482
-7.8969105816853
-7.30492486686954
-6.46170072534148
-4.75078317586712
-2.04756400893735
0.964090762294064
3.45534265761342
5.17628889564013
6.40445006727334
7.49124451193856
8.72916243991517
10.4873414021171
13.0714887648667
16.2479387205098
19.0404164561241
20.2353549399797
19.186378349491
16.1684754538245
12.0771256156768
7.80358802560657
3.70742033124476
-0.380708460525274
-4.49432970664704
-7.92214802882469
-9.59658267604048
-9.20770890022733
-7.69091873526847
-6.49173534506644
-6.50697148723955
-7.72563585596651
-9.57392995129158
-11.4734869663194
-13.2718396936729
-15.1689352730023
-16.9882989032676
-17.6020455591739
-15.6021594835295
-10.8494807559368
-5.10919200098967
-0.792222265758376
1.01180778864189
1.23148750627369
1.69293266385799
3.46526691271605
6.21078667782796
8.80549188051781
10.318282243533
10.4834194318634
9.57752270584368
8.05187398429172
6.21469731014693
4.14935843981934
1.9013122691138
-0.303325098412909
-2.05899383412359
-2.96749395061622
-2.8550366761296
-1.90430038174066
-0.540525437371232
0.912277672733338
2.38774000454484
3.79377540515167
4.74146249168989
4.79420806593781
3.95084094157447
2.70813341645097
1.6362929097661
0.964884690367238
0.540707844283349
0.123504153561388
-0.263178928034065
-0.300325155365325
0.237656226496878
1.10753877116539
1.682569886832
1.35133853316799
-0.15248479230792
-2.57153531080073
-5.13857423617256
-6.96133247128316
-7.59209073759949
-7.20022104061314
-6.19130573310657
-4.81538447866467
-3.20730333539766
-1.62975535510338
-0.46401118668579
0.0810454626986483
0.151349015044472
0.0268164657951456
-0.271459475921217
-0.971825758052335
-2.02217715002423
-2.7313024323696
-2.19224448378654
-0.100648847533915
2.90070178723835
5.64026167835846
7.19665898519928
7.43922457285674
6.90283320473729
6.13748373964341
5.28946493944474
4.38837835452882
3.78788395255967
3.97411206663702
4.94513118781118
6.04268844222791
6.50771600837795
6.14468195400434
5.4444263663256
5.11714902308223
5.51993582772032
6.48273024672398
7.49762783701528
7.87082450183279
6.86231667542885
4.14999922498783
0.273298931536233
-3.72135714638005
-7.22292211007189
-10.4355566842572
-13.7581815266914
-16.9762576594996
-19.1610809828473
-19.355755702189
-17.4076120837066
-14.0763950551722
-10.1842616348475
-5.80625912612947
-0.614129307289608
5.10237904337208
10.1719481174482
13.2729863300166
13.6410520669476
11.2749764646556
6.96834151603421
2.11254424119576
-2.03936184494749
-5.1333584039138
-7.55188365799972
-9.44946761038573
-10.3092730541621
-9.82484770557214
-9.03864464490802
-9.85986195621745
-12.8925876974188
-16.0616137647798
-16.1946868263125
-12.2000703451542
-6.20055289947669
-1.28060483065278
1.50065440422879
3.61024735158809
6.96023685836041
11.7783996794197
16.4542889375488
19.0650980302544
18.8607183114937
16.5398706944689
13.5159412308455
10.9519460805541
9.10211846662945
7.31579625710089
4.85112883323394
1.87579097463546
-0.50481031157098
-1.42437969860168
-1.29255015627157
-1.35229702305067
-2.26103997845604
-3.4491282307139
-3.97928886425567
-3.72842577323598
-3.41031761379332
-3.53098144979468
-3.6925301155649
-3.07282836669838
-1.37656551993135
0.853025892617721
2.74315269457892
3.80006010003075
4.2148649534617
4.56848787688509
5.22791769988226
6.04720888513848
6.63098224522933
6.6985623190358
6.10968580381028
4.81828884580587
3.06218426631786
1.38258052053777
0.123226197522249
-0.981250343584541
-2.45150224185464
-4.39086982150701
-6.3452079475733
-7.68469178315221
-7.96241527420626
-7.07274929867373
-5.29034629960441
-3.15588777593988
-1.24567066333536
0.0060721777926324
0.405250954050869
0.0700785356513488
-0.618708569382778
-1.24254915636423
-1.56547859631443
-1.61521444491571
-1.65902916279245
-2.01868630292055
-2.70639535784382
-3.2543387969044
-3.07969276718468
-2.05076389033785
-0.637318555445308
0.459786330324546
0.837809108171025
0.68996343768805
0.601870299917639
0.940492779223075
1.47187391575793
1.72064750365868
1.64342841387276
1.72618582055776
2.37822823950703
3.37989008299382
3.99577794133806
3.60335359780923
2.22761964172423
0.474320576682151
-1.07357901227301
-2.3255243225578
-3.51622642918872
-4.73116527137523
-5.74559389034582
-6.24642377415993
-6.1066906975928
-5.51130021418536
-4.86392852277233
-4.47472979313867
-4.27471113156446
-3.88273125732836
-2.97854637724741
-1.59730032864923
-0.102546368714328
1.08029889811942
1.74825732061983
2.00512633227777
2.08423456616886
2.14033777812878
2.23854378687876
2.40244488997247
2.54984625922008
2.5104401004195
2.2583017910095
2.05715268700286
2.29191018737526
3.18340605042331
4.5875734399603
5.92628528642499
6.41470206050143
5.61378625244703
3.81553416786383
1.80184006024261
0.268019883252145
-0.485024524990177
-0.496364760389601
-0.0045671374464211
0.674195971823393
1.25868908029257
1.55099155390056
1.4507091182556
0.99134500634353
0.303090222456272
-0.507487284397099
-1.3622876804566
-2.09331999671126
-2.45159754906164
-2.28318559022585
-1.66086806353762
-0.888877437625115
-0.397218871785659
-0.473213097942862
-0.967612072560264
-1.33740814577363
-1.04485981865184
0.125921773689658
2.03828166514537
4.23343615958878
6.00016072649047
6.71384579434964
6.27051980709423
5.14231904380485
4.02122258344798
3.40246038422869
3.29599115659081
3.17585509253926
2.3699770546688
0.728099709644947
-1.10945056454777
-2.23645577378872
-2.30791919180252
-1.85003491038827
-1.8338778432573
-3.00031651444752
-5.4636544019023
-8.67882791856032
-11.6275448542618
-13.245928930164
-13.093537373666
-11.7621190433064
-10.4052721680625
-9.69217678024061
-9.27925789417686
-8.24938502152794
-5.87484877575805
-2.08549720904327
2.39696553873823
6.31311694517086
8.61107491818279
9.1978761636603
8.92177412042218
8.74696607771355
8.91511711030703
8.82864422935982
7.70105688549478
5.37309605844701
2.52302501047059
0.077953874573303
-1.49771820385197
-2.31266331185254
-2.66414215319996
-2.72084942214459
-2.4820345533153
-1.88742678921924
-0.935794141280526
0.325569198233728
1.88312292928609
3.60316599105586
4.92990933246506
5.07671636211437
3.78644842219177
1.70828634344335
-0.196708291132748
-1.47023161007021
-2.27106918805127
-2.95387860798809
-3.74656498046472
-4.64411680517079
-5.38327184501097
-5.55290132435922
-4.81592436101109
-3.07592455349612
-0.57953489591151
2.06164779138332
4.12558132116291
5.23056302724291
5.51330783845028
5.36196234180593
5.06227031661998
4.66098735516344
4.03249823023266
3.08085116390878
1.96034747198523
1.05143531701608
0.631025613352504
0.597071699073833
0.555420241816417
0.131901299552795
-0.782279055788602
-1.98379836368661
-3.11959218930523
-3.91946524252064
-4.25837754431418
-4.07273921215688
-3.39892077144693
-2.50025813778114
-1.76826526925531
-1.43063378767718
-1.43265171885508
-1.57481219896615
-1.66637470003485
-1.59140934208409
-1.33466064276388
-0.924830404210125
-0.321467923057091
0.549554677276394
1.61557048283891
2.63598328569334
3.39196100240483
3.7811211934564
3.75690270695486
3.35404104001178
2.76708161265861
2.22946062730668
1.78378687581173
1.27755999358149
0.613007153431435
-0.0586509217010872
-0.441502810911937
-0.413075772653493
-0.197343027402321
-0.130099861145695
-0.257108917597195
-0.298448988795204
-0.0579087759270636
0.267645963487863
0.279095512607705
-0.203608598265754
-0.982215918424643
-1.70997573469945
-2.24697809517275
-2.76010341927621
-3.43435548089082
-4.15727991750503
-4.61734264851092
-4.66142974561026
-4.39465958923692
-3.95636047623985
-3.35633449253496
-2.54471705596556
-1.54952125692352
-0.528057022274051
0.319096345920483
0.944834276165601
1.54252033283439
2.31462849058271
3.16418307561856
3.75110746666903
3.83796570779419
3.45591495679184
2.79274350353926
2.06668079679128
1.45486120848815
1.01711340615248
0.710465521703226
0.505260528934053
0.423279960281666
0.469223362573064
0.588369848413413
0.661597589368596
0.533522100452108
0.172808092111871
-0.160462707528885
-0.0814481798602692
0.503269620619819
1.2875940240159
1.91926085835478
2.30946507479341
2.58099793714548
2.89285523131425
3.33829001859974
3.85271635595933
4.18472415038127
4.04244234935401
3.28036233220178
1.96077776936578
0.342565726587215
-1.16989841854669
-2.20851757451765
-2.67067639497143
-2.73360766864343
-2.62130532491479
-2.4151968079861
-2.13263494688337
-1.95063601281194
-2.24587189705513
-3.28633580117664
-4.86189028799671
-6.35077072519521
-7.21814928399972
-7.35416489617639
-6.95395219209885
-6.29359917478647
-5.63532185547966
-5.08993667886713
-4.51352263126956
-3.71161046262046
-2.6671204851807
-1.30543788046699
0.837720285818688
4.22236193318654
8.36614759585725
11.5975841138489
12.1505799106728
9.67972349588464
5.66785805083613
2.25162425815214
0.577878053993048
0.254073759876797
0.231359691401719
-0.0476239977356151
-0.400788821429573
-0.465579978970244
-0.232619646677827
-0.0703926379776912
-0.336443163754199
-0.986590811083704
-1.60483184404177
-1.81599853977628
-1.54706419771592
-0.887190092459929
0.0558186813640961
1.04473165138196
1.71011582803428
1.86438941049987
1.68704779063549
1.48194524267683
1.39495954255927
1.43181499098646
1.56376559646988
1.72721002068623
1.84903513178701
1.92221427789936
1.97566720460866
1.96515461492288
1.76009813561533
1.2613285282116
0.51850065054856
-0.310746054873619
-1.14963698427268
-2.05857882927304
-2.98160922294582
-3.5431061279461
-3.34127792142183
-2.45447755004224
-1.45548506860179
-0.889380287391723
-0.867037719494861
-1.13561489472449
-1.39132060381321
-1.53553230108247
-1.70970062326743
-2.04026129596731
-2.36410763079049
-2.35659765851274
-1.92973994856573
-1.32842457602369
-0.828091508239036
-0.502022842307208
-0.284430127979253
-0.099476097495425
0.109510999952608
0.385818386719115
0.759626904587742
1.24673725952851
1.81416781189362
2.36489419205718
2.81545474147026
3.13944982272504
3.26945643436805
3.06460872245993
2.48787840294875
1.73061725615417
1.07929845405472
0.715644531625478
0.628645800225788
0.60677345649231
0.354262174614797
-0.243253085551948
-0.975519912531535
-1.50504270096687
-1.65730523938366
-1.47348957972156
-1.09946184449269
-0.720243073835016
-0.514119768956071
-0.582011437139195
-0.939569643081157
-1.52030932041425
-2.08476692275218
-2.25144966100874
-1.85400949010924
-1.24966977976384
-1.0658577629418
-1.55992081919377
-2.28299063449571
-2.42669285281847
-1.5489760073584
0.0122151573521765
1.46238636291955
2.26073701804595
2.44144516281347
2.31611094376011
2.09372286145224
1.85100948385852
1.65746874500738
1.56870566871156
1.55939628989742
1.52325147959551
1.32384848631534
0.901561087775092
0.37139685183069
-0.0781646306565335
-0.403359634476591
-0.692999559697919
-0.947936374797899
-1.04410382503265
-0.921984490449779
-0.66559603032288
-0.403382002631231
-0.254397027282556
-0.330203095819069
-0.648115280240512
-1.05377667594429
-1.33224181047415
-1.39105755645434
-1.28484797511414
-1.0949523958237
-0.835512845745426
-0.481312198340038
-0.0725247601592858
0.281355336998456
0.584764000390566
1.05014400774025
1.83126213945269
2.7064980825104
3.21042798201235
3.07544247776288
2.4288091257781
1.60013220860298
0.836554577856122
0.156505500590867
-0.587845210637731
-1.45649138946459
-2.22876335124419
-2.57203042061487
-2.39085676863952
-1.86629926843464
-1.16929790653939
-0.307418638647197
0.724723006002698
1.75566154124585
2.42940143302984
2.42002965925167
1.75629734466317
0.906429193735245
0.405554491827496
0.409637706042639
0.682961808452918
0.898206579752967
0.823894850918105
0.376451625961261
-0.306032408568692
-0.90884425784168
-1.20286233611888
-1.22340757680472
-1.15231037974179
-1.13377086834388
-1.22568208270767
-1.38536077418806
-1.46081500651253
-1.292557355208
-0.839764589982909
-0.177272606080913
0.563525347024626
1.19927515799354
1.50370542174167
1.27889305160069
0.457967551430766
-0.791987124087717
-2.05830461947348
-2.88458515771558
-3.06121402008724
-2.69011539897153
-1.99821232724651
-1.19117111705908
-0.440976454569554
0.148178525645975
0.570037275436631
0.828238723290143
0.889590413692411
0.801407876529042
0.72081332829984
0.721082134013835
0.689672967833455
0.506885304914135
0.226617561693079
0.0197741837810802
0.0036018082311696
0.145086483840099
0.2887148261692
0.291370295541703
0.15651301588597
0.0115083712649567
-0.0329558475029394
0.0574159904947843
0.276556148997454
0.572463234070833
0.837411400618266
0.984775718210083
0.991736367039322
0.848551675794555
0.594805780004789
0.425461977205705
0.580635661809237
1.06698895636461
1.61552827265799
1.93865863091969
1.93191945611932
1.66400873975074
1.30495871426993
1.0480625972761
0.988096312225845
1.06561200975318
1.15762843766006
1.17163382181868
1.05036734954821
0.779667423779508
0.394669550820995
-0.084250428798384
-0.654996207209586
-1.21916037549187
-1.60317231591727
-1.77119512680263
-1.87229731218729
-2.01950475123039
-2.16895377324721
-2.25736915350432
-2.32468665741964
-2.45218148616593
-2.64118275508318
-2.76770607695648
-2.66954516106621
-2.3406169671099
-2.00561695809863
-1.88554337377483
-1.92450660217984
-1.88051018789898
-1.62573978936516
-1.21097976826178
-0.721270630986388
-0.240040580475127
0.104053302118143
0.198905921463888
0.0480337897507047
-0.227050621742019
-0.448364253458805
-0.470504070690649
-0.269779598360252
0.079958584397265
0.526268554222534
1.04149361699159
1.51428813127537
1.80095780759163
1.93382675695814
2.14118595282343
2.61307821665913
3.33586359322169
4.13387074756921
4.76994821687712
5.0500022334076
4.93689920091375
4.57971934336628
4.2588153461178
4.29914938190465
4.83576750759649
5.51343978182921
5.61688515778096
4.71331158856456
3.03863773708019
1.12940657529421
-0.703666712150675
-2.37692523425106
-3.77161509672321
-4.74439218190049
-5.29883127979046
-5.5760051517693
-5.73677448723534
-5.91392891487558
-6.16507743268454
-6.39391254402537
-6.37585273056442
-5.91886722607473
-5.02371258816157
-3.90146719547266
-2.80013751090019
-1.79634564206484
-0.82032327542866
0.116436603533025
0.849824561525104
1.2608668548308
1.42411272869096
1.51043777001297
1.62946688237928
1.76712362621008
1.78295195200995
1.51439263447222
0.997362206327458
0.504239473228192
0.251560604740634
0.192380021701519
0.194552171998177
0.239558734206278
0.322065334099997
0.340639265934517
0.238512174988721
0.146500476465483
0.285340772213499
0.759379959701312
1.45352625176513
2.10031653996007
2.47394547828893
2.54663328966034
2.44405259448433
2.29276065936218
2.17084035932636
2.12741710589639
2.13807060766538
2.09883102197495
1.93580079385539
1.62511287905448
1.08518891442797
0.236966451653155
-0.786390283931378
-1.69016435260252
-2.31476625568035
-2.6985925239461
-2.84991279099755
-2.66763398526818
-2.12778896856621
-1.39878712953388
-0.725606644239641
-0.259250797734709
0.0139656898074674
0.212120704039944
0.40124101909254
0.513406043990633
0.46404569008972
0.26929198085571
-0.0344440284015894
-0.463652045152233
-0.968263331877222
-1.36879932270549
-1.53250867141735
-1.52263318746792
-1.50853135250568
-1.60532773532142
-1.82123437079289
-2.09272225135985
-2.36253604738847
-2.63398818194547
-2.89528523555874
-3.00253589458619
-2.76238840535494
-2.15744307068303
-1.37800202116723
-0.625067857536891
0.0155873064541376
0.557124691415446
1.10666109067965
1.81524790829158
2.70080557079366
3.56304664016393
4.13462008232618
4.26147973716657
3.96335776691617
3.44453554662296
3.02318221130294
2.92417892096722
3.14570985515185
3.56823169387176
4.08448834574718
4.53631050056402
4.64287021839108
4.12299035087074
2.87463237798457
1.05100167191636
-0.936019316826223
-2.51574004856498
-3.22351956683679
-2.95125123129539
-1.97290365106823
-0.789205982126885
0.111628514035633
0.507852908843806
0.490342553752863
0.212475652671218
-0.296693300527061
-0.985587331398746
-1.61277674451662
-1.89082802257481
-1.72302891092859
-1.22304534096393
-0.609112200986559
-0.132802161836853
0.0136674994435889
-0.212520757398999
-0.758299544339443
-1.57708226608882
-2.59231452832244
-3.63294364783164
-4.50907169056706
-5.11240117458997
-5.41709024868092
-5.44802951673261
-5.23164111620087
-4.71458479636377
-3.79810347660125
-2.52251214952145
-1.13545504081216
0.0711630660244041
0.908746580163241
1.30944548511921
1.38271340330087
1.46056014447803
