0.535550994793426
0.401591398789668
0.245634819238039
0.182319776573363
0.213845383932941
0.26045601290827
0.288280572675529
0.292126106276549
0.243964561933322
0.16346828696054
0.133268053127489
0.162160561530581
0.151111339284552
0.0419281527801039
-0.12694295359062
-0.299859404238825
-0.395662119540272
-0.300111718772801
-0.0304383479297613
0.20811151380841
0.266201945670616
0.20122548249462
0.108967046615609
0.001891349201846
-0.102967057652512
-0.168851957745387
-0.211601133029081
-0.240802700385862
-0.20682785193035
-0.119501331045027
-0.0792060769740086
-0.107542163982533
-0.121056469753152
-0.1136279896862
-0.172762059517196
-0.305332308790185
-0.414165459016608
-0.4184142585087
-0.292286021896447
-0.0717734180001486
0.130853876006335
0.242908785266887
0.340403055273562
0.498758244629706
0.621414940902909
0.579738899971128
0.411844427876079
0.22820190667503
0.0400359225612893
-0.185491640114091
-0.414178860202054
-0.580927965867156
-0.629672374946667
-0.503535934982505
-0.239124889700165
-0.0273952759264384
-0.0093060407959144
-0.0990175698874104
-0.163761563742781
-0.214840152901796
-0.275525538531658
-0.273973077208951
-0.196130727644456
-0.134824172872212
-0.118161514855434
-0.0828088797014779
-0.0159042834872844
0.0462040505493263
0.10332202548399
0.149707472272807
0.148062273535954
0.115868519815569
0.112202814461665
0.137005738484439
0.179159228308215
0.282733010888242
0.414337001096238
0.409099900289353
0.203157409618003
-0.0464507159470461
-0.188977840599859
-0.250983886129626
-0.320903759383492
-0.43762221375368
-0.60943007813263
-0.79541603272257
-0.892614646081254
-0.851894584884304
-0.741112334971437
-0.619670271077301
-0.468103475502822
-0.302389411526669
-0.193552086780255
-0.109803838747001
0.0765781790532638
0.368649394674829
0.60214064588946
0.642950847166918
0.496148271298744
0.269274596960242
0.126207739242946
0.170714235440978
0.317282267838638
0.408293867979679
0.446279634151852
0.549404519099632
0.741504289401239
0.951323037946349
1.12001065872122
1.17340026124559
1.02403340260112
0.704703364434112
0.359979920870881
0.0681381868234505
-0.183996840179213
-0.385352994334722
-0.509943819622024
-0.566735746394973
-0.538254791816911
-0.394803137517302
-0.213575530166421
-0.115792871600337
-0.0870126236548939
-0.0302176685919829
0.055953831569778
0.109513945152269
0.12368789076367
0.103820714328508
0.027384913079399
-0.0526089430019223
-0.0102682426004569
0.167054457083969
0.346832748368688
0.444551077542473
0.48426323862443
0.475508235259776
0.409593123613262
0.336935786153891
0.294100217720913
0.238288998501432
0.15476680188139
0.0960378194447441
0.0730276016461829
0.0689736697270617
0.132064466045423
0.272266043868998
0.344430696681403
0.205234569771895
-0.118758704498986
-0.527036275458133
-0.947896338145279
-1.2855215849092
-1.46136107191074
-1.53128444377578
-1.57963732467802
-1.55453429793952
-1.39073618168888
-1.17411829914958
-1.00881448467527
-0.867907349711868
-0.704035878937741
-0.547248209700683
-0.419664526978065
-0.301085699895759
-0.191833307960356
-0.089904068010062
0.0470370895817621
0.220643584661932
0.362105030130544
0.458037378596165
0.587753573219654
0.777210851058315
0.944738123043306
1.01396384337652
0.949681795798686
0.732067900746361
0.451165122107629
0.314659208560078
0.393214418907958
0.505693481711946
0.48746533471822
0.381340049207758
0.27979192923094
0.194724360867681
0.122833205112352
0.0449481670229109
-0.11042378047835
-0.338241251072477
-0.485298462421588
-0.43963577428564
-0.266054570246385
-0.0808731719755908
0.0545862346406774
0.102908531068799
0.0798661601185721
0.0862822252389832
0.181762184706985
0.313389252752737
0.441697848506593
0.585993704143111
0.72027269435095
0.801646677269003
0.863661750457257
0.901859649577551
0.779170437495115
0.440060636658282
0.079552551419739
-0.0862175774699238
-0.0802051151336906
-0.0540758333787267
-0.072457878440439
-0.119947008510138
-0.16213352237346
-0.119060011990877
0.066762863726414
0.305740620913918
0.443110602622756
0.425379550509017
0.274217599209052
0.0205043644835609
-0.234045254976379
-0.352902949451561
-0.328407687735753
-0.256957890796304
-0.177993818998988
-0.0973567499453824
-0.0637276754110627
-0.0601245491971512
0.0289347845454003
0.216127613729094
0.365165890541643
0.414420945886514
0.422868121105157
0.373846285947197
0.172305656840093
-0.173182971702423
-0.558147105701118
-0.898130180275125
-1.10605977101962
-1.1074997821651
-0.982046407489212
-0.917759321622055
-0.969310541722671
-1.02178057695106
-0.992484620291636
-0.921074019266773
-0.888225238210121
-0.952336633498287
-1.11334038257688
-1.2778908483688
-1.34433946723221
-1.3409945491006
-1.35358252319778
-1.32890114639549
-1.12746121118958
-0.756398452804471
-0.372871735697648
-0.0892748417944181
0.0883837844773005
0.210805018541446
0.366011251818613
0.591701262363907
0.783463546536635
0.840431065318521
0.85935508035241
1.01103294141229
1.30368409483453
1.61763302948667
1.85590692879292
1.96002428564054
1.93624602413893
1.91507578140654
2.00297990815268
2.09270409221175
2.01690404716558
1.80416134117751
1.57724629292067
1.3291533637778
0.994877979271749
0.607466013319368
0.24794363569087
-0.0270396566458597
-0.164271294560451
-0.160390911195816
-0.10285034943058
-0.0370573251221642
0.118476984904782
0.399533325118248
0.660842676222291
0.738320384567619
0.627717013161552
0.410612863302068
0.136082487488447
-0.162430522341858
-0.464127022225171
-0.780006211314879
-1.05425980211064
-1.1362154149156
-0.998661874126938
-0.856125065363333
-0.938348326220699
-1.28596146733804
-1.81143260826585
-2.36750149351603
-2.75703746733926
-2.87883926528377
-2.83631005257825
-2.7619662114589
-2.64396111840596
-2.4346206489717
-2.16216707633997
-1.83929805513064
-1.42428482259401
-0.915280553517325
-0.347807956872854
0.250171166718777
0.773095241287449
1.04201704487701
1.02334697719263
0.882413678184891
0.740173707876493
0.570270063896375
0.370844882285709
0.225339793218094
0.171348988937304
0.182685780894548
0.272837541114332
0.489295551039644
0.844792351990099
1.33061520734108
1.9080700801268
2.42942906736913
2.69603177485375
2.65354210809808
2.41795181654354
2.11475473338978
1.81750872901074
1.57679510364596
1.37190123869324
1.12995662774133
0.883553109883086
0.764391221485451
0.800255906303107
0.897358338859653
1.01477068291438
1.16666509468396
1.3035433588115
1.36573552113764
1.37208504470262
1.33054529121193
1.18795902534343
0.952287889636994
0.709068149330051
0.468422261730363
0.151492189471152
-0.262008641691672
-0.702339629062684
-1.09204369260411
-1.37909310454845
-1.56727895422477
-1.74700952384939
-1.99981892781204
-2.29797856426573
-2.58994718566865
-2.88767718659075
-3.16956117149736
-3.3345163111347
-3.36128260331731
-3.38243639050733
-3.51912405624469
-3.77003420830727
-4.09410151341323
-4.43367725037433
-4.63307865194854
-4.51481913152786
-4.04946546299969
-3.30988014984532
-2.32664581351875
-1.13715343356891
0.128705937807264
1.33681665660061
2.4103852221521
3.25930268703708
3.79232110512056
3.99869465751476
3.9077911587126
3.55928644656589
3.10565746447117
2.77417908150343
2.63250055284935
2.56792417260983
2.52677354278848
2.56174816444399
2.65586634054108
2.71792383733288
2.71038759223041
2.61997596351625
2.42003700626932
2.1855199213045
2.07262266688637
2.10045958195159
2.13445433002473
2.09920205301751
2.0173283693058
1.87615979441399
1.64216977607583
1.35595579930407
1.07457679246086
0.796087115616714
0.535048003718948
0.365898311168819
0.317883485910189
0.333064582507539
0.34747702583003
0.286872625973832
0.0163742178779112
-0.551100417759596
-1.34311234363195
-2.21854112634608
-3.05012114206266
-3.68200478234381
-4.02132200621582
-4.20267445264379
-4.43941353529131
-4.73340985687893
-4.94414692730259
-5.05098266083569
-5.12786216131695
-5.17426824885624
-5.15257441949429
-5.07011937148888
-4.91323951690718
-4.61820377912554
-4.11655198918436
-3.29357105412756
-2.02350579056856
-0.415542681185221
1.13894057863731
2.33077972855065
3.18217287485059
3.85341670327527
4.42091005744482
4.90856188463421
5.33014540389664
5.63559869686743
5.72736189784599
5.53692699706993
5.059331818346
4.40137061290928
3.8078955883276
3.48693430327746
3.36697807580306
3.16902339199422
2.72935165089901
2.1094274744173
1.44149324380563
0.844065918799815
0.407199241340038
0.0881530073615557
-0.271921262521344
-0.710283140510941
-1.08171196314013
-1.31043567828499
-1.51064189270388
-1.80321384817847
-2.17861712854892
-2.55065398354851
-2.8286956665974
-2.9767548741104
-3.05331153447327
-3.10114460702587
-3.02378200225599
-2.73682947064131
-2.37852425172181
-2.16038839880752
-2.07632605376836
-1.94337641005988
-1.63770975729654
-1.16153344140848
-0.607749063147227
-0.137099426956468
0.149591602357897
0.336257881948458
0.56986082874244
0.868718082387904
1.15804437635185
1.38469813669567
1.48298764997472
1.34337138572613
0.927821809096242
0.345158686948901
-0.220193146024112
-0.562824203736604
-0.489717468917476
0.0178838697549897
0.702717357672324
1.25604958789847
1.58231441235834
1.72076786339265
1.66182756888386
1.3940125158502
0.997049274588152
0.592224430665157
0.299354418248625
0.207558706469187
0.255026009214433
0.238880507620236
0.0796781873236127
-0.0640209641204136
-0.0473084079017579
0.0715042430575829
0.167548736335054
0.200160081000514
0.193892777678907
0.207771088476705
0.286564551173897
0.351918243708079
0.265859424805288
0.0570396717233862
-0.103365996766126
-0.166264202543262
-0.227735243435273
-0.317875643441964
-0.390249431719954
-0.462180765853069
-0.567509924367737
-0.650405260419945
-0.658049252054402
-0.633185250057593
-0.603788331817982
-0.510020699870023
-0.319961246490729
-0.0773580513830398
0.197472535833281
0.494492411837524
0.71900319428582
0.780979371661794
0.724977959023325
0.636428667873529
0.536258907950164
0.460608618194157
0.470411666782804
0.526201352834592
0.538028102576679
0.530858205436994
0.579415273480998
0.651724851984645
0.683838598218529
0.693979065149477
0.692948517186354
0.625019269708818
0.476530072360891
0.293943579498592
0.0895635027860662
-0.121888678241084
-0.273171105166161
-0.384311391667353
-0.611578792651408
-1.01493779932991
-1.44232092032366
-1.74306294227389
-1.92641653319028
-2.07254229221767
-2.2494471973754
-2.50155473735279
-2.78116063235498
-2.94286423838126
-2.90207303511023
-2.71257120920567
-2.43778643854747
-2.08728269480298
-1.72529125472665
-1.47486447997641
-1.36784328318644
-1.32685683357873
-1.269558515658
-1.09382410927959
-0.66755636458139
0.0064310245098556
0.740721466741529
1.37915133485852
1.89367172645357
2.24075314905145
2.3569897230145
2.31382800552157
2.26857659833937
2.28913745338659
2.37310156994428
2.527275960725
2.70504146846475
2.81504657972376
2.86641354605961
2.93064706587147
2.94776856361236
2.77575375417094
2.41893301826225
2.02632000992703
1.70864608147478
1.4804959968099
1.29684263710527
1.07828722548067
0.797120295004821
0.534727857696139
0.361878130746841
0.244248243141575
0.15740574849252
0.151709936089574
0.20200066597334
0.162490827299284
-0.0213197427064156
-0.218925031962624
-0.312622691933116
-0.324750374592231
-0.318637199383123
-0.361801341505017
-0.575450819598646
-1.01767292638249
-1.55316731065114
-1.99552703672062
-2.28613082406992
-2.43286854200812
-2.43010086729236
-2.31091802931679
-2.12663541368192
-1.87443072253059
-1.57833768941176
-1.3553218588511
-1.27111492086521
-1.25743661927005
-1.25963754066644
-1.30078860502356
-1.35889623171131
-1.37090506195234
-1.35704479208753
-1.35917763474774
-1.31381707893299
-1.15146813285163
-0.925835066277515
-0.732824921383569
-0.63095231526041
-0.666048906131493
-0.785309417359879
-0.753606695656336
-0.380521519296677
0.198636019104123
0.653060117403246
0.812716684932128
0.765438303782962
0.703726118634497
0.79208110021375
1.06799702295591
1.37135246876347
1.47534171176238
1.33680720205625
1.11865058310488
0.996093807621255
1.05675151004527
1.29300771507807
1.56405006633784
1.68993759632479
1.66859604908583
1.65377652116961
1.70992236058531
1.76682071897767
1.77056322319147
1.70382592111353
1.54411756217753
1.3313109885377
1.13841540996206
0.907267747057153
0.510502534163251
0.0017285383515445
-0.42790840180585
-0.735181646599925
-1.03662561790556
-1.37500772858873
-1.66935913959248
-1.82479790561212
-1.76193182317934
-1.45575065145708
-1.0201759732983
-0.622798490187131
-0.309785062060822
-0.0414751598378363
0.171363451410177
0.308755459857287
0.416153296365038
0.501893650024969
0.465177288086198
0.232078664853785
-0.143374891410131
-0.568072759503284
-0.962078350638782
-1.2070058254068
-1.2164080887214
-1.06041787276079
-0.866171624503698
-0.647275642524271
-0.36758393247325
-0.0706982827540987
0.163345549870172
0.279064376976207
0.239021338271506
0.0987984836146592
0.0485349343428758
0.226197744638085
0.561688581614541
0.911747904834563
1.21395176369733
1.42932290982779
1.50158813591784
1.43118945809322
1.25462305762521
0.981503142185882
0.673360896387901
0.453828563895174
0.311002662262629
0.0822696289209482
-0.250605548477479
-0.487396959669748
-0.524249835529817
-0.507889758179331
-0.617290363656739
-0.88870265686419
-1.25809912730214
-1.61034181801639
-1.81535813642169
-1.8312343217827
-1.72097216814143
-1.52623121858092
-1.23928453979093
-0.914894570256158
-0.646551765594273
-0.420012524239274
-0.160317737657659
0.0923196055110164
0.213808378550219
0.150352789947791
-0.0690966985578557
-0.350350858362216
-0.493881024902399
-0.321048409498475
0.111263258990139
0.592519651795364
1.01716225711671
1.37995294715924
1.62104387926829
1.683861053151
1.63022308119606
1.54860090916918
1.45299113288835
1.33887324493523
1.20856904978592
1.03941569916314
0.849570374862932
0.710204526596455
0.574996989061072
0.260775834335672
-0.283791095565516
-0.876400158191962
-1.34128283205546
-1.65691920636182
-1.85318632596815
-1.96182880280466
-2.04302154413579
-2.08486411844727
-1.93378683094403
-1.47087724512827
-0.788123613490817
-0.0920620093876066
0.473787124222316
0.85377942938047
1.05627958353509
1.15203010816034
1.19160351103029
1.14805773232184
1.04143819119743
1.01472706929762
1.17008855820133
1.45530510343503
1.77013612922078
2.02097775825406
2.0816438165252
1.90353174697746
1.61851326466442
1.3570405212662
1.07566812671636
0.707474258757995
0.308379776538388
-0.0670135686865682
-0.437789636982836
-0.771884135106503
-0.997942337962114
-1.16450448159901
-1.38467892859136
-1.64603170668263
-1.84732851109129
-1.95748333006204
-2.01642426344267
-2.0745887541538
-2.18459567586776
-2.33593497019307
-2.40736907921306
-2.299408155142
-2.05450964677963
-1.7566103017281
-1.4230339037644
-1.07313766537526
-0.762467784407576
-0.47038384163307
-0.0922920064366325
0.394087017247558
0.882340379534728
1.27720317723474
1.55424707375293
1.71347788043404
1.7966275219814
1.86229701293519
1.84657379219914
1.59955863279509
1.12948763351059
0.627543485827448
0.232141117090538
-0.0425721199213541
-0.199172246264453
-0.276367233215166
-0.380651891808771
-0.53345572224157
-0.613898598341692
-0.552705887704079
-0.405266024862906
-0.184190917175702
0.160996287069634
0.570021603339471
0.886232962344771
1.04599523046616
1.10613246716158
1.14428419921024
1.22715716054849
1.36577189383598
1.46270238831774
1.44445379906807
1.42191226276671
1.54918454984971
1.77347724298556
1.89155138925973
1.80178199835551
1.57615992383205
1.35272986699416
1.24373348545595
1.26125609035386
1.28003722612287
1.17737014780203
1.01253801654363
0.93046333788805
0.925965379435334
0.863052939956605
0.658568541408202
0.296987071791509
-0.240965937650795
-0.947788892774652
-1.77785451856522
-2.68975954870513
-3.59025980690053
-4.29536754964755
-4.67678257988198
-4.75652301464851
-4.58498954711161
-4.19991800375466
-3.75941233235998
-3.49194450529674
-3.45905885028745
-3.55063109200188
-3.67636164499274
-3.7574289332157
-3.62221959165963
-3.13647279853435
-2.36443079686727
-1.46155760580712
-0.520892446013706
0.392960645228601
1.19248588396293
1.807014164849
2.20116218502331
2.38776237205379
2.47543269112139
2.60114746257571
2.74522938076328
2.71473666585639
2.37322141149777
1.81093148830714
1.27261338143677
0.9932785320055
1.05756853036141
1.30740792895609
1.45895373285743
1.41100276366292
1.32144904878265
1.33277371823592
1.43850235260642
1.65065850212023
2.01169053391562
2.4018206484482
2.60675011417164
2.58191275552186
2.43521015064939
2.22770301401655
1.98093171337286
1.7516484601918
1.54516305495084
1.29800544068591
1.02638993236213
0.825426953258819
0.706649407007816
0.611563688138242
0.548619742324266
0.55963504530943
0.630292579820989
0.744022352186937
0.903893126366782
1.04209486599514
1.05011915109884
0.913594056790574
0.690594135644488
0.400175534619108
0.0509837076656559
-0.293224991877764
-0.579707154092415
-0.826057530798969
-1.05983462369707
-1.29290470862748
-1.57317084605307
-1.94442944951914
-2.36309630504436
-2.76791596011185
-3.16682482895003
-3.54694423303904
-3.83499506058954
-4.05208073284798
-4.32385935298207
-4.6590231439767
-4.92254855107327
-5.0509864183523
-5.08223602743089
-5.00834780531854
-4.79793475513547
-4.47857572975343
-4.02853231833974
-3.30095752532436
-2.17670801832775
-0.68791014671379
1.0216252567207
2.71142262971145
4.07245362560638
4.91324109546836
5.25652028185971
5.16222396991911
4.62924283889222
3.76522793341098
2.8382412808605
2.05984526715581
1.47736626579996
1.09319045937609
0.925194790135171
0.950195645473675
1.08769279259817
1.21223480514434
1.18111549947368
0.968575930277622
0.757736283116945
0.739710193942736
0.849180626804258
0.876682911154074
0.781158245960467
0.685744842576601
0.650107970929268
0.656206647008641
0.709058058801362
0.773305469835477
0.747143856441671
0.617104708516381
0.480691138006806
0.381679183592634
0.305126033540471
0.298739649847176
0.406963421617212
0.553959991745766
0.637714558296656
0.633503806342448
0.531154601322967
0.331603230073831
0.13307246821867
0.0399338865629771
0.0025546267346401
-0.0912749908793024
-0.242900666399572
-0.389926594262545
-0.494833975790854
-0.501701306939189
-0.372597549418986
-0.204300350362199
-0.144690056828482
-0.221937235353196
-0.392509456022618
-0.643414196795495
-0.908607659224795
-1.03223040319873
-0.945086827887621
-0.746235484181725
-0.539212717201089
-0.333944975165856
-0.13750041598423
0.021195013375781
0.151301653915008
0.233829745121426
0.172469543141098
-0.0343727804669354
-0.216605116874297
-0.286669331722838
-0.391004120642053
-0.67387125463322
-1.07893824096507
-1.46560411292694
-1.74293339602606
-1.87478009079091
-1.90880904763918
-1.95868525220136
-2.05265710803587
-2.10046285318615
-2.05898116058277
-1.97379989160831
-1.83979511073005
-1.59047731441673
-1.21185118239976
-0.735316873677682
-0.198949881009665
0.287642985851816
0.583171779791966
0.687455345050539
0.720927140392063
0.736332850176587
0.716084830480232
0.686698577794623
0.670373627913974
0.627551655403031
0.574089953720931
0.612204827856853
0.754590495956535
0.890473951945956
0.990098692311293
1.14756361198601
1.37289593319376
1.55162480496476
1.64622639413299
1.73260807368421
1.83163526790838
1.89298902263321
1.91177559645581
1.90833682842074
1.86499391026676
1.77678990614145
1.66319114992236
1.51409749519193
1.34823934207394
1.26268005740835
1.29090049571379
1.3314519118131
1.32643190612051
1.3318474708037
1.3295289655419
1.19230327961134
0.900456948934271
0.577234788487557
0.295394429140933
0.0456162818557506
-0.15009522202779
-0.269998484957223
-0.356135215165818
-0.434069229293946
-0.488500524404879
-0.555643926560585
-0.686161708771051
-0.835623823173099
-0.949859059564948
-1.0984238435124
-1.38266365509842
-1.78889744315004
-2.22738425138203
-2.61925952906407
-2.8965041954471
-3.03887947536826
-3.13089062101453
-3.25585057034682
-3.36668331821045
-3.40589988189049
-3.47021229992487
-3.69315646304574
-4.05718195787019
-4.41772049315567
-4.55589670931853
-4.18336636438131
-3.15610841627265
-1.73004748481472
-0.375525148013265
0.655938964164106
1.40456434212621
1.965997468829
2.40395616010534
2.79872109926646
3.20335543077762
3.59524031740447
3.90676996827409
4.03194629300867
3.87174665252021
3.48944522557155
3.11251274774788
2.87877639534384
2.7219968488192
2.55522077372312
2.37185254588499
2.14505667072817
1.82775202345267
1.4479762363659
1.06051257697107
0.679165604259059
0.361489562470939
0.223310476997336
0.27657789136333
0.396045873084113
0.489135388583045
0.533193654428232
0.45242284805061
0.177936327564325
-0.169845126081434
-0.374381511440749
-0.390428881461471
-0.3502809435659
-0.362825480790671
-0.44070447031345
-0.538566043657541
-0.581216264407187
-0.537840921928703
-0.453918975981715
-0.328334320563332
-0.089073165474477
0.201437490369567
0.314267465794101
0.144399176189064
-0.179892890958288
-0.550057132184605
-0.99540020800926
-1.50472165560551
-1.97254370179765
-2.34055046158089
-2.59935798877442
-2.6973626538985
-2.60476338064334
-2.37935829835771
-2.07361349047387
-1.69580192769097
-1.28067280114555
-0.851504863837659
-0.355333612515828
0.213632862737679
0.710167377723256
0.981692392751107
1.00050016114308
0.775833251725801
0.308659748357264
-0.276863779101193
-0.731424193672539
-0.901847584020463
-0.836097779781736
-0.666760695955599
-0.519948943358811
-0.463946011254108
-0.393131760549677
-0.0787584350577114
0.530202409098454
1.20952370358073
1.73928291608776
2.07937263257088
2.23922879791577
2.21202370914585
2.06537042341052
1.91140689937256
1.79048852878103
1.67504090623344
1.50551904660215
1.19331274890236
0.73313501024276
0.303554595170956
0.094493739359661
0.0881921127379511
0.149371447239457
0.202656807431842
0.190144409414271
0.0317713688104151
-0.256882434605046
-0.579724280619227
-0.930286547519663
-1.36197718798138
-1.81193443444093
-2.13512460705879
-2.25542497392329
-2.14011148564001
-1.72780709498359
-1.01809140893343
-0.146593169025317
0.706474000188348
1.38794345867552
1.74539788144643
1.69208604853494
1.32650419953101
0.861692040418666
0.459046944621339
0.214891564832107
0.176081724001787
0.253084730280639
0.269512097504558
0.178819110057229
0.0824411155985967
0.037999367102788
0.023076714398751
0.0330274776304211
0.0551160542714804
0.0412550810102797
0.0158309334211157
0.0686498723031348
0.182288865824931
0.239395763555899
0.213194088219914
0.179461032961808
0.187957204402453
0.271450975913472
0.458892253655858
0.646758051119165
0.628456792248551
0.35096705459861
-0.0341861072781883
-0.387315920925499
-0.649945882592853
-0.764048309539461
-0.747778850024456
-0.774740019036166
-0.990349140743689
-1.33981214533613
-1.70490323492909
-2.08283210531674
-2.51368819352677
-2.93852696909261
-3.20617056294663
-3.15645206154304
-2.72945347590477
-2.08349481126516
-1.49967238952727
-1.06459136194753
-0.607488506638196
-0.0294324565087796
0.536444184790041
0.953322782327846
1.20957826113251
1.29282243874872
1.18864574977582
0.998836723498886
0.863681302925586
0.826081147314683
0.893391971290937
1.09571552738758
1.39305700400339
1.6760878347826
1.88749462085501
2.00012810001572
1.94316521547302
1.72570168229958
1.53735584879447
1.57463897315043
1.87552467471159
2.38924403077724
3.03592739861922
3.66119333814414
4.10126644248944
4.29604367885037
4.24057239769866
3.92656796739392
3.4185495082833
2.83578496806414
2.19359970488203
1.44069697922511
0.675232723820188
0.08404977207964
-0.366683532695476
-0.922904286468033
-1.6855164559053
-2.50293614042246
-3.23170578501084
-3.87754038354878
-4.4822430917082
-5.04406690484985
-5.52863837792119
-5.88125052475389
-6.08229770822249
-6.16477150714126
-6.09133434843536
-5.7325998069625
-5.08302723259887
-4.3376180916889
-3.65646758655068
-3.03688812507845
-2.45583427807983
-1.91151298487829
-1.32085459821921
-0.607684243750065
0.14004776185833
0.793086666741174
1.35778894630855
1.87279581454753
2.29351322398144
2.60420350293516
2.85500981963359
3.01883280094189
3.01276952512093
2.88117536033434
2.77695753509161
2.78854112012064
2.92030776042766
3.1548791062718
3.41129208415506
3.54728970554162
3.50419585228986
3.35644661586381
3.18737221133754
3.04271478697173
2.98635160870165
3.03273775264021
3.05372052841991
2.89300849631235
2.50375872061987
1.90628334184856
1.18158833763041
0.55131903188117
0.233885215154951
0.181500426116505
0.158201184034063
0.0405128316272255
-0.149932473586009
-0.414542807561035
-0.791001402496046
-1.29090839172846
-1.92937571547752
-2.69838899917701
-3.48273971876919
-4.14494715383705
-4.66273329410783
-5.0502721443652
-5.24689704265954
-5.20900993770402
-4.97110952650337
-4.53198153481971
-3.84388825932636
-2.94363325540978
-1.93876893008017
-0.90745286539988
0.0483837842817375
0.761505170774851
1.14927782800658
1.28873549664578
1.2571407978608
1.0404685818016
0.652709421502057
0.183176973539614
-0.315644825047748
-0.834385225660794
-1.29367141065565
-1.56424036709989
-1.56107311471428
-1.2058843059643
-0.412435425103689
0.765759067193005
2.08258621938884
3.24282024612705
3.98776756523193
4.12817669923158
3.70369196308382
3.02986614620027
2.41917645429371
1.96646736518993
1.67876097168108
1.58331357016586
1.61801539160629
1.64700853211453
1.64445734118621
1.67246146484765
1.70811783087971
1.68459784599408
1.62332984946848
1.56094690558931
1.45926730357595
1.29419889962606
1.08854429008969
0.816623817786905
0.443357996455877
0.0428889027332514
-0.287459288018281
-0.576018976702305
-0.897097910751296
-1.22872771151305
-1.50801411642645
-1.73124914357567
-1.91023469140497
-2.02395273464946
-2.058954735508
-2.00758783700586
-1.84781552910664
-1.62229155384462
-1.44188845076548
-1.30932983919707
-1.10886061431197
-0.864644972180414
-0.772988908445677
-0.885316923504573
-1.00578737166962
-0.966805405933027
-0.797053408294301
-0.628747459343349
-0.613778035501288
-0.844990624574187
-1.21315187672673
-1.46587176266378
-1.4966903920697
-1.42191786887422
-1.35788772992347
-1.3153948814007
-1.28131827095645
-1.21029218714525
-1.01123381326018
-0.697264203858839
-0.418140393500029
-0.239175504474905
-0.0622870826866617
0.184677777989881
0.478188089289102
0.821908489764073
1.2479884297824
1.71215923013496
2.12257453271737
2.42443796643095
2.58306948872748
2.57656525207675
2.44897642974253
2.2636623569662
2.00483412153781
1.65030787230617
1.28761007695325
1.00410805401955
0.755439417175141
0.499118377842525
0.320333027444452
0.281188395590112
0.306130100784387
0.314725666302986
0.302456746378531
0.266751937794639
0.217414398412696
0.210743753509288
0.225727968673891
0.119956537125484
-0.165297521308662
-0.499749453465153
-0.742130555415478
-0.862056194886527
-0.861319393409238
-0.748771269016208
-0.59019743194271
-0.453455301607127
-0.359489350793945
-0.347970827785328
-0.454508712416235
-0.605062664658528
-0.713565860619667
-0.849844398741741
-1.11007562536941
-1.39987148292446
-1.54122522997788
-1.49267290770003
-1.31297602358655
-1.04452166168684
-0.752531624016163
-0.522055725258621
-0.319381169424425
-0.0185487995351162
0.372430614735596
0.690685111752241
0.860320762773577
0.971873125817181
1.10469574894051
1.21954605516164
1.20575815715909
0.963712653961995
0.549853427552203
0.255414249965715
0.349488287392154
0.740929180372473
1.08699164205847
1.19184409941707
1.12372997746151
1.03805513516458
1.04818145534076
1.17025471392109
1.29901524952516
1.33746455659192
1.33984487038778
1.39165755453424
1.43894830975569
1.40029002883023
1.30828935043247
1.17619875252396
0.889734739435247
0.368375943291202
-0.319601878714407
-1.05685407855497
-1.73438109646223
-2.23549650224602
-2.53382750711093
-2.75918998028856
-3.03030084761283
-3.28496696025639
-3.35609710348173
-3.1323361917443
-2.61814894035621
-1.95459638228444
-1.37615943990915
-1.00191115934713
-0.700040881785384
-0.310573454501142
0.0794075909955861
0.254174481501786
0.157546723544278
-0.0961259584947369
-0.394228860571814
-0.708275178039292
-1.09214545161712
-1.59266289864674
-2.07452671195136
-2.24768728756166
-1.97633376716457
-1.40559110370767
-0.723661075832855
-0.0201368493944863
0.604095294596244
1.07261073373653
1.4968582351053
2.03521527036979
2.60777199908198
2.98076973550642
3.05839878163291
2.90342067149737
2.60135858655347
2.26332777034083
2.02448374718548
1.93161095821091
1.92777186682135
1.94443322044292
1.91770591697846
1.79484347400781
1.61309381653388
1.45926626423972
1.29462739677917
0.968402480319612
0.450550633570015
-0.103826545295548
-0.543017472292009
-0.817529384833312
-0.918846700088046
-0.896937076806376
-0.888697038418466
-0.970669887265906
-1.07015857990399
-1.12500321500515
-1.17178526361555
-1.20431115677475
-1.14421057283422
-0.996886181389272
-0.853809559775251
-0.751063139910309
-0.675619027388883
-0.637988375189299
-0.616853110713652
-0.538202877425803
-0.386763349638545
-0.223664832256525
-0.0829655469368737
0.0295107060651689
0.0875473774572132
0.109855891463188
0.176259478872072
0.302405908411623
0.439776482757887
0.61880196803785
0.901875237407655
1.20977160573511
1.38863378374635
1.40198905909906
1.30162400445983
1.10729113383024
0.845165039827139
0.585582244285612
0.345075248113204
0.0725077463555441
-0.216084795505333
-0.426416272846513
-0.534309034249873
-0.608707123863797
-0.69959706427148
-0.82825818074783
-1.01453371768828
-1.19101712314151
-1.21197216483407
-1.04230726967581
-0.785169792985289
-0.498829547447759
-0.18393763419616
0.0827166821894803
0.219147072115675
0.272655306508807
0.309152232112364
0.292691309663059
0.195592276890455
0.0561825371997951
-0.139287304969963
-0.439333964176927
-0.793368927854374
-1.13047716013089
-1.49405742521497
-1.90457006415306
-2.2260144571828
-2.34699368165
-2.33366236320875
-2.28577557126366
-2.22288005342104
-2.16332483672151
-2.12816913408014
-2.06214482994144
-1.8937488345272
-1.61362673408708
-1.19039025772069
-0.527833911903795
0.392142853967307
1.43077657074575
2.40914372638967
3.19200885953687
3.66140765943242
3.76429352186868
3.5855616647008
3.25384220183772
2.83988570067447
2.43242779338501
2.13958869558847
1.9077515559622
1.54876940567343
1.03819520908477
0.585594606549303
0.379145475125805
0.439442953839753
0.674561711738714
0.909979021123347
0.957960708875166
0.793229406589134
0.561656007124327
0.371341786060097
0.214441690499456
0.0779946859648399
-0.0350467405807602
-0.157084746795066
-0.299568733414199
-0.420671121760197
-0.506455248364092
-0.548177008457889
-0.444282023947062
-0.117012252160076
0.312263868106693
0.660316059973795
0.917789670075763
1.1742455039826
1.41710148119591
1.54857482892315
1.48359920418062
1.13695394535289
0.455717742948844
-0.459583571062034
-1.39344507366745
-2.19420443255619
-2.77955380152841
-3.02670151519431
-2.87588387303615
-2.50226470252838
-2.17965082428015
-2.01109548691659
-1.92133986357855
-1.82182795235408
-1.69842497193283
-1.63204407665895
-1.73562729955481
-1.97763671584223
-2.14996531110271
-2.09896027260978
-1.85315641699101
-1.4748025045623
-0.981882664394199
-0.451179721924734
0.0033678861726269
0.359009782866029
0.631112153569758
0.766900517603167
0.733308715653655
0.583699152082344
0.339700955696796
-0.0146906916892321
-0.360948523887505
-0.460832198596756
-0.165355129236085
0.526085296063993
1.51462094683711
2.55635643088625
3.31815171778844
3.64583696240159
3.66665659134617
3.55439088723588
3.35491916963654
3.09551781349611
2.87962831568314
2.79540038575137
2.8406516835863
2.93066410171896
2.88742484229874
2.52314932402719
1.85187981964263
1.09246612893861
0.398438135424493
-0.234907425744293
-0.789121706576626
-1.1859251564786
-1.42813631332489
-1.57944175789579
-1.66864931596301
-1.76367145121542
-1.99897428557903
-2.39974755939591
-2.83708888675172
-3.2237998905259
-3.57909699741233
-3.89792107543007
-4.139954847875
-4.30082949516355
-4.33780715652081
-4.13435044992204
-3.67206399035974
-3.102672406357
-2.57263637906538
-2.12295991106517
-1.76057563542995
-1.46137427261646
-1.13780795952991
-0.730863539332223
-0.257831010659269
0.295072844421853
0.990976550694404
1.81421629886374
2.67598655756286
3.5451651251742
4.39046919331189
5.01697642602406
5.18936107361426
4.93964942599884
4.57993942841039
4.40899215029539
4.49939940592871
4.68753207205137
4.70049469164411
4.39975304661441
3.8976593567903
3.31544511146369
2.54924442073944
1.46676768024913
0.181703733406698
-1.07048340270892
-2.17840805162851
-3.12981276689061
-3.9110900079197
-4.52548492746113
-4.95436467380536
-5.08995619747879
-4.85081696485898
-4.28230909126517
-3.41169196169741
-2.17832919997565
-0.645798086052947
0.916392067135893
2.24581379127412
3.16553003357004
3.46430457014754
2.98956445094699
1.87348640273001
0.455776642169715
-0.976135612580448
-2.22871166812088
-3.12445180540661
-3.57476052349369
-3.66389281157868
-3.55005917618852
-3.33310294391812
-3.02919957009756
-2.57856908170668
-1.91404735032498
-1.13290285071086
-0.50220975221493
-0.166162041203357
0.0173331171638677
0.248365865376311
0.570083626561321
0.945627395887537
1.34748813075721
1.71989809855462
1.99772899385168
2.14940998757149
2.13495835364816
1.94710416082693
1.73518665347929
1.70097938164416
1.85844913582978
2.09579133121928
2.4068530997742
2.80321203425588
3.08591143112788
2.98108604948227
2.43992362635937
1.61962754420263
0.690058552035403
-0.197843091512326
-0.899283882612631
-1.35063520850105
-1.57484718857125
-1.60914497235941
-1.51129461751346
-1.38353582088147
-1.31727460897082
-1.37765638880136
-1.6497861692623
-2.17298771603869
-2.81525602953913
-3.34123140108611
-3.60753876976967
-3.5925977740657
-3.30954595991373
-2.8287929401857
-2.29361961365947
-1.78725742920498
-1.28774005886137
-0.791893319030249
-0.300158747006273
0.315336420346424
1.19900887901154
2.30084521776002
3.47492205560848
4.67439869601246
5.84893460403228
6.79448429916928
7.28698413318002
7.24689764507959
6.6918444408362
5.67211120108081
4.282132184852
2.62325551971797
0.806247251773459
-0.942671054692661
-2.33834470617283
-3.27473243728686
-3.84086975313229
-4.11561057837563
-4.16896129948422
-4.18629348207153
-4.305615689489
-4.38970067903731
-4.19887559951957
-3.72405516379148
-3.17229046938433
-2.6960211676611
-2.24854789340527
-1.63062956400609
-0.637895689636054
0.729653144050444
2.18743314322505
3.3949804592022
4.22439733827828
4.70719217976722
4.85914730925315
4.72425607235166
4.43576020707894
4.05048477219667
3.44693614179356
2.50874534243378
1.30737319882118
0.0674283088916662
-0.97698731882392
-1.75075653674969
-2.40704143672222
-3.10185526065772
-3.71979198568916
-4.03659121803978
-4.09728193160193
-4.16289386765773
-4.35412873582157
-4.6195481381929
-4.94521795324339
-5.31983857031767
-5.6010741967135
-5.63867559902692
-5.42978951229633
-5.03758548851675
-4.48200574189658
-3.74834413446713
-2.79483868240178
-1.59904619090586
-0.268274224787693
1.03137079804506
2.30361108126308
3.689513598976
5.18264557993318
6.60555343183031
7.88227718775347
9.06436967849052
10.0332735571783
10.4240390226493
9.92794662434905
8.53153060796891
6.48263160428173
4.17080530759217
1.98589899663788
0.163289546879264
-1.2198534637445
-2.14164581362286
-2.66057871921547
-2.95026134504173
-3.11791376821127
-3.07454318067876
-2.73128440784635
-2.1816152185341
-1.55613614990785
-0.852174160721774
-0.0003702360234624
1.05015229056423
2.3398557325315
3.82159376144548
5.2461928269348
6.20930787252701
6.29200504536165
5.21525890891113
3.07343131774912
0.416296254024475
-2.11531067107351
-4.2236873063808
-5.90919432018935
-7.19909246999058
-8.15051175456111
-8.92142151092108
-9.57707926792014
-9.95328919273822
-9.89596696249155
-9.51591811173319
-9.06205587057239
-8.62041006683916
-7.99339146140438
-6.7997293798538
-4.73864664096473
-1.89093275432478
1.29133003448727
4.36492478779309
7.11061992243257
9.32508041151485
10.6814126436139
10.9450330498547
10.1620037064613
8.61569953038779
6.77344221615809
5.2010486867748
4.28549404728071
4.01599549121149
4.08175102464828
4.08456068951238
3.68917263343606
2.79885056585179
1.62564291054063
0.451318306301413
-0.625876439687764
-1.61658658295098
-2.49500439821249
-3.24736026668367
-3.86509030233139
-4.21286190503274
-4.12335979740192
-3.6614846577612
-3.09370070480477
-2.60214268649499
-2.18173351871236
-1.75731422358635
-1.28032963263347
-0.783037607630922
-0.399582523242047
-0.247332898844112
-0.292351584346245
-0.454762111700405
-0.78755041928672
-1.3574344570035
-1.99983034880372
-2.41188594884866
-2.47095636480803
-2.31038535169927
-2.13465434215014
-2.03416007367788
-1.86400079085991
-1.28583679190212
-0.0925820786931792
1.50356541942203
3.00446380155118
3.95288120875926
4.08473460792255
3.41071515755191
2.29573294110905
1.2773353921792
0.711772207477713
0.689695927965208
1.18168904120461
2.05051424648726
3.0413084280787
3.96859828002961
4.79326659414648
5.41881146697039
5.65129401233229
5.46725447098373
5.08710192812995
4.72340619664076
4.45064035117915
4.2832300382757
4.16861779618394
3.95237781871632
3.5118290911374
2.85473153887732
1.98851161358185
0.81030723346413
-0.779454857738522
-2.75543777305443
-4.99727086224315
-7.31758612857021
-9.44750603530607
-11.115951626825
-12.1518704796577
-12.4903674878514
-12.2055407909099
-11.5524380129616
-10.7826854064341
-9.90980165436909
-8.8293016573789
-7.57277810449957
-6.23081553054493
-4.77316715212028
-3.1652971511
-1.51122309039962
0.069634686976392
1.52832038669927
2.78241384739498
3.74099163708593
4.43911943226237
4.94831188187473
5.2569094932
5.4585795874306
5.87196139072259
6.7019374836788
7.72401675041829
8.48386783885248
8.65922131979404
8.1555907619013
7.06848903363736
5.65353269095812
4.20604107335858
2.91868249036083
1.87406926896655
1.09594271634701
0.566015186758239
0.27267202122854
0.245371191464344
0.450273275382429
0.707197994420813
0.836615358689362
0.806233736996752
0.614524149108542
0.192015226863242
-0.426435114040696
-1.01243742066472
-1.37197189853858
-1.50065807887578
-1.46040632036366
-1.3005254538138
-1.11587987842521
-1.00975162898088
-1.01921652139892
-1.15290246715628
-1.37010969498465
-1.4819719825726
-1.28162937178729
-0.814533987790665
-0.333527394551943
-0.0238422998827478
0.026573484767317
-0.307147953018666
-1.09225561447725
-2.16380532993736
-3.21234333249527
-3.98727173933389
-4.36913485167954
-4.37443822749948
-4.11133671910735
-3.63839054568232
-2.94051415764991
-2.12075821652722
-1.44559599531363
-1.07521710157613
-0.89752025975299
-0.718285862874971
-0.454357818618098
-0.0587925412852642
0.580573243671789
1.55008996767246
2.76475482255459
3.92220975119085
4.60882920803595
4.61124223669433
4.19038662385084
3.86210081784986
3.86032714546027
4.01244147996005
4.07644053099975
3.89561095850589
3.31179145906111
2.31161733665946
1.25207075637754
0.648397665640898
0.728416494501742
1.3132346053483
1.99896001582335
2.33056473540069
1.96098628679648
0.809429052375481
-0.913533920035432
-2.771634813298
-4.19159645427507
-4.72622532711656
-4.3911433574207
-3.62167152892345
-2.86502506813889
-2.35971997554031
-2.23577441631433
-2.58416025475551
-3.42473552565569
-4.70159061573636
-6.20604245432656
-7.46668179685055
-7.92683421170994
-7.32835526046383
-5.79837975929601
-3.60690481633556
-1.07026989793354
1.34941732135252
3.15344789210106
4.09692121700988
4.25220948992141
3.86475303471504
3.27867577323547
2.84165167518414
2.70162094590125
2.79607147767838
3.09098816716248
3.66365797963119
4.52379984257125
5.49191236811441
6.24197355986045
6.42338701221646
5.89147162898626
4.88644025719017
3.83095003331544
2.91569754722065
2.00456309259647
0.890727523276028
-0.470057891881499
-1.85448840665415
-2.82155702373974
-3.08573133275518
-2.90513834881382
-2.83796446459391
-3.09477604622479
-3.42005018090565
-3.56837750726692
-3.56090803416632
-3.50161784238095
-3.43620205108057
-3.38363740357633
-3.32638591061897
-3.21013999490016
-3.02695121413045
-2.79659937043355
-2.46769443373443
-2.02176428591371
-1.65650252758932
-1.62722441428035
-1.90655046813705
-2.21413329689931
-2.33963370993408
-2.22956109312699
-1.82299370734162
-0.99734954679468
0.329617686859563
2.08737331191061
4.00433371591754
5.74956201280341
7.20158024301091
8.44165457864266
9.43936949004625
9.9876344615223
10.0074282217219
9.64122021648511
9.00556547253588
8.14497554133691
7.24488512788933
6.57751812451138
6.17301071342832
5.73107929874088
4.86665340026941
3.37463111598312
1.35526417042087
-0.871691880676238
-3.06163950001331
-5.19209800136432
-7.21602916980673
-8.84116264190233
-9.73682445305854
-9.84377582226037
-9.39314257379157
-8.7956628185671
-8.56856371215288
-9.12824537670342
-10.5011118503185
-12.310047192973
-14.0085034647204
-14.9982506789371
-14.6932168906989
-12.8286817222227
-9.75522194116879
-6.2611731504268
-3.11196014252837
-0.754337874632546
0.773325608057564
1.76549929247123
2.54438028258721
3.19899499581858
3.70581764025235
4.16064026582622
4.70645843886649
5.33858166469868
5.91928440420577
6.32231477782572
6.57325482868167
6.96604373184376
7.92621753862753
9.53519354605287
11.26960316783
12.4147360467103
12.6906961197005
12.3785120652475
11.9180277332553
11.4231168329719
10.545522484114
8.9066092720608
6.71389872305608
4.7447507081943
3.62039827470393
3.29833031081559
3.3130851369466
3.22782054517292
2.78447617146565
1.92719090394238
0.843970559444019
-0.176056285841239
-0.997299542090705
-1.65510735553714
-2.20254727048353
-2.70190459197799
-3.25429399845489
-3.8786788487808
-4.49720117664803
-5.14204173150101
-5.99178635303285
-7.13615885238898
-8.4798598895415
-9.86582383851513
-11.1257681262344
-12.1033410452916
-12.8070857529982
-13.4369811364331
-14.13481761506
-14.8184144910492
-15.2945356942155
-15.3918584117438
-15.0140208260001
-14.2034665923133
-13.0531707613368
-11.4435180046168
-9.05533876724573
-5.74240513653667
-1.66466782284905
2.96623869013133
7.93627662170772
12.7605704735394
16.6831288074512
19.0755563354647
19.7406871640342
18.8959014866058
17.0056545053287
14.5644406368272
11.9192910391793
9.30037540147237
6.95815373877232
5.09220165864121
3.63818177623923
2.30765323050588
0.884860830210595
-0.599754815401266
-1.92011863502105
-2.78068990288854
-3.02006849796796
-2.7871397308277
-2.39716235872166
-2.01408145390586
-1.63706602976833
-1.31144909007435
-1.11476313741962
-1.00951184382296
-0.917691924237479
-0.873447701049893
-0.985287162406602
-1.34053542428148
-1.96503251360387
-2.72695096463881
-3.30206984123863
-3.39123760845292
-2.93465499906369
-2.03642234996762
-0.817676745213208
0.597260480005155
2.13499042209287
3.84338554172394
5.72537512596045
7.53406804914676
8.90878958869595
9.64992093107949
9.75089971120374
9.31429281425748
8.56472315777641
7.79986322849965
7.20259462490061
6.75712398878656
6.34502624644185
5.81845041009426
5.02043804425872
3.87324836793578
2.41704363798352
0.681357225131168
-1.36167631874585
-3.6321139541677
-5.89712986254028
-7.9545097671858
-9.68098629608383
-10.9057049444497
-11.457198099248
-11.3278041779216
-10.6630437802794
-9.69754781043566
-8.75564453922158
-8.06305078238934
-7.4700553830773
-6.60853017847931
-5.35508217189351
-3.90760366845282
-2.49734806693827
-1.34686564794436
-0.825246319605053
-1.30428544388066
-2.84855153441235
-5.17505121417553
-7.79086772228306
-10.0872623747928
-11.5072171989654
-11.7703314908094
-10.9112461691946
-9.19260607509302
-7.09094083050729
-5.20971616899696
-3.99483142904138
-3.53374099490839
-3.62896349812073
-3.92774933056453
-3.97533744200072
-3.3307451364271
-1.70313605973389
1.05188290116016
4.87611584122777
9.22377285101447
13.0204661622852
15.2613076768711
15.6963731816189
14.8837073367489
13.7268586881615
12.9798177481378
12.9266983636373
13.376702146241
13.99303480987
14.5576969523015
14.9011673670854
14.8160032762586
14.1798994738848
13.0023880497306
11.3015445512887
9.13132460572918
6.77477008153389
4.76983649196631
3.72778130233237
4.08519619410115
5.74049130265778
7.76658381819914
8.73738486087094
7.63184393611867
4.49063393308241
0.26775682884173
-3.88745940633466
-7.3519925036516
-10.2084771192473
-12.6991796879426
-14.5886097355811
-15.2822007477755
-14.5058702018831
-12.5794209370515
-10.0621142521427
-7.45491956301556
-5.26386770135061
-4.03285077333526
-4.14783326470991
-5.601212501563
-7.83719539568502
-9.874701880492
-10.9453974823843
-11.1559215215482
-11.2826263392865
-11.896629570438
-12.9359306939982
-13.9992159984871
-14.6548549224682
-14.4997943723969
-13.280191618615
-11.0460338374584
-8.08803201589518
-4.75093498688287
-1.29568334691944
2.19325183792776
5.75314260551081
9.28651810504919
12.4357549812543
14.8031955441722
16.1792535170826
16.5355131306487
16.0050758407031
14.8813885384621
13.3963665674815
11.4911564597274
9.0024335200298
6.03535666026656
2.99411220928093
0.323153977651998
-1.65050074812512
-2.72089892019674
-2.82953080866569
-2.15598137302121
-1.18221836217683
-0.566747750696993
-0.711839818025056
-1.32535599788086
-1.58397481756539
-0.883305266443167
0.679135866117929
2.53759696379701
4.05141916380211
4.6533183948424
4.07132067575023
2.62582157214235
1.06451061236678
-0.0170985839539728
-0.519274714966941
-0.761409043464348
-1.22054412903397
-2.11316495282915
-3.01337600798503
-3.0543631565279
-1.6827915396457
0.84074375350471
3.63590814860518
5.75065334622178
6.6634753390324
6.50876821505936
5.82196716507456
5.03467578584998
4.2965745347462
3.61756036312061
2.84309485635965
1.58145177955924
-0.443345436268109
-2.92984505413467
-5.14079763494311
-6.51962450985299
-7.04173164155652
-7.03514793911734
-6.80535005846443
-6.4414995589871
-5.94619120279115
-5.50473332282515
-5.4733023749771
-5.99433927187396
-6.75903406668515
-7.26940894498463
-7.16934096068013
-6.21075843855318
-4.15213539814175
-0.931924459060618
3.10875663745284
7.20890596109418
10.356323578712
11.6769259970302
10.9292727961114
8.62764316997421
5.66280441072586
2.88759369020022
0.861938190353183
-0.433068961498072
-1.63590437417032
-3.40427184130534
-5.7443777732179
-8.13987610356927
-10.1916660968198
-11.8518511479914
-13.1756168722628
-14.1246151362548
-14.5537346267105
-14.241195145874
-12.9585745669675
-10.5076734860109
-6.67087501832857
-1.31444525565492
5.28329464598457
12.2855832185565
18.5563359429921
23.0197287988577
24.906390047252
24.0128331961203
20.9053520775984
16.7331741935139
12.6667850326069
9.42119263289297
7.14932657050894
5.59922527322048
4.36813853950807
3.11489377788495
1.61942459564794
-0.182500129104925
-2.0672411199818
-3.59873980946221
-4.56689370745518
-5.18632478462965
-5.64691196076253
-5.70221835313823
-4.98881841788946
-3.62104538357372
-2.29060571621621
-1.86076946807904
-2.83693062616238
-4.99497627802516
-7.49234929303866
-9.51548927389619
-10.8271443833824
-11.6354362314489
-12.0946556710882
-12.0478587151821
-11.1217604091031
-9.01211066199676
-5.78146987129356
-1.88224922381614
2.10408338029553
5.58451588496388
7.879196182657
8.44405668916302
7.32756144329695
5.14761369236779
2.56774824636289
0.0743419570046339
-1.79486924310812
-2.50739476758161
-2.01553147601725
-0.874622649928946
0.253943167246447
1.01486564681407
1.30201143216572
1.10914796171679
0.532017348328316
-0.234195375347962
-0.957884758859204
-1.42514792364217
-1.46905813526712
-0.931639308068661
0.369282147696516
2.45375295495805
4.93751950396385
7.21812451422261
8.98298911010382
10.368309140955
11.6395681128282
12.8915159687611
13.9588217716617
14.418067087681
13.7966237366716
11.9446430383025
9.09335147914672
5.55260089163175
1.61533368191421
-2.27644640045884
-5.66037421070396
-8.44273478833338
-10.934243165332
-13.477897730305
-16.1457799661346
-18.668522520925
-20.4872232715755
-20.9391948838762
-19.5366781874261
-16.180688086498
-11.3094530906757
-5.95911319275048
-1.41226508595533
1.60169953725252
3.36814942294779
4.67062047213953
5.92008403790725
6.96336670859832
7.54123911766118
7.65256584394312
7.52974378020603
7.40003365107474
7.25741236003391
6.90012418829332
6.22454480864769
5.32916879634497
4.29735592269049
3.14232104069605
2.0261215851577
1.22088146099856
0.759601817124115
0.388473425033942
-0.0741650612603145
-0.530970150282388
-0.761756298551668
-0.670594794777546
-0.453623288039033
-0.571890152058021
-1.41650947970824
-2.97591743198901
-4.90618541481511
-6.74585731146731
-7.88414411544909
-7.60221436143417
-5.51874657083354
-1.96699866558578
2.15346751627089
5.7363131964564
7.73827827143285
7.59365521012047
5.69609320909778
3.27000829003851
1.48598670483665
0.665217751884851
0.291405084595468
-0.337160820163935
-1.40143819242639
-2.35087035892469
-2.4503344704033
-1.57721384967749
-0.34714994126177
0.485563922505523
0.506820719305094
-0.36595374126747
-1.97654718941522
-3.93632234391745
-5.76715157067001
-7.14088481560555
-7.96210695080083
-8.26981814161746
-8.10798633453959
-7.51945228003445
-6.71365808885922
-6.11602614592008
-5.9839651713496
-6.00693704901745
-5.57273797057919
-4.36802957525357
-2.42845175112211
0.209258685219367
3.46005629817406
6.90791662237463
9.97640124715049
12.3415047810911
13.9615908581585
14.8753565627014
15.2109125553054
15.2525380523664
15.2651994548418
15.2488355951914
14.911799903924
13.8827358944524
12.0504374856099
9.79728021373961
7.79135467063877
6.45683897972533
5.75838314396044
5.44799177060518
5.20535434657442
4.56493453946927
3.16285124533511
1.19049054231785
-0.691563591824796
-1.9494201965376
-2.53076294294205
-2.78442894645335
-3.26072465363033
-4.42932878811527
-6.36179363689289
-8.74112295610926
-11.1886197182859
-13.4441224333641
-15.3628344033792
-17.032611887465
-18.8024850260527
-20.8858258193736
-22.9551049843272
-24.3145020069102
-24.4461181124362
-23.3459717690206
-21.438204819572
-19.182616010475
-16.6711756500457
-13.5977604954241
-9.61730089601048
-4.68583430427196
0.821392778831868
6.09711550036528
10.0704093096727
11.9216142704641
11.6454335002125
10.1302995656648
8.69514827504923
8.44371699407455
9.70387353829232
11.8140602455506
13.6198721855436
14.4452311590964
14.5375785019661
14.5206303588401
14.6414121206655
14.6678256141652
14.3082531213496
13.5393915387729
12.5171652630687
11.2272271619387
9.40296418974207
6.97622548893604
4.4532172081598
2.54077957171608
1.48001545491242
0.97876117354435
0.621509205466526
0.070412170501345
-0.949603185690882
-2.54926227576903
-4.57762093631842
-6.68099936615662
-8.38244924266772
-9.26522407848387
-9.35203357735778
-9.17297367678796
-9.17730588323541
-9.17919192359741
-8.56784565078824
-6.91971957300844
-4.29359630450738
-1.13260216886596
2.00160562903681
4.77709178863568
7.27518579042896
9.70224211932745
11.9149632116296
13.413103713045
13.8394531880813
13.3624561173823
12.5100484000372
11.5757150139693
10.1389383110542
7.40015470462586
3.24787532207929
-1.29006397697624
-5.06428721313844
-7.99320241953975
-10.7739499096017
-13.706658687323
-16.3860079891801
-18.4485062425879
-20.1365353519498
-22.0243822450956
-24.3149619254387
-26.3834774797704
-27.0403659049854
-25.3864329694572
-21.3914913557494
-15.6150159477081
-8.67666602856246
-1.27637526758729
5.57169007607086
10.9098522363836
14.6389747687934
17.6520746287555
20.7345490049622
23.2248250163947
23.1852897008139
19.3664796313642
12.9061456696077
6.72140775497183
3.2676719137125
3.07900334969169
5.09220690677166
7.6976306080417
9.48083741121206
9.63487151640033
8.10580691600985
5.3407687200406
1.94661847594094
-1.36823571808155
-3.83801852184726
-4.95326052056037
-4.69460055760067
-3.38822722193638
-1.42912342593764
0.854530252501407
3.14131802774817
4.90830340205268
5.40925198003465
4.1376866377307
1.2815983035594
-2.53088354417627
-6.81746828043026
-11.2563534886775
-15.2462086505558
-17.836307858633
-18.1652295963651
-15.9158805437911
-11.492504428618
-5.80771528938472
0.262960610155664
6.17895036053524
11.3691256986286
14.8979584151729
15.9917902138635
14.8738865036028
12.7272058019649
10.7431985819716
9.29683041931264
7.97815966113953
6.25956236741459
4.04434627927872
1.57112095890067
-1.06268098473608
-4.00641511484706
-7.22543908998766
-10.2532523324511
-12.5591209271952
-13.9474043530095
-14.4392440458523
-14.0074437948268
-12.6246219795568
-10.4377934590168
-7.83132950063609
-5.41061028080152
-3.77706880952186
-3.05070273697841
-2.64830884124374
-1.68342530693441
0.456501568468872
3.88267990888598
8.23762699839589
12.7583383122299
16.4104387114388
18.1527750037249
17.3566559893095
14.3101465111491
10.2500266704926
6.41688280486846
2.9505545674626
-0.91196595066614
-5.52927976961536
-10.211635409945
-13.9136726077575
-16.0542225335524
-16.5280408183637
-15.4351455212996
-13.1860043556674
-10.6550859768532
-8.78883011160328
-7.87095893554392
-7.27302306593716
-6.06062465536241
-3.79748649711767
-0.641727276936452
3.17659913574205
7.53394023881891
11.9457252153422
15.3598877580682
16.8319053716014
16.3664989307748
14.9874536738014
14.0455122723859
14.325022732904
15.5169113429467
16.5549743865353
16.6266799510957
15.7536207996584
14.3257475612339
12.4288708346796
9.92016729489777
6.95335983978308
4.15689194958328
2.30931521870204
1.82726595428918
2.41674276867928
3.20091632271159
3.24909921389317
1.97006253194576
-0.8526748031385
-5.0467036367235
-9.96540469409096
-14.65249804012
-18.2814671444169
-20.5622568060717
-21.9182343983045
-23.2541784873058
-25.2566217476606
-27.795003137889
-30.1031855306023
-31.4337670942139
-31.3340286863706
-29.5261072544176
-26.0052352801625
-21.2886372631386
-16.2110723685535
-11.3772624806911
-6.97041147172978
-3.01570152621646
0.40752012149229
3.23160030907445
5.58153054747536
7.85125100358434
10.4882732396788
13.6355707765976
17.1382356122169
20.9001362553605
24.896989056254
28.7881899496201
31.9534968887743
34.0541034736431
35.1750172641565
35.327768141564
34.2294976363985
31.6982699224428
27.9206539375378
23.2135695773965
17.8057386556454
12.0143239207037
6.49063450597382
2.05055086834632
-0.928868690159667
-2.91920912955827
-4.79810829967292
-6.93150671521739
-8.94045828192449
-10.4036815696086
-11.4580309231664
-12.6278527487016
-14.3867976173432
-16.9844299186294
-20.3865869154013
-24.1863549893602
-27.6971654017933
-30.2648479693717
-31.5514897031716
-31.6000568626198
-30.5025351964517
-27.7446111732876
-22.175462719239
-13.4377599531766
-3.5359634419204
3.90684312690619
6.50860047048516
4.92172714170461
1.70188278003256
-0.983587852309481
-2.32038737414056
-2.32759919568687
-1.22892735476463
0.600685199134215
2.55733295615361
4.12178134274464
5.33243820902517
6.73017797740134
8.71515019476785
11.1624467216826
13.8100160351914
16.7495507293577
20.2248250236084
24.009371776825
27.1883557864886
28.6464175795552
27.8476810639032
25.170994841026
21.418952230706
17.0991878146284
12.4250382709902
7.88759548006439
4.33302560721808
2.30940497276892
1.62536174651308
1.66366383608524
1.9029128542386
2.10066730702815
2.22161645401332
2.22871566555893
1.75998671199867
0.0869390168067206
-3.31397685834731
-8.06804565819741
-12.8792700037085
-16.2920165668749
-17.6692148591148
-17.6280158549364
-17.4788470219171
-18.1291851372241
-19.5558785448535
-21.184127903556
-22.3926087197798
-22.6470849679962
-21.627861796327
-19.4789842237916
-16.7185923163396
-13.7706924682508
-10.6979777555393
-7.41472332028478
-4.07584806407161
-1.22430564904992
0.558726895658405
1.29958101680989
1.79012464580436
2.84881189818662
4.51570319125904
6.18289725893607
7.35664796544356
8.04136814432671
8.5058256666286
8.94143879457803
9.35654523493759
9.66934132104712
9.84020763647981
9.8701590590103
9.66502723854643
9.04964658149582
8.03804432432241
6.94663603875066
6.0756166545838
5.38882215031413
4.62314769821297
3.60505225139056
2.44613314362878
1.56282474100324
1.38572125780975
1.8335934431413
2.24981672947931
2.11022774886634
1.61121981576388
1.35318468596382
1.65905221493341
2.36955786093935
3.08436996375619
3.46611154993802
3.46720961453299
3.30088771589837
3.07617259562749
2.54071735110416
1.33137332782172
-0.581998770181407
-2.75485541007169
-4.47324515846751
-5.13591906891728
-4.58923144879681
-3.09875808026387
-1.02556165553391
1.28056366626083
3.33189435836798
4.63225514767366
5.0483804769952
4.74725747521755
3.70655670854956
1.62157791230457
-1.57051199006672
-5.31161610922137
-8.67007525602762
-10.8162073914358
-11.2988024447175
-10.1627567586634
-7.95868270748683
-5.56235618135767
-3.85422400855241
-3.34071531583562
-3.80593975329634
-4.33125159933583
-3.88884148234391
-2.0508487837953
0.779693702541571
3.65672593050059
5.67707829224645
6.59446486706948
6.89232367047406
7.07898514099463
7.06697685972699
6.47740395131722
5.27616882737293
3.75838506748423
2.14849463856567
0.547927169387109
-0.960549080607442
-2.44709168619002
-4.14242060507943
-6.05006445329709
-7.69550640269917
-8.42968980029284
-7.93776413941344
-6.4534448075426
-4.55573878672455
-2.72468657716447
-1.01720036621325
0.84817822188429
3.13091669231084
5.78006658631155
8.30036627686029
9.74516984825034
9.07408911298208
5.95067980800626
1.31306895299164
-3.06149217562019
-5.77853523023495
-6.76686078084934
-7.14008725524037
-8.13361125895867
-10.1133751273362
-12.5956867239776
-14.9824676823575
-16.8555884286251
-17.6863714414439
-16.9670145852962
-14.8292803225745
-11.9596819308492
-8.6411710590634
-4.32377451134275
1.55161655891741
8.46410357880744
14.663090884018
18.1803912009685
18.3213345891545
16.3715225007406
14.6678103520213
14.8873797587395
17.2631735689823
20.9731276713135
24.621183081173
26.5960226566783
25.9294555726389
23.1549306807894
19.8753564466597
17.2383615129156
15.0539925281709
12.4341756354632
8.95179101690231
5.01496237892206
1.37702248483898
-1.45212026829367
-3.41621247823188
-4.86188795132827
-6.43588875328472
-8.81031522171439
-12.1043276621651
-15.4965984236278
-17.7505067642229
-18.3256419046748
-17.7839550051858
-16.9991049906249
-16.1997894994512
-14.9962309886954
-13.2699413045738
-11.7533375150781
-11.4166758836354
-12.2829295023772
-13.2675826236505
-13.3707837651251
-12.5735974702089
-11.3178440932053
-9.7055569440739
-7.69326332460172
-5.61657766583751
-4.04356795810878
-3.42201529608627
-4.10607327127826
-6.21663431956848
-9.0948969418798
-11.2732707145474
-11.420858436503
-9.30672678038018
-5.76165993320415
-1.77557845521971
2.32038119623438
6.78301279456135
11.5999730015684
15.8716582064971
18.2745673189201
18.2022506664564
16.4185595558469
14.63320678199
14.3734860014278
15.9113499968615
17.9800506338222
18.6560786599913
16.8162873301976
12.8614223070643
8.12398396500123
3.73988524307679
0.0430858907524015
-3.1861642717809
-5.97730050353306
-7.68525511844258
-7.39487753267969
-4.88272294517577
-1.06126967413065
2.5256779650854
4.53950638813912
4.41570414023762
2.58344714071477
0.26388900104575
-1.19295032415061
-0.993744861364329
0.907507413252387
4.05718672798341
7.79868066472403
11.3934020147072
13.984152535937
14.7011626615308
13.2009152301377
10.1665211165732
6.8926886141915
4.20652018148623
2.042772437665
0.0521449427724286
-1.81281297774355
-3.37501556058582
-4.42485435699802
-4.70479481330655
-4.18134006398561
-3.58477509387587
-4.25118591294759
-6.96917370473976
-11.0444367017959
-14.7669908400925
-16.8505615125605
-17.3417110972268
-17.1705461514604
-17.0472102866215
-17.0023140401521
-16.8259100374492
-16.4813650054368
-15.9434648502972
-14.9797205374423
-13.3290584751731
-10.9548577301968
-8.04615325466004
-4.9054502189694
-1.8224597584165
1.10278420252535
4.00488078066947
7.03073236230807
10.0823656735926
12.7077893380176
14.1309878079304
13.6324108245935
11.2811638149802
8.14530232125021
5.36487150184092
3.13223574622368
0.962386759440157
-1.2338592155569
-2.89499394813543
-3.65973456429957
-4.0133285132423
-4.80472936753082
-6.25054249657527
-7.63971315214012
-8.02937487162281
-7.04938862175914
-4.95446446562698
-2.1412195118412
1.08017273343779
4.36528931510043
7.42844390266891
10.3375366716788
13.35348875473
16.3246472708088
18.4825849575182
18.9809045676254
17.5931209256096
14.9734297868113
12.3301276609489
10.6698112020365
10.1523646537663
10.1663574663254
10.0087553645353
9.42531621124023
8.59038853433509
7.6969198357866
6.53105325200517
4.47530946187986
1.12374832540544
-3.13614993779667
-7.41688849255584
-11.1597209461886
-14.3578911677826
-17.0034739152579
-18.6928758485617
-18.9069377690853
-17.532423485616
-15.0157460387449
-11.9349923898797
-8.36722894788071
-3.86167661402007
1.72729897731949
7.51467390237711
12.0011439979238
14.2329553221316
14.4016128670148
13.3713889923832
11.7768354365248
9.51537853061981
6.02060305578739
1.12888191199532
-4.31297255993112
-8.88691610138136
-11.6449443458932
-12.5748072060514
-12.2548725940256
-11.407439628682
-10.6527075097719
-10.2826298529922
-10.1586274069172
-9.88193017612263
-9.05316645736064
-7.55486497420671
-5.85696942632733
-4.85856267036758
-5.00801045939415
-5.65692791949622
-5.64144767396783
-4.42801236528454
-2.43525972044331
-0.437783313218024
0.969652755486532
1.37753905959653
0.396731454965234
-2.21981655488267
-6.15125901376383
-10.3215393868037
-13.4468278577655
-14.8374009216782
-14.4637069342291
-12.3293472370081
-8.18377432225664
-1.95751383923506
5.73560839086371
13.5591071951953
19.8828834266375
23.6075747311356
24.9455158497299
25.2065196186128
25.4663229178142
25.5502297353469
24.5125995931507
21.9025926906521
18.3589205873493
15.1048960644903
12.971221873953
11.871473883383
11.2570758454913
10.9409532287536
11.081176853115
11.3848479751406
10.9252834463501
9.00548028327994
5.85227120748657
2.31508672192963
-0.832978725669881
-3.24822436364628
-4.97331644626362
-6.1686783381572
-6.81848517195318
-6.70202217844351
-5.60199332439578
-3.44001350716807
-0.383841422183682
2.87973876400963
5.0513514602056
4.73135420307682
1.21778782257305
-5.09266511411658
-12.977978109064
-21.1641869478949
-29.0514482784939
-36.6427625921696
-43.653782888648
-48.9889174422116
-51.5210172241304
-51.3007493723151
-49.559035150951
-47.3973096309056
-44.6606790087226
-40.1344762922632
-32.7738012714306
-22.7347764537429
-11.1070602366575
1.36396805436729
14.7963885003559
28.9462712842173
41.8120366303438
50.2288601906422
52.1433092042922
48.2110891342232
41.208864108494
33.9897199250165
27.9224127438977
23.0505074974317
19.3057488434076
17.0928912769856
16.7428089273255
17.8936073667815
19.529226098281
20.314447121626
19.0198257221618
15.2031686107291
9.64488913639873
3.89148779770379
-0.590138117457472
-2.82364087180664
-2.49898292092386
-0.225081294271343
2.7369910974975
5.46748836800728
7.95630764274634
10.4160043119381
12.3074286352366
12.4536394868803
10.0952136759059
5.6523545815004
0.501849539193384
-3.91818987620803
-6.94654589461495
-8.92346895722463
-10.7789695889218
-13.3737541796835
-16.8909271164448
-20.4984969029182
-22.6811202943452
-22.256834520228
-19.2615078052548
-14.9658125322386
-11.1920331397577
-9.41966928643228
-10.0199764719872
-12.1448796333961
-14.5365778009906
-16.4416767358189
-17.6554271882143
-18.0309087184096
-17.3462743219431
-15.4505736860527
-12.2053527142383
-7.49458972684748
-1.62377330283491
4.3849346750475
9.08561839033035
11.2647782048719
10.5813565498857
7.9086145314937
4.96197477205593
3.18654606740065
2.76250333801005
2.67319002070233
1.79939433330516
0.0426607025430959
-1.59118750782629
-2.0683228219992
-1.41093652698434
-0.531536978230718
-0.100730565109833
0.0507165265915468
0.442484514323126
1.39665968825164
3.11471003379817
5.70625755689277
8.72744458591753
10.9983112229222
11.2831000557421
9.23877674766823
5.79172903845049
2.67758030037619
1.33944216931986
1.92959695184743
3.47645248350585
5.21947560316871
7.53570866888951
11.1998951387053
15.8511134242654
19.6192413636788
20.4812446118303
17.8977600280292
13.0273507729304
7.51819641037149
2.4351966336933
-1.65269816121555
-4.14445002887473
-4.51240519051924
-2.85024288944221
-0.0636202078406829
2.44017125052176
3.31997803393893
1.99029606381626
-1.00197497762931
-4.44449923169521
-7.38755466871383
-9.51251427347661
-10.7554782205301
-10.9758902512987
-10.0747431921796
-8.18840825102841
-5.73420027339812
-3.41958837657901
-2.0451978257768
-1.95956884066441
-2.71191426201108
-3.4745188989329
-3.86654835317782
-4.31110615746281
-5.57759372468513
-7.93283526271524
-10.7009998847724
-12.7079763778885
-13.1912477510908
-12.3035380864775
-10.8917640819866
-9.86063208921924
-9.4878049266211
-9.12117557418238
-7.69756955663295
-4.7437803282263
-0.771085742860936
3.33043013914087
7.03367282321721
10.2476080698458
12.9365474550161
14.9073372629327
16.0072067927944
16.4449070595259
16.6661921433727
16.7316155300226
16.0848310496138
14.2366551627789
11.3766982653034
7.95047649631987
4.05004525931441
-0.204489531007366
-3.98706837709928
-6.12624702998975
-6.07653225592828
-4.15750551939418
-1.09465848511066
2.23135808724812
4.85291517154025
6.05055005433531
5.58755919326366
3.46536759985579
-0.291331499491369
-5.43213928039098
-11.300182219289
-16.9974819779998
-21.61494436588
-24.3476051367839
-24.6723900801282
-22.6439291864853
-19.0718859753991
-15.2687239672231
-12.323534202665
-10.446491677246
-9.0866645418039
-7.6721613318399
-6.08932847169914
-4.5503748111379
-3.23808752899518
-1.9487648692961
0.136999420579273
3.99727915245596
9.60339704156959
15.3558206671985
19.1132679339195
19.8225516113397
18.0654329305892
15.3110389393694
12.9650502103872
11.9811403369466
12.859915685671
15.58136126977
19.4361688242817
23.1194128749454
25.2896759012205
25.2719718077489
23.3895200209691
20.7795442656271
18.8483952012482
18.44525771961
19.099554118788
19.21074055028
17.4173960291045
13.7476806957835
9.21052545037618
4.54647031792525
-0.255148850416533
-5.48604679104109
-11.219559486161
-17.1983757953236
-22.9813526184229
-28.2796801151548
-33.2132178553809
-38.0878748186203
-42.9337773111962
-47.4516230337011
-51.3458786025772
-54.4193946457609
-56.2374485724572
-55.8491614977975
-52.0773630699733
-44.3053383233354
-33.0162630539133
-19.441261841088
-4.77695913603622
9.99821625181697
23.7433815976486
35.2348222819986
43.9181241790759
50.3000503248708
55.2729160303625
58.98559581153
60.4421848706406
58.3498776517375
52.5171198182628
44.3486369393749
35.7394862433251
27.5646875370004
19.5704886529472
11.5736557571913
4.13950573679484
-2.02919380983615
-6.85357169640488
-10.8700774637863
-14.8054290460267
-19.1849713782912
-24.0417093996755
-28.9750401509697
-33.6084469617604
-37.8137167316619
-41.3416657838876
-43.4630973218033
-43.2190566557198
-40.0595544137861
-34.3097229560105
-27.068191625577
-19.4488678900811
-11.7507839578914
-3.5551573116367
5.17756458909345
13.3001652136309
19.0581063179347
21.5369491541846
21.4329568755512
20.2982719685729
19.0837922757767
17.6224213417727
15.4772396964656
12.7580871451522
9.78513426641553
6.48339998887001
2.81649863688083
-0.33107830144362
-1.39801148377081
0.525345765938372
4.88196404495084
10.118198449989
14.6438153503516
17.4188131841652
18.0963640494462
16.9046778120238
14.3737906007316
11.0745247029488
7.50594556541892
4.13962479250562
1.52187826326714
0.165250296779279
0.126833352554628
0.816218531139222
1.53508271276712
2.14371405216537
2.93002034911445
4.00412211779561
5.1977990372812
6.42588587433588
7.78834703224373
9.34660315834196
10.8524050726914
11.4120577926557
9.4679991538674
3.74950605532636
-5.47491224775204
-16.4178871362568
-27.0255226004704
-35.7743287274893
-41.4426875678847
-43.0671869983758
-40.7189106876698
-36.0110903987285
-31.2173329603966
-27.5551496601893
-24.3460222247793
-19.9999643597931
-13.8771222417287
-7.12334524995005
-1.68821594847159
1.37078230989167
2.67162303774687
3.8367901739768
6.0470146489708
9.03787010238627
11.5115249056545
12.6340552504185
12.9255343329701
13.5248860255549
14.9708682256431
17.089306071611
19.7717767296636
23.3238233466419
27.9328375762923
32.9033966680878
36.4954309858603
36.812273590761
33.2707874199593
27.2313853824424
20.8873986083357
15.4347745775372
10.4303735349097
4.88264650698005
-1.23961048981358
-6.71141959443126
-10.2430705588224
-11.7802300258188
-12.4160750710348
-13.1933345012916
-14.4043273568329
-15.9553556249636
-17.7755399568856
-19.6626400267444
-21.2427617654739
-22.4469847513484
-23.7472635638363
-25.540451597203
-27.3031687705104
-27.5697968220044
-24.9746175505058
-19.5756984730353
-13.2333246371887
-8.4078356629259
-6.28153123319119
-5.99963752512481
-5.66517482039445
-3.89815357202121
-0.547696837975168
3.69658373834776
8.11307226270994
12.3431180358693
16.1167094160378
18.978690299405
20.6928729929495
21.7932672159776
23.2584541533859
25.4976214117223
27.8161472485675
28.8637620684536
27.5989909729565
24.1537874767006
19.9951964208576
16.9291508443377
15.5364638244672
14.5864299721475
12.1459852455248
7.29774305962475
0.843974074430133
-5.49610831578711
-10.4865745062509
-14.0459038891938
-16.7485991843121
-18.9757152630872
-20.6587869638708
-21.563778835512
-21.5446346916172
-20.673902763423
-19.4024515318568
-18.489823898778
-18.4902025797455
-19.2722715129789
-20.1130550376861
-20.1480931951203
-18.6832304470625
-15.2998125346138
-9.88652573312384
-2.70056421967162
5.40073902637645
12.7934588568365
17.6232030091781
18.9283231613784
17.1954394732106
13.7650593685167
9.88218276359768
6.24185570884019
3.00962291860265
0.0636991301708396
-2.65648576678265
-4.96842034202414
-6.58949488244774
-7.33607725647255
-7.20811497518201
-6.47897025933473
-5.63923844779338
-5.00195551648866
-4.44252055165606
-3.72664114626005
-2.88696626397918
-2.01642808505119
-0.896071535178725
0.906350130812778
3.67368986693209
7.35722643889983
11.5423045660698
15.4895065325682
18.4067310948592
19.8551132346396
19.9234077855306
19.0852690105958
17.9240630208839
16.8254567073101
15.8161916478216
14.8074869451487
13.9590429714702
13.5278676115934
13.3518508320016
12.7839918991304
11.2209523766826
8.63080499670513
5.71624992315842
3.56756236742773
2.71973509405754
2.35180074095039
0.809299457338745
-2.84152154685178
-7.98757952610067
-13.1498781879679
-17.1278039634808
-19.5546750806662
-20.8399256780416
-21.7298109472302
-22.6601033047257
-23.3731364555867
-23.1390377111117
-21.2694471438872
-17.4979718516824
-12.1912374489592
-6.37699676673653
-1.41233098779686
1.63478650958217
2.46437560388623
1.53752071034662
-0.347636446141636
-2.50611533847913
-4.51113906077158
-6.04441607061551
-6.71123073476929
-6.0654224539846
-3.89998770818703
-0.571288011620298
3.05825343031229
6.16492102407244
8.39666096122881
9.52250786211757
8.80722461314214
5.45580333924006
0.0184619303521599
-5.35045523441598
-8.80874350379386
-10.7904396272427
-13.4928716730253
-18.4504518654966
-24.8675592425146
-30.1676374757673
-31.978060020028
-29.7925996997659
-24.977556640794
-19.2682904859981
-13.406880830792
-7.24604015822574
-0.710703879397365
5.81623744517465
11.9182164435437
17.5793657223947
23.2037698358684
29.3455538812117
36.2551690098825
43.4059786940353
49.4316195595567
52.7864935516843
52.8282219949883
50.4337365125832
47.4307728928956
45.2162922193294
43.78615721342
41.8679811254906
37.7569157634492
30.2805514335091
19.6349982459485
7.54543179137787
-3.80919150590959
-13.3204276339264
-21.2161399321066
-27.8749585038556
-32.9392613243348
-35.8138919588554
-36.6072142026131
-36.2642564311794
-35.8667491317671
-35.8288464831544
-35.6707441308405
-34.593845012388
-32.2704274304683
-28.9999577885691
-25.2878775806093
-21.5582130323838
-18.1053819062985
-14.9251609146248
-11.6127659123715
-7.70598267150824
-3.15810179895972
1.57862667738993
5.82149651117088
9.02615671694689
11.0917281847726
12.2957201745046
12.8200545445506
12.5192865190664
11.3168585769947
9.55544256192317
7.65628754628317
5.58366024448313
2.93959353039217
-0.38325782125963
-3.75434236507758
-6.07603009269622
-6.58987717143601
-5.49037914298915
-3.70765779188108
-2.1111720138545
-1.06897702783307
-0.63723513074755
-0.668547148712809
-0.589148345268289
0.415447301373664
2.60413010790884
5.25910745328938
7.29262908700168
8.23536394316408
8.60684522866978
9.36817661117257
10.9721857195035
12.9106411659747
14.2005602573783
14.2499207558411
13.2587676886468
12.003192243405
11.3254090041338
11.5898606409382
12.4743058335318
13.4010632445402
14.1045433664874
14.5085662811119
14.1777893224272
12.3583296103286
8.64848808320767
3.38265242101694
-2.59419342120747
-8.29179769171112
-12.8394863009808
-15.7524821771094
-17.130240810505
-17.6388507370177
-18.2735160547553
-19.9302641382444
-22.9414290945606
-26.9350280530161
-31.0835212722602
-34.2794150290337
-35.0783921217242
-32.069496618816
-25.0265023903177
-15.8140331831912
-7.73060063712518
-3.52863523197768
-3.78418139831423
-6.89095023239387
-10.3764769075189
-12.2224341933352
-11.3279274152397
-7.43023434559074
-1.09560917127362
6.37579166203115
13.5544524573523
19.6286818289359
24.5242761768901
28.3496217448011
30.8385047253653
31.3472352169795
29.4253659109277
25.4661535816208
20.7545608907327
16.7959001286695
14.6242855305857
14.6181964276866
16.5033319284038
19.2901539522853
21.6244485884024
22.6841468698304
22.6933109496466
22.3397843304173
21.7351337870847
20.0529842063027
16.1810544164331
9.84363527306724
2.29683284216971
-4.19998727922624
-8.06393050841511
-9.78774872102531
-11.4824373927756
-14.8532767114719
-19.6697686401907
-24.1599723543236
-26.6199821952044
-26.5055306435099
-24.2598881493719
-20.6730251962146
-16.6964150571348
-13.3177671852528
-10.7225063801612
-7.6169737096471
-2.31442975347765
5.17425801336525
12.7777776547345
18.3331438909825
21.2632032506869
22.0236372050547
20.6133428857007
16.273480533721
8.46042911464838
-2.30486826413601
-14.6256620068181
-27.1779571374092
-39.3803011343822
-51.0125954706436
-61.2588064446454
-68.4353120926369
-70.859842302982
-68.0144462107197
-60.9216318155837
-51.3914656956821
-40.6826954604695
-28.6839402113863
-14.4667717818302
2.18387644119722
19.7952407595077
35.8412524640309
48.2525762691627
56.2022781831192
59.7268154326169
59.1979911099048
55.4563610730611
50.1233971531477
45.1647214205617
41.7846814302085
39.8087439424563
38.2631463581399
36.3887061969821
33.9302307535004
30.7139122701551
26.4134746498006
20.9073221073107
14.7419813091915
9.02585468535348
4.63051640518688
1.42538357011454
-1.50215102528473
-4.76234382450184
-8.03241132293495
-10.6512498692487
-12.5557504000619
-14.3543836796388
-16.6318911780443
-19.4052236686678
-22.1515312686
-24.160350911661
-24.8721782840128
-24.0636859500339
-21.9339632336479
-19.1316757414678
-16.5404445003682
-14.7531145775608
-13.6875202655833
-12.8124650344933
-11.7179237077161
-10.3650994148982
-8.85359989911924
-7.1169300374529
-4.90657659386316
-2.0708362106662
1.12604922769555
4.02981895689738
6.08328663439748
7.23155511042348
7.68283640089197
7.44321495490213
6.43849577776407
4.98559687794558
3.67485810672949
2.69062249216916
1.61396047619807
0.119642075181425
-1.34024755254845
-1.88947935960209
-1.33704472941459
-0.627715509584378
-0.868884215768041
-2.04096742289033
-3.02494225413084
-2.84527224018398
-1.52484080893616
0.286639599903526
2.20907982632155
4.55400396954258
7.8631171348801
11.8491226476229
14.8261464387589
14.6751293241339
10.6821963468825
4.24187692403807
-2.32829890776571
-7.44049863097056
-10.8137328286996
-12.9508415777884
-14.3630048242746
-15.1666075615231
-15.190859861756
-14.2747672919879
-12.3074703710882
-9.15973326931407
-5.03188507998187
-0.869731770028355
2.15252015417467
3.76352333477563
4.70171292776885
5.52484068629836
5.91014856261872
5.47769703604634
4.83622548394308
5.29334012003802
7.5222401979968
10.6861147567726
12.9454712669698
12.8913758850982
10.5926815540171
7.39353144486949
4.84602543983949
3.76508606539522
3.96818396266536
4.75737537232653
5.82703301493826
7.69182822995616
10.8923784196595
14.7867964279086
17.601738999428
17.8835479283348
15.6609736311387
12.1008477595624
8.25312565478985
4.2994626791278
-0.0075050328087342
-4.41191455323316
-8.04511479610544
-10.3275440243313
-11.5504733169948
-12.3053425857605
-12.8005661268476
-13.1917077693238
-14.0959141195778
-15.9169600446926
-17.7030958518861
-17.5348096225458
-14.4969200882188
-9.93662822839296
-6.39019080308288
-5.23991253680172
-5.5029985224815
-4.94244596991653
-2.38161984366347
1.04675293651177
2.87127677897496
1.44956753539044
-2.68815482984733
-7.4129116988941
-10.790328870013
-12.2868199817669
-12.3149801526413
-11.0985777298168
-8.58669209362762
-5.33141763169947
-2.66025979063388
-1.68350179959696
-2.48273203125289
-4.29974162968125
-6.10737083597372
-7.00836741886751
-6.55813761644673
-4.93923567923196
-2.77051491078756
-0.718847522978084
0.846769679944471
2.0755927772486
3.47664617687843
5.32104221403153
7.29612633809127
8.97228847823615
10.4291040142361
12.0960610698612
14.083894053253
15.9487308161552
17.0143315356438
16.759679541786
15.1572076982318
12.9500699164949
11.4512186152665
11.73237445742
13.8500867298947
16.7895385532532
19.1831154836727
20.3026152930803
20.471199169791
20.371475707749
19.9828555255949
18.4879972217121
15.2193502898163
10.35666601716
4.66641180135773
-1.0781435201386
-6.2929716168371
-10.4918184113291
-13.2781586720008
-14.5343765431372
-14.6432179338405
-14.4080763341788
-14.5733549642523
-15.377249522632
-16.5331247302755
-17.4584806068886
-17.4791786137315
-16.0530199429376
-12.9598746446063
-8.27407743420606
-2.29920812452866
4.26924763815209
10.2474265293363
14.3684239504011
15.9413228999251
15.1081870015948
12.5160402325691
8.8072020317559
4.3894478030892
-0.365730728492046
-4.83832452878201
-8.38655703401732
-10.9914830750233
-13.3132764156496
-15.8477431031878
-18.4071647976899
-20.6833687054701
-22.7594745323677
-24.6122645790223
-25.593404315962
-24.920230020596
-22.4027076090108
-18.4262192545641
-13.6601719901094
-9.11620527843141
-6.02538564867559
-5.05211952632249
-5.62948028427767
-6.41468404885614
-6.51415381419457
-6.0715701063344
-5.55863199119164
-4.84328339194321
-3.37402294169683
-0.932372417791004
2.62102593130489
8.17908441495278
16.6347370496253
26.6264409852363
34.0059969950465
34.7495121285646
28.4233658351987
18.2899103675793
8.24076403732976
0.287114214429199
-5.10341954082673
-7.39508161987973
-5.79235212261564
-0.644044818249746
5.83016434785696
10.9274339598115
13.5114390361452
14.3653926638209
14.8173120063276
15.6900933064697
17.5528842729768
21.0618974908251
26.2694745963531
31.7050178188063
34.7942893642922
33.6667520038115
28.5384623056744
21.1558855947354
13.1019182421702
5.0401000572405
-2.61124677419638
-9.08250941039787
-13.683781325806
-16.3988968556796
-17.7527251335966
-18.3892052110314
-18.9787983169095
-20.1926743563221
-22.3747585403139
-25.2156319756824
-27.9170834148105
-29.8237700600867
-30.9162831368645
-31.547389665056
-31.6845577889616
-30.722353029869
-28.1758639578035
-24.1625733326924
-18.9591080476155
-12.5901090629907
-5.31928307550221
1.9505506074294
8.50472194808109
14.8005710465383
21.8177764440824
29.3009558825592
35.1594438000631
36.8858419061908
33.5683029388125
26.6625106784579
18.9682540996646
12.7771331141053
8.76752208377306
6.32534101333021
4.52326863064743
2.75303010230868
0.886971082546561
-0.731974562675262
-1.47374539344942
-0.855988053731949
0.947752112048457
2.84159280660681
3.13028927729972
0.520388348150272
-4.87048944671659
-11.4438867460406
-16.96926558179
-19.4773519213238
-17.8387717055931
-12.3066569100502
-4.81998333347258
1.63612481198066
4.64837838789271
3.88973675452878
1.19451048749524
-1.04403223035763
-1.72551478969301
-1.38087640887931
-1.01207038357442
-1.12353090746223
-1.88329396554466
-3.55507746695025
-6.34550839355299
-10.1110976083557
-14.4364957389039
-18.6636158001229
-21.6044362775411
-21.580517799463
-17.3455911147015
-9.49885119022234
-1.22356021012297
2.93863891214608
0.199963341621449
-8.03411345917198
-17.1742330040639
-23.0918257095269
-24.6198408623745
-22.9246761515641
-19.4277078322671
-14.605528502104
-8.16274548997939
0.0850770914083587
9.43670019916682
18.4248023495929
25.8276309000848
31.454581773114
35.8830838303228
39.6119694758717
42.4558485513821
43.552598436272
42.0837779118311
38.2691076565052
33.5396632231941
29.4770284733358
26.6383235207445
24.4716831401185
22.0948406848156
18.949928567536
14.9513095038936
10.365198158361
5.58715372449119
0.836416472462298
-4.03848963598153
-9.32230108299029
-14.7785911983406
-19.29168403985
-21.6543065371935
-22.0378485399958
-22.2630231940787
-24.0573605012001
-27.1931841022675
-29.6970569658639
-29.63396414221
-26.3917022401798
-20.7131469487739
-14.1385939987371
-8.30045719078153
-4.17998700808545
-1.77285886005526
-0.482556684235196
0.240663781411078
0.789443173433432
1.86102190803985
4.60563606818995
9.73601975881125
16.3607682792171
22.2041762539095
25.3491276644992
25.5384444388524
23.689615479458
20.6603692737466
16.7482474683265
11.8846387249343
5.90789551339499
-1.08421868234571
-8.35909777560116
-14.7003178943957
-19.1643335433218
-21.6742938981601
-22.872723915264
-23.5328422202627
-24.157261314821
-25.0642865079316
-26.7701719461974
-29.9793938094974
-34.6394871781338
-38.885057911859
-39.6383765143171
-35.0086359479134
-26.0820077342341
-16.0194429013956
-7.48102233661989
-1.12378810861941
3.79991163211803
8.21391887373724
12.8521003869762
18.3524883186654
24.7407162984077
30.730034204332
34.2439253285623
34.0699293665506
30.8077235995527
26.1433830492735
21.5902464698968
17.9786208661409
15.498271139092
13.6727265739323
11.4492351218017
7.79510103366561
2.53523364869451
-3.2598706477218
-7.78199876489402
-9.60738126149787
-8.50463656997368
-5.31752969041192
-1.33320193601734
2.22066703241192
4.56897801802897
5.73224315039963
6.32287102380782
6.78216815012618
7.11244888931056
7.53326588932587
8.79277416155364
11.240785513004
13.9189299948748
15.1184884540391
13.7348962526584
9.86580041476872
4.41679846191557
-1.522677502831
-7.05097708520488
-11.5068268557104
-14.373564929372
-15.3608963499399
-14.601826430182
-12.4787369906371
-9.15793584700196
-4.61026903357077
0.741260921737861
5.70920461156333
9.06536029424294
10.655653346568
11.5847959950714
12.9943309586891
14.608954398608
14.8269755008212
12.438403216653
7.91271783743874
2.75768437527424
-1.97295938645181
-6.1760805722072
-10.103362644118
-13.8109255169134
-17.1949067696818
-20.314076777307
-23.5388214544534
-27.1912106071612
-30.8155884518419
-32.937008061036
-31.9823164190149
-27.6949116878338
-21.5770482057755
-15.8217886181183
-11.7013328489565
-8.85453712411705
-6.08747798220324
-2.82397507673318
0.414255304071491
2.93306943263387
4.80686675689571
6.67867772044016
9.04048338165829
11.9366198782698
14.9175696329955
17.0051177429682
17.1513579642975
15.1793389106942
12.2430139844178
10.2661393245278
10.792296715673
13.8539816266568
17.5304430965887
19.0018753989097
16.7957805488113
12.2109672102614
8.26565199774758
7.02433746216756
7.84333465088803
8.190924929405
6.23981389455656
2.5983843115446
-0.612817955391912
-2.06111516138099
-2.07667318465784
-1.53493463671463
-0.816168685693517
-0.101544002004545
0.117638248760529
-0.602616260961926
-2.13477495119391
-3.94198078632749
-5.49521855113036
-6.37217620756463
-6.30618469539591
-5.41546241615131
-4.25763180358807
-3.50551649874408
-3.50655710314707
-4.00590864008528
-4.2203507707374
-3.41223277572295
-1.71604280882448
-0.437538281199914
-1.21896659401369
-4.56697004286229
-9.23249723531647
-13.3131015448018
-15.9218132687434
-17.4409580401196
-18.2624683455333
-17.922251143321
-15.688966890482
-11.5540290533916
-6.45426011668407
-1.83373730961699
1.09570988030624
2.25051807085059
2.93399041683312
4.64422837808049
7.36762989797822
9.41974727690253
9.29446967002882
7.54302903198486
6.52640592761765
8.19951633238374
12.2749849699372
16.6793641901362
19.5997356681434
20.7740789895188
20.9777730609484
20.9331773803618
21.0073184103937
21.3873125171132
21.8640526296058
21.528637506385
19.2437587125217
14.7205599912628
9.08599680670142
4.16599687331946
0.895356611290731
-1.62727109424627
-5.16341637451696
-10.2377017330287
-15.3354269999309
-18.4155327411813
-18.9659050593211
-18.350799843693
-18.3106348936353
-19.3184583423872
-20.3999884239716
-20.4877981799038
-19.779531622052
-19.5526678977648
-20.7389796285046
-22.97723895429
-25.0018061476663
-25.6390437148917
-24.4436044962925
-21.6035812079023
-17.2678152494281
-11.099247041181
-2.87404924306001
6.50279862251622
15.1479126614965
21.602292715466
25.7540587282608
28.2493439967625
29.2987100104057
28.1803611033246
23.7530320969554
15.532811484204
4.54404726754085
-6.87256741203177
-16.2605846082696
-22.1664487269411
-24.3647923127361
-23.4909913625744
-20.6000541118989
-16.7136380750231
-12.4421951440161
-7.89570650683757
-2.78470029554771
3.43448343112376
11.1839446640386
20.152426901736
28.9862644268397
35.7506976888249
38.9939356025986
38.7123548586156
36.351920514326
33.5831348457521
30.9332572844443
27.7961919366815
23.7152386792695
19.1946523859716
15.1044811779678
11.7130626922848
8.63155790077219
5.52156315306153
2.48310462150513
-0.409636749731313
-3.72943833087056
-8.37768146093157
-14.4248599887043
-20.5727193278781
-25.1124667725214
-27.3549203238584
-27.9840263635755
-28.1571443322537
-28.3881056101005
-28.1636469632371
-26.5715642318024
-23.4373084693911
-19.7478908559659
-16.625328914477
-13.9933168959397
-10.7810729562708
-6.48722610015317
-2.04465204690783
1.03571236537598
2.11999968399548
1.93485690396083
1.59160646399079
1.11510920520136
-0.664637103804569
-4.28887070584056
-8.23493595576691
-10.3238668129366
-10.4879078123583
-11.0694556579072
-14.0190178105902
-18.4573639612651
-21.3622798735173
-20.3213329207775
-15.4133288536001
-8.62182621366001
-1.66318855612722
5.4753623410179
13.8782993810391
23.884880332046
34.1912261225076
42.6035208703456
47.3801234302591
47.9273790394783
44.6378150433345
38.4388518250357
30.5483069914704
22.3355267565688
14.9090174851943
8.57423676051563
2.8313911967572
-2.92340980153784
-8.75320433431691
-14.2482193067806
-19.021979415545
-22.9640600847164
-26.0155413513753
-27.775542935745
-27.5282650012819
-24.9568057414251
-20.8257252756505
-16.6123165197077
-13.3418462701515
-10.9456310576149
-8.62569491571889
-5.49813500959508
-1.01253292968978
4.76153500559072
11.1565516642805
17.4646875587033
23.4683162156579
29.2038173371973
34.228898601223
37.3656492577346
37.4183401851684
34.3876074333285
29.9478582769398
26.222375929257
23.7171846731172
20.7759859881895
15.4073427547662
7.32187502886724
-2.11765412388157
-11.4062100867663
-19.6867374385962
-26.3260539271025
-30.6075506745931
-32.2529896159266
-31.9088139249347
-30.714604960718
-29.4256161033074
-28.1505158407813
-26.767381110039
-25.1366586925762
-22.8923430137484
-19.6150353706332
-15.5053399597991
-11.4402910748664
-8.09152681017425
-5.40812619743613
-3.12861016431061
-1.19438518762297
0.643560186955469
2.95275622239377
5.69647085191167
7.47649955770422
6.46506944654189
2.396006461174
-2.73528602305536
-6.44647638226188
-8.22721476665414
-9.72576863582538
-12.2921027763041
-14.928853876155
-15.2583366448253
-12.1509244990241
-6.70396095034943
-0.804466635707799
4.56101183465508
9.55721361106559
14.721063953486
20.2542233803455
25.9009471672547
31.3147222851142
36.3744857537908
40.8965184324372
43.997048491493
44.0868830151769
39.8687877823195
31.4064084789415
20.1748402147745
8.2073933999611
-2.67015412441235
-11.0153203148837
-15.8014014949308
-16.8180079465984
-15.0978563420367
-12.518946479373
-10.5114407151209
-9.04788936635222
-7.10390685991487
-4.27594128918818
-1.82238855394904
-1.68437621472971
-4.13684022186398
-6.6916936237013
-6.03543165216478
-1.26534731900078
5.22104502570437
10.1056151416559
11.8294342572418
10.8553888455338
8.2478521935602
4.75793358597511
0.932076367631757
-2.67863175647164
-5.75361244217508
-8.59351105326192
-12.0703922582673
-16.8888927174611
-22.8140985226284
-28.8285016507738
-34.059929529042
-38.3175788344025
-41.6881639613229
-43.7227968619852
-42.9293500532854
-37.1426983443393
-25.1050013081112
-8.35683456070805
8.72008987068956
21.5760149673751
28.5676787274138
31.3482714319189
32.5356903044852
33.4375527534245
33.8120709632195
32.9964521311722
30.6698434314894
26.6935143266193
20.9294048141524
13.7443958753576
6.48919651778698
0.96451659200616
-1.65989559923201
-1.27418698676433
1.43866979736607
5.22523218172025
8.52107844109756
10.194508107484
10.2149647019683
9.41987175683197
8.69920800761169
8.41375528407424
8.17977203172791
6.90675578625238
3.2793388599611
-3.41305318575957
-12.67757049832
-22.819892568194
-31.5018469203943
-36.6646273298778
-37.4171254354728
-34.3638729854458
-29.2198381197651
-24.0272690380017
-20.3576184952171
-18.7225556326667
-18.3008428029569
-17.0882547074913
-12.6793247025715
-3.70765111278886
8.81674703847555
21.5851967408923
30.8261511130088
34.4408499763941
32.709556221218
27.4981485292468
21.135434988973
15.6931459701046
12.6467111042012
12.7966191076169
16.25599014752
22.1575966782152
28.2201787712031
31.081835189029
28.001834409555
18.9288776897958
6.84903009629325
-4.34146938915494
-12.468087569364
-17.6416512835772
-20.8302318392996
-22.7734192448877
-24.2221989577796
-26.0217170100685
-28.168890684798
-29.3578464365606
-28.1919114788991
-24.6225396080621
-19.7745944427532
-14.6576072147553
-9.47077221425669
-3.98021696670651
1.76567320274494
7.05267933344838
10.7364079921132
12.0175232592739
11.0863047773852
8.94413310468793
6.6805573464471
5.06682467537463
4.60609252515293
5.4735837118658
7.20937102543147
8.66709303442916
8.56853144556115
6.40359707161692
2.95725989949018
-0.158360228704661
-1.72400642772899
-1.79693340371981
-1.499223420381
-2.06349289177402
-3.99881304367026
-6.90831494389794
-9.98328205771844
-12.7269972457275
-15.2005149562287
-17.5430001173698
-19.372244483759
-19.7861938530339
-17.9505089047095
-13.7059802276648
-7.72347970688584
-1.10434670228146
5.27646448532168
11.1926684812708
17.0243482169894
23.3308114944299
30.1420555850404
36.3777571379047
40.2388841050458
40.6435678087398
38.2370919068199
34.7138803529293
31.3062303699447
28.1930157905508
25.0140520439659
21.3566667402878
16.8475598979571
11.3905369208673
5.48715397848354
0.0529898389497638
-4.106202112275
-6.58597231108247
-7.5761520579993
-8.17087917394412
-10.1418968362052
-14.7526655315358
-21.6982603285326
-29.5313246467375
-37.1412570997872
-44.4314912636237
-51.4043776707931
-57.1023437714509
-60.0854475711153
-59.7795560342211
-56.6030758313004
-50.7879198072641
-42.102396882259
-31.1180440322047
-19.6514098871127
-9.01998824761067
1.48652366248171
13.3934493722987
26.5531783784754
38.6376463785451
47.0115154425647
50.6156005035702
50.2401159723824
47.5659947165344
43.9388907950656
39.6178685023952
34.0743343197051
27.120556167723
19.5580797220593
12.4918233621896
6.29123285544185
0.662126211492788
-4.47540433928366
-8.85978602844975
-12.7241783404169
-16.99741076864
-22.0586315163797
-26.5412310216458
-27.8587567544443
-23.9802621851796
-14.8359654136599
-2.56908329924427
9.36988079879467
17.9399199368362
21.8864033814345
21.6837468088508
18.6664406489279
14.6311952488924
11.5556817300527
10.4877121052498
10.5651092724121
9.80815118773799
7.0420749781204
2.78133962337533
-1.56925693420813
-4.97715372854168
-7.34027902018096
-9.10815927720213
-10.4961095367271
-11.2399403274232
-11.2239592756891
-11.0511871746593
-11.655980875446
-13.4389170866839
-15.914703737385
-18.0206781560628
-18.7056631384934
-17.5981229060206
-15.4260707014571
-13.6298710197007
-13.2304467069722
-13.9009022738201
-14.0281198000718
-11.6597390650642
-5.7735576060089
2.77220788599802
11.3566147544948
17.0814600098736
18.7456085058509
17.7161543378849
16.79893199619
17.8967691746035
20.544999050059
22.7494906885922
23.0873416307068
21.6914728475281
19.4828691080242
17.2707191386253
15.841923600873
16.2195142538713
19.1281680034553
24.1167007666863
29.3155333884589
32.1035899722228
30.3113250018058
23.3633195176191
12.7073753322495
1.13797836255884
-8.73301890381074
-15.9192572095281
-21.3008562122902
-26.431485181165
-32.0916432600838
-37.945287735758
-43.240671841306
-47.5262451032153
-50.8789186232774
-53.7122518189903
-56.1337381787045
-57.1830200522411
-54.9850285548723
-48.2321708389499
-37.7252467295885
-26.2649492251365
-16.6902620597785
-9.61714760299832
-2.94156050821002
6.03286456375907
17.5246097926553
28.4675005566557
35.0857449453898
36.1576543456421
33.6743196281821
30.8067457107182
29.613609889151
30.2560124116423
31.652900586012
32.6238068167191
32.6202018397986
31.713023878265
30.2129350146049
28.459453637902
26.8745172563259
26.0421192239447
26.5187340355701
28.1699147664199
29.4558561454662
27.8019438338367
21.3839077691066
10.7328013882784
-1.59314535289704
-12.8255787230377
-21.3937880022142
-27.0226433824563
-30.1109860268312
-31.1569219683629
-30.4533789452401
-28.0371890241029
-23.9263235224303
-18.5728750585832
-13.1105045436305
-8.93783421648621
-6.91149476966963
-7.09127382664961
-9.29351215259598
-13.4110568000359
-18.7992155406839
-23.7799183955771
-26.469132868555
-26.1380563351284
-23.4585018598222
-19.5451781319554
-14.9247807080551
-9.08612598726175
-0.848425271784136
10.3501118898446
23.2459534974019
35.1967416263228
43.976473628104
48.7971455241163
49.7146159524676
46.8309167291628
40.4624551259919
31.6908891570595
22.2533592172352
13.6350690944987
6.11990518611119
-1.21074081446103
-9.31147050514654
-17.9493588203666
-25.7208772826646
-31.1856114039686
-33.8580637433686
-34.2321201560477
-33.0933784134985
-30.9265215893316
-27.9605779284119
-24.5529052689845
-21.1424305486879
-17.7508379949576
-13.9314370158733
-9.45397909975897
-4.72146635393915
-0.290626338609435
3.60016691321569
6.67899726559913
8.24386763078845
7.69527089853603
5.43935137539053
2.95051705123835
1.81063308661724
2.60880294168474
4.66245204404831
6.77178879838781
8.24532352110958
9.25372460160905
10.4159445925213
12.1691122155745
14.3691337477587
16.467947464981
18.310689930743
20.553773933165
23.6309559250804
26.3323894829633
26.3417160453453
22.6092173117093
16.5448495491909
10.4165227253673
5.07458089143383
-0.277366083845631
-6.48250585419686
-13.3089030088236
-19.9543818771434
-25.9731696504526
-31.0786601127935
-34.2623515779482
-33.9658212873568
-29.5551426107807
-22.2562581340402
-14.2286614027632
-6.82918570105787
0.0401504195539586
7.17064071512365
15.0861336154942
23.8054714631719
33.0234906824863
41.9396192092814
48.7191840753767
50.647354251202
45.7981615247496
35.0291517766652
21.8554520623333
9.84277157293745
0.311598295135205
-7.295922134357
-13.6144483195096
-18.8413460025121
-23.7870877993494
-30.3175930194258
-39.8943869403794
-51.5374008940854
-61.479727554316
-65.2214191668712
-60.542806578661
-49.2367231392599
-36.1332943666858
-25.8309475579853
-19.6322876472023
-15.5885881719809
-11.5440706596696
-7.34743158168067
-3.49126523714467
1.25730532167386
8.97763686350062
19.1814139095502
27.8508016329095
31.002337362982
28.9074159673418
26.1373411032809
27.3595293948058
33.2360712711693
40.3112794377621
44.567817185849
44.8173362090599
42.687108725718
39.9515393274802
36.7226954156083
32.2764907019062
26.7093544171045
21.0275969164573
15.773995127863
10.1360947740645
2.76888249901455
-6.47024718797744
-15.9081637498207
-23.5043235170553
-28.718154776717
-32.4230598190242
-35.0497226628255
-35.6299790316292
-33.2574086717795
-29.1433103347256
-26.3385838246525
-26.8878208592621
-29.5466269392451
-30.9307818093889
-28.924379771218
-24.3504218659276
-19.2058611219558
-14.1325731913799
-8.32814531702422
-1.51833587848021
4.97278369468862
9.62239871151513
12.9151910887575
17.4201921613488
25.0799472028897
34.6133942367921
42.2944181954632
45.4148010959823
44.4209031752646
41.6070354262609
38.5545018448019
35.2639389826684
31.0560988967315
25.5895561124478
19.2176262602045
12.7760648330654
6.94067974354928
1.72159222681728
-3.19037524805212
-7.68368556623038
-11.3645609172359
-14.6510630023861
-19.2938035730765
-27.0990925765799
-37.6908418432832
-47.823338608913
-53.7779717773466
-54.8388622480823
-53.8589937878029
-54.0794626462977
-56.0459774455359
-57.9173925258067
-57.6468861698918
-53.8928170716931
-45.6548237267842
-32.5037182943726
-15.3980340557916
3.33643729383119
21.0104013357361
35.5277573278172
45.8641547455608
52.2736774335874
56.0739794310261
58.7398506167752
60.8217649353447
61.6964119691924
60.372211431765
56.4631356450137
50.4630475888624
43.361040905481
36.0828369934026
29.0065406648724
21.7798024818194
13.7869552154733
4.96947334085424
-4.02010684601568
-12.5264203932428
-20.2776647833684
-26.8620693357
-31.4054586216619
-33.239761045342
-32.5721618267988
-30.1963710015059
-26.8990832815174
-23.3903930361914
-20.3484364735877
-18.0630164664324
-16.2093156121214
-14.3071946645482
-12.3003589250217
-10.3890142662894
-8.35781025899792
-5.51550666518677
-1.61032082567186
2.40245353608052
4.91920933299542
5.08866132845835
3.56674301320061
2.11749810214689
2.61532266180582
5.81283897150468
10.3641570703209
13.3873039229557
12.865550161516
9.60597774795597
6.35225030818675
4.96759492746535
4.87530077382288
4.19478295865189
1.95970098888483
-0.904214027604405
-2.55440782071481
-2.00231830983002
0.153042691092911
2.72099270494745
5.30630234064126
8.37137993915146
12.1764895226677
16.1449198473467
19.1886686033451
20.2752651580784
18.7962518374046
14.8309247921947
9.17904461861155
3.00378204710121
-2.65355682190455
-7.19866617428163
-10.6158376034443
-13.3418840310285
-15.8855405222845
-18.5203587884931
-21.2733620956729
-24.0042479250706
-26.3958285043909
-27.881003095824
-27.500123121661
-24.0206666059413
-16.9659496768363
-8.01582400137575
-0.761041241355367
1.90084544933726
0.288315708197763
-2.4809859134113
-3.44366212896785
-2.17622550060696
-0.469677781604237
-0.132031269306779
-1.39774640375734
-3.35348920905591
-5.37306427272757
-7.50729416934086
-9.42740851449878
-9.7388343685757
-7.0190264765916
-1.31659890886371
5.96335464480271
13.5433869995573
20.9257349611238
27.3863573334737
31.1883982154615
30.8532916176963
27.2528132910516
23.5000888103331
22.2090514626609
23.3479247527199
25.1020371112704
25.9702059991967
25.2419570120199
22.2587378703066
16.5760404615776
8.84782803008068
0.618356794762858
-6.99901985266161
-14.0180310958795
-20.9321325111646
-27.738429651432
-33.7105528769281
-37.8836271136567
-39.4700407581508
-37.8114358942443
-32.4153238016898
-23.5946143671473
-13.0279395628296
-3.17033620621268
4.22530917197648
9.1128766938323
12.93692565055
17.5668882248217
24.0337096710417
31.6522253087691
38.1420525509266
40.8617379007985
38.3455295947569
31.0907385988496
21.1377955702962
10.7039045027251
0.853583005409445
-8.52946268548724
-17.4670674268576
-25.094741789224
-30.5716440963703
-34.2942040979838
-37.3698309646987
-39.9073305673174
-40.6074039748648
-38.3510707084307
-33.5570305377212
-27.3854602858945
-20.0964643855713
-11.2171111135516
-1.37265544407316
7.13610123637703
12.1963952843591
13.7142275944108
13.1025306847406
11.60572184331
9.78177708534357
8.09470051157335
7.14189998177775
7.2547480543853
8.19987034670464
9.30058416097472
9.98007937376984
10.4979555737544
11.9552833257035
15.0049793025023
18.5644954627877
20.3404403975409
18.8078286009684
14.4881462039955
9.3678513251861
5.26774255244015
2.58496303815551
0.342775207906059
-2.47725270106523
-5.64374945187118
-7.91049019993747
-8.39593320056796
-7.2841309132384
-5.24092752058641
-2.7821026952929
-0.490356314455965
0.619613396100093
-0.40065576971475
-3.33697941013683
-6.4720452126179
-7.7406845484694
-6.31368145715291
-2.90728476106968
1.23912347403377
5.19020629873979
8.2564603641673
9.94132491097885
10.3643312328831
10.3232379373786
10.5729471956314
11.2165500714824
11.9433089062971
12.6166673039179
13.3514520715331
13.9809164638018
13.6317562275076
11.1163246883174
5.90832083209567
-1.33141677538041
-9.22698909551505
-16.6068021974863
-23.0456768569135
-28.7001272808493
-33.5721410293703
-36.7795627715179
-36.7035611818463
-32.2008379254904
-23.7915245833073
-13.6711252331934
-4.71523935233828
0.68147903988539
1.60890951418207
-0.757368400761158
-3.61082866999057
-4.03638804708466
-0.557085474470197
6.10128022609634
13.165823482965
17.1637930666891
16.237612859487
11.5853305711213
6.33909102448958
3.03564038108147
2.37478828867302
3.85945142193538
6.6758597667284
9.93852545614584
12.9024919278016
15.2563233708839
16.8301280584803
16.9767975237439
14.8059254096376
10.3761346505965
5.35582043529491
2.04581554020996
1.61336939104686
3.2925930063604
5.11549702677521
5.22389287833029
2.74988131110353
-1.91303219013356
-7.3140307036476
-11.7095251191871
-14.2768956346432
-15.9681148502731
-19.0108844525649
-25.0568214619661
-33.4037246139032
-41.0628665789244
-44.8974539744852
-43.7986741974982
-38.6561352316983
-30.6218950823801
-20.3249883271805
-8.83221672548634
1.92030100786599
10.669017027359
18.3281545672484
27.0027993929437
37.3089455230956
47.0255719568957
52.658360142815
52.4341856152447
47.7868356631081
41.9281844977448
37.1222093082307
33.4192808108208
29.634597483481
25.0619060199673
20.3567901700959
17.1309235550218
16.5072315896612
17.6656220722262
17.969944495168
14.9642921730637
8.30065697077519
-0.319226059953937
-8.74078662786039
-15.6479041298589
-20.7099858348535
-24.165047310144
-26.547306944668
-28.6406513106844
-31.3581943643827
-35.3185281698333
-40.3034461585279
-45.1655019001315
-48.454299003251
-49.2111881930093
-47.1595879872124
-42.3038293040181
-34.7770813288757
-25.4710355101508
-16.5548567583881
-10.3536053844588
-7.03413114161367
-4.01987507041137
1.37940181966987
9.02024693082659
16.3585380028792
21.500585576517
24.9161737405796
28.1629868493882
31.6749079376832
34.0599653898872
33.3662148154118
29.0517168301604
22.7897343444474
17.2129451610607
13.8155548836031
12.0575941706067
10.2084775261372
6.85931001095099
1.93996156119744
-3.34956768269934
-7.55817995699016
-9.91923954579848
-10.3013451248922
-8.73752101060759
-5.61290627957508
-2.13707724369828
0.134605003182895
0.534841566784549
-0.267396297586725
-1.11290959296735
-1.34552192310652
-1.01629664603976
-0.569881436085144
-0.523198271068957
-1.22599011643618
-2.76191407983854
-5.07204407992951
-8.05591358412016
-11.3633791086703
-14.1377106515646
-15.277325870209
-14.1867542524823
-11.2154786438876
-7.27957241940528
-3.22674226788996
0.347796707536227
3.09027462327448
5.14913135851503
7.26276335057859
10.2090944207648
14.2714014328117
19.3213003079836
24.8787990706857
29.753502856878
32.2798389040568
31.5888597688869
28.4133306640232
24.3214021234725
20.5327486419243
17.6300915497674
15.6291297293089
13.6518103356523
9.99594848555224
3.4314137320116
-5.34478168141179
-13.8947168615366
-19.9025186070763
-22.8498024346438
-23.938785926634
-24.5753008466403
-25.0376881282204
-24.5724423906491
-22.6156888493538
-19.7235230000556
-17.2513759483925
-16.1995916405267
-16.3750374518573
-16.6031524774032
-15.7538188908964
-13.5962193818288
-10.7200006783942
-7.85445446960721
-5.46365961099657
-3.79171040131604
-2.89920384316008
-2.60430578918529
-2.60319427521093
-2.69627076331571
-2.80522146323789
-2.75251646288155
-2.07555030589327
-0.250700126625464
2.59631110327475
5.31224633789575
6.63804991098744
6.64063579893493
6.60436102434595
7.26559952108318
7.8114283086972
7.08254798212623
5.3768572925465
4.49277756422903
5.74614866530949
8.00133860865618
8.0921484436748
3.71105960959949
-4.13439669812479
-11.8402629655984
-16.1825873427128
-16.2719515427054
-13.1310297762123
-8.38389243778505
-3.44600765187461
0.931607805091162
4.92037168885599
9.21527304814225
14.1847077323856
19.5448637681037
24.8260714327896
29.8381026762484
34.4658668378028
38.0577580964614
39.2987991030318
37.0972585369242
31.7394696236357
24.8979676163604
18.343804098856
12.8280267751435
8.10848826474161
3.51205251798187
-1.63948677226973
-7.54900508483425
-13.5351324149438
-18.4313179430228
-21.6626643823946
-23.8125620543227
-26.0555683074229
-29.0278188760841
-32.0657662415605
-33.4684419615836
-31.7486674504854
-26.8163614736345
-19.9241317764777
-12.5791808373457
-5.69182103654816
0.428749627084496
5.70713349551071
10.0143300011472
12.961226818128
13.8966967599417
12.2735403561328
8.03739128889579
1.65420408678327
-5.96596054297146
-13.3550659649056
-18.5638550269909
-19.8728609680379
-16.857495009614
-10.9836163429612
-5.01158135175526
-1.31421829581067
-0.356153076430159
-0.646780215408635
-0.0816076455555547
2.48277518064792
6.3371335686504
9.23517965118151
9.07727887371017
5.83162995072985
1.70189049670931
-0.759359178495386
-0.514376127282717
1.80045746836923
4.85815261252407
7.5193854401614
9.27325840499745
10.2933213295806
10.9981197160908
11.2951970694846
10.0777293462275
5.55830838021744
-3.30845511309828
-15.093922157929
-25.7476251657827
-31.0402852498253
-29.7389259335649
-24.3209286586534
-18.4341474401403
-13.7520464746554
-9.2852795451314
-3.34277070104368
4.42479678776047
13.1551181951919
22.3431489692065
32.0939411529745
41.3424044540924
46.9574093701337
46.0798851050503
39.3386234742613
30.7900069870025
24.5026203684272
21.6634424039058
20.7510358651505
19.6057375382782
17.0557385966087
13.2128717001738
8.95750659519138
5.31617756086561
2.96220403890241
1.83444937613303
1.09643466485013
-0.393984304089832
-3.53823534275376
-8.86038856154767
-16.4743406403397
-25.7608150711871
-35.2743562573253
-43.4349208742814
-49.4296682513089
-53.4411442454882
-56.1787995652867
-58.1735659703842
-59.2039739446365
-58.2766669831887
-54.2988103550541
-46.7780876601066
-35.9027513448779
-22.3732031556169
-7.50534010638565
6.94037997332192
19.7458762829243
30.9737365481247
41.092046008277
49.3530781576773
53.7879284774435
53.3009965283724
49.4422291742531
45.4435208017982
43.249738056187
41.7966102867434
38.4189016860456
31.5841593384176
21.9648712451474
11.4580161516873
1.99797707327171
-4.89638968318942
-8.44985916179391
-9.08208753225432
-8.35569086677244
-8.16660315013914
-9.70717588421777
-12.8450534804458
-16.2574775527094
-18.2560815223136
-17.8316637131764
-15.3504416975272
-12.4575265368028
-10.9802140815864
-11.4275086263458
-12.4814380645583
-12.0915451260989
-9.07602906876984
-3.91976814161572
1.45422834944536
4.77027102033067
5.03067914016798
3.41559713709922
2.20435814817801
2.6628930496928
4.18993341419025
5.24833760431586
4.59187943906058
1.92799795967349
-1.66717522130752
-3.92169749651539
-2.82669666233695
1.65230713140627
7.59943583866152
12.9123578982343
16.7561448649135
19.3826792878871
21.0088675831113
21.2006334830169
19.3719963433683
15.6327307425401
10.7417078500631
5.18736553577181
-1.15898427419368
-8.17783068896889
-14.7922178903539
-19.6991404963431
-22.6940586424365
-24.8765996609342
-27.4773409020437
-30.5543185260867
-32.7867298033181
-32.5084617094924
-29.0145300051649
-23.0299225769086
-16.2124498182909
-10.354960447852
-6.69491076265084
-5.38534743578954
-5.41700883645469
-5.27983148155269
-3.97323889331738
-1.51779633434441
1.4111932358802
4.25786563622331
7.0326155147698
10.1788788012632
14.1570066703245
19.1080962140258
24.6829956991554
30.0157498382366
34.0214747092823
36.0755240442428
36.4252833330726
35.6300947274685
33.6462281710712
29.945596675321
24.6153830968349
18.8078953618064
13.7977368289399
9.82103202890612
5.96836842669501
1.06240327565989
-5.31915456081103
-12.466667546471
-19.1729307758777
-24.7979543052463
-29.5638479532372
-33.8001329685555
-37.2053996105792
-38.9781369474236
-38.4581330501555
-35.5148849181242
-30.4191104241211
-23.4872920279951
-15.008236549228
-5.56305707387679
3.83841987083923
12.2091690440643
19.0749280985983
24.322225765837
27.689271567962
28.6719060833311
27.0029625888297
23.1982266461506
18.6116522468905
14.7638400359414
12.3351752947646
10.8114190093121
9.25548096007559
7.2873914072111
5.150363521716
3.0912495420705
0.973216661882516
-1.63355175995882
-5.07304469392706
-9.09873086148261
-12.7839993049669
-15.2842497228065
-16.6710471578543
-17.7040759690841
-18.8798507550076
-20.0597721745012
-20.9887342043147
-21.8396564605867
-23.0427617518639
-24.4819904182644
-24.9161193000214
-22.6192281448179
-16.9744259640418
-9.22252921207101
-1.33503368285174
5.53464960975898
11.1403949521949
15.2408477603853
17.541222006705
18.6861701243615
20.5584334824104
24.7910619941855
30.8450443117797
35.9977973876859
37.5383283336719
34.8103431360803
29.1285501674596
22.4055427484055
16.2901901357428
11.8037231721375
8.73247562293014
5.60538924604197
1.10653635855175
-4.63394995452403
-10.6152465489697
-16.1441165371274
-20.6027076548252
-22.8047413920501
-22.0098270209972
-19.6330869330557
-18.9042192769836
-22.2566288947222
-29.0918426358666
-36.0331488760977
-39.26242908529
-36.9718183201205
-30.2172370535954
-21.8004124823281
-14.1850617996404
-8.03888660701526
-2.45948405564495
3.47815165605915
9.52605831550403
14.7366883355602
18.8367126346854
22.5756691951399
26.7056190044066
31.1065186269099
34.8947855286029
36.8670665335965
35.9524384302963
32.0089364386004
26.4036771458756
21.2886257294634
18.0041607835879
16.2689553377771
14.7162875917787
11.8711354000741
6.87706341893139
-0.0477951645332567
-7.63396038218163
-14.2759742184389
-18.9168277169906
-21.3747672835669
-22.0935256523476
-21.798027625562
-21.3513713889746
-21.6196479512386
-22.9111441139008
-24.2513740377264
-23.7322048160367
-20.2964531809473
-15.0576686626218
-10.3422977426251
-7.57572094275936
-6.44011716273459
-5.65478255811557
-4.00750546629148
-0.939843477631899
3.30370485476104
8.1651241893547
13.5417087032985
19.6705258524562
26.010105434123
30.6977387200181
31.6650756178996
28.3963687729458
22.5080385807842
16.5793658707444
12.3328137801485
9.74881930723576
7.67765500662012
5.07463575150524
1.6939356261817
-2.00042521652369
-5.27672025553918
-7.66035738324472
-9.31506475028709
-10.830064532989
-12.4986654247856
-14.0293733467007
-15.0967349454165
-15.7942105257349
-16.2628368783628
-16.2798280707581
-15.7915763110483
-15.8523532410642
-18.4485578088712
-24.6840487658492
-32.8430438292944
-38.6744851559815
-38.3276725320534
-31.3296152561289
-20.6455755682865
-10.0116836821451
-1.42745973225597
5.19659958366967
10.8701069989342
16.4501966604663
22.3288990330564
28.5435252656571
34.8663540186591
40.7410047357757
45.1437730192191
46.6124757202593
43.8302122538839
36.7528714579506
27.254824068401
18.1271069327962
11.0450392177001
5.71576407364815
1.12418488185249
-2.85854195156491
-5.43059919385326
-6.01445260100156
-4.97997628368848
-3.3470332058916
-2.11786498450324
-1.88549980301743
-2.83000378710869
-4.84732115234699
-7.47232587276143
-9.77199171839162
-10.8945788709473
-11.0667042114141
-11.5307434284609
-12.9488969851405
-14.2239680713255
-13.4676166335183
-9.96755298832297
-4.77867193125214
0.536859612140334
5.38237605053806
10.1274024919626
14.6629599522275
17.4006437526924
16.3784919596318
11.4035610993689
4.46249350187642
-2.18215907368005
-7.80642756885554
-13.0847739486003
-18.7371571862639
-24.4957413002741
-29.0288804875867
-30.8461503152639
-29.6098813758374
-26.5388448152668
-23.2474221145686
-20.195865336863
-16.4439673594276
-10.9092717568361
-3.77988337576882
3.32941519133272
8.62504331959491
11.510010740481
12.7017911568028
13.2367872182576
13.7832049430881
14.9096750411751
17.3503993785877
21.3506611933542
25.7074867103197
27.8687446447789
25.5036174159932
18.389263464033
8.81289840054382
-0.0985366754633824
-6.56765413202905
-10.8373571309613
-14.1635321614664
-17.5679514074807
-21.2581338422554
-24.5333531616973
-25.9812127949359
-24.0527944311567
-17.8687064899352
-7.8745056364052
4.03400404200072
15.1972866449338
23.3928841721224
27.6036191724371
27.9597171313902
25.5055496258729
22.0327354435293
19.3400790056264
18.1689337266245
18.1558039305023
18.8238775714069
19.9728805806331
20.9797523357004
20.5058389963634
17.4459091152414
11.9520250555148
5.30339670108529
-1.0571692916845
-6.30402767850307
-10.3786319067292
-13.6795461146785
-16.6650080308431
-19.6398676987017
-22.6668065368833
-25.4622399204389
-27.4672787308129
-28.1898671632792
-27.4064091601143
-25.094870688329
-21.6089266850636
-17.9908351853692
-15.4876311836775
-14.4030055074204
-13.844353414791
-12.8598370052022
-11.3942979355551
-9.84313346732733
-8.03286333207786
-5.01192968796759
0.155209978751167
7.36322341912678
15.1219089672903
21.3733066887125
24.8859535006508
25.9261549686187
25.7458090091089
25.6471173526614
26.2635936693014
27.1261633353366
26.827048485386
24.0686197086086
18.8116713574584
12.2557948118997
5.63230386046049
-0.76520384758643
-7.19456214560767
-13.3392595882567
-18.0256723013861
-20.2335758682987
-20.0931785142144
-18.6825109669542
-17.2008593160008
-16.6579561549609
-17.8337666573791
-20.6963586292153
-23.9102803879587
-25.6348615278153
-24.9651149464034
-22.2107753729026
-17.8910098258239
-12.0988960016398
-5.06264504478891
2.13548422680189
7.98591113102079
11.9849620089292
15.4911285194611
20.6549848152722
28.1300516738784
35.8856152074998
40.3940083112564
39.0367751224245
31.7656940522593
21.1145933515246
10.7286834988996
3.23462499986976
-1.1239530107939
-4.01075671587243
-7.20527481550373
-11.1259202505162
-14.75581730406
-16.7511422198168
-16.5536621647718
-14.3806396313552
-10.331594530008
-4.12078004675214
3.97781670249246
12.4312110013869
19.2876244179593
23.5543555421246
25.4074463241168
25.4321535282482
24.2685001793097
22.7621576874019
21.6099810850642
20.5104447439119
18.076109582033
13.058045271085
5.69987895875581
-2.36688408749602
-9.68878025355571
-16.2618999083773
-23.1311972008809
-31.0819948596436
-40.0944073567662
-49.7382126366577
-59.386600942856
-67.9293199756699
-73.7664359536577
-75.4089416571433
-72.1311722126301
-64.2121770074735
-52.7664319107265
-39.2716328669257
-24.9461651305782
-10.224607676288
5.40460244385481
22.8763934074856
42.2834596311234
61.7434979611221
77.6925047605136
86.687074059724
87.3123862903277
80.850034127567
70.4351245232697
59.2416888631436
48.8022755058419
38.7741527903666
28.3599108465295
17.820742186417
8.4756025568853
1.51649950968162
-2.85879163320871
-5.38065565772844
-7.13652596561956
-8.92909909842919
-10.9296363106267
-12.9992236807207
-15.3513325882166
-18.6130039884855
-23.0184164031002
-27.6334879672616
-30.6494791497016
-30.730735532124
-28.1572409964945
-24.4972126642013
-21.2105109476442
-18.8687771743049
-17.5451184592727
-17.1370842469645
-16.897120102279
-15.1684722280792
-10.2285579657482
-1.65300032666297
8.90190513536966
18.1288917208846
22.7905161319803
21.8073374044369
16.9732806149221
11.6209848442773
8.49038793045568
8.29474219662739
9.48419901998294
9.3234069662031
5.96297031873514
-0.0359737828233261
-6.28019228850762
-10.638395973415
-12.6802589213734
-13.3506953610531
-13.6973399399782
-13.9670837832903
-13.6987370445196
-12.5493770777479
-10.8525759595776
-9.16001936581588
-7.4749840417879
-5.41038318009286
-2.92991945394357
-0.33362827363485
2.38950832686237
5.52667652682162
8.93886152123191
12.0339744999407
14.6027973609712
17.1270376232285
19.9002788398389
22.1748198355983
22.6724555979355
20.9399004994496
17.759763876189
14.0116825227855
9.53152182716449
3.56834681384087
-3.76576257364602
-10.9082789687038
-15.7418623179394
-17.0530525483561
-15.4266418649281
-12.8400253312944
-11.0550803930785
-10.278943369258
-9.53338989228038
-8.00168519156479
-5.51893704879638
-2.13181123580183
1.95353268704962
5.9901554871128
8.97238935733028
10.4085022483164
10.2980901097622
8.37400105846589
4.05599077676745
-2.54259029211233
-9.88553279089149
-15.5456531988748
-17.5700190933979
-15.6477966915317
-11.2569328819661
-6.60516632199054
-3.1283757521121
-0.674384249739345
2.2022233876493
7.21117218871889
15.1622924003689
25.2816069992423
35.456824815381
43.2536389227955
47.0106127777059
46.3876205024799
42.1552736241722
35.4758835070414
27.263310889258
18.0041159701627
7.86719369166479
-3.1170933535022
-14.7322270771817
-26.3055733664164
-36.9963046630959
-46.4060239401941
-54.5450342626592
-61.0000208925022
-64.4160926696064
-63.156706371356
-56.6524342268825
-46.21947415324
-34.5407286991983
-24.0748012572538
-15.724549656371
-9.04099948485595
-3.54241191409936
0.69772398397724
3.84324042293904
6.81724917967496
10.2817648794225
13.4376008327866
14.6022227458359
13.1558454785818
10.6861840539983
10.0462487248801
13.0852784737599
19.0659317638812
25.248258695597
29.0725963664557
29.8716796638066
28.7913978031605
27.4490204009536
26.6955935443385
26.3758630760339
25.9743604163422
25.2439353605068
24.1823323940552
22.7743802524034
21.0223022160893
18.8767681595432
15.8388871179097
11.0853646513641
4.48142159012082
-2.73141661185689
-8.5354356574903
-11.3771944909888
-11.1225866034459
-9.40740373334927
-8.92646778411283
-11.5489431657648
-16.7486014477988
-22.1017696633375
-25.3412867400461
-25.7980619781596
-24.2629279798858
-22.1247194602692
-20.6410404989427
-20.4131658059711
-21.1431394843601
-21.8880249119191
-21.5997710882214
-19.5188811947475
-15.2828842043661
-8.85171796991343
-0.491643885258631
8.94712440867296
17.7754755063715
23.9620880832045
26.3539967487432
25.5664868298581
23.7007935062644
23.0684575589356
24.7631759495125
28.0603796392339
31.1040899172625
32.1272778965796
29.9892422389265
24.0587513505321
14.4797971702082
2.82213623020817
-8.15103322137011
-16.0609878541485
-20.5705742007943
-23.5415204573696
-27.3520090139507
-32.6307105536315
-37.478797334551
-39.2077827266994
-37.1217627011336
-33.5219685677637
-31.7064292344643
-32.7526506104268
-34.2367071140566
-32.3062001020086
-25.1679038587705
-14.4800418531027
-3.42072000526689
6.00951186392198
13.4042755344404
18.5819064845212
21.2736638660587
22.3427988051196
23.9793836876126
27.6843373881065
32.3702533791574
35.1635799707728
34.3286920585696
31.2539823314966
29.2190174373115
29.965233031362
31.7153533478144
30.9067793578709
25.6246303862247
16.96547798073
7.47778668168227
-0.971554983063006
-7.86043599395634
-13.2824392853935
-17.0567342515035
-18.7517062398483
-18.5505689331316
-17.6236403027283
-17.2410074224072
-17.7972300048511
-18.9719565170823
-20.3004214239293
-21.0804338345323
-20.2276795206246
-16.9784650103822
-11.7122607955134
-5.76932932876115
-0.654136321223701
2.3611854654071
2.44255198801673
-0.0397264625250403
-2.89056808394621
-3.2214447574315
0.0138123045677612
4.87388155082736
8.35604813132811
9.21928693472771
8.36968292230764
6.91598885526263
4.94341129113392
2.33814494634693
-0.0669928546865824
-0.643609696234987
1.84951513662142
6.99977871568423
12.3976026900765
15.0769202097377
13.841721645824
9.9041073597167
5.10767083152305
0.252668600766879
-4.5304056702121
-8.69476331311097
-11.3323841413632
-11.9275420464863
-10.6817678636456
-8.50739955830483
-6.86262441596937
-6.90656221020822
-8.30081317559023
-9.17597796121402
-7.77758873764889
-4.14043357267499
0.133859580973613
3.75912547326467
7.06294600890654
11.157210452734
16.1289460430716
20.6226608250455
23.2627963368195
23.9571935315873
23.5183457231027
22.4298220055332
20.5069233252571
17.7081100291448
14.8256187740814
12.9939795351178
12.3330544759069
11.25981156268
7.72206813131322
1.38584944797353
-5.88987739562651
-12.1352288134989
-17.361915244113
-23.1148909438312
-30.343543312618
-38.3044797719516
-45.4239594992849
-50.6814574027812
-53.9006172560289
-54.9101073769925
-52.9651105090452
-47.4954089760862
-39.3112165019759
-30.4110410363295
-22.2489297030749
-14.4450957064662
-5.39702519504512
5.98624735485767
19.1317833029159
32.0000148610694
42.1667749396158
47.8925572636104
48.6931891734985
45.4748567755416
40.2453504266995
35.2277181979602
31.7321389396372
29.6746156342637
28.0361982251704
25.6396831205924
21.7583425317474
16.6103265002421
11.487810211922
7.96462608470902
6.5598229835007
6.19112488515786
5.05717132300426
2.13535280066658
-2.03997827574373
-6.09500561605248
-9.47560093253264
-13.1446519962741
-18.1216581943584
-23.5240282891975
-26.8212605348849
-26.1902008882026
-22.160549754586
-16.9054505126064
-12.3238555536205
-8.81846795015651
-5.52619121401248
-1.48547339742985
3.41845738629142
8.45623573351577
12.5631380789693
14.6831008509042
14.1639356633961
11.4244659710245
8.122019860531
6.23158026053186
6.75281850459101
9.07478970060047
11.3161757496762
11.4573811344384
8.57562249114625
3.11870942302156
-3.88810031162945
-11.5021795594379
-18.8146836696017
-25.0340138698572
-30.0023214089967
-34.1583770879226
-37.7234139824868
-40.2228527706539
-40.6838375001745
-37.7941926381381
-30.2452048757888
-17.9567924981462
-3.10791274950609
10.7777712677119
21.114628265144
27.6109169077051
31.6712151329573
34.7052971969283
36.7780009991901
36.7464972802649
33.8185061666697
28.759131864291
23.2031268532262
18.0136356680028
12.8288916130596
7.14013177765422
1.34152292632724
-3.38498000558823
-5.96365483328984
-6.02888560867418
-3.76165226951883
0.341668516470757
4.95067911381874
7.47638240348298
5.43558008316851
-1.00989669151209
-8.40859086326829
-12.6162841518253
-12.055150589525
-8.46507450241571
-5.09460667473232
-4.46520773695058
-7.10897830655193
-11.4665802989857
-14.9533428832691
-15.8063199924907
-14.3829512435411
-12.7112347918436
-12.7014848627584
-14.7237992770701
-17.7133231714025
-20.2491293231462
-21.2613106334603
-20.0264536051948
-16.1970744628515
-10.1631017599534
-3.16655419143436
3.22505193538462
8.07598514737149
11.9599168437027
