0.89934061044167
0.967896649411743
1.06625662826756
1.18985193959681
1.25958113566745
1.22496852379228
1.07434817262661
0.788315541030358
0.38474486532921
-0.0618983552809935
-0.51116051845328
-0.967188903817829
-1.37632941258441
-1.65692722824176
-1.83679333204276
-2.01457774912563
-2.2155260618806
-2.41036944910865
-2.58982552492831
-2.71953325127075
-2.74649309487425
-2.71216340132635
-2.72373309950457
-2.80812900622797
-2.91624730677075
-3.00277139861467
-2.99045112491092
-2.77847320539967
-2.37743104117024
-1.89171463283598
-1.33726055872346
-0.657529131241465
0.0980782807060293
0.814013535953693
1.46855848162307
2.05946593570821
2.4654004580888
2.55406368057739
2.33429359349079
1.92028718741314
1.47010128980624
1.15140686357884
0.999859220750426
0.857164205198756
0.60709798380918
0.380901480098701
0.379973618524357
0.610674055490653
0.922649005820029
1.17280498764981
1.24511955284808
1.07034764521416
0.731166918096268
0.414424752081159
0.219343855674789
0.133064672376399
0.143239655497104
0.229187027523923
0.321586735391692
0.379633852621514
0.409503403735838
0.383807620993088
0.288748679183317
0.218374945476911
0.264496316240915
0.386670101766897
0.510386050887951
0.619240482320831
0.670597706635682
0.606339466150456
0.492287122405945
0.447067342410164
0.445886913968769
0.395542889941843
0.324658235162767
0.306314880552787
0.321479083828402
0.356296422377333
0.461496033618654
0.601624058941903
0.633207160463241
0.495703427554076
0.26170901774518
0.0114879558417429
-0.194564782144288
-0.285833017230823
-0.25832877286872
-0.202415640612943
-0.170939554815937
-0.133313365256345
-0.105863641195231
-0.173892345931562
-0.352689910273405
-0.579350419546587
-0.821517083644936
-1.04236503278109
-1.14737953417431
-1.12119946052407
-1.08812238341794
-1.12296644461971
-1.16833872562789
-1.18667740191242
-1.19162247424297
-1.14190459680041
-1.01958129848781
-0.950078151825569
-1.04366468598028
-1.2153932533236
-1.31554741432826
-1.30829562654591
-1.2233219670823
-1.0792091832393
-0.902608924375469
-0.704093836134179
-0.474643457588444
-0.29026638153087
-0.27179187077027
-0.357298759199367
-0.315270564846119
-0.049339228297323
0.310015649766309
0.618636020447192
0.823265109111394
0.908423686840192
0.930436295455085
1.02302776093704
1.22123086202632
1.39966369220784
1.49410278855508
1.61469763738215
1.83617643591151
2.05700173971509
2.1459229782766
2.05706847206791
1.78702623607913
1.39735342243087
1.03567111402637
0.76821455852853
0.483583040120505
0.0852314579042165
-0.356966763880857
-0.718277861954827
-0.929930331843654
-0.970898352136125
-0.895768602118005
-0.823826351292953
-0.795056251236011
-0.746105174143576
-0.678230789859826
-0.666911214162793
-0.687912505950044
-0.654360641306812
-0.612407422825036
-0.673101365362095
-0.79307149217541
-0.820241668246872
-0.68631336962978
-0.427987596020361
-0.135684940356856
0.0665805967130118
0.152103313788493
0.294067964316032
0.65321063963633
1.10884179889783
1.37662486838266
1.32580766888589
1.04024385468649
0.66739971771597
0.333523913926447
0.10414585829008
-0.0671186878998521
-0.25711107100187
-0.424664863283944
-0.477392963477561
-0.444742652043061
-0.409282681480323
-0.336562205436923
-0.144996987132509
0.152344694630446
0.496935406901039
0.833185067754998
1.04128031689634
0.999670671845434
0.744915489766332
0.414495372158991
0.0733591603936953
-0.264701700919072
-0.54653140835242
-0.737041123564409
-0.860241415537053
-0.927472508841594
-0.943809394135425
-0.95591078269195
-0.955526143457954
-0.835470699880507
-0.57594708042396
-0.312599500386851
-0.111846931072457
0.101891446239553
0.315351890840729
0.371549778356666
0.207992639971706
-0.0600398110822996
-0.295163023660521
-0.403525803522694
-0.312902388648657
-0.0568576456408884
0.192539252410485
0.300300987328169
0.285407842114929
0.201841607606357
0.0581268892729913
-0.0917741612788865
-0.152746229981125
-0.123592672450607
-0.0827633022601069
-0.0612317231142486
-0.0423708423656178
0.0048096043002783
0.168492598034598
0.518337226554158
0.946421392505371
1.24841853449618
1.34333903086862
1.26126091955787
1.01978581905371
0.673796986603609
0.34634191737109
0.0823993443851682
-0.169449522157462
-0.383549425305552
-0.477982442128513
-0.509677509397778
-0.613763679971989
-0.777159262752057
-0.882438637492679
-0.903297749961395
-0.8863711674758
-0.847980144451062
-0.805674391565111
-0.788208392771164
-0.761747995236016
-0.668881214717707
-0.532741241731003
-0.412699224838001
-0.310029309487574
-0.205169144861521
-0.104095189794652
0.0100648789306581
0.156570458439878
0.266093361170914
0.272073378763578
0.295399649210871
0.532813614763982
0.95385889872559
1.29800654345823
1.35135525383467
1.0837906770323
0.600542243704802
0.0791192143399033
-0.346943790888098
-0.692403540112021
-1.00738345874146
-1.22276783110542
-1.25514630327642
-1.15635161546047
-1.01438415240182
-0.841823007251622
-0.654294220990207
-0.475305823183049
-0.218143758007435
0.211857725652473
0.68190457941719
0.927637659600252
0.873853188746059
0.675332588345386
0.502143786612235
0.42263274794557
0.396748918773704
0.3045995965556
0.0969759181564571
-0.0862309538130762
-0.0858240705737258
0.0539334542407485
0.183257360420546
0.265573568148725
0.33843095765956
0.366154694789803
0.29966009938107
0.20773480532934
0.222787215007043
0.409739499163475
0.731625416581709
1.06556767340157
1.27692451059181
1.37673378823312
1.52165678839768
1.77126341647888
2.00227821715208
2.12925616677769
2.19387756531034
2.19398285517773
2.06719727249249
1.86129734713126
1.70301322093586
1.62642951885407
1.59253463489275
1.57137772417562
1.47482935818949
1.16160936100003
0.613862241090866
-0.0260283321448946
-0.607151687719757
-1.02703745727275
-1.23677308577236
-1.35954127421255
-1.66238194795238
-2.24795268771827
-2.9281225841173
-3.50360831755068
-3.98593434067605
-4.48406661028751
-5.04865062771028
-5.65234150551253
-6.18705564149199
-6.49688306102841
-6.500373918227
-6.2181369011081
-5.64147629571776
-4.7100130645002
-3.47452336769567
-2.14013407925641
-0.910669565725712
0.0910862231602808
0.804613004567868
1.29504582405836
1.73713539217827
2.17798152943237
2.45405404041499
2.46439655400303
2.34435195260603
2.2868449156199
2.37928552800157
2.63178606755122
2.9753400356925
3.26341853083681
3.43046882518673
3.56900331443432
3.75012170883714
3.89848855439007
3.90273825136229
3.7110207716029
3.32929428937509
2.86727540720618
2.50910239967115
2.30684374868872
2.123356380594
1.86200292802209
1.58204404215796
1.3471335283122
1.15348604738057
1.01393323313278
0.939526686799985
0.868546671240072
0.74073276603505
0.569174737923806
0.35926885098128
0.0767311418577303
-0.243231128434061
-0.499741928725493
-0.685305160294635
-0.888747280993688
-1.1257714346642
-1.3338864038393
-1.51675191662954
-1.72321317384069
-1.93255623079027
-2.09642825260073
-2.19817548794871
-2.1928053660045
-2.04860519645698
-1.88431942262651
-1.86943892144484
-1.98527625711278
-2.06510157836426
-2.01756461096993
-1.85380699080914
-1.60002544900385
-1.31819936147111
-1.08960674118035
-0.896126665127409
-0.653770107321489
-0.380628472215705
-0.181715853537053
-0.0915673745887922
-0.0553817463803643
0.003546375032221
0.168461923858581
0.454038342957802
0.716262175364174
0.790033532902984
0.706555530350416
0.627714819984775
0.623627244038083
0.653495853529655
0.678853135949432
0.669501902868552
0.586842796557113
0.455063953054927
0.358850603472129
0.322216136907724
0.288998160210234
0.216597976803985
0.0731601252478585
-0.184636799753308
-0.487455838527136
-0.629951730636041
-0.523870187476393
-0.332457961492246
-0.241768974755303
-0.259824927977595
-0.29336919644277
-0.251280585600343
-0.0785629213852637
0.156329628011578
0.273236316006837
0.196742785855874
0.0341615548868351
-0.137807873492757
-0.374031625629875
-0.681752955948708
-0.940147596284864
-1.05229804942367
-1.02497638345863
-0.909847954066025
-0.783872611335181
-0.712254474265579
-0.647035504917501
-0.477669300344087
-0.210856243145342
0.0457503987776974
0.256196382106373
0.456424096464661
0.64510082350787
0.82669920675916
1.08463127373677
1.47959588927506
1.94777580806693
2.37656580370961
2.68486390149422
2.80021541135668
2.70774194390289
2.55092337860525
2.5257232066183
2.66224971859868
2.83342253659222
2.91340578399873
2.8106621050206
2.47539574821187
1.99776385906243
1.57184841597109
1.29530792317544
1.11615883570411
0.944875081585662
0.688991172289662
0.270376101478666
-0.264268554153309
-0.768658471452941
-1.20183712561902
-1.64310661698743
-2.09046027228102
-2.46132205465302
-2.78273119494704
-3.15703575642852
-3.57577494889278
-3.96057455651034
-4.30943786200172
-4.64448431160532
-4.91154439822357
-5.02746865669426
-4.92777935785338
-4.55700733998799
-3.92795530956966
-3.15627134018115
-2.34635607179186
-1.52973788983914
-0.780202539334562
-0.246614757396604
0.0089942018853496
0.0732700743500747
0.0413979922596178
-0.0304829693267827
-0.0292745565592205
0.164507758834831
0.521752671178962
0.920659361736116
1.31437689005304
1.71342167982291
2.09927059762774
2.45105874823733
2.73388059446202
2.83601461437993
2.68199422995998
2.38795979743392
2.13936441785519
1.97707811715848
1.8438901763626
1.73472743975612
1.68208016962246
1.69943082926607
1.78890975690865
1.89788298012991
1.91102750365334
1.81022769075614
1.72747825560247
1.71916838998508
1.6688484766905
1.51822250045131
1.36926838140769
1.27511839731071
1.15670678537503
0.966682758420243
0.736712176904766
0.481083196369226
0.22377176751682
0.0539913957255255
0.009105760285549
-0.0063508248027321
-0.0753749549560837
-0.159055630729646
-0.207550169981907
-0.236560909288661
-0.249256695650441
-0.246904144850843
-0.327638721063598
-0.60116492623579
-1.01744856393397
-1.41511413729716
-1.68735684439343
-1.82523886552278
-1.89681555371673
-2.00597955005254
-2.16073945464208
-2.22883917511077
-2.12806013215115
-1.9400067258189
-1.7442237124614
-1.52196298843025
-1.3054421718365
-1.21514096695733
-1.29050481000125
-1.47178845890773
-1.73482645983491
-2.05047805996929
-2.27426220902427
-2.25177247733767
-1.94779917103885
-1.38156633266654
-0.599390514709535
0.231366703734069
0.893278287443774
1.317196880857
1.56300288752326
1.65518377631917
1.59375500933549
1.45309712166891
1.32323695168765
1.20943812612052
1.0703008320231
0.874239380894515
0.588351816866196
0.233204033318856
-0.0486596427635719
-0.123531641007752
-0.0423479927740051
0.0424848412564004
0.0493510201310745
-0.0556450584576315
-0.300172173164342
-0.613309163943951
-0.850276163488322
-0.963377271314106
-0.993730398103972
-0.924779761015559
-0.717045090092588
-0.415696545889835
-0.0744464440617428
0.324977960267659
0.784571245377595
1.25757842120351
1.73800877956513
2.22679982581573
2.63485858288275
2.87468910185805
2.95763399598051
2.86462078113696
2.49091186806165
1.86614089130026
1.25059398589196
0.899731555710815
0.880814860054547
1.13212752556317
1.51987184060637
1.84821406919123
1.97773014129464
1.92571581278631
1.77661137014296
1.57932998454502
1.38623117101233
1.25383195966394
1.13405939624725
0.890885136204427
0.460696074073256
-0.110737910147524
-0.741392502890389
-1.29772054187753
-1.61912501666627
-1.69361395685942
-1.68616390520461
-1.72955969393271
-1.85221713880747
-2.09423123587596
-2.47372148210693
-2.88933605185314
-3.25887887559816
-3.64564418232815
-4.08153212121571
-4.44025077404041
-4.62608339761785
-4.6808475658823
-4.60588620150406
-4.30461296128762
-3.76548755846475
-3.0952907524389
-2.35379867929652
-1.52510300318363
-0.634629655861028
0.206259885083718
0.825596713416615
1.0677175570528
0.965821292464452
0.794256656006744
0.812774202182915
1.01984958323667
1.25318790779726
1.4160144074085
1.51149992891668
1.58791528138636
1.7397781441079
2.04446099448511
2.4402248687022
2.77508040349121
2.97738695701764
3.06379457538811
3.04191839867102
2.9350258396289
2.79578619854624
2.59095206201948
2.2389654496474
1.83197062013393
1.59676704135216
1.57880393706454
1.58584216932604
1.46243265078532
1.22668183786943
0.965925340756385
0.755577445834536
0.625759783240853
0.5184556884321
0.358176648493606
0.169270494319331
0.0084353333022936
-0.151016800301025
-0.330158383398629
-0.462421476139962
-0.535893161512378
-0.655971751475439
-0.852450232287798
-0.999340037529551
-0.998837815924491
-0.888060449925164
-0.760511540151489
-0.717828874650036
-0.835359063561851
-1.05308290477973
-1.19637080927413
-1.19566425135494
-1.16837347803256
-1.23241734011
-1.3875098034579
-1.6039059249984
-1.84577795956352
-1.99669993093692
-1.95810172794864
-1.81719117522463
-1.74565214858163
-1.77521222262355
-1.79815009653484
-1.69321143547216
-1.38097854168399
-0.895482347811781
-0.415972815324842
-0.0773747415599255
0.189650806443409
0.476639034232536
0.691685658516063
0.709349699193888
0.582677989506304
0.465762652230194
0.463261396242885
0.625124546835302
0.933660338368962
1.26937032014798
1.52229116558998
1.70310874076671
1.85069675368814
1.93962359727663
1.95435250521815
1.91374237715499
1.78274747339681
1.5001330639609
1.08603986000737
0.611604111346046
0.126669219216528
-0.306004682491131
-0.617896224770406
-0.826936285088316
-0.990435932565555
-1.05849177018074
-0.941689753792592
-0.712449621112168
-0.547348132287039
-0.490877248273365
-0.45589154950848
-0.387784373926865
-0.255940630413397
-0.0111225128974675
0.281291189680164
0.422896170723694
0.32597730266007
0.116165260077406
-0.0524731092090768
-0.10755428956095
-0.0123747621096835
0.198061361638693
0.385067375845431
0.45113573451524
0.435572269464996
0.403965199030137
0.376899741181556
0.374865036557371
0.371225097867609
0.247724989711305
-0.0325020452068032
-0.303396600356476
-0.403617089121091
-0.370522973885946
-0.308733662232478
-0.237603152846961
-0.158434899383347
-0.105901673825948
-0.0852765602027477
-0.0866591238429175
-0.139320040982122
-0.243354579449805
-0.316376725532128
-0.307251980435346
-0.283479509526931
-0.334444866079273
-0.477279750272215
-0.694619179727146
-0.954662304571834
-1.18268117997774
-1.32214257008889
-1.38416087485779
-1.33768575380758
-1.06671682631717
-0.540181430717953
0.126947866800912
0.837501243883214
1.53689385639964
2.06249312674784
2.20589258632471
1.9450452817578
1.45375814808583
0.936751762751888
0.558739390234653
0.385865807092527
0.290478908471875
0.0727853971738698
-0.262054184257953
-0.507070321886275
-0.533433281752286
-0.403627127632002
-0.238463539549733
-0.110508529901838
-0.0280527354882171
0.0391623994072582
0.0655333488165949
-0.0483085031883469
-0.291846324119888
-0.462784142787237
-0.417139459765612
-0.267018999580994
-0.194960351189864
-0.226907196487894
-0.314010217019804
-0.476400812995066
-0.73083757292829
-0.991892011930215
-1.13505761440607
-1.0732426318219
-0.768467123675969
-0.282900624740586
0.222537020261682
0.653829738834873
1.06321998500594
1.48230585610749
1.81896328008353
1.98095980383877
1.95000223947674
1.73017424014495
1.37579719350934
1.01480279091278
0.708314543126473
0.390391907232958
0.0384878724946107
-0.257372036155528
-0.453778142034124
-0.590369453930484
-0.645270771471304
-0.549606322936552
-0.326130086093539
-0.0475776426091038
0.254119183473988
0.502108895277306
0.559073270705439
0.417213869838006
0.224316868455298
0.0530778257774938
-0.164167683821767
-0.449525269751339
-0.71348322769374
-0.882762995791307
-0.973664583140528
-1.0650389196638
-1.25149819617937
-1.54001832443622
-1.765087626699
-1.72264571022605
-1.40589364373666
-0.998199965151656
-0.671978323698779
-0.530249253858626
-0.659439417877065
-1.06855221128648
-1.64484580515822
-2.2592919915814
-2.79112599968788
-3.03890696148016
-2.82350871846745
-2.19401569346087
-1.35275073340377
-0.44077765080155
0.445674094026512
1.17798828770943
1.71031063197449
2.13122162605429
2.49905903966003
2.78009241513315
2.96359205691317
3.05012689337832
2.96613695488352
2.679326096663
2.31847956024765
2.02722848316124
1.81964744551526
1.67357385947438
1.60517106009608
1.59915371436092
1.61877071838097
1.68092632933724
1.79825763249234
1.90958025566557
1.96031724573482
1.95131929113902
1.85368981607914
1.61164487258039
1.26649634059807
0.929421093726794
0.615672230211752
0.252156043266379
-0.177349198767076
-0.64332980339322
-1.14716171613497
-1.63977164484112
-1.99412955665116
-2.19214082148272
-2.37957904114976
-2.64748868420928
-2.93625511568577
-3.18199549986664
-3.37014468372355
-3.45927588323711
-3.40508654817644
-3.20628449704238
-2.85262095695449
-2.35314072771364
-1.83689501549096
-1.44906944790332
-1.1594035486841
-0.847461132490987
-0.50404699503125
-0.182880705607583
0.115835418442817
0.369094211965949
0.507975400501673
0.568997083790002
0.679893715544807
0.860628438581126
1.02932021617157
1.17085583518419
1.31636004378012
1.43856791274492
1.52277028385094
1.62333636899675
1.727209265624
1.69994021006998
1.45998804787645
1.06820982259331
0.60961948582047
0.159927374735093
-0.125482062348249
-0.0934004507112042
0.218687413111287
0.617427820693087
0.933070506190298
1.07147112415061
1.0068153667256
0.81197966841118
0.594218880118952
0.391674345955807
0.226978081195013
0.168481178677159
0.212645235087011
0.231593755065349
0.138897767156212
-0.0378299787743123
-0.285888375561544
-0.618377935057791
-0.951836707863822
-1.16573124371596
-1.25539621464349
-1.27573125621325
-1.22930303367411
-1.12777127258685
-1.016868799705
-0.865245816973997
-0.60505694775691
-0.305893325016823
-0.122216971746708
-0.0903251321306656
-0.143033650233643
-0.250307715668005
-0.383736960757144
-0.423332405920411
-0.239749645445711
0.178891682967036
0.733720255755377
1.26612662548602
1.59865495185912
1.64621321985329
1.48158750053256
1.20084508217486
0.817251867100346
0.394671922052179
0.121242273379703
0.109000814999128
0.267215211847985
0.451288694676696
0.585700684433708
0.644585361615845
0.668061483445571
0.7287728616581
0.759089305062988
0.566650420587519
0.133395887840684
-0.298208072365326
-0.525282687967719
-0.571695995285311
-0.54888191124979
-0.546982581508839
-0.658277156516552
-0.90177560191108
-1.1419087025932
-1.219898625094
-1.10810172852669
-0.880223098568833
-0.6524466046475
-0.562900016839427
-0.65549980547596
-0.795806102722931
-0.820406191114617
-0.707192724823973
-0.519635715561165
-0.311523903244148
-0.16597161204815
-0.175273960735382
-0.298880530488237
-0.381451103436815
-0.359419287857175
-0.303126103541771
-0.248219695665384
-0.151191935179294
-0.0005514077691518
0.164810753437233
0.298722728345087
0.338390004343457
0.27405624086289
0.246284237303742
0.392294487612078
0.611988640935737
0.684330115847914
0.566091581283166
0.40115098993241
0.325520392698498
0.401781218205093
0.625303400722821
0.895321286862676
1.08716311592591
1.16856446474357
1.14956882177425
1.01355971343366
0.815852198756425
0.68857766138482
0.633390488072094
0.50878610541351
0.294019526215002
0.124843246106268
0.0282176843840137
-0.133089450636922
-0.436481680100393
-0.814953647447217
-1.16100115483429
-1.37406614641689
-1.39014867488379
-1.26640562137237
-1.12715282363307
-0.981532064090821
-0.750299485722766
-0.483536084679796
-0.350192349461909
-0.403633663893613
-0.547652163433083
-0.700647074583619
-0.82096062608675
-0.852130119093452
-0.787381155245245
-0.684718252715836
-0.550064817086523
-0.339216446446203
-0.0659075105184267
0.243026416791269
0.627145341086102
1.0862738479251
1.51445170074039
1.84325474304534
2.09567852191459
2.24592166302713
2.21271889458502
2.00844998896747
1.72231211711231
1.39878142799706
1.07495676433417
0.815950897965658
0.586115721204698
0.253691512700414
-0.179558235831086
-0.524411402426866
-0.604302157690892
-0.350273238501842
0.222360899978796
0.931964383844564
1.42269902735284
1.43254460029518
1.01574818994664
0.421627850310592
-0.132206649115353
-0.52284338561863
-0.712184204512986
-0.734758771599856
-0.615888504959359
-0.354119937973772
-0.0705923905880364
-0.0096458952237819
-0.247401527486446
-0.598820614070063
-0.946210749456516
-1.42367458901423
-2.16727051238681
-3.1169890961247
-4.11329441127353
-4.96232592104715
-5.41829407235479
-5.31878458931476
-4.72858711988195
-3.85111454124184
-2.88272395402733
-1.97011683620196
-1.14017657163118
-0.265469508288589
0.741031685156652
1.7440000830977
2.53115008887034
3.03002289573994
3.28163829964438
3.36654468455937
3.42327972270035
3.54821760864615
3.64925498781773
3.56161583415787
3.25303571891883
2.77303044065714
2.1427546180508
1.45363687609823
0.908938686928835
0.604135958560222
0.399940049819104
0.123712544954896
-0.231341673008292
-0.55835560824213
-0.737337827718095
-0.6665540862723
-0.348904698138379
0.0558161592426896
0.368308785518808
0.511282877411955
0.444843028358896
0.138236751298676
-0.337008342870465
-0.822667142432737
-1.17812255208826
-1.27833425216518
-1.03965645194619
-0.573786753384485
-0.153154940730076
0.0887099880562833
0.262854635037475
0.492727354013533
0.766840556217624
1.02154795054392
1.18248669676075
1.16298227705022
0.974885972706037
0.751900278780165
0.561288826571425
0.337966397542432
0.0495035049640536
-0.272292884599217
-0.666546937299499
-1.19172952565221
-1.76455848113176
-2.23700687900772
-2.56590311192374
-2.76421525256107
-2.80526215284335
-2.70084062742832
-2.53807335600862
-2.34339868897727
-2.05538379159169
-1.68769172329508
-1.35355554724096
-1.09972246252404
-0.880534982696805
-0.693366381899806
-0.597156835115648
-0.624431226377977
-0.741889114803187
-0.807689204978174
-0.567490405176767
0.148078893112016
1.22450532751923
2.3728040117121
3.35737446309266
4.04326720292958
4.39517372797235
4.52803750826139
4.59944961548797
4.61547721196051
4.49271408534866
4.25893300037854
4.02311844127751
3.84681997452593
3.78280384616922
3.8695122758821
3.9687209198487
3.82278404258379
3.36743909810264
2.78687421608363
2.23997447648537
1.72796243989678
1.18845659517402
0.541785109673591
-0.278853606786561
-1.21365433208854
-2.09346059842296
-2.83474129223042
-3.48192915080264
-4.0461480891043
-4.49466382540446
-4.91132749996743
-5.46255875437882
-6.18988345204859
-6.98527984715671
-7.69612582732853
-8.1074813328294
-7.97749497932861
-7.27690087603552
-6.27689648423703
-5.30946226459315
-4.57001588664144
-4.13518889374522
-3.97019448711816
-3.91689453686617
-3.80520538018469
-3.54748379197658
-3.11539507177055
-2.56519170118813
-2.05290373496904
-1.62683299275746
-1.07443116852525
-0.188498653879812
0.933339251584578
2.06888382290324
3.18638242646728
4.36999492998689
5.6005460527527
6.77608395246823
7.79928547687368
8.5655394976956
9.00710510443773
9.14778329275495
8.9935299263386
8.45776540404715
7.52834239340444
6.39523043838874
5.28878257767118
4.30059027459981
3.44391751499211
2.75210965520786
2.24185117448491
1.90527870009939
1.77212115219817
1.85429394473702
2.03509737660051
2.12221146361447
1.97566244164484
1.54628910001873
0.899032691155905
0.204598743724717
-0.418936650001936
-1.00245247260668
-1.55480227507021
-1.95454859883844
-2.15379965896751
-2.30364918528998
-2.55402511120952
-2.92068658371023
-3.40885229356315
-4.04118212119341
-4.72787416121595
-5.31831102848288
-5.78053548468427
-6.17339106762968
-6.51265549359083
-6.79159101529904
-7.02627410732233
-7.19437657664448
-7.22536025115831
-7.04853560281343
-6.56369389329138
-5.66928322475227
-4.43162712817858
-3.08749538111933
-1.77833641168553
-0.431262231192369
1.02254209349397
2.46730848509632
3.70481632138608
4.61160963777191
5.17735807570617
5.51142485196337
5.79209983783579
6.08403923642591
6.24406610566533
6.09277069408214
5.60805125503392
4.94119607245532
4.38465024683421
4.27391945533799
4.70397415731537
5.37820010735892
5.90171451540506
6.11730666166809
6.03282591495038
5.63685864814164
4.96040300910288
4.12946024043983
3.21477583355772
2.17088587042863
0.964027319245844
-0.380418535373754
-1.82271167498822
-3.26633611787264
-4.54574895920988
-5.53851733487116
-6.18547020106942
-6.43576262456829
-6.3846602845253
-6.38933750423899
-6.75744423238201
-7.35293299039436
-7.74028910214984
-7.66143552896266
-7.19913758250248
-6.5711208728625
-5.92668185343911
-5.27871968909253
-4.54259339917913
-3.69866643600253
-2.91186144150394
-2.38436899302477
-2.14103923316681
-2.07495728327979
-2.07052655391609
-1.92873098845205
-1.35814219794974
-0.241447037064927
1.21344601077256
2.68278713399721
3.94689362958176
4.90021236155253
5.52415286968425
5.85587264921537
5.90352815997944
5.68229173406257
5.35192990101654
5.1233211720362
4.99973263655274
4.79872211845918
4.40448409026183
3.82853749912609
3.1410272669165
2.53411239303993
2.27934149764511
2.4070575127588
2.57185781969406
2.37597897575426
1.6970187116407
0.686335639078011
-0.351101492016093
-1.07054638622051
-1.27710094216141
-1.04996948058502
-0.640805163565427
-0.30700038763809
-0.223954595905944
-0.391282456498881
-0.587012237930655
-0.556209052686695
-0.265657872656655
0.131115068328601
0.50678197107064
0.787789270186644
0.883796392313508
0.775811408786904
0.586079013382493
0.447321421005782
0.415948794881184
0.531900867513233
0.782627896084053
1.01659391782685
1.0621421184232
0.890334980609429
0.569945866074972
0.19775734726752
-0.0735245142994951
-0.134390069640773
-0.0782164426094747
-0.0850019241956709
-0.196974481802126
-0.378889260677297
-0.66218355259433
-1.05596047830439
-1.49663578874262
-2.01599681036156
-2.73016500155094
-3.56846085138759
-4.24276011577543
-4.52174037816429
-4.34389837608795
-3.71993449217737
-2.7180582135536
-1.46691459429051
-0.0473381249001902
1.49103888177623
2.92828490541908
3.86487148621896
4.0003569882039
3.29826973782274
1.8860426253305
-0.0303144478098419
-2.16216161446866
-4.19803518915479
-5.84173865715173
-6.77184611696692
-6.78857588108548
-6.10713992757386
-5.28986041906132
-4.79977150778628
-4.76846649977948
-5.11777673803568
-5.63961487279379
-6.00065356789874
-5.90531827377045
-5.26636959447831
-4.1707485724763
-2.78845851682489
-1.29685108256885
0.283799562006083
2.12517207801544
4.26796163480254
6.35629364067134
7.884262143651
8.62905961258985
8.77011471668518
8.74778457051585
9.02206182178186
9.72996567599596
10.5201122530074
10.8542579035876
10.4359163893608
9.29059138255128
7.61462063075681
5.67563097021331
3.71503012736077
1.84657580549416
0.128384337623192
-1.29777573287258
-2.28209347435587
-2.82968126223747
-3.04468644371647
-3.00390901863917
-2.82584908591495
-2.72341049355622
-2.83698237450517
-3.14526462208325
-3.60371417887429
-4.18196018418333
-4.74548304083667
-5.10151885105142
-5.13636294574371
-4.76463920421857
-3.9043101476499
-2.67999973804489
-1.44451231574707
-0.404058961477451
0.605078367442741
1.83751884808333
3.28952885641895
4.68109698725423
5.66496589351469
6.08668198121117
6.11785555280329
5.99901561783482
5.59971219770908
4.47552639945784
2.46485187693794
0.0177347033653163
-2.15191133693713
-3.60498536233942
-4.38601549700872
-4.84646855317912
-5.27815486922357
-5.68782266054194
-5.94065096283999
-6.01331589945022
-5.9582767332337
-5.73253816506588
-5.28267714299573
-4.71817543725167
-4.16792928369082
-3.53382646166801
-2.60336192920941
-1.33877059451507
0.0968792982789394
1.47925151151523
2.58302039166615
3.26338341018624
3.54797661891052
3.52761320879282
3.2206183729927
2.70342799549748
2.22915497073172
2.0066988907857
1.97355766305843
1.90814866236183
1.61943445226282
0.990589424453784
0.0608042255435415
-0.897061231053584
-1.58804179872261
-2.00565422987022
-2.39642295845795
-2.96423840933754
-3.6972786983092
-4.38748573323889
-4.77181622543847
-4.74705636639825
-4.41484726080881
-3.85473038376353
-3.02107337816809
-1.96337197768022
-0.908180040920835
0.0308518975145427
1.00498558165228
2.14687133838012
3.32647214228449
4.3154685736303
5.05227075295438
5.69241070519557
6.54183279382326
7.9213505704728
9.89098897028932
12.0644308850922
13.7688320292835
14.355060568112
13.4280385716581
11.0632250817987
7.88513826973126
4.72067821624224
2.07437943408718
-0.0342522493385154
-1.8645172884822
-3.69742124512355
-5.60662038537644
-7.36296339477803
-8.68941822827136
-9.61160812244306
-10.3842621636957
-11.1116974694041
-11.6105341491281
-11.5770104285722
-10.7738710180755
-9.18185732363791
-7.05250179859221
-4.69741117344204
-2.27429656811481
0.0557542568296329
1.94528626681982
3.14887932019352
3.88107992932331
4.60119432780697
5.49253051540454
6.30120173229832
6.57375563859687
5.94925989439039
4.38308132385408
2.23722080909593
0.0779923208800636
-1.70681718322991
-3.10092164923774
-4.3456768306685
-5.67504891861833
-7.01397690568596
-7.86825761767037
-7.696654022275
-6.45729673243571
-4.62249692127318
-2.6976571607821
-0.937069419536756
0.588646298652714
1.93094838373298
3.20327179269902
4.40034664316595
5.37188109123066
6.03407416103553
6.42551090675946
6.54785225522871
6.36188835141047
5.88484239034191
5.07490300406657
3.75190759948292
1.8825285110879
-0.184544430270475
-1.97368196237515
-3.25823433747168
-4.09202444653534
-4.63311442237755
-4.98946980555278
-5.10557207580669
-4.81539610799944
-4.09107292917713
-3.14425710939822
-2.21787662235071
-1.39932382660452
-0.654279008454817
0.106067975536868
0.96732068899256
1.85407172083882
2.50513559394386
2.80124744720754
2.99468976584537
3.37948837755742
3.86934458559339
4.13127196165125
3.9959233049506
3.56499092499958
3.08489583810863
2.83040449532633
2.93210407061228
3.24980664165162
3.53647811783059
3.67121784638907
3.6152936002656
3.28784531628831
2.63717421258728
1.72146338109461
0.660533800238201
-0.35771828654402
-1.06249127840598
-1.29889219368028
-1.20984055945955
-1.05022509135723
-0.881998808471222
-0.572375514419344
-0.0067652878707456
0.753198359117665
1.42916593513089
1.65939829048291
1.25857205996743
0.275066769549027
-1.21416741978694
-3.12819806053575
-5.12409758931021
-6.5956291691441
-7.11203075062872
-6.71303857537337
-5.7038923320481
-4.36305908682696
-2.93424201611522
-1.69952043697577
-0.914884657564509
-0.709240132338699
-1.02249656090563
-1.60366330375933
-2.18097197988571
-2.68377779337523
-3.19977882693333
-3.78405166238354
-4.4862893114078
-5.43860652863837
-6.6695084441882
-7.90942740543298
-8.74039223184492
-8.83506042224098
-8.0128050419493
-6.302808915715
-4.04355533541898
-1.72583642665507
0.338748918008129
2.14255624997344
3.89658378959883
5.89663554438175
8.26615884641122
10.7344809749758
12.869030519814
14.540121448134
15.905958079942
16.9502805964114
17.290565503933
16.4674760685253
14.3155348506206
11.1403381284423
7.6299415550464
4.49239790418558
2.09747202330308
0.462981224164805
-0.563625170416839
-1.274811893322
-2.09369047357105
-3.32622376138243
-4.96095843038085
-6.84062842995984
-8.86530613018841
-10.8773972600982
-12.5522238944641
-13.5694672683931
-13.7685721232898
-13.1308645675938
-11.8003251394803
-10.0893668329878
-8.30086496904431
-6.6146626357781
-5.19060392446101
-4.13426463475965
-3.25359879715898
-2.08275120835226
-0.242983870708777
2.33824768922339
5.44746907963468
8.59351255975589
11.131490878642
12.6360067659728
13.1086827762415
12.7775005781933
11.8921091718678
10.7200900084037
9.45693736601329
8.08482070135443
6.51253618027455
4.82430071158628
3.22556768080018
1.81376397390393
0.539381922494631
-0.669569435260486
-1.81573121519968
-2.79244962042863
-3.42524295410464
-3.65585021315589
-3.67585267285257
-3.7770484264103
-4.10845766040605
-4.65494261872249
-5.3401923644133
-6.05342376788921
-6.69548760457044
-7.2581342943766
-7.74443342332783
-8.04250622430097
-8.01069745105207
-7.5861987038166
-6.68724911834825
-5.19490111266377
-3.18758745891536
-1.03971345927743
0.782043022786366
1.87627785436714
1.96471140043416
1.10894458485266
-0.143223303685035
-1.06870016314917
-1.21783621275825
-0.51057219064133
0.848278266205411
2.39779190215684
3.64116903672231
4.43278704556758
4.9971897346222
5.51618641684959
5.85526106241719
5.6939380868546
4.81243616714745
3.29883186607455
1.52926430262144
-0.13756995717902
-1.63474375865638
-3.03953917519345
-4.23112546034123
-4.90160178941714
-4.87231839965897
-4.22219492556761
-3.16692874358188
-1.95979877937265
-0.784576703550298
0.399523855454637
1.76444554261664
3.29657003137204
4.77538728051144
6.08437725559124
7.30822012319936
8.54370327340177
9.832418436998
11.191924789169
12.4820915705385
13.3127609356387
13.2561195254788
12.1228368960894
10.0292212110307
7.32244261302013
4.41549148770648
1.56015916444446
-1.18622415799825
-3.74701349730517
-5.96588792531225
-7.81240000875827
-9.42981978012215
-10.9329046777006
-12.3431652763888
-13.6852704802267
-14.9421033836669
-15.9616135061578
-16.557229914167
-16.6293761462413
-16.1113728163313
-14.921372492174
-13.0583361577924
-10.6841435332304
-8.0893454191302
-5.5844445963156
-3.29808397904568
-0.998168440600853
1.70324556726184
4.79662647208189
7.66510463914419
9.56354803777254
10.1934358015884
9.81042884574848
9.01587409176289
8.44321780874349
8.33704837066497
8.34492550778098
7.87115602564848
6.62631080703553
4.78702842841077
2.8181405135511
1.27223996995565
0.56040825440246
0.711391538731539
1.36407487284819
2.00144985064517
2.18256045404445
1.71221523497746
0.747100267765938
-0.326072547853704
-1.18526532708773
-1.70667663362923
-1.89043125312015
-1.76986380192659
-1.26194110469641
-0.0194812420197711
2.30122831019267
5.44536718429658
8.45474710009171
10.3117380707576
10.5479750496015
9.26373279204044
6.9018563688671
4.10932448470501
1.51603130036935
-0.565314696699432
-2.16173863408922
-3.38908477103004
-4.3177599333007
-5.0072958919764
-5.46791671332464
-5.59153084585685
-5.22151429058099
-4.29147222935957
-2.94500312157726
-1.59993816285032
-0.769853480073665
-0.66743809149991
-1.08236275937126
-1.733521095367
-2.56854019197657
-3.63563238920596
-4.84908898900451
-5.96488881883741
-6.68105350675509
-6.79553616971186
-6.37525747463467
-5.68894375608993
-4.92326568618387
-4.11703290882432
-3.34912554950917
-2.72884059736364
-2.21324306028714
-1.68074963785978
-1.12067887468996
-0.529585474311185
0.255249562624638
1.40960083417445
2.92061708266386
4.63623241089328
6.34454296173528
7.72980523744272
8.45331561471636
8.3891573305399
7.67907843287232
6.55746423820377
5.23999403269344
3.9237259420493
2.763065283108
1.90913636403605
1.59680017100932
1.96047586117105
2.66805630667913
2.97556351140416
2.28499668417229
0.565520860023363
-1.72979669620901
-4.03600223832094
-6.03419318661973
-7.71834656044567
-9.06025305706285
-9.74191086093711
-9.46336952306257
-8.39666519372835
-7.04810239990155
-5.79533755990401
-4.83126301928796
-4.36889005867074
-4.53272987458103
-5.10223280863995
-5.60414319194852
-5.6576731882542
-5.18234462450113
-4.35557123924412
-3.37952572200133
-2.23643598681897
-0.725467915597443
1.26925837664983
3.70112162878543
6.52500972919738
9.70170101222349
12.9883802132547
15.8957170930656
17.898060365577
18.6357256409546
18.0545708749487
16.5159108549091
14.6326662901906
12.8166447881745
11.098090555154
9.43932371841152
7.94810541309707
6.68113776317346
5.53323727807896
4.4474139968785
3.53031979757795
2.90159166168874
2.52172859056278
2.0841892868491
1.030414692527
-1.11749669241138
-4.3382759517996
-8.14898022304967
-11.9967429732067
-15.4238343912289
-17.99459891084
-19.3711596802326
-19.4712816169434
-18.4730348196986
-16.7782017039427
-14.9311341194971
-13.293719283554
-11.7963059124069
-10.2420831475876
-8.73838603108192
-7.51396689606578
-6.41522154537221
-4.91809101169614
-2.66362363585114
0.161105770504628
2.9546781507713
5.18955592183805
6.87489912900727
8.5341811154673
10.5913912340746
12.8019391305437
14.4253479683349
14.8906015328286
14.1470227271372
12.4897566540828
10.2497586152652
7.60809202873617
4.60879591787286
1.37131785208932
-1.79638288749807
-4.62780557779179
-7.09952599194822
-9.22508072199787
-10.8163998906237
-11.6457139998332
-11.7001908128199
-11.1395791100419
-10.1442776108464
-8.86841508047133
-7.38057713412902
-5.61603013996143
-3.50765014612961
-1.13785780956376
1.30532159288304
3.60428970437208
5.48696116713978
6.69773627420561
7.18590161006149
7.14309890305637
6.85263508660637
6.51645160769555
6.0908526294597
5.24939600246058
3.69893004338387
1.61102917317798
-0.399819598651955
-1.75079033347859
-2.23398810687392
-1.96997410855432
-1.23592246336078
-0.339691676066523
0.497193379877071
1.16886405559851
1.61951125576743
1.91137209564425
2.35084209862347
3.24760804792421
4.44696130139939
5.34721801961623
5.47168218755389
4.86915407853003
3.97771211633081
3.26485246078952
2.97172888752876
3.09465881913777
3.59218591253296
4.50515359286117
5.76367785500265
7.06518304268453
8.17254087323738
9.16876111992976
10.1822816806318
11.0087413828463
11.1920442027266
10.3507159006655
8.36942662585624
5.49732076204414
2.31706102646391
-0.595893917894556
-3.05018547991756
-5.22164378987546
-7.38028936730239
-9.71380398179003
-12.2264360747776
-14.6586996316947
-16.6064258072901
-17.7987952808961
-18.2224102883299
-18.0527170880695
-17.5863436783797
-17.1030010651038
-16.5778037250058
-15.6334930267472
-13.9911870713363
-11.8913031544745
-9.92335631405654
-8.49695334382435
-7.45657503589557
-6.0628667245484
-3.47405868033469
0.490878959994463
5.12713849124081
9.49742823096915
13.1065060299083
15.858123045027
17.7176194682462
18.6209640559896
18.445992501718
16.9281939936929
13.8241610016641
9.25368370241935
3.77100713908457
-1.84827636176792
-6.79700884111897
-10.3918219718252
-12.2563771164692
-12.3874636897715
-11.1075918242083
-9.00309014825816
-6.67444551622809
-4.31583737752424
-1.67265882801184
1.45048397265395
4.79252918168985
7.74916207959354
9.58777176131112
9.55600328434605
7.25923914741229
3.22211605287283
-1.1428407481528
-4.35948828630493
-5.68516733387447
-5.2271121334478
-3.57308727564467
-1.33756907307107
1.1746562132469
3.99580766000974
7.19733992405045
10.581885347426
13.6028204951124
15.5023703955609
15.6527073938835
13.9511449026491
10.8972236452006
7.2842581486448
3.88398442134798
1.30249342473825
-0.139577151543523
-0.463217658435536
0.0758157111533377
1.05662251519958
1.89318174713852
2.09560927291225
1.64210819188154
0.823172319283127
-0.283711252782633
-1.8161660947363
-3.60737161839494
-5.08143073358079
-5.77286152121565
-5.73488409390441
-5.43727088161801
-5.369389584085
-5.61584634435959
-5.7278960228807
-5.15759434280058
-3.85242484807912
-2.25536181483949
-0.75732757123407
0.592350641895357
1.80778975407282
2.62602449524482
2.53463126510929
1.11886037437793
-1.52650065122149
-4.72161012356116
-7.71471927693025
-10.2685192095936
-12.5457559384071
-14.5114774837338
-15.7390572903979
-15.7544108436986
-14.3337421965034
-11.5468430840301
-7.75283778312968
-3.56877783572346
0.280931315695481
3.21066833914226
5.04558368731454
6.08269255648741
6.6790876805975
6.75732009087297
5.99514536524349
4.5091947063557
2.9852479673268
2.06234126506914
1.86719178285048
2.12410064608492
2.44270210606622
2.5905008186123
2.76145750887671
3.47086082890234
4.93781852260015
6.64617698155051
7.6854684704374
7.49845111854051
6.26891717827335
4.66015866843763
3.16762135189438
1.68107558477252
-0.191712915039697
-2.29301568717124
-3.67688858805452
-3.46291728052791
-1.75639964755183
0.512912063649705
2.51909921487029
4.13750925525903
5.76976550099641
7.71715585012824
9.68081428319125
10.906364724344
10.8755310750508
9.74794063270825
8.11319431181118
6.51724333916523
5.2075222235581
3.99893833011777
2.30090293509752
-0.436257921337091
-4.15051153274273
-8.11189808722103
-11.3964956872615
-13.3785617691062
-13.9646434908855
-13.5486183524877
-12.7096737937042
-11.9004971088006
-11.3858133730434
-11.2686512285471
-11.4086473628094
-11.4554963171998
-11.1018169197153
-10.2014115534357
-8.64026600558404
-6.34172860917153
-3.47601043776766
-0.423695827473539
2.58962639216109
5.63800091523002
8.7536280908546
11.5632364140863
13.3818090790476
13.7050213645183
12.6964930638615
11.181633159679
9.95731502611028
9.04555534047839
7.83466916429625
6.02504531390544
4.23028155717812
3.5033250077737
4.28655932375135
5.85789957860087
6.88727862703126
6.61541041398861
5.39305798122511
4.0302327026018
2.91825641608332
1.99104718100453
1.20027266178414
0.627660211289184
0.240077037028087
-0.209782166758555
-1.04710947729082
-2.41609421614042
-4.01690887487624
-5.2409560497408
-5.82979184815796
-6.27523658496348
-7.32832106633869
-9.2555081888183
-11.7431373461154
-14.2930129757423
-16.4831258781772
-18.0060005618671
-18.6596883181055
-18.2883126961145
-16.7763739947327
-14.2691971421498
-11.3287332853787
-8.57574449286366
-6.10261627442016
-3.40553032183978
0.0692047913404741
4.38198737375566
9.02448936822314
13.2854437005511
16.690463746113
19.0593938566011
20.2292914884193
20.0659624667711
18.8456403891626
17.1865220620633
15.3120990462319
12.7138002372668
8.87209221949563
4.13835720144439
-0.31725068189902
-3.3534801097831
-4.60961827328889
-4.55228448285316
-3.86320711510397
-2.84719014627617
-1.54777210092343
-0.289002284761947
0.279529262330239
-0.250908662069649
-1.66863743061194
-3.33848461289798
-4.6109352997832
-5.10427724318428
-4.77594822533196
-3.77223139866672
-2.25639590016552
-0.460657131109846
1.20442661821971
2.26946165484651
2.39238236818912
1.39128710814124
-0.633406378558913
-3.02989856338979
-4.79524890474645
-5.41139531407012
-5.29084660715163
-5.12806555794993
-5.05172409278379
-4.69196480329532
-3.86731275441042
-2.91524137138519
-2.38993746233803
-2.5238396049826
-2.92370316788298
-2.77823392762849
-1.4263097865549
1.21302194863584
4.61166275311786
7.87092327944291
10.0951956402463
10.7702364654769
9.86186570184979
7.63193114259978
4.56982637333269
1.47708704207074
-0.717456089426077
-1.36052210801792
-0.199704047536841
2.69447290023588
6.80140202013757
11.0739074466943
14.3319988903929
15.754050745741
14.9936173503167
12.1938491102162
8.10999714149503
3.86976109856995
0.251472287883543
-2.71478189708429
-5.32700007716882
-7.6188890099757
-9.32965216508238
-10.2474414754382
-10.3715984098563
-9.79434649241822
-8.59998867713539
-7.03583799425974
-5.75713275960723
-5.54569026480424
-6.49077889801032
-7.70188082435407
-8.19872522976111
-7.93706566261713
-7.70259618073793
-8.19451960019377
-9.42987172645838
-10.8384111850733
-11.7374411569265
-11.7966221627516
-11.0599766625982
-9.4970355923739
-6.85068180048896
-3.23978180130506
0.349509818392675
2.6193339157009
3.01047560023724
2.04838828992416
0.770854550780067
-0.0742396074981714
-0.410874062375757
-0.570233245357193
-0.72646104244109
-0.741419716822749
-0.565096673896693
-0.47690987075583
-0.704333367202112
-0.972759682075758
-0.697060779670645
0.380317828476323
1.8927763418301
3.21389216114729
4.00370827045753
4.3186264516218
4.28876156954293
3.96720271036353
3.65288385073235
4.07904906592371
5.85817683875467
8.75421607847986
11.7812355776924
14.0028226596863
15.1306424544884
15.5778050482341
16.1170871088987
17.2631440938643
18.8379958738795
20.2896878897552
21.3414639595124
21.9975574765232
22.0321730727525
20.9313586290884
18.39516629527
14.6670578426924
10.4104144825734
6.33478274403988
2.70728467724698
-0.864975119936509
-4.90468966815003
-9.25424493733566
-13.0446042656677
-15.4770573583602
-16.4198004230067
-16.3119576817862
-15.758776883227
-15.2517685107084
-15.1076578633674
-15.5117063194347
-16.452566399434
-17.5594918049104
-18.220312016256
-18.0594556477568
-17.1583617644765
-15.6774330513076
-13.5553918076626
-10.8407792020153
-8.03441313665992
-5.76425805246766
-4.25443188968524
-3.27856750334063
-2.47208622203832
-1.63725655477655
-0.942748202564442
-0.837801920430596
-1.6348457854695
-3.24184856924672
-5.3200554951097
-7.43097559661536
-8.94933611942496
-9.17682799878942
-7.76261930477341
-4.90497592476202
-1.13837118155648
2.94925413525542
6.88492604932351
10.3739342940218
13.1853946812735
15.0267777999562
15.7319731922716
15.534417911264
14.8973942235231
14.0474503118868
12.8303059054059
11.0183007868452
8.67020400926542
6.1789076219019
3.91644901598087
1.81528917065501
-0.483340014293413
-2.91208192364349
-4.70995668508385
-5.24048027788457
-4.89026691290445
-4.71960768877067
-5.28788830931605
-6.21479558742894
-6.8872469360189
-7.24630949530272
-7.75098722505696
-8.68976743162367
-9.67226195374327
-9.9632093979787
-9.33923106744201
-8.34875438686449
-7.5890390147974
-7.00629321306567
-6.09337293299766
-4.53527646638248
-2.48515972653281
-0.370918600086115
1.47914139078459
3.13922536864299
5.014728663041
7.37379133273673
10.0280391841634
12.5588684528083
14.7262257468909
16.5548682678818
18.1233626876654
19.3697147269383
20.1416179996461
20.4913856937839
20.8403689024528
21.6438349433101
22.8914517692757
24.0935925280709
24.6733116138958
24.1771065952
22.2590064175043
18.8158655291189
14.1957979691002
9.08670283622162
4.1366679598859
-0.327278439959548
-4.37145833698801
-8.32037381587425
-12.3511828405669
-16.1392787690566
-19.0866895738138
-20.9035694218514
-21.759721186066
-21.9517453710806
-21.6970927347363
-21.1799148099722
-20.5464371659856
-19.8986458496927
-19.4241683811827
-19.4381516016967
-20.2005442919028
-21.678572943952
-23.3247435747674
-23.9927279965711
-22.4264587010038
-18.2610893841166
-12.4974884270524
-6.75136613011397
-2.04880107841718
1.59863268863044
4.61171164763386
6.98753157002366
8.00888923609208
6.82614722020414
3.3670966192159
-1.3641808839483
-5.84946424950572
-8.83040120632933
-9.69607826559379
-8.47267419642054
-5.61477556166719
-1.76292785107306
2.35532382348583
5.92783100716172
8.27686719142649
9.25416207980467
9.2783972479868
8.91524885561699
8.59732642536321
8.67518792079698
9.30660478380191
10.188748263074
10.7595526747573
10.8206743216852
10.8029433921745
11.4159919799265
13.0941009129639
15.5740886954843
17.8788654139308
18.9608595030677
18.5688875412423
17.3777778246856
16.1844420815316
15.0349358555389
13.1222599190972
9.5458678306918
4.30924402021685
-1.46127721004586
-6.47028936501122
-10.3117879362218
-13.3557461002909
-15.849437653688
-17.5443029197874
-18.0336731814453
-17.0631098179536
-14.6352465007829
-11.1296898414004
-7.23605502873225
-3.56629436314473
-0.396784549350349
2.15530111517372
3.86260814213775
4.38569295227981
3.49501714892832
1.37459126658828
-1.19242150916004
-3.10871421816032
-3.65446972539585
-2.86627886236794
-1.23151221554407
0.775703106462391
2.86923907193285
5.02157824836201
7.47903109591814
10.4464717620727
13.624874971685
16.1893622856485
17.3452488104201
16.9994016944476
15.9283921577394
15.0871190092716
14.5339868072348
13.1992152134848
9.95540905843171
4.77627346733653
-1.31652566057045
-7.18233042338344
-12.2245269415384
-16.4305885584208
-20.07750054191
-23.3126719601504
-25.8786766940089
-27.2918112543833
-27.3141259053083
-26.2600616235058
-24.9439147121835
-24.2565894917813
-24.4678319080915
-24.8273535971722
-24.0964359834386
-21.5887107047589
-17.5121141258647
-12.2890267931635
-5.86884967178114
2.08070195826874
11.3543769185674
20.5850210599721
27.4782926667816
30.0578217993777
28.1005584966471
23.3529973184328
18.1615668123037
13.8279566579801
10.1589546494032
6.34577623840015
2.14997634283818
-1.73737924063923
-4.40317465346274
-5.53429556459513
-5.36308673683661
-4.08787839224359
-1.8091910097854
1.01972867826282
3.52654270227813
4.97018220075232
5.27419452290241
5.07184338835568
5.26177278567986
6.34007060037412
8.07082532348003
9.84828744424709
11.2407507759369
12.060550096684
12.1773612085482
11.5442391092338
10.2562298324155
8.41120759286421
6.0790211291503
3.50560718873238
1.13213766908956
-0.710537914965083
-1.97671772148954
-2.72115947244023
-2.90236270918022
-2.43623213574613
-1.35490995948279
0.108625148366301
1.59518708093546
2.85623639699816
3.83711851898563
4.34917987517054
3.85102884696271
1.91483711071792
-1.22045346440334
-4.88338632949276
-8.54951023986181
-11.8761317740119
-14.4865044899694
-16.1803201281491
-17.2035252634899
-17.9603251657212
-18.5119863869956
-18.5067616437882
-17.5285237353619
-15.5006937132181
-12.8570431959601
-10.2634914617135
-8.06803664317805
-6.11364979251146
-4.15475503256418
-2.31930725269293
-1.0634038723382
-0.671677045696364
-0.73350241521849
-0.123369650994649
2.26569622979029
6.57779500560883
11.7482524912125
16.1277361149968
18.3598893347534
17.9943167022012
15.6436119364224
12.5491171405128
9.7571921533036
7.61008895474947
5.96071024666942
4.67975293532101
3.90101653742406
3.94922556413002
5.01734362422501
6.72923473647099
8.17475200806319
8.68366801255686
8.38908364983279
7.7124561071234
6.58167396211998
4.62659729403664
1.99026041375144
-0.502372979787654
-2.05228757634348
-2.6679325966455
-3.30281690229477
-5.15196144130544
-8.55244672949662
-12.5180971028913
-15.5159642885526
-16.7542500591727
-16.6993420564323
-16.4317998745876
-16.5624878218943
-16.7472085510663
-16.2592696002513
-14.9272505219482
-13.2332258791798
-11.4998662076924
-9.41582236259451
-6.56027146807148
-3.05202512478607
0.596512246677625
4.10097680694372
7.67320674026045
11.6965691944304
16.1712919187228
20.4757368456624
23.7944419574307
25.8354923245735
26.9033909039627
27.1905167468649
26.398245616239
24.3290301378139
21.4994808040127
18.7795694555055
16.5573264657804
14.5129686856643
12.1498571133165
9.3046838281864
5.96781134265257
1.71461960362098
-4.2046979053243
-11.8394086253522
-19.8516564024067
-26.2758974300445
-29.9059867598355
-30.7994734040654
-29.782639829742
-27.7836488376199
-25.3341961144527
-22.363883280781
-18.6310075996244
-14.428089469859
-10.5126363845615
-7.2631706376726
-4.34149435240292
-1.3960117908948
1.21010067592041
2.64940909760587
2.59813746702299
1.85702003511705
1.89043624534114
3.6567332628239
6.93635739891358
10.7887761788502
14.3473887425505
16.9269986772273
17.7203591249839
16.0409279133811
12.0245003835982
6.75882318747256
1.50668179601534
-3.14728733752671
-7.34552345174791
-11.2229226738193
-14.2763841426914
-15.6747472223995
-15.145721528017
-13.1924927623115
-10.3850431944594
-6.93074932973808
-3.18660456702232
-0.143032893689152
1.08498831987941
0.269318710425743
-1.54942182365738
-2.75125956063627
-2.33377041026927
-0.466250662290278
2.23035261736574
5.7286817830514
10.4244040646301
15.9365449954411
20.710231691859
23.1906522917726
23.2094119138077
22.0731123524303
21.39703411316
21.8187474454091
22.6246821535153
22.4802151151076
20.4909437483336
16.6336365840404
11.4466105358859
5.6281511343611
-0.0641498100579965
-4.82769202893724
-8.02774294856241
-9.60484985080595
-10.3757072375293
-11.7203766424984
-14.5849143821305
-18.7433645473776
-23.2219003070473
-27.2686556668477
-30.6065915779348
-32.9923260481831
-33.997117404334
-33.1686413185377
-30.1491682446608
-24.7669195197998
-17.2480094520628
-8.32873868946197
0.844271643258912
8.91718095432175
14.7346786694692
17.8848466224908
18.8030139409452
18.2604581652674
16.9152735521972
15.2718617709907
13.6399285233578
12.0825397489192
10.7472310388816
10.1152788317923
10.3953897281558
10.7133065975344
9.50757453519024
6.03062714476882
1.32387903032581
-2.36291275872321
-3.09955339557532
-0.4524683631515
4.41859395483196
9.51560307164812
12.8847078251281
13.1843817641876
10.0510276608659
4.36215791290395
-1.96883659539561
-6.93351706018486
-9.55890535016542
-10.2890296242265
-10.3029616668101
-10.4046701901544
-10.513580983823
-10.1979935830217
-9.5233460784847
-9.14556323536805
-9.66848735138158
-11.1704515312295
-13.2340884494181
-15.1196124953291
-16.0229690747895
-15.4871030418002
-13.488560941894
-9.97006406869806
-4.62796773296722
2.44605535624474
10.1151102621008
16.6419292051444
20.902160722423
23.0488890918147
23.9179271106445
23.8043250614189
22.0279993565378
17.9572672588034
12.2910599917178
6.86303828725467
3.14947659894895
1.29767668524505
0.476396755092428
-0.339864250863711
-1.88041789655372
-4.23200209191042
-6.72491373482398
-8.48761831309688
-9.30735476723845
-9.81950485843799
-10.8580290421886
-12.7193297614659
-14.9011209174615
-16.3954860697716
-16.407777684131
-14.9869719318805
-12.9459276612531
-11.1980324911522
-10.1912668173558
-9.75047487791933
-9.29394227683119
-8.35779848063749
-6.93633509300833
-5.05317400935052
-2.11754196893968
2.70559971609483
9.28322577303497
16.0845314106185
21.2213863280188
23.751284449239
23.9261141690163
22.4938181366033
20.0360119049153
16.9299324888938
13.6467531475601
10.7680122255463
8.67912175382294
7.47086772702254
7.14923730813258
7.61960300410035
8.3429027272497
8.31390797344903
6.67677341135407
3.39562532096967
-0.690438342704221
-4.43118795528445
-7.04731067312542
-8.39774608385025
-8.6560670810688
-7.85099484083362
-5.93182405211682
-3.22804723771023
-0.473402353937697
1.75164900694856
3.35596921055278
4.49599043730068
5.2717177601422
5.64614369048915
5.39980653512894
4.19855484925702
1.91332398366842
-1.19570222151605
-4.7606800300361
-8.67840635550108
-13.0750628360357
-17.8995338376351
-22.5406931181396
-25.9071939235312
-27.1047983140721
-26.1004242376526
-23.5853377916409
-20.3289205696106
-16.9622924763651
-14.0861001814673
-11.8968239635357
-9.7119638904641
-6.51104836083595
-2.13595600375798
2.41571857526706
5.95918566705126
8.07870778452051
9.1364547868146
9.74158638653279
10.4181984801373
11.5489570441234
13.2688475509627
15.272478918707
16.8912063251944
17.6404730150832
17.7688846257573
18.0668216161362
19.0017006224561
20.1578942580855
20.5482037799355
19.2904143636296
16.0128488934342
10.9113856504513
4.57603992983953
-2.24725701631976
-8.7007054012398
-13.7691229917651
-16.5449533129305
-16.656141727918
-14.333795185408
-10.2225087957255
-5.33088533813998
-0.865535978214015
2.31678258621912
4.02828088322099
4.36630416566949
3.25627991346403
0.561101887872814
-3.55106295523627
-8.41119266007455
-12.842403763276
-15.4889528220773
-15.5491117251354
-13.2934113177857
-9.80795026956571
-6.30344350580149
-3.56057009843712
-1.67173199191095
-0.226850497622718
1.04787120478964
1.91992046019528
2.17383441921991
2.29725760712948
3.17002125897985
5.06023154094296
7.26637521060173
8.77109250021254
9.0251164764514
8.12939074043544
6.46137267932302
4.21903245861422
1.39798820167153
-1.80451721016305
-4.84663625222244
-7.244487777249
-8.80325974214246
-9.2935872837658
-8.33762659659681
-5.93165061075667
-2.74789013697916
0.405559614235612
3.21427557617951
5.71083161031831
7.68151860431837
8.54406116314957
7.98135427291218
6.67724976575857
6.21077341357948
7.94822933905995
11.9346670810465
16.8582313860997
21.0370616497907
23.5387384482847
24.6096861317869
25.0577864499429
25.0708293222086
23.7785973146577
20.2361178590097
14.6686282795765
8.38643875200398
2.55244230029012
-2.63298212432635
-7.59737119164963
-12.6679681605013
-17.8287750726995
-22.9519915289359
-27.9753621416882
-32.7076648313461
-36.5076073124087
-38.4587326251472
-38.1573341917851
-36.188705441231
-33.4850929285057
-30.2847752637476
-26.0902832448201
-20.7013213696943
-14.9768831522246
-10.3159114471069
-7.35170134799883
-5.33138424214883
-3.00455204749332
-0.0465932785547966
2.70298589996998
4.32447914413316
4.67590942319207
4.21510889428414
3.58579390454589
3.53040726685919
4.66628853933016
7.03685208053024
10.028187071473
12.6798212795292
13.9763029560912
13.2879530847017
11.091923677732
9.16211884625544
9.59787639668789
13.469426812101
20.2906132040186
28.4953047838201
36.2363959661038
41.9391873156452
44.50941529432
43.4050527247972
38.7857137393832
31.6026528624409
23.2594054246632
14.9220077823161
7.09842881456561
-0.216584755637773
-7.19340006036333
-13.9412557833698
-20.4017618793143
-26.3942393642029
-31.7593194256213
-36.2788723363991
-39.3965220813994
-40.3175338691378
-38.6464277114671
-34.8802951790138
-30.2108504724365
-25.8452061337024
-22.3195851379399
-19.2160025781574
-15.6379960121603
-11.2258577252779
-6.67492797872661
-3.05156874294632
-0.630747127091515
1.38984502577858
3.98527714524119
7.2600280522147
10.4095688716077
12.6196493501624
13.7722002034021
14.235240629749
14.2845705632228
13.9895000334005
13.4740057375729
12.9890040031037
12.7710193953983
12.9957427315042
13.7753243797605
15.0345470426135
16.468241894409
17.7517201455414
18.7465859176172
19.5054702203212
20.2113134702513
21.0280796394624
21.7812114878802
21.9067650405215
20.9995552757842
19.2833668639296
17.2755247336734
15.1236871199375
12.4342158763381
8.51043635175391
2.63780556109419
-5.46183575912166
-15.0944625156518
-24.6164247853277
-32.2006922097796
-36.6633436547182
-37.738772408234
-35.8821917714184
-31.9798930882031
-27.1761128408254
-22.7036550684352
-19.4635115958966
-17.5156114641031
-16.1318716040357
-14.5877757018067
-12.8969328848627
-11.734291031164
-11.7652586556425
-13.1334032218089
-15.55014077588
-18.7567872066428
-22.6262713441276
-26.5700066975775
-29.0910981130972
-28.4967918223678
-24.1914839712097
-16.9353028751728
-7.88382575067162
2.02920829526753
11.6409298991219
19.2764040678334
23.59971031089
24.6693155841889
23.9175477467045
23.1411252706349
23.4304433120578
24.7524045105727
26.4127036721073
27.9282083220433
29.3768841167232
30.9670944689759
32.5848466758019
33.8742043379157
34.5236754678409
34.3535579657718
33.2580480483346
31.1442018519688
27.9536729712647
23.8557394783058
19.4089107380797
15.3198339076863
11.9300068621768
8.96419137106029
5.73634198944414
1.63967089992063
-3.32972858898906
-8.48658863875669
-13.1146960645902
-17.204656031807
-21.297149780768
-25.6898139454061
-30.156748684956
-34.4195175068812
-38.4807071462579
-42.3091021845425
-45.3762901649403
-46.7155751293043
-45.6097483488559
-42.3360943989713
-38.0042930299951
-33.2540994276318
-27.2412901514914
-18.4868415818673
-6.83605533629791
5.83066908391453
16.9125313156563
24.8516620697549
29.6822452586013
32.2270902643543
32.9718988123778
31.7865705744576
28.680032689652
24.4616027122499
20.349713737876
17.1143403578901
14.8105905536566
13.0577565259347
11.3072911159503
9.08016436871691
6.1763660305644
2.56615027018088
-1.79707457810372
-6.68399415130278
-11.1672816540344
-13.9196250042186
-14.084691449282
-11.7997734609306
-8.00750276257076
-3.87289907476828
-0.198129826155523
2.77593601647286
5.01139570765317
6.26289899895556
6.23766923428256
5.03483858465535
3.09884873886644
0.764990450422094
-1.86077804653365
-4.58894124173739
-6.98869816735251
-8.60249338716473
-9.20813299394505
-8.8781570515786
-7.82503918144428
-6.16937124694048
-3.90258132573531
-1.11862204398261
1.8136905502756
4.39434572063739
6.31919521963436
7.75645398889203
9.31267938860623
11.4329533165644
13.6448839116628
14.6986031773866
13.7266246787404
11.0326094246149
7.56002166261335
3.90592205758741
0.0640586422479004
-4.17100449967601
-8.80133842052436
-13.527912761723
-18.0200248475704
-22.3322698173117
-26.8536887907701
-31.6349842651102
-35.9006333345971
-38.3967365531748
-38.1573809530286
-34.9624724092313
-29.3341884628703
-22.2470168603709
-14.683952857447
-7.26907947676288
-0.208177390644881
6.5565604666201
13.1867063550979
19.7775945265066
26.2166228289636
32.2493756493955
37.6347385070204
42.1150286028438
45.3597555654408
47.0977444850123
47.1389269267176
45.1883612910863
41.0341725449428
35.1816850026746
28.9267526617986
23.3810394181984
18.5304765649105
13.5058890703188
7.71338765552245
1.49849336709721
-4.31292944860877
-9.3253332144902
-13.7760669342589
-17.8203734140253
-20.9733561727434
-22.5663631614699
-22.5638343081546
-21.5871138555323
-20.1622954823044
-18.1192864311667
-14.7397918539173
-9.61644384911228
-3.61747325908529
1.12296210251507
2.61470073536608
0.578117252338793
-3.46210947263039
-7.52156265509342
-10.5219163332058
-12.6778345563547
-14.8846340833052
-17.606616462985
-20.2103578146347
-21.6057439782688
-21.6507103433062
-21.5904618533456
-22.8704908464712
-25.6506552680696
-28.5309233462092
-29.5432383617245
-27.3668819109566
-21.7798212332917
-13.2868742103894
-2.80844655719412
8.09272749243418
17.3227814439456
23.3899002270216
26.3992853922936
27.4997155432114
27.4882569315807
26.3390975088597
23.8865567661624
20.4651637475917
16.8112859054062
13.5425487323697
10.777638077861
8.22508610045006
5.59815656148876
2.8335804848806
-0.014216136750258
-2.74078522904312
-4.75893105069093
-5.25362847040113
-3.8320284936488
-0.975506283926777
2.17236125116677
4.51110485632017
5.80541305756
7.01225267839799
9.43947928567294
13.2076920402816
16.7718106693697
18.2953750163702
17.3126830808593
14.8252858201522
12.0692088045678
9.48439105384702
6.69236680367741
3.20079903628999
-0.924245906894932
-5.09815472239209
-8.82885831755502
-11.9957759309681
-14.5122447346451
-16.1447503802662
-16.8728006940132
-17.133786335709
-17.4920972588554
-18.1211451837758
-18.5480340119674
-17.7818191952804
-14.8679471532858
-9.60257176368353
-2.77938807710249
4.24901747202546
10.2803079251672
14.8388900173613
18.2898859290176
21.1253903612863
22.9107742890971
22.3106846725717
18.5324015683618
12.5012248620562
6.2939668005713
1.54888618366437
-1.45689553894916
-3.48036523444022
-5.36925585923675
-7.3246005146787
-8.8483307399114
-9.33598192277519
-8.7246098495445
-7.59163365928528
-6.69213843240588
-6.36111062928167
-6.23138361536278
-5.59156372176619
-4.18492090036094
-2.53948287819402
-1.31077041820182
-0.527490910013612
0.110489488094528
0.276189475477761
-1.12592559473321
-4.80265421954847
-9.84919344142578
-13.9961139288291
-15.339552554249
-13.8583721043484
-11.2022554108505
-9.22144681695772
-8.91959566318633
-10.4977956111139
-13.771202252035
-18.3254497638923
-23.4361040894507
-27.8769989629804
-29.86510820383
-27.5932578545905
-20.2276374867387
-8.53900377709768
5.29885704355767
18.5620793010588
29.2726660873818
37.3404483523433
44.2172900791122
50.7411873123285
55.3462267816645
55.0556189215391
48.4385357266543
37.2156242229489
24.9349026701111
14.4929554906732
6.86484175126573
1.46917031916634
-2.77628944176223
-6.54308183489229
-9.66801136937464
-11.2956271087088
-10.5559532290004
-7.50484172158059
-3.56030302694746
-0.713580750327848
-0.000408344283592
-0.758364065794753
-1.4729448483467
-1.33651190865226
-0.966661332443685
-1.59221739947109
-3.57983596844636
-6.0126438435698
-7.85991789379654
-9.11121730359458
-10.2688993719605
-11.1877866978995
-11.3307094933941
-11.0915574160355
-11.9123430522567
-14.7220326210012
-18.7389180862044
-22.1175390965476
-23.6139101159419
-23.5726466074981
-23.4696728673624
-24.5502736516314
-26.7833026060236
-28.9515077422216
-29.5682078554123
-27.6798754701399
-23.0656815952729
-16.0570861700262
-7.35048046283263
2.08849378339381
11.2300156980339
19.5051471363619
27.2834358271418
35.428255575276
43.917893682588
51.0371612809193
54.3476811122054
52.5687474325667
46.5402937280171
38.6084818565882
31.1591356075193
25.4217546123122
21.3621665010716
18.5317756451523
16.7362611261647
15.7810782170458
14.9800367996622
13.3671240424547
10.398087919547
6.36474547390239
2.25103020671262
-0.870620526997115
-2.61924521468037
-3.56403009956305
-4.57091947170673
-6.03794170767078
-7.97984620390962
-10.5595603518056
-14.0419950690958
-18.2406987381773
-22.4050561000903
-25.8473895665431
-28.5745219239665
-31.1495346559349
-33.9044107607984
-36.4311511264966
-38.033208057864
-38.6345778895152
-38.9597545984717
-39.6538322337544
-40.3462100789198
-39.7312048725837
-36.639863127989
-31.1607780808326
-24.7624998755166
-19.1328810160989
-14.776479868458
-10.8271167128601
-6.12893081244198
-0.281479780651611
6.1269516483715
11.8499456076888
15.7152748165096
17.608615130099
18.7929923911146
20.9198601540242
24.7004370151119
29.6102429952377
34.531148303989
38.3571347581807
40.264482675192
39.8915059593785
37.4399176886511
33.6112245078282
29.3745469241072
25.4960385368914
22.0360321176247
18.425430512026
14.2196588125754
9.70030322950367
5.67448039423329
2.83583564601295
1.41106448390066
1.30823187195658
2.42025793118767
4.59687987368279
7.25541567241735
9.30580438720554
9.84723255551321
8.81740196856416
6.51382129181754
2.63352616200674
-3.4937215418971
-11.5468956462678
-19.6639246632421
-25.6259711929615
-28.5326073601284
-29.3658353134964
-29.985461977774
-31.2996343417458
-32.237031038058
-30.7700456946446
-26.0398512459702
-19.1619097726781
-12.0095546275341
-5.81677157312393
-1.05957421284576
2.16132379975669
4.36078940358274
6.96253601344418
11.4665850786448
17.9434629818798
24.7318162236208
29.9863089401597
33.1802883477398
34.6461258096979
34.1847993350278
31.1391394181633
25.7373306737271
19.3217054797183
13.0119288755987
6.91545653254658
0.870087483984271
-4.7769434499391
-9.50954631660546
-13.293056370279
-16.5430439550067
-19.6450861631249
-22.6062739081374
-25.0016187035682
-26.2639000566452
-26.1660163203543
-24.9573085127872
-22.984896828068
-20.363797286199
-17.0361467598315
-12.9028158321358
-7.87727489045696
-2.12358216335052
3.57299173234167
7.78899372816631
9.05969453687106
6.75507221126715
1.51010165219359
-5.25292367064124
-12.2271856809539
-18.579353323033
-23.7050817994712
-27.2474386413614
-29.4843001872779
-31.108782217787
-32.2189917204392
-31.805275345982
-28.57430047579
-22.1936795401166
-13.5822370261079
-4.08750499880971
5.48436823285758
15.100397043125
24.9853741140407
34.9846717681791
44.2790924657594
51.5138985611654
55.3189970039815
55.0573417358966
51.2134834364498
44.9782834543887
37.5336603087689
29.8531477400514
22.8452427310271
17.1277720623701
12.7101794039467
9.37699514624223
7.27676612266304
6.55526611553936
6.50489224253681
5.81622323299318
3.87833421756562
1.36897087471216
-0.632983452609057
-1.84603317940347
-2.96995560106953
-4.83568058146803
-7.53420161134847
-10.4386330735894
-12.9579229844724
-14.984864490142
-16.5462992620559
-17.3367401231187
-16.810337862483
-14.6117308103471
-10.9266179032812
-6.65241777476021
-3.18992305237287
-1.72076087375665
-2.49943625270925
-4.82817955853903
-7.63447384719078
-10.0975052304862
-11.9493419239642
-13.3278673712601
-14.360459694009
-14.9573290625863
-14.9875601282843
-14.3914434183993
-12.9610461688427
-10.2925609595574
-6.32168546582011
-1.81727427049495
1.99925965903338
4.30890693054287
4.87909687257732
3.50929140672359
-0.0956337132575569
-5.51742863305217
-11.0609591067597
-14.7195077265418
-15.9099262061239
-15.7591686791489
-15.3688726540758
-14.2941042836697
-11.2171758887133
-5.70987843901815
1.24912973046642
8.2482128438854
14.4703657019269
19.987967421594
25.3292001762142
30.446113803963
34.0550053404418
34.6416329894189
32.2920613240657
28.7984528395017
25.6468242460187
22.4924163908144
17.9188605281555
11.3008082269034
3.71267695418626
-2.82381065602554
-7.02576906153571
-9.47503955053455
-12.0150969267903
-15.9314623428438
-20.775627459243
-24.8771992028197
-26.7497121832741
-26.0809302590774
-23.8136821476122
-21.4532878609954
-19.9288375135022
-18.6827014022449
-15.872578569518
-9.96081711995979
-1.65460782406514
5.76493283434318
8.68900553367556
6.18021004531589
0.614377633499911
-4.56519599157404
-7.25172840687938
-7.01566731983833
-4.09804845821439
1.24331967872712
8.65560287886597
17.4352290877394
26.472970983752
34.4547952241784
40.1710582953084
42.7704044830354
42.0549379160007
38.7721159091069
34.3179118587455
29.7352876025734
25.1319422574854
20.2742719416998
15.2916689225373
10.2964716406122
4.63990991746531
-2.78127626311897
-12.2908647920936
-22.633810892872
-31.464976613198
-36.7810324652727
-38.1831469165013
-36.9708529105935
-35.1321185004765
-34.2752575628266
-35.1744634103681
-37.6223760357642
-40.4028097489636
-41.8486973404474
-40.8874762184941
-37.5034014421948
-32.1583628512672
-25.0470932627064
-16.0029253772612
-4.92722843882182
7.68048256004427
20.4563871080978
31.5537071255361
39.5184797793153
43.8257307794454
44.6431855241285
42.3214196489486
37.1848633163919
29.7112190653481
20.9376560802981
12.6285174643898
6.58507145422663
3.39724222970835
2.0061269231512
0.723637868011586
-1.36483817619088
-3.93575536537788
-6.03053519604124
-7.03134073677587
-7.2095342192704
-7.32118046389763
-7.63048414989351
-7.51961569655209
-6.12374777962301
-3.09104078552881
1.3258817519095
6.48561386407041
11.3717074158512
14.7767777039863
16.1151241887988
16.2146810705385
16.8354454451292
18.8482228521099
20.9293990231614
20.6782654003559
17.3242523615685
12.7923820961025
9.59052311903971
8.03179683174378
6.10299139151865
1.80318193250489
-4.97859023825333
-12.772397268946
-20.05656439074
-26.2284761746891
-31.3818527823648
-35.5565563631759
-38.4142791808475
-39.5860225110446
-39.1407099136281
-37.6309433380598
-35.7592098575614
-33.9859623967427
-32.2641057864324
-30.0518831663018
-26.7256416736591
-22.1225172772061
-16.6493148401586
-10.7847996042006
-4.5007822665063
2.66460102113618
10.7718585471092
18.8031318255455
25.2209100722331
29.4132932990699
32.3280644164164
35.4563904613994
39.3621104280831
43.2995893967535
45.9475798833699
46.3034613059363
44.183863625758
40.2383936992618
35.4357521215579
30.3618321706369
25.0210522605209
19.2668328847106
13.2333899432793
7.3037390916916
1.72991058003231
-3.72113545723186
-9.64961932696932
-16.3061026897071
-22.9882961100096
-28.3765819804996
-31.4675643063438
-32.102065299496
-30.8907798423723
-28.9395697435586
-27.3488047781543
-26.4895832050681
-25.7532794039769
-24.1820370031257
-21.3104403217008
-17.4882590689451
-13.6982887341977
-11.023686415613
-9.85449400036315
-9.38703862929228
-8.01439517210724
-4.38086096953645
1.63916386052334
8.59586781282894
14.1240740344491
16.4844069941467
15.7819020648735
13.578959383289
11.4074570410425
10.0012066830314
9.83201332685693
11.6708952388566
16.1875941039883
23.1276341098063
30.939308964241
37.0758803747317
38.9487790377811
35.32289376864
27.2937712159237
17.8565895836998
10.1565173131769
5.75677450032616
4.2431820868391
4.09860765820518
3.59989311835205
1.08318634726414
-4.67031247060201
-13.4297351270941
-23.0239296625359
-30.5263443577313
-34.222894004135
-34.4033139413317
-32.4570511420129
-29.5520363407011
-26.2012047791127
-22.6954401499956
-19.3586813277522
-16.0429703607102
-11.7627655524758
-5.6419178664391
1.5568560976452
7.4509374423626
10.0663760718202
9.68095830901892
8.39232410760779
7.93929118869406
8.0641641992706
6.94333102277247
3.15295489809271
-2.78537627896865
-8.79796926740017
-13.0542661698669
-15.1309368175045
-15.5434310609352
-14.7485108298471
-12.8603740396142
-9.86640901648483
-5.82059117232577
-1.18656001533718
2.84257881921326
4.816552524595
4.11573429235521
1.43892807432668
-1.6954112534953
-3.63259166333569
-3.02644225600341
0.64903613501813
6.63144020004791
13.0662197422778
17.9626363639708
20.2463626613299
20.2021049557477
19.1033356107666
18.3687539647627
18.7743550460431
20.0672104790478
21.2070804754328
21.2614904448431
20.2049059027902
18.5684502224358
16.306122956346
12.6001350688867
7.11986825591584
1.04763472622126
-3.63861408040001
-5.94330946637282
-6.80418708038043
-8.17379436566071
-10.9769841999378
-14.005712097215
-15.1874484003531
-13.9825056914581
-12.0005019889297
-11.0796917014429
-11.3950566564893
-11.8083378165515
-11.4368948582644
-10.282719605131
-8.67026578099942
-6.68655113001369
-4.25167173945654
-1.45275786111409
1.43331230023787
4.25859211403689
7.05212922325513
9.50830241237517
10.7118402789675
9.84250380015476
7.14021631936679
3.90916046853897
1.60796755686902
0.965756956558851
1.61977230534738
2.38640458651464
2.20099510335605
1.06085254028723
-0.0979656561559362
-0.501502498972945
-0.302319537682791
-0.250060951208063
-0.847348329242503
-1.92970847845748
-3.01359515068889
-3.97936826394167
-5.27709485395088
-7.36378764573549
-10.0495917764223
-12.554665564803
-14.1960646143908
-14.9459881398091
-15.3241757092871
-15.7838793419086
-16.2611484066387
-16.3827451218972
-15.9818637514514
-15.1165141649941
-13.6269574993585
-11.1868424358578
-8.00768893529405
-4.96971185559341
-2.56817286650126
-0.0122644347821384
4.06093583668083
9.88019578854957
15.8744110840673
20.0045813397085
21.7479266613151
22.4609365182752
23.6247466531011
25.0959225236365
25.4559800420333
23.7530479051921
20.3925468214483
16.5878495592756
13.512315490034
11.7616055025065
10.9881799646735
10.0897755676934
8.22254725462493
5.6357667479235
3.29610609891928
1.81191463101414
0.802244475221448
-0.894797564824093
-4.31439475964373
-9.22118545313546
-13.8374694857873
-16.1636443559167
-15.7074112331427
-13.6118907604031
-11.0944189047557
-8.26217275449549
-4.72307336034718
-0.94052518102201
1.64651379166719
1.99439297050318
0.540570147450035
-1.39286828509215
-2.97158708411261
-4.18573805386744
-5.13770830757042
-5.75572061942009
-6.2442217577727
-7.13148869133778
-8.63370609745267
-10.3963490345085
-12.0102847967576
-13.395472919265
-14.4681688876419
-14.6665040090487
-13.0586691234695
-9.052816133889
-3.19023535111366
2.69562431831746
6.41655188896001
6.94059732948055
5.11090070564089
2.81542356607044
1.43325171779939
1.08774581008535
1.26710450606137
1.82317821220909
3.03579201256362
4.82989741374457
6.4766241037396
7.31124317317727
7.43301841903823
7.50862918393092
8.12733836779733
9.34845735249611
10.4344031005563
10.0078069734945
7.14506664624236
2.62458638712472
-1.41569165239628
-3.38082378555579
-3.46038735348324
-2.91310473558672
-2.6107257201835
-2.47983418657276
-1.98731747316715
-0.81511691379018
1.00999922981543
3.55173941606493
7.22627339298895
12.327503941643
18.3363173710961
23.8562671740504
27.1753832935812
27.0215686085146
23.3083259409537
17.406688384751
11.3365985380189
6.39050782399577
2.56406095908306
-0.883196336806506
-4.69383043577274
-9.28493188894581
-14.6487730558858
-20.4432638739587
-26.2050216803552
-31.2121027303211
-34.1314705757331
-33.4996383005159
-29.1612313323547
-23.028900804218
-17.9348248555049
-15.5990040654762
-15.6369555070374
-16.1973891850966
-15.4204319159849
-12.6842586997671
-8.88445541576525
-5.4972497542381
-3.14866274362049
-1.03570042866252
2.16132689819653
6.76279224615912
11.6301635056071
15.352507543711
17.6409159496179
19.1621783897561
20.2140868681619
20.2204022079717
18.6393739539917
15.9014221957882
13.2926199813345
12.1139102449764
12.8334597662738
14.698486193909
16.1230166638223
15.6401942687187
12.6377091287619
7.47318919888992
1.24653431682977
-4.61053287442398
-8.97538188514495
-11.5218089764588
-12.5885998158169
-12.6724209544985
-12.0945320287878
-10.9576004787464
-9.27377921848211
-7.17610823625858
-4.95902403803161
-2.79271812025139
-0.520926715415083
2.00650108209597
4.41991695277811
5.90168779080149
5.89032636190698
4.63728339980221
2.98945988041303
1.54647199842241
-0.0703317060613636
-3.03151307287097
-8.10991838499355
-14.5652677693482
-20.308369874357
-23.2007845653244
-22.2940511124265
-18.1843394495542
-12.4441452770639
-6.58073301993152
-1.36372697194977
2.93182541985248
5.99813941198756
7.63826027089908
8.27810982060277
8.85388480159586
10.1351519733229
12.3600521162192
15.3829361960474
18.8807687688995
22.4283876244184
25.4505660231965
27.0629541343577
26.2404836030544
22.6839773122721
17.5384626329836
12.685148127867
9.02121778150347
5.68760344062164
1.19926542906011
-4.7903668114547
-10.9532503400252
-15.3855205953
-17.1165995928831
-16.6027025955189
-14.9733559275222
-13.0296392681037
-10.9521511839732
-8.64268916176947
-6.06752833098418
-3.36026244170641
-0.816176945110304
1.19206976580472
2.40405396239574
2.83677686412955
2.71637637830487
2.10113032126285
0.544294363120766
-2.57871239484273
-7.18173489298242
-12.1435895570182
-16.0871001344255
-18.1850128263805
-18.0236335905218
-15.2979416448235
-10.3748603998078
-5.00415092618822
-1.74524151199881
-2.29164233454639
-6.30803576319467
-11.7433216682824
-16.1318127134632
-17.8556813454914
-16.6569907743908
-13.2853019488298
-8.78795720750553
-4.0720672679833
0.190909486567816
3.64896799091847
6.37461956707307
8.73064878147901
11.0558069504869
13.5366893406389
16.2496084694283
18.948089666517
20.6691076926936
19.9549236905658
16.0105584982622
9.77317654467095
3.59332124571269
-0.304440388732794
-1.02198825440735
1.13213424288581
5.39529854272008
10.8930348497839
16.5844868083499
21.2721490707817
23.7131260437594
22.9533147230302
19.1270340703722
13.9824805449392
9.90110874975868
7.86447710683599
6.51942139516444
3.48300451824401
-2.37077975022103
-9.75959384586201
-15.9395277760595
-18.8748868700306
-18.6359366667663
-16.7873823635122
-14.6813505119791
-12.5848810415835
-10.2524087858693
-7.88636268146408
-6.3460658368176
-6.43640899372585
-7.95701866713623
-9.47446017659614
-9.22155964204256
-6.43555059944262
-1.98577905137215
2.20492379318232
4.48027228311235
4.54125744248718
3.47029411794283
2.67425146732437
2.75157018667867
3.33712180475317
3.820126168194
3.98067144545604
4.0862630458947
4.67900099675427
6.12599794662493
8.02148903274468
9.21879578156302
8.97028436094897
8.01070219046885
8.00795430834013
9.74246895158454
12.0136755845159
12.4201237557832
9.17591485643969
2.33379986589327
-6.39021052898931
-14.7067788405758
-20.8269377126191
-24.1301733094799
-25.3784243082815
-26.1661426251481
-27.6779231245434
-29.8483605409565
-31.706599712005
-32.1262432067045
-30.024930279542
-24.430199010134
-15.0943375922635
-3.2062594576294
8.63311277206704
17.3537612064485
20.9155433787012
19.513244272946
15.407960497091
11.4167144999775
9.551138018211
10.7466406459173
14.8933846048053
20.4925745278882
24.8462169315562
25.5487126439622
22.1231217768587
16.1335922914445
9.80840417114328
4.61635613703953
0.889816322080306
-1.59551682645468
-2.96628662938676
-3.20017129106453
-2.44023400440123
-1.08389465800865
0.347069286647877
1.32239181384037
1.6313740107636
1.84381796580518
2.98743925441053
5.25276414252909
7.28108819452867
7.26995960134011
4.74022683859097
0.918243036635319
-2.48097132600475
-4.5428621397245
-5.39715306745814
-5.68344459366824
-6.05659998881452
-7.02394018768377
-8.76010212131664
-10.7321947275014
-11.6871290693075
-10.4565091830079
-6.96750996335194
-2.39054043858955
1.75811962144202
4.6912459304397
6.63333047295691
8.12739819838054
9.23533023426233
9.74047422416028
10.1224121999114
11.6334483431602
14.7795315649051
18.0321499755665
18.7356118246825
15.3215593001884
8.35689343435872
-0.224683028193407
-8.32745616958026
-14.3653866967798
-17.6212348837952
-18.4995005450513
-18.3583145992895
-18.7393466054848
-20.4018321478409
-22.8847165230593
-24.9748012030339
-25.6678639347796
-24.7887626711118
-22.8394082268906
-20.3474208066597
-17.348498894662
-13.4908640257121
-8.63803891777676
-3.24675242718945
1.92864208204504
6.32821721854567
9.64496227861119
11.6610831540899
12.3939906778832
12.3994275802893
12.721459431272
14.4558829064826
18.2049454413476
23.5538545033603
28.8030342163709
31.4631551631527
29.6365694923923
23.4274649431759
15.0816200991002
7.44753719821999
1.94875709807052
-2.05257708427256
-5.86858645837895
-9.61508535030845
-11.9589280437079
-11.6149343809195
-8.7569650161254
-5.03807141132843
-2.59922636050466
-2.87375964513059
-5.68942219327445
-9.29742909668196
-11.5414080712709
-11.1540338124306
-8.0934011303038
-3.18822739061384
2.17630565123721
6.48892665640024
8.92025415305769
9.80641085061995
10.1210712909858
10.4687293778488
10.628066238285
9.91763617774066
7.8887212587372
4.72785709145547
1.11531763299742
-2.13953027973358
-4.26609241950003
-4.69043357437883
-3.53227710708518
-1.96868547796159
-1.65297988120465
-3.41722500224652
-6.47521067142102
-8.94559631410559
-9.34840240967383
-7.87649769625139
-6.20152393956035
-5.75783636261483
-6.24268332177783
-6.12592776046842
-4.52630907159823
-2.08437938329024
0.0096746033326166
1.3026248558353
2.20932611771573
3.22040551041075
4.28981405423938
5.04458672996707
5.45605184548453
6.02335758014547
7.16407728119065
8.6488068668381
9.80226649058186
10.065099205674
9.22107602970724
7.25529505124557
4.15086285058539
-0.0964862620446847
-5.02581653583579
-9.22355802820839
-10.8218556481278
-8.98983022038451
-4.77022234262998
-0.210180422429666
2.99480410985635
3.78503652048705
1.36610254034797
-4.45851180370872
-12.2995874523065
-19.0083628564392
-21.2534145005049
-17.9241470543963
-11.1575284747775
-4.60450546118113
-0.233652456207737
3.13509828094248
7.92791925712392
14.641042863192
20.9277390033899
23.823801504942
22.5201531367878
18.673466289994
14.0356802833426
8.22983156534498
-0.567098121750115
-12.8263467680358
-26.2970292347026
-37.6624575416604
-44.9340610811987
-47.9720356418273
-47.4670798763561
-44.1610035477363
-38.7596187238873
-31.8023283762356
-23.2095478136576
-12.0910993605052
2.54338871853239
20.3946715182016
39.0770317069199
54.9911305971235
65.2462142850209
68.9244475345234
66.9341081857883
61.0872724865438
53.1950968703661
44.54235133031
35.8203791745448
27.2235734612581
18.3578190677335
8.27678702416926
-3.77391277624922
-17.2661697757912
-30.1342829136906
-39.8686502935903
-45.0887358713735
-46.25182319179
-44.9524619070602
-42.4861042925051
-38.9695575259886
-33.7293582602615
-26.3517836322581
-17.2266798433253
-7.22679561251094
2.90339275179914
12.8468504557883
22.4880165149523
31.3387902555224
38.25407655575
41.966738435513
41.9921072015156
38.9238926420577
33.9017112114828
27.8802539865558
21.2903169302775
14.2757113167212
7.26939813614743
1.19945152477749
-3.18048976325532
-6.21852448522871
-9.35656897097627
-13.9435966184777
-19.9390871829993
-25.8266205802229
-30.0492522781102
-32.6516517941098
-35.1945691969674
-38.8361379673976
-42.8825219110786
-45.4969951527671
-45.357879816262
-42.2893184582072
-36.8751237694701
-30.0637397917485
-22.7994556962786
-15.4904439892836
-7.97912126845087
-0.227288295527337
7.3616125727083
14.4632011395747
21.0777314460914
26.9670012198255
31.5008252461857
34.5420730894895
37.0149415331861
40.0924974868007
44.0153181169692
47.9655342219061
50.8417979254768
51.8265357081658
50.3604765442921
46.0813985480159
39.0716205085912
29.9272184833866
19.2401611218352
7.12133111567899
-6.41760529231882
-20.6779646138282
-34.2396357652359
-45.7013062582572
-54.1546619029538
-59.0434601740307
-60.0530335682945
-57.3522161921894
-51.7796518606659
-44.5744469603882
-36.6852158426447
-28.2259404926079
-18.8955152958243
-9.17984760175316
-0.710669819296061
5.16368593667095
9.01413457529343
12.9322956903995
18.3250702314021
24.3570299848355
28.6689351931344
29.5384900155658
27.409479133968
24.4627255626368
22.6492701253882
22.0183138706685
20.9193521887929
17.7025541364611
12.0650290866891
4.93454342144802
-2.51788853454691
-9.57821931145466
-15.8792090988765
-20.805862807613
-23.2597610875585
-22.3386745995528
-18.3643692601102
-12.9942524578319
-8.01237101946774
-3.92983326450108
0.156809252380332
5.36817198879725
11.913940032195
19.18627553928
26.4890937961962
33.1074038068726
37.8938892619593
39.6918769139449
38.5154703768301
35.7523444316338
32.7723911910421
29.5824282056364
25.1203721087102
18.7487383371108
11.2594351743806
4.30982489120039
-1.16520474719748
-5.80447248319662
-10.8087604284059
-16.1651053549768
-20.3292854045051
-21.8519823279224
-21.0014085455884
-19.525647945895
-18.9686235393363
-19.4158979900324
-19.8827874084655
-19.8710472673032
-20.3686287237869
-22.9319597119622
-27.6374307181714
-32.3287503125852
-34.2723655261775
-32.5213250990735
-28.5959093586592
-25.0460798320333
-23.450501786322
-23.6232154420027
-24.4725302153718
-25.3236385034747
-26.2004879354691
-27.016207332146
-26.9572677575922
-24.8630396235272
-20.1403636141409
-13.379505351379
-6.17722107825578
-0.154695931368756
4.14291937579884
7.5184615351727
11.4563273203777
17.2348135321889
25.3244708763502
35.1845065504081
45.5501353752726
54.9918357733755
62.2192524530287
66.1224009973795
65.9876349559254
61.742126452108
53.7515372252091
42.5429880867247
29.1260758365663
15.368134914002
3.37261306419237
-5.70241458942982
-11.9580980294374
-16.0170883930827
-18.3478295473971
-19.270562865398
-19.3136216578946
-19.3930145462894
-20.4009174067353
-22.2804564758541
-23.5796464693506
-22.329636935294
-17.5107002897607
-9.64830368454595
-0.308084789399563
8.63194246156895
15.4539237646311
18.9855851125834
18.9584064342654
16.1578554974766
12.1893075885241
8.75636126652103
6.73945570363964
5.86127673701769
5.32072922576962
4.67608851126301
4.0249383146108
3.47235403428853
2.6732792632665
1.05896090080928
-1.48619159666859
-4.4237808262322
-7.3104975362268
-10.5416086955078
-14.7678926769984
-19.4394061714757
-22.5264184503144
-22.2665712885581
-19.1371531597526
-15.73897763618
-14.5766643860521
-15.9549246872192
-17.9871331398029
-18.5187776200585
-16.8916990622089
-13.8721137439097
-10.3188868708519
-6.45415522926005
-2.33969970812819
1.52364829100388
4.32059515611245
5.44178030923242
4.83760381214906
3.05147129348984
0.957938793293739
-0.606481988901191
-1.03215064099492
-0.0246249801659075
2.15103696256949
4.57558332283292
6.21952889063544
6.75036583371288
6.71624737561867
6.93596379124014
7.70605990244632
8.47000340013053
8.27672265094186
6.70866711193846
4.25232570740927
1.5840481052521
-1.29391741124342
-4.91823366866256
-9.444556491557
-13.9712807945639
-16.719562820327
-16.1333157863926
-12.2605957978301
-6.89257004407395
-1.78815749603591
3.0205909547705
8.45947719991684
14.2713746217548
18.7565835725167
20.8267854333606
21.4634008795316
22.7386086736048
25.7006106586951
29.2941329634323
31.154804664758
29.5472567283366
24.7560683873714
18.699366738248
13.3743748262966
9.75703087399736
7.76734732895636
6.73721780825693
5.8839807219337
4.61029506635043
2.46188613654591
-1.05981155396872
-6.3150006589669
-13.0164091539442
-20.0312060250304
-25.7853744700594
-29.000935016794
-29.3823760194348
-27.7711026215991
-25.4070216870962
-22.8480026808225
-19.7364831698347
-15.6215283860836
-10.6359749177249
-5.2165468539414
0.298693580530562
5.18407873888227
7.67933628673104
5.72500962371093
-1.10615209795266
-10.590995515294
-19.1432919319822
-24.2179506457484
-25.4610916956419
-23.910900137692
-20.7665681783644
-17.0178233831492
-13.3905988292624
-9.82252537373254
-5.13678714425056
2.11857554545936
12.1154695817079
22.8764864471903
31.0335009822419
33.9848983605369
31.9081470860723
27.6825760538151
24.4556538867648
23.0152801365676
21.4383374009165
17.2790411922842
10.1969908167414
2.50031709968073
-2.98459956457613
-5.51496992146093
-6.68766665656111
-8.26111388564945
-10.2573566832671
-11.3467725976659
-10.6245766421192
-8.62745447766728
-6.65878681576618
-5.29597074394775
-3.75726353592364
-0.945424701703423
2.99306203891302
6.57432689833749
8.55440943596893
9.19732758605101
9.71038387403392
10.68815092462
11.4156254832219
10.6476327244412
7.95479998403844
4.32066826824094
1.35598561601989
-0.191716961907054
-1.14000915791038
-3.08236546109589
-6.92735012502999
-12.0378399353183
-16.5512998851577
-18.6014035232179
-17.4906221012644
-13.8741067032306
-9.09548993091356
-4.60541358743415
-1.62136504577735
-0.450144745792273
0.123747722883335
2.14880015784054
6.71613132429865
12.9683744384518
18.9340006832677
23.0489872834303
24.8244910905184
24.4955202965412
22.49346075977
19.3335621342573
15.701694091701
12.1639199167979
8.50988778954434
3.56297727442085
-3.97446992077162
-14.2719548216907
-25.847079778211
-36.1161429890586
-42.520271810074
-43.6315772873003
-39.7477718024019
-32.5453576141079
-23.9781581887022
-15.4194963422286
-7.74433305929927
-1.8108735067309
1.66778064844354
2.95628249056484
3.7509797561099
6.12683422175265
10.442802809726
14.4510803209958
15.0963433538682
11.3180531248841
4.78944311714621
-1.87240134185523
-7.03171313454535
-10.3386329295662
-11.9809967477755
-12.0421849867237
-10.2822542243442
-6.34132373111454
-0.414811770635147
6.12932304533666
11.2159908927982
13.7100460487548
14.6379512193777
16.2767506352351
19.7358468587266
23.6912387441385
25.6767147766662
24.3027502662354
20.0968190558918
14.742280013906
9.91497522670543
6.41177742035555
3.79927003523642
0.970426315798271
-2.62880217111247
-6.361305572325
-9.07280889380845
-10.1779888497507
-9.97194441038086
-9.16881933339495
-8.31938803795173
-7.47567768609731
-6.29303893366948
-4.53974189262684
-2.40446518430173
-0.0923130517073544
2.76402684880203
6.92198663380841
12.5258767690914
18.3271554781693
22.2023788793298
22.7772425643141
20.5389111699396
17.2025550453986
14.2071726857199
12.0388817320832
10.4358460587593
8.45747038990486
4.60826728658248
-2.15395840628844
-11.2586741778221
-20.7520228848186
-28.7361866507056
-34.3786915437561
-37.74183175798
-39.1120052224004
-38.6264422807228
-36.3792823624753
-32.7227262665061
-28.2746807541876
-23.4271105828048
-17.8702069665549
-10.8878017625581
-2.368478587956
6.50380392596238
13.7665418602613
18.0209759892107
19.2290747163899
18.1402671198509
15.2096175678717
10.6234547984771
5.46196347505558
2.01917510295083
2.12171601497884
5.18983437239228
8.43617174423514
8.95044561061904
5.4496115540575
-1.40097226951749
-9.48762539374685
-16.0965279663694
-19.1643138985517
-18.2495218016341
-14.1568140515387
-7.72276333164624
0.410213737415516
8.81237544943811
15.173662727298
18.0970082711784
18.5716651323388
18.8762720594403
20.1643941876204
21.6249317794045
21.6649356976264
19.2569491366221
14.4263659728719
8.26050181850426
2.49905024201795
-1.49610921100675
-3.60531800513144
-4.67798342326242
-5.58162866678325
-6.72731858894182
-8.13352605182627
-9.33397448180055
-9.22472333848784
-6.57024999663748
-1.07546896723165
6.05162300329566
12.8016841809138
17.8024718096677
21.1061096861396
23.5408182601704
25.4392358346642
26.1835791192236
24.8620803603319
21.1858360739845
15.9455229869929
10.6791383650201
6.49687023612652
3.01003441499075
-1.17046579080103
-6.70275474088461
-12.8024891787078
-18.4213319873609
-23.4384560838838
-28.2917251288668
-32.9899093781345
-36.9518756546617
-39.4967457310396
-40.187145434785
-38.9570804629096
-36.1550728989637
-32.3160707454636
-27.7290670214869
-22.2954112647678
-15.9301814575213
-9.10443000118519
-2.84821347443553
1.94770945909368
5.25415985029603
7.90501624132735
10.9352465972113
14.7954989103791
18.7847527798728
21.0536073206867
19.6608255941216
14.2893118382935
6.96550753887832
0.71187638801696
-2.63563205156134
-3.30649622141213
-2.72484433733184
-2.13149499701925
-1.77566340715237
-0.976768083361747
1.07029251912759
4.49987239776895
8.98483740771461
14.6841698719708
22.3236727958373
31.7333109910182
40.4902016780068
44.7899766252927
42.272521029357
34.0175727424497
23.5366954954431
13.8716415611466
5.83915312546837
-1.31887410247085
-8.36648905607452
-15.2209393899543
-20.9470618024145
-24.3136986799742
-24.7976371960059
-23.2106590337033
-20.9904509973991
-18.8293049033182
-16.3212256445346
-12.8779705246763
-8.55912724515999
-3.93347726670012
0.605160877839421
5.27255491262009
10.5813942718584
16.3288127097503
20.887167990945
22.0420857455382
18.8928764970845
12.5476661188242
4.58408093645001
-4.69936161299209
-15.795017020476
-27.9200628069363
-38.3864912911168
-44.6374021669495
-46.5472344227112
-46.1065214296351
-45.035006849636
-43.3078276413944
-39.7841632385774
-33.4534739813404
-24.1478707409899
-12.9238181031591
-1.83105070922093
7.47074722819647
15.026955692842
22.048829471991
29.2122972236122
36.0808633165067
42.014312309455
46.87267522459
50.6668412382672
53.0070691873707
53.2263652797597
51.0459541066938
47.0358476738661
42.3064526805839
37.7169937994029
33.4844338962471
29.4553320476972
25.3794881004498
20.8178941173911
15.1551047861576
8.02883381064853
-0.225381117867555
-8.54667877173318
-15.5731743080494
-20.3722736904537
-23.0214308921438
-24.3407692526224
-24.9438695152139
-24.9376418112071
-24.8443829168289
-26.2912113562837
-30.9464552426871
-38.5066208582825
-46.0573563854851
-49.9187425581552
-48.5862154819455
-44.0397005621853
-39.9022843940955
-38.0102547983881
-36.8537055885323
-33.4864118553056
-26.6907374333839
-17.9627949733024
-9.59273363977941
-2.32639698418331
4.7724707962389
12.4082191023751
19.6585019002699
24.9021865338777
27.809835985016
29.7872748810551
32.4001400792305
35.7895433204725
38.7201785909513
39.8631342530105
38.9078786735107
36.550070939395
33.4731009343895
29.457833505268
23.700445946443
15.9613869452897
7.06374195212882
-1.87050955183661
-10.4109988958019
-18.7805252459011
-26.799231380282
-33.0461961567012
-35.4991434313359
-33.3771878714843
-28.0739631863143
-21.7320527104328
-15.1787705737022
-8.03626797089486
-0.671518198712671
5.04140120322786
7.36653774107822
6.6925543107781
5.52160933991127
6.45884030279667
10.1718493490125
15.2010154456258
19.5004319146039
21.802759297641
21.6616797503129
19.0860486616302
14.7053321673676
9.79529429836632
5.52736815234669
2.30647601585875
0.0018060056435301
-1.56932835064907
-2.66890819119205
-3.83588477956054
-5.69843452473854
-8.52147589825564
-11.8653804054177
-14.5995267661169
-15.4321203647107
-13.7465783001909
-10.0498303978686
-5.5967104161235
-1.55891280371305
1.62367070640873
4.39756067433015
7.64884590055123
11.7652275246157
15.8914068248534
18.209072867832
17.1878482388405
12.7943208947366
6.68428415018686
1.2342820008979
-1.85747063834213
-2.35823811416147
-1.19937053137869
0.457739179951885
1.98466712697478
3.3903131898825
4.74863913051847
5.51428785141565
4.66665492363616
1.8353185426274
-1.88335337498757
-4.62328565159373
-5.31257713692539
-4.45613682339272
-3.5805684183779
-4.11303792222257
-6.61288735496641
-10.8169629494484
-16.2812321608238
-22.6791208281324
-29.2392486640978
-34.3200367596793
-36.2631230312852
-34.7603893688087
-31.0097397504667
-26.5414767817743
-22.1513598949773
-17.7230171543519
-12.5377478932277
-5.79225839046852
2.61002112004051
11.5084801366896
18.9897870159495
23.7656015487518
26.1546391469805
27.6368687882499
29.2909240380941
30.5932774757832
29.7976526054144
25.4983976704633
17.8662945356685
8.66979085755745
0.339578795164291
-5.30787868377304
-7.97928596712396
-8.691132462182
-8.55741211402478
-7.87718544421345
-6.42873124318346
-4.29183919129614
-2.01928979485271
-0.0333644463322644
1.90652198293104
4.45463326859347
7.84267384729889
11.4483269081046
14.3945349524763
16.367019394909
17.4085625754069
17.0688890519034
14.4934475520428
9.66456533881077
4.10879933592424
-0.135568249642866
-2.36391472125653
-3.87533399135112
-6.57705083675993
-10.8139469064842
-14.7952569375436
-16.3817338590074
-15.1537299246349
-12.3354683443337
-9.05154104459251
-5.43357767315227
-1.41511565970622
2.43567645447372
5.32644770348773
7.18991128054199
8.92179811723983
11.615487907329
15.4399204504315
19.1687538133657
20.9363273310597
19.6516991907692
15.8314348059266
11.2012173139266
7.43977404611024
5.01799766994039
3.06034222013728
0.289859148994367
-4.03324593533064
-10.0377370292935
-17.4135342229094
-25.0311378707625
-30.7755678515675
-32.7339688971704
-30.9429164365845
-27.595612598185
-25.0867112234665
-23.7528086778016
-21.7288835892997
-17.2311362574829
-10.8081968644637
-4.89190269400102
-1.08727488057956
1.55427266697123
5.23028528029305
10.6660639617283
16.0769510412208
18.7903674314078
17.6918502888034
14.0901753238473
10.3621116965135
7.92212746550092
6.53208423531246
5.2463283156589
3.52001145744266
1.34155296802994
-1.2923517419724
-4.74111242971729
-9.44645605980722
-15.003174005311
-19.4804023817047
-20.3492087597571
-16.6594954264515
-10.0525234497587
-3.28293473329089
2.05118027340805
6.26181690455375
10.6267881666775
16.0609984037884
22.4209821645296
28.7045212326134
33.7338714495326
36.5658080626825
36.5303542677422
33.5280600450919
28.4958283926336
23.0801672128303
18.5207801505643
15.0359302032546
12.2631106173769
9.80784937023082
7.12084305240444
3.18623126493632
-3.19164920301908
-12.5700841072384
-24.252442980952
-36.358216823486
-46.4350452650659
-52.2500904463726
-52.5574937149528
-47.6217831450071
-39.1020149415459
-29.2172217679964
-19.8309317370527
-12.0401780751228
-5.95383228305821
-0.376837748037401
6.73256881852542
16.4996941292111
27.6524721696168
37.1538644717311
42.1757334421759
41.283582153192
34.4129077583778
22.6536542048364
8.14047927541522
-6.34053525766267
-18.0191330010797
-24.9482638012189
-26.8830013872952
-25.4854113682726
-23.0581689141037
-20.7226379437172
-18.0165284916611
-14.1540407644855
-9.11046389240025
-3.42862983011648
2.27231453081405
7.13536402961199
10.0289377021709
10.4939289541216
9.63059128465559
9.36104623176685
10.6094271901763
12.5153790238724
13.4834628932008
12.7213405999329
10.7559880580471
8.83193148106908
7.99459269679982
8.49732358647988
9.81473562794218
11.229170064201
12.3698518506601
12.9764246240252
12.2993450567222
9.45320223893517
4.85442776165065
0.929719811074582
0.508261870434468
3.92881030014052
7.98380611030828
8.52625458807129
4.45537378393305
-1.41159932495182
-5.69067160991584
-7.86898194592796
-9.85698281272686
-13.0159343032532
-16.7095131461597
-19.3708732823569
-19.9201452763101
-18.2221960815619
-15.0620451211844
-11.8461161744329
-9.76312216580604
-8.94180673364976
-8.46025791572569
-7.11877057918771
-4.2848138890194
-0.365319324546785
3.40097075393005
5.97001749439002
7.59204216214571
9.63363316815149
12.9309821198984
16.4253682792487
17.8262032823436
15.6595500373402
10.342671733483
3.27473805187205
-4.52369516752384
-12.5106346770627
-19.9064289925881
-25.6352820104837
-28.9964365960507
-30.0111469874856
-29.2062685248072
-27.3312243816901
-24.9386966002473
-21.7389056037235
-16.6262025100298
-8.90261877572798
0.640164741151152
10.2834560985239
18.8583723155544
26.1822693265846
32.0892214020262
35.5802564360395
35.2883489385418
30.7399629137245
23.0373514857547
14.3141750160283
6.55775461854817
0.759425101912719
-3.22392078514409
-6.17253949716053
-8.57620313996998
-9.9660862441397
-9.37987170609762
-6.60651202915679
-2.67394578498893
0.999820328766875
3.66115414620065
5.51270788481931
7.48859910796521
10.7768601289461
15.9052453863928
21.9232220667719
26.7669111288225
28.6542367509232
27.113801963998
22.9855635163052
17.8947640614077
13.5506083778878
10.926091627792
9.78531534925884
8.92925256715385
6.84920729756998
2.45989970461496
-4.19197247681609
-11.7676201687538
-18.474173370311
-23.1945365851575
-25.8527436460911
-27.0972063061728
-27.9151667911476
-29.0424949501327
-30.0527198369811
-29.2141793396137
-25.1114065078368
-18.7538269668465
-13.4352147040145
-11.7406756139998
-12.7907432290485
-13.0848678334983
-10.1367482511077
-4.7642598384649
0.161565734579363
2.49908894370014
2.23903655498676
0.908968895490172
0.0378657566083781
-0.0899899545619472
-0.356248828098888
-1.40273063014889
-2.64266263635892
-3.21992941968274
-3.6453925183899
-5.4827526392774
-9.14288673324008
-12.7468185636221
-13.6398801995709
-10.6560498373527
-4.72032422277342
2.19887679048609
8.30497043699185
12.5576414159805
14.792667512918
15.663895925474
16.3597324160788
17.9248839520393
20.4870898297742
23.1602472268223
24.8142815386526
24.8546962044481
23.3100583267737
20.5645937601326
17.2432234061306
14.1370016774441
11.9420711989136
10.8648864897539
10.2674108994495
8.82126658471638
5.62994917798946
1.50406512150097
-1.40328845012355
-1.75127703217744
-0.576903177931115
-0.330812880433938
-2.50447809968983
-6.49464960308306
-10.5823146870214
-13.5015703076162
-14.980555759641
-15.3715840720251
-15.3380096235863
-15.6214484962148
-16.2932830986189
-16.0769105813303
-13.2283239912407
-7.73285731599481
-2.24874085944028
-0.157070580591548
-2.49374763149504
-6.87008668271713
-9.33191202524108
-7.47241173398356
-2.2853241560678
2.8330624946832
5.20506891057241
5.12384648043181
4.92677297776532
6.16278545955496
8.19943022300144
9.50970322918225
9.59194676174839
9.11948690616335
8.45723887261477
6.78777971598874
3.21247017833568
-1.59903781401859
-5.58567127198541
-7.24493998563741
-6.9333916045752
-6.16847550276515
-6.1266709328632
-6.90438959261816
-7.73920863533486
-7.65407946786404
-6.04709879796812
-2.91522177852653
1.18099029366672
5.1250799823638
7.56201876378742
7.9664785235385
7.57248329914019
8.64771294555153
12.3952683007084
17.6174701791103
21.4492812866796
21.3831294109313
17.019549310778
10.3088763906789
3.90191086803356
-1.01140689716141
-5.03782654476745
-8.89224994429678
-12.2279667656705
-14.5458910911767
-16.5274994332901
-19.6756773693088
-24.6776640665321
-30.4686902716534
-34.9977172442869
-36.8828640446491
-36.2458252843154
-33.8606686495964
-29.8130527275634
-23.6182441120985
-15.6630004162629
-7.67012082272339
-1.14243324568343
4.16454222916204
9.48882941259726
15.0288798836249
19.6058967638083
22.578971531716
25.1245436435904
28.718755752557
32.7454507822077
34.6221825380561
32.5208712839524
27.4656996426091
22.5989126846944
20.6762011589074
22.2090834132756
25.5134612854147
28.2309970632952
28.9191348022956
27.4794713961038
24.5238102476258
20.8598497345287
17.5645392776002
15.7909228156618
15.8339824268649
16.3739436321455
14.8939587524149
9.17208649397355
-1.04622552536733
-13.4693673128317
-24.7349812439464
-33.0268961814482
-39.1963130983666
-45.1174242488004
-51.2062629472575
-55.824937325167
-56.99308369604
-54.539637569087
-50.5100905097379
-47.1805625318357
-44.5601439078494
-40.2997610300959
-32.301241119995
-20.9054652542278
-8.32159443880531
3.27243976118587
12.558363456606
18.9287852131814
22.6640471268965
25.2075568431696
28.3983776189596
32.8582924266224
37.1828004595759
39.1096881569922
37.7870546653233
34.7322916199831
32.1776721921118
30.5785525528975
28.2681186114477
23.5765962468227
16.6863737341294
9.17899100677247
2.27265769740554
-4.05996698090666
-10.4190114071381
-16.8321546166572
-22.4293038701152
-26.1493585742793
-27.6036702744993
-27.2135269962556
-25.6371472127629
-23.1600367477882
-19.5914809797164
-14.678016553225
-8.56513153163723
-1.78457692253286
5.18077834412651
12.1304358365425
18.8260034711634
24.5118855864853
27.9058192325628
27.9084181395575
24.6566733124514
19.9007495494566
15.8915253724244
13.6166449870048
12.3624345840742
10.9873632178511
8.99404364842834
6.20852992663364
2.42076740444395
-1.80213770403967
-4.65076147838317
-4.85304423520716
-4.17090898003949
-6.96038446337066
-16.2713259940642
-30.561482382699
-44.7274497991578
-54.1385423864007
-57.3033161839925
-55.2038677931347
-49.3206714129193
-40.8140867602113
-30.7605893896019
-20.1066364275644
-9.29403920729073
1.64493090139435
12.62714263818
23.3110697313716
33.1140932597323
41.2855458497136
47.2318463631128
50.8359656644772
52.1813308915511
51.1005565889343
47.51563788004
42.2031661800705
36.6612318884074
31.9710761644278
27.9457146751916
23.4550755464431
17.5833037318095
10.5990433614146
3.80585458123978
-1.70566607872203
-6.1382341246533
-10.7318056861311
-16.517312832654
-23.3454354116743
-29.9244298120815
-34.7210462917527
-37.0369710047314
-37.3845761003219
-36.8163986423344
-35.8638469453921
-34.0241177244953
-30.0994285035627
-23.1657816531876
-13.7046487003788
-3.95795672283134
3.27438471202139
6.53867264459797
6.39740321774216
4.5067440217498
2.68375636677513
2.70478903391962
5.79092041969342
11.3958891597052
16.7473670501425
18.3404688003021
14.5178438075338
6.97137341258063
-0.283677071068808
-3.73975212147334
-2.6198162517534
1.14559922359376
4.51644600628803
5.05433159009179
2.20754294352709
-2.25209510185779
-5.52487021700215
-6.28852471987841
-5.87786465716992
-6.6770546414971
-9.54830614328905
-13.0515205468827
-14.8578045542493
-13.5877285017092
-9.51805683534715
-4.08408684874186
0.998315145685731
4.42406672122902
5.79568957565098
5.76794275013732
5.36702700481924
4.83672770599065
3.49670378048545
1.16098412196204
-0.715678330575565
-0.0264892761531934
3.94237618073885
9.99474739978596
16.3922104700988
22.0778219800471
26.4638067315667
28.6580498508957
27.5934038130376
23.187726459192
17.1134591493495
11.8893584146829
8.96801017136089
7.81917497016722
6.79221222256062
4.58994315486466
1.08309497509261
-2.73183011591549
-5.38340474816701
-5.8537529099112
-4.18801923452877
-1.46137292354332
0.630794734802796
0.458132990020898
-2.5537163273404
-7.44355669759855
-12.6055399312994
-17.1391555416804
-21.0065144975506
-24.1971930908108
-26.3929444540926
-27.3270186655828
-26.8595112536331
-24.6881484528494
-20.4551020049861
-14.2492826361174
-6.81994902950027
0.644306091602938
6.83365308527391
10.6703353318135
11.7246311840579
10.4089306547895
7.72584713468536
4.73331390013797
2.08039405243575
-0.0631083460477897
-1.68449681340153
-2.66774676130514
-2.84465030821001
-2.02891149304223
0.0207217620107762
3.28070192083409
7.08973499271246
10.5636932163744
13.2959347907018
14.9821794822267
14.5030252129795
10.4607470181654
2.98658468119079
-5.75751379773606
-13.2603109826618
-18.3175538671788
-20.8369268122267
-20.7179246933501
-17.6508228368465
-12.1050411336536
-6.0634157428083
-2.04883369130484
-0.91468570096157
-0.808299677357329
1.13610038466094
5.96790287134154
11.9295997532343
16.1047960128456
16.831541418638
14.8407139663201
12.585666487421
12.4305764764402
14.9725085306141
18.7800044007053
21.716938162862
22.5929860298428
21.7582938295411
20.3181362017045
18.7194069833503
16.0970940967631
11.2904334013317
4.49957887567968
-2.55422711236569
-8.20979002502829
-12.0286866097465
-14.1836109339839
-14.3899632113272
-12.1468034628836
-7.92043677935492
-3.43990412322152
-0.407424538875022
0.887827509882795
1.31182240306501
1.50461693176682
1.42045342712789
1.10094791677105
0.863592402383968
0.355783493951442
-1.66612068877465
-5.92447660497816
-11.4519525095874
-16.4006029641345
-19.8616903904286
-22.6291671873909
-26.2818119777066
-31.5843343049929
-37.612805429076
-42.3366025460882
-44.0814946238401
-42.4302837540539
-37.8496113757577
-30.9024541742589
-22.1652876444119
-12.6530566241269
-3.7799730626776
3.33540518088428
8.52656626817637
12.6562950501092
17.1233111418594
23.0085658244145
30.1471053441855
36.7191240913694
40.0847499401085
38.6853248828682
33.3522297550815
26.5104711619441
20.12817094636
14.7495459929978
10.2899842358366
7.04332957845114
5.67054171928375
6.51440272138031
8.98219946124293
11.4971716950281
12.4465656360958
11.6270093241592
10.5042898222341
10.6318922718886
12.026139731887
13.4239815780701
13.8413949066514
13.407500772565
12.7514614051481
12.0661473232804
11.1096530975689
9.99416149513109
9.48478130557923
10.1759217964315
11.516657469784
11.923280524861
9.83728339332881
4.7222434613016
-2.46680752407613
-9.42515077499355
-13.6113984314282
-14.0713886011779
-12.3626189522031
-11.3465850839034
-12.8483038870046
-16.3188456594926
-19.4458973320417
-19.9316920123443
-16.9327003237418
-11.1762229624385
-4.19398018923524
2.10988358743263
5.48418947404143
4.0429629816725
-2.4641218830764
-12.5764985156636
-24.6767125098003
-38.0619927323007
-51.937400360928
-63.8427253747452
-70.1915062691362
-69.0559499655078
-62.1965303462555
-53.6023655489088
-45.7314982058522
-37.644417275074
-26.9531982991311
-12.6793421790358
4.32451188090561
22.5254454964095
39.8418143987172
53.227958830007
59.8986177036457
59.5537343658316
54.7534596001659
48.8445958844227
43.7828214756127
39.6549415288279
35.4504001887803
30.0005022360509
22.7610726079835
14.4098988508365
6.83756450957269
2.09338641425782
0.845479677404581
1.90153165064972
3.45499069614286
4.58633834701721
5.33779104248095
5.84860081234294
6.06921947129868
6.1171104103065
6.30020687324374
6.68900111063872
6.88743577900673
6.30085797234866
4.71712963269227
2.70213667136984
1.21213690530659
0.696398532355359
0.904633756616599
1.63509424606987
3.04476831921096
4.92487465252917
6.30200560200013
6.240174392643
4.64680527144
1.92560930765501
-1.77385983999564
-6.4605664394063
-11.5568000033473
-15.7259401580109
-17.7756798560851
-17.7107979313172
-16.6793438488863
-15.841746436932
-15.4811320131185
-15.1663222113296
-14.2967252740291
-12.2506712553676
-8.5229183996565
-3.26758021091407
2.50640116020177
7.61807208019321
11.2482384392394
12.4889926119308
10.0323750230898
3.23988787248422
-6.46480389521516
-15.9413876232833
-22.472198543955
-25.5237783194023
-26.3696296825635
-26.2356632722576
-25.1428897596715
-22.4318827885805
-17.7153861661509
-10.9158673162073
-2.02614189380374
8.24799279325043
17.7626471977318
23.8308632231846
25.317921307573
23.5459947489146
20.878396739918
18.5950974157203
16.2979190949331
13.0434630917026
8.45645887297677
2.68977625429028
-3.90726391134078
-10.4491877261188
-15.3490380926749
-17.3624178924968
-16.7620886305138
-14.8953289163705
-12.6066919959635
-9.58254275960664
-5.22659398189604
0.285345593672642
5.93357684865003
10.5793646874571
13.6589921975348
15.2300376943132
15.4816199316375
14.538370559481
12.8818043353896
11.4447611740539
10.8231873465017
10.7730948462698
10.9006388085654
11.3472960528937
12.239875766599
12.9216713956165
12.4234163239849
10.5671996881698
8.16629130384125
6.15723627742792
4.66352719808896
2.78112453471565
-0.699542359506825
-6.04749524043647
-11.8885084040793
-15.8561105863548
-16.1634097063359
-12.839513184773
-7.69220535272363
-3.02348133326663
-0.11899248266586
1.23139983409531
1.93745858632038
2.52049253136393
2.77192275840743
2.29570934698368
1.25428009162442
0.420934544503351
0.289419985547794
0.196097098765944
-1.29782470356647
-4.91526595601433
-9.60855698830338
-13.0195126171043
-13.0687317406601
-9.56032627142934
-4.61078929460654
-1.14355231400648
-0.484292574690188
-1.69671067708911
-3.49987719504539
-6.08115197486672
-10.3548873913132
-16.0648121306687
-21.5206449308929
-25.0153644466203
-25.888942436377
-24.3633672107748
-20.9672677249652
-16.3163789217031
-11.103554535782
-5.82788919062043
-0.379849172373418
5.72887547335301
12.3225700163556
18.0325127078897
21.3735462081021
22.252178265363
21.9660832875422
21.8652770689067
22.3944572936191
23.1716878938207
23.4987065766304
22.8946106751423
21.4807765744933
19.8089901756119
18.1676455059821
16.1576791442975
13.0397788653194
8.44859506124122
2.81836467715889
-2.81396161720061
-7.56078182566033
-11.328986353546
-14.5078518044427
-16.9751433300948
-17.8699027273916
-16.6939921746642
-14.3461880176331
-12.5842274752856
-12.3595193042407
-12.8814847692771
-12.4829313464348
-10.2917177420523
-6.74561248277271
-2.52146905502606
2.36997635094724
7.98069434471901
13.4522297277783
17.4095450861585
19.278094183798
19.7485164315734
19.9675520105048
20.539735540016
21.1673267023654
20.9625906940207
19.1714126869066
15.7915938059823
11.5140420185664
7.04394189304596
2.46774742767428
-2.74971734439164
-9.03108677100171
-15.7991924628618
-21.5137376272911
-24.9063396267145
-26.1017780343718
-26.3413168288528
-26.8508470673089
-28.1782495254104
-30.1425031073996
-31.8627289410205
-32.0894717566359
-30.0858146965646
-26.196197273563
-21.3522511889611
-16.2101046376725
-10.8853156712946
-5.22231683147214
0.811186415558476
6.80899107885483
12.1018852441816
16.4580238785991
20.2822140326046
23.7329123036106
25.9726963355114
25.8187197285433
23.0937259384344
19.0982371978045
15.755608643471
14.2072611404471
14.0016788182529
13.6484894546486
12.0718676830379
9.45720767240635
6.76405632496431
4.75583531318338
3.51740099463493
2.54382405280867
1.20388973046434
-0.675603208604389
-2.69068027653825
-4.40227263833725
-5.80013329641331
-7.10797645498228
-8.36011407928298
-9.27924669680899
-9.34563720879543
-7.99551314332756
-5.16926662556577
-1.8013010765833
0.617283297957194
1.20524050031801
0.309533485036456
-0.952412014718434
-1.47636533795192
-0.592567295497718
1.86886392791693
5.67857925865314
10.2902484842662
14.7938195772496
18.0425348635139
19.2591743273265
18.6287974859017
17.1172736155937
15.6726810938891
14.6279517499334
13.6463697006204
11.9776714505883
8.84057432927155
3.86984627964385
-2.53205500150356
-9.17608621403302
-14.618180405419
-18.126477400659
-20.3265844797056
-22.8001313709298
-26.9590660811933
-33.108601688833
-40.0887425402195
-45.5562976289172
-47.0682750244558
-43.4850567343097
-35.5095679162356
-25.010365126296
-14.0682122450369
-4.43252220831057
2.92947415307967
8.39285779406548
13.725908371899
21.0062686573348
30.7489199880081
40.6712301551023
46.6222170051731
45.4795138507196
37.4977526099036
25.8354456565644
14.1111688659175
4.68663499509812
-1.40190331221315
-4.12624658222407
-4.52929145364981
-4.46208327414171
-5.46203822663106
-7.52312637229921
-9.02779516396395
-8.20513897345601
-4.84905841361489
-0.457808429682859
3.3081795398584
5.81263733554621
6.88391982529649
5.78865109404189
1.65900867719954
-4.97338655380577
-11.5971510187401
-15.1258061300229
-14.1494835569319
-9.93575959540316
-5.13547987172565
-1.37610633189711
1.88209832623246
6.20417471087556
12.1167087307122
18.2266497194011
22.317448714509
23.3678689038794
22.4671889795533
21.5034167861989
20.9576183532484
19.4209371459095
15.4208322572935
9.19803197512416
2.31418931795123
-4.11320981966347
-10.337745927958
-17.2844998846419
-25.2203681948826
-33.1458656859949
-39.422025932428
-42.8888467244484
-43.3013331066505
-41.0059223295941
-36.732146434311
-31.5822093092983
-26.4693544205211
-21.2621882090553
-14.9086028529047
-6.7211848797925
2.56798656560828
11.1381637050472
17.5209264938206
21.8258365563226
25.4009745045323
29.0315269362725
31.7751718751217
32.1545134520339
30.3481503755179
28.5064925010124
28.7279853620815
31.0356208456276
33.3426260396697
33.1528538267578
29.354875652912
22.6884909283861
14.7779909151141
6.9142936076522
-0.347721004957939
-6.94469347122422
-13.0555507799199
-18.8594004075153
-24.2167378495046
-28.7765299460737
-32.5449048460831
-35.8568321942953
-38.4252220768173
-38.9536606166814
-36.2766000088406
-30.610418736775
-23.2455312710463
-15.2572910633996
-6.94937004740067
1.54172922635831
9.50748507607532
15.760521747815
19.4548524692466
20.705234405844
20.3629313753881
19.3369320364106
18.225302627523
17.3229462484258
16.5936311174764
15.6325139743983
13.9679250829211
11.5968449233268
9.19711952791104
7.65770610690355
7.21177972655878
7.04862205261741
6.02291200370005
3.77965067555899
0.933449584829671
-1.79546595991551
-4.17567242209427
-6.15458745237555
-7.52083594707328
-8.23703470395123
-8.80158462521569
-9.859438915202
-11.4703808350314
-12.9682886790168
-13.5323958350105
-12.8248210157332
-11.2315936967452
-9.71283106161898
-9.3330018235316
-10.5033727585473
-12.3538378252394
-13.0735687514734
-11.3897734182261
-7.8025279730669
-4.03479072349385
-1.22878506213948
1.05781928331095
4.15531599685306
8.82832369533349
14.3033174269362
18.5217107844775
19.7484680080066
18.2461684477143
15.9457490677548
14.210252511032
12.5309694082074
9.8033721883615
6.12254434670151
2.51314815080694
-0.729138588549895
-4.4808755877462
-9.31910433795638
-14.1236626924207
-16.7541061522284
-16.2538748286625
-13.9439399406593
-11.8876075330093
-10.5338189069699
-8.53077543759188
-4.84513378879475
-0.284915159592119
3.43232734309102
5.52840789538627
6.57346086910562
7.48250526959805
8.7980959367563
10.9331827373601
14.4801251886367
19.7397062214248
25.8400408254524
30.5684616556778
31.4160430851727
27.0299246887954
17.9158874871999
6.11580174833093
-5.72733215541792
-15.5314611099677
-22.6138843869032
-27.4659469991674
-30.603259351672
-31.8195779289136
-30.7416637274114
-27.8110785245238
-24.1099535420125
-19.9599170621205
-14.2226388349445
-5.84948141298871
3.87515595721216
11.7646453625197
16.05426059995
18.3027999535424
20.8971729298271
23.4477489815697
23.1937501210006
18.8078482380935
12.2584963697993
6.4536542893053
2.19910306976398
-1.66535031514803
-5.75643262823014
-8.88578589514201
-9.51215571146117
-7.78439547187978
-5.5585824159026
-4.51742296812915
-4.76844804022534
-5.32415041772177
-5.40210557566765
-4.96102857586258
-4.35416380338619
-3.84373824238566
-3.35483430115914
-2.54200323663692
-1.15493857404288
0.61154788995114
2.13815380649216
2.7757542488401
2.39655961147198
1.6616421915418
1.44242245215805
1.74002890457942
1.55996499022753
0.200627960451582
-1.78070829806517
-3.33671798728402
-4.18951983547241
-4.71142498756111
-4.86944963967568
-3.9703063691881
-1.50138708529524
2.10835804345472
5.63121539074216
7.84336172977219
8.22641290538722
7.05154533511969
5.01910018690912
2.92081315977146
1.35676537253959
0.374929042269978
-0.562200093776961
-1.90003544389974
-3.25408308176304
-3.64400857567344
-2.53707217399164
-0.449902372795436
1.55789279209765
2.87233611137119
3.77900647872731
4.9621822407197
6.55760161818911
7.83153290831588
7.926475518372
6.75620494923865
4.98548041694656
3.31521774043636
1.93733638788808
0.434331857034043
-1.92621393256607
-5.47574001332624
-9.51310245814424
-12.5853941102107
-13.4970906459387
-11.9761360598254
-8.63065385157929
-4.64983168434272
-1.31264482266998
0.783051302977895
2.03581605521995
3.07662036751698
3.82306461584649
3.69666232050045
2.7190623534754
1.84590627816607
1.80101619723461
1.7770026051698
-0.0307590420672231
-4.19347949629062
-8.7508590698119
-10.7784006589153
-9.23476636702447
-5.77580557877056
-2.70517595872187
-0.590917092634289
1.8842548848653
6.04624278516104
11.5566645083981
16.6420881769438
19.8045582383069
20.9854205743919
20.8973445412034
19.7144385509067
17.0915702561947
13.249692475582
9.20830388065034
5.82036894974775
3.15892511440702
0.931752890236743
-1.09068502029906
-3.32378318594522
-6.65185519968171
-11.9977703949877
-19.4304548750651
-27.7168914141514
-34.8317070961098
-38.9740237042533
-39.2752442545535
-35.9788597920228
-30.2991147383767
-23.8766986897882
-17.8644282571279
-12.3597918023318
-6.68295004040911
-0.0079672312377115
8.16511240948554
17.5424659116021
26.6683720932519
33.3057046810717
35.6237326636774
33.3167507910564
27.8244813999805
21.4408445514466
15.7312202907718
10.4890341369874
4.49803532237909
-2.49138261421675
-8.93814761507999
-12.8838968979145
-13.682145649284
-12.0940305402419
-9.2033570092306
-5.66835031355116
-1.73281814393306
2.40573020494048
6.2777476237231
9.27727635703986
11.1956715211438
12.3752239105555
13.185524859062
13.6359197811758
13.6457065859204
13.3614796149666
12.9798219460988
12.4172532907041
11.2925897689776
9.23646207237514
6.26200415803853
2.76324927681568
-0.993678943694372
-5.16702957893298
-9.83497358039441
-14.5306225518016
-18.7807147874748
-22.7627280225364
-26.7326670315805
-29.9562765914427
-30.9066901484738
-28.6946581562291
-24.050328644547
-18.8460422525927
-14.6490139211933
-11.5186172240617
-8.16772448338876
-3.53012583510421
1.88746007237992
6.54197188251682
9.61025996705809
11.6889266848328
13.7374569252511
15.8718484372828
17.4320486196431
17.9168350254788
17.5029899807892
16.5965517332455
15.1406272471781
12.7487392402408
9.54085148107319
6.41529777701239
4.25317773411918
3.09151082018802
2.23628532421916
1.01677980971911
-0.594133855204005
-1.8767504578559
-1.87564362851316
-0.272301695114399
2.15244906116717
4.01324748105299
4.33045921932565
3.12582661109336
1.14852186309611
-0.932783542606404
-3.02583750850168
-5.27553017641569
-7.47631473347719
-9.17593010069701
-10.2044902128604
-10.591969715015
-9.99891067743741
-7.85893579584961
-4.37582876777912
-0.970907156344189
0.746603386958417
0.52404408539046
-0.233901983277221
0.0541856694424042
1.28372569580329
1.50025139737933
-1.09976556823608
-6.08376992585557
-11.0151343219095
-13.7013104089776
-13.8845480176429
-12.8167175603618
-11.6561406317256
-10.4987241679526
-8.81455650594481
-6.52123451210026
-4.21576933157838
-2.15404349004021
0.555558272988573
5.11984199023209
11.4193350150881
17.5925627943299
21.3684606175179
21.8022159623023
20.0059016613934
18.460986550406
19.3647722655447
23.067069397825
27.7124496790234
30.3977224274474
29.0787864766648
23.894176201624
16.8839176796242
10.3699743498646
5.49544810719439
1.96945090356439
-1.41375858459355
-6.11372403630242
-12.870614049738
-20.6920715319442
-27.127254502912
-30.1373716236767
-29.6110390047392
-26.7906351995763
-22.663872729402
-17.5514337125301
-12.0609285861987
-7.63809170641742
-5.74342488611328
-6.57727771072575
-8.78079987213754
-10.4493966223823
-10.4343502651605
-8.70195469328611
-5.74710547987754
-2.10463827228395
1.56535375428288
4.40098088368444
5.71675746955667
5.52630181606771
4.74194656168382
4.75376508721069
6.35461858244143
8.7688276981528
9.9345942800802
7.96665981385451
2.40975996034749
-5.50451502210396
-13.2343048070883
-17.8146195481265
-17.4130850076483
-12.6500384430448
-6.27124617572697
-1.27569367201899
0.858065552356683
0.63721824132993
-0.0805386301174612
0.925236180201547
5.1992865934832
12.5769057893402
20.7201226436557
26.1065600573283
26.3177974639395
21.8262180140621
15.5103268599133
10.3703134069261
7.68884399611736
6.96522040845316
6.96221403973605
6.72666798964571
6.07465684610809
5.34002850286491
4.5892798971186
3.2231864808582
0.567799285296071
-3.26109259872447
-7.27435033579716
-10.3198259139232
-11.8293809514786
-12.033514915148
-11.5903611231792
-11.0622615668228
-10.765574702573
-10.8723897229712
-11.2415459811067
-11.2267087913926
-10.1973909297888
-8.38012082745636
-6.78403159383326
-6.2002186025019
-6.55714338319383
-7.18471896331924
-7.32754427790202
-6.39903091515241
-4.10110231502648
-0.541078643576484
3.70945113411944
7.70178081802514
10.4711167432554
11.6062283711138
11.5484869868455
11.2481307382692
11.4936646671995
12.4914204337082
13.8507644637547
14.8847054272261
15.1403634895166
14.7331554425473
14.0078367729219
12.9515177877576
11.2287346521074
8.68345614244151
5.45324240624338
1.71555938671422
-2.27562421289355
-5.98656926236374
-8.85408300022655
-10.8156242072058
-12.3820891141468
-14.114410794836
-16.0600815698942
-17.6666919248847
-18.2303925894871
-17.4667645407121
-15.6482468944671
-13.1982452446966
-10.1956244053803
-6.29125673417139
-1.22079168353566
4.41749870259186
9.09221431670279
