0.915597181050404
0.99508247182399
1.06525408207462
1.00453017658361
0.847226735008218
0.683993696297944
0.533346638983107
0.346683771709751
0.0565943839662313
-0.34416633453831
-0.734156860727317
-0.95997927611075
-0.98921181354859
-0.86792195720011
-0.618400916498354
-0.302777188786074
-0.0513277994184787
0.0834166516754594
0.142916184842808
0.101463544225885
-0.0867216828251098
-0.301111765087989
-0.383318180146923
-0.388872669393629
-0.451037165075647
-0.522151997254433
-0.493981315178451
-0.396614069552399
-0.269718891537654
-0.0437031486479232
0.292384065542713
0.620672607298883
0.896834272811724
1.21012213595181
1.58192480588099
1.90598623913709
2.1134004957137
2.2167729079965
2.21455123087972
2.12739089903219
2.07528104883806
2.16384601067816
2.36075049920915
2.56709571154889
2.70171250933223
2.69453617887996
2.53549245076853
2.30999960404773
2.07119624724238
1.75364287585425
1.29736591897806
0.747550506379863
0.194212424473206
-0.273935978496833
-0.589650327920194
-0.793430288999315
-1.00913462446933
-1.25667727733152
-1.4426069668911
-1.56568820727595
-1.71731877291229
-1.8970638010054
-2.08007345784909
-2.39443306289757
-2.96266250434967
-3.67415145859645
-4.33759823617114
-4.89663665083143
-5.33457559533621
-5.58507299402456
-5.65281378890074
-5.60006433582105
-5.37354897485854
-4.87808733551942
-4.20473072244537
-3.54203828673703
-2.91185489067572
-2.24156382040221
-1.62369202247242
-1.2473111773278
-1.14035780990817
-1.18792201968638
-1.29571514699101
-1.35047135345729
-1.13913081404245
-0.467835846134064
0.681915517915573
2.12356225988848
3.53061058885452
4.6143183398559
5.31098208292676
5.70392756715915
5.7881353982842
5.50131845514732
4.95141628741406
4.39680473347967
4.01824899412932
3.83855130467898
3.76630683939508
3.623227577632
3.2807590990247
2.83305814734292
2.48407551731278
2.2931245332563
2.20127942166884
2.18839166432007
2.20586578902917
2.11186124493954
1.84665530560693
1.4982369754798
1.1016294015114
0.599155608827621
0.0421913469970585
-0.4305450230342
-0.835304147430524
-1.2901505554383
-1.71248139559098
-1.84450113256847
-1.59980043512533
-1.15867207252247
-0.725407925002159
-0.364103767807796
-0.0324861023236911
0.326899360983151
0.651233725709177
0.709485024136128
0.348432481172065
-0.243937422257134
-0.69619882616355
-0.822308984879752
-0.702042716409632
-0.501196266187897
-0.335282314198842
-0.230545143478765
-0.162423255016663
-0.165963972667985
-0.338070946299864
-0.684453449887171
-1.10637348843052
-1.57117077956525
-2.10513618714733
-2.62558577090623
-3.00601254054917
-3.24954847075667
-3.37508485233266
-3.28085458866631
-2.95531389579825
-2.60944118935974
-2.37575219717252
-2.12849635578043
-1.79568997858779
-1.57545301512885
-1.66229291013659
-1.98385276467657
-2.31960793559909
-2.48433610380319
-2.36394277827164
-1.97602741029228
-1.49290977159019
-1.042930545173
-0.584725451573578
-0.12724023356931
0.13201129760972
0.0877766151039203
-0.0641017546737633
-0.0734901263459461
0.102170241936127
0.388371525876147
0.755610718390472
1.21696675729283
1.78273031547097
2.43213530932999
3.08326116096854
3.6196468513826
3.92706847337558
3.88863300456131
3.49746257363928
3.03300691294006
2.88304256648158
3.07493192159706
3.21473960428023
2.96099159535827
2.32021878628951
1.48783506390431
0.682331412587429
0.0974658415035228
-0.243077517238297
-0.513743065710758
-0.799408988013781
-0.945556245470824
-0.826570165178397
-0.535332268922158
-0.189440327549294
0.212020313815931
0.646402265455249
1.01513394167759
1.2968679419613
1.53709310502676
1.67266967916026
1.59831574083287
1.40103137902348
1.30600865319264
1.40151242590739
1.57462070261111
1.66463881856756
1.57504956420942
1.30534324175722
0.922794086441976
0.4677402837339
-0.0600934336934511
-0.604215480858122
-1.08055093936574
-1.51229711416279
-1.95855557138751
-2.33239814584152
-2.48665624003036
-2.43661432572323
-2.33109315868557
-2.28396555646189
-2.34056428762956
-2.46568977543957
-2.50891133406042
-2.3757737789749
-2.23363874800737
-2.32287588901107
-2.61552043456832
-2.88055735785462
-2.97464362793132
-2.86922998772139
-2.55418836328664
-2.09436090645194
-1.61816023169499
-1.14116395446368
-0.583639079895779
-0.0108862138111473
0.364603172452694
0.463604083410124
0.418858637663389
0.367868255978884
0.368580542777961
0.489861026519646
0.777111181679184
1.15981050487072
1.54123875571353
1.90628149274584
2.25400934979009
2.54375841604203
2.75611775004327
2.8899857935243
2.89911533723256
2.71392645220525
2.2827459539514
1.5860872188661
0.725988483211158
-0.0442063059948456
-0.543831811376969
-0.855829468280782
-1.15835489885246
-1.48872252946624
-1.78381300576923
-1.98241446437
-2.01010473730645
-1.84616934279844
-1.60545218770374
-1.3627079440403
-1.00376389867546
-0.476179215761606
-0.006609137619187
0.179523859443528
0.15699279576208
0.111226389280667
0.0777865790539275
0.0548823842164926
0.151325619591545
0.458202425604199
0.946350187689132
1.57429346982834
2.3172734189824
3.054446724417
3.61398719493847
3.93918352046673
4.07096244404626
4.03809300153661
3.87912609493904
3.63412786668251
3.23331281666209
2.57928199523826
1.78420774693052
1.12660313362707
0.75716459833903
0.596498140625051
0.469806403648422
0.227257736952724
-0.175433621214686
-0.636072535181049
-1.01442131026264
-1.2588928473647
-1.36591288688691
-1.35394530859308
-1.36214481831395
-1.57428739102506
-1.97082068641895
-2.38236142857071
-2.79456988702443
-3.32372855503694
-3.92930378795066
-4.4367858628454
-4.76762186667308
-4.90309597194306
-4.76450234021727
-4.34747549034501
-3.8120824893706
-3.2771369188093
-2.69849432290013
-2.05030534461142
-1.43218267462296
-0.931631089819345
-0.572232623084574
-0.412503621073872
-0.484908613757541
-0.649965104151675
-0.720659604035169
-0.69287114093449
-0.667156965638942
-0.604611535098056
-0.315460002973294
0.333650621614284
1.22902768587553
1.9904589785944
2.23667079663435
1.95977531281525
1.53065157648661
1.30509402233352
1.374391809576
1.64312812569346
1.90485709116653
1.89856577458501
1.54246319682033
1.06015564579919
0.718284052100847
0.576605692732304
0.590573501744052
0.731339598457684
0.934271441654872
1.17872261901789
1.63057864693815
2.46446233447441
3.6044907859123
4.84027076330695
6.03855207514019
7.05268215691811
7.64862991665361
7.7258604907694
7.42102159688748
6.85493570352102
5.97878968644953
4.77969557890348
3.44487583491006
2.22520036474261
1.25897799672309
0.521982195087127
-0.174463984444276
-1.05068461045734
-2.08870623921487
-3.01286695301059
-3.63641590073319
-4.07219694050359
-4.53619807484459
-5.10056965925717
-5.67292111701791
-6.10939677002438
-6.36533608613625
-6.57077977521822
-6.87501135866578
-7.2419629279964
-7.51740291952719
-7.59202081382142
-7.34259435469316
-6.59378218192693
-5.34888288670166
-3.88428962039622
-2.45652553385359
-1.12980026363968
0.0143405223289773
0.787132579421204
1.11071679935492
1.07629423276279
0.755399037303354
0.171840800886965
-0.565382329136549
-1.27500652679498
-1.80149122126076
-2.03574137736321
-1.97610487616138
-1.80476278177271
-1.71696424572234
-1.64066133920912
-1.32142865581821
-0.696016166133065
0.0379700876765583
0.726810852525202
1.41656929137241
2.21689084867787
3.19031393853124
4.32191269186642
5.45603295356062
6.34268971639745
6.82423845568647
6.88448698842074
6.52532813279437
5.72593010075181
4.50319754159526
2.94615252430376
1.26151164591701
-0.222285370171613
-1.23161255491229
-1.69249518782317
-1.59757224048844
-0.902194732694915
0.274452512739347
1.55650375362875
2.62099694527875
3.42365311325824
4.02018837775314
4.40484882321276
4.58604528840906
4.58877956689438
4.39875611170937
4.11035641337883
3.99955873946967
4.2083335461595
4.49405440136653
4.48486247431423
4.02208933498011
3.12329081512625
1.84682469932612
0.362507655734222
-1.04391071593552
-2.17538590974452
-2.97732454912375
-3.36189403155186
-3.21208554130543
-2.61800601268309
-1.94106252875739
-1.61520669177215
-1.93457823834276
-2.92404562595175
-4.32462113540614
-5.75907400790708
-6.91320661522692
-7.55850205312575
-7.57941853391797
-7.07479427524673
-6.26087663487898
-5.21169705638581
-3.88359183353238
-2.42757714299602
-1.28573456987012
-0.920953204918878
-1.46654455600973
-2.49728146822507
-3.13330958084835
-2.65644450127969
-1.11175002970566
0.91850417507681
3.04169616825664
5.18784664126103
7.14197269680982
8.43456280115289
8.72178980895311
7.94879892419644
6.19476563835144
3.66443913698986
0.789257246226638
-1.92263126027701
-4.15769247063233
-5.83744858398156
-7.00369264836753
-7.78123899910503
-8.35566761432204
-8.88866602094505
-9.49006275784046
-10.2395137032476
-11.1347753300216
-12.0356942749445
-12.6788521486855
-12.6831307163973
-11.6296138878068
-9.32720774036925
-5.95655140480757
-1.84055101657008
2.7688048240628
7.54011483081783
11.8829773624148
15.0727625393118
16.5235251361902
16.0772300720571
14.2453005312022
12.0203551634357
10.177717309085
8.83520907928959
7.77794651456076
6.9219175243151
6.29669232520462
5.858552165044
5.48037572665669
4.9511242035201
4.01256501497066
2.61996781626493
1.09250696458973
-0.163130117883314
-0.932976866793533
-1.11921224246058
-0.686219138909551
0.150519292121785
0.958047279893817
1.49126975337244
1.87136036524805
2.27698062692145
2.6753723137878
2.9014162351825
2.79407385624914
2.28912632315333
1.60607714634398
1.26061235466862
1.64162509307446
2.6085067102657
3.62453861281825
4.20147988061109
4.17837770987678
3.69673878346159
2.94205714239165
1.89843908961067
0.457697831638671
-1.2636680795219
-2.94548628749107
-4.39644410960746
-5.63522240682329
-6.69175615242565
-7.57154956900644
-8.34596553091955
-9.07590532171147
-9.74406395295454
-10.3619114913546
-10.9573731369441
-11.4232242707997
-11.624599381266
-11.6357747392534
-11.6092437088592
-11.4948554668374
-11.1454632651613
-10.5594984080377
-9.75515069157922
-8.54465122498689
-6.68599219165616
-4.19113274305899
-1.36451246347676
1.35261776608595
3.54480272501519
5.05497991687308
6.14898321152398
7.27505878058065
8.597375293979
9.85712973776001
10.6204769061227
10.566512110695
9.6951911753115
8.39180788957902
7.16167744955408
6.23414857946551
5.52522945671768
4.92408994604032
4.44562584219953
4.15742584127356
4.09396217193548
4.20519414618448
4.35674419706786
4.43803179717193
4.40238270998504
4.1274578734169
3.41644995516693
2.26057400537331
0.88388494364375
-0.570830066478267
-2.13283869752731
-3.71908203540077
-5.07047151700683
-6.02967541974155
-6.63108946032903
-6.94704187190678
-7.06140625792738
-7.07708054169534
-6.94859413469836
-6.46897783608917
-5.59136275209257
-4.56779095883904
-3.62518237573312
-2.72355552339259
-1.75926169056029
-0.766909089954825
0.193366413788884
1.11617553565689
1.94504346000011
2.60380829449177
3.15706252005878
3.75016274445436
4.40279408902488
4.98358147697841
5.32420294455134
5.29426652617066
4.86281995848954
4.13468819049699
3.29267983038613
2.53713551809578
2.05235567403791
1.88423319188835
1.8696101722713
1.85132657136739
1.90812065188413
2.20939829001757
2.74863274299244
3.3584410693425
3.81752423099162
3.84357436916981
3.23929608660868
2.1549222778578
0.970437206262478
-0.0917709290828911
-0.986364006418614
-1.59137377907797
-1.78631942088741
-1.71616032886096
-1.67621225098069
-1.78540023779037
-1.96529696918867
-2.12021157488561
-2.16368575716697
-1.99861275957212
-1.61593453108071
-1.11225841653236
-0.579821502357843
-0.132561266604832
0.0031743552092246
-0.362455410747852
-1.18959218081347
-2.31592423198732
-3.61798140417696
-4.92689036722591
-5.97533281884589
-6.57286001938218
-6.69867616397936
-6.3929481492752
-5.72666564969335
-4.87813141668168
-4.07994268489321
-3.45429673167165
-2.9149216104339
-2.20523490995462
-1.13266466222394
0.123599509067229
1.08816569313264
1.5115237487322
1.62425773883355
1.75624785660789
1.97415067303452
2.21974367478626
2.51145670636693
2.87418213408913
3.28311584258983
3.71292799588316
4.06957217859296
4.12956766999507
3.70820816205444
2.81564196833098
1.5761574174504
0.157562443310682
-1.16331653298874
-2.10885426166668
-2.70051988579979
-3.26000384186193
-4.02271335357145
-4.91065389846038
-5.67414698664433
-6.03538475558226
-5.72861771635435
-4.64823183963696
-2.97928043884832
-1.08035352332916
0.700551410156599
2.08763747237638
2.94187673525533
3.33628447867598
3.48965482976433
3.65124252794416
4.05140255232828
4.77391913432907
5.60955285301922
6.22546834349006
6.52426838760312
6.67343135201457
6.81082101281851
6.87985035460554
6.69063801606494
6.06427831081111
5.06204774392546
4.07460588934871
3.45584421430026
3.12224084537994
2.7789492467389
2.40769698083495
2.21795818298501
2.28128426240971
2.53974728892435
3.00126139994736
3.59811004131861
3.99273546025685
3.80952741892835
2.95634030876887
1.5508213753636
-0.265354622527671
-2.24851996505235
-4.00780033635485
-5.25620472440933
-6.00420576354621
-6.4354339883881
-6.71856371954827
-6.95755914986765
-7.21664090599615
-7.57716236972402
-8.14996584259914
-8.95139009229148
-9.83256830414718
-10.6375596674955
-11.3101429164691
-11.7504105566279
-11.7748404708615
-11.3446557015395
-10.6309457200574
-9.78230816521798
-8.83758151736325
-7.84350436517769
-6.77933743742971
-5.39453245055732
-3.3941301008245
-0.787001452479454
2.08451328013715
4.78752529819003
7.03260242754359
8.81231276692568
10.3134358590598
11.5899922546491
12.4388524847293
12.7091236648845
12.5298965981551
12.0868143036769
11.4049149420224
10.5239082318417
9.67346572060264
9.10126827289095
8.8875188952839
9.00974184616006
9.38524031453016
9.79858153325642
9.9971747280503
9.87372930924958
9.39385579292664
8.44074107150205
6.92767505944203
4.97092357533889
2.80398188439229
0.594203233486791
-1.61377981873875
-3.86110685659599
-6.15649419648261
-8.33232221371628
-10.1201620246547
-11.4244140107859
-12.4059323281195
-13.2930733246801
-14.2114447357943
-15.0894667798236
-15.6081123086578
-15.4522959641572
-14.7643267208897
-14.0880760992881
-13.7292904980107
-13.4694935139196
-12.9803824456298
-12.1322240831848
-10.805623694048
-8.80072883214855
-6.09428510297517
-2.9520248218574
0.271855055019485
3.28262268431732
5.84593412026231
7.84260464149954
9.3108029235263
10.3379091891653
10.9886509493158
11.367789896525
11.5673171592846
11.5010635748822
10.9828168532637
9.99897626602831
8.75879108891525
7.52533960734416
6.51479708034604
5.83664683896062
5.41299765652745
5.06484293214482
4.71739647898176
4.4136872043775
4.1708776854036
3.93528878038056
3.59370564253925
2.97082265199217
1.97330416870265
0.777837505254142
-0.282981755302863
-1.0005410776602
-1.32667264837947
-1.28236435767288
-0.991661302997399
-0.592678852095556
0.0246081116911322
1.12083836177904
2.65727673067637
4.26337005124125
5.69304424428189
6.95754899138093
7.98525259319433
8.50553246783637
8.31957352364542
7.44458800972276
6.01602409948294
4.24278776201355
2.36919906266989
0.488459036619643
-1.5150910849357
-3.71122647892378
-5.95296450201306
-8.05598700988658
-9.9933250085459
-11.8570430620204
-13.7640660200709
-15.7947325945249
-17.9070094492193
-19.9280567760073
-21.6329900413135
-22.7304750416997
-22.8511884959488
-21.7735570804614
-19.6487548265668
-16.8567005782864
-13.6902812725892
-10.2420201341443
-6.46170139128582
-2.28581114625542
2.1405285595315
6.41932277611638
10.2712782194403
13.8385513607311
17.385402054179
20.8260257227497
23.7412680458902
25.6778263808699
26.2590909046606
25.2245678941102
22.5843936770164
18.685191338311
14.0889842865682
9.39914382312638
5.01745999845572
0.898197540089185
-3.30396561009454
-7.67013287556911
-11.7599631477724
-15.0566866206108
-17.4520486808794
-19.1281943102302
-20.1884275400908
-20.5710606164196
-20.1284279460535
-18.6758202612605
-16.1332406836095
-12.6719152410804
-8.6120042655079
-4.23452321334975
0.197628262825257
4.33332012543751
7.77271655953999
10.2376098159472
11.7945272896743
12.9602645969353
14.4053943652177
16.4093549892348
18.6813162445477
20.6783219349363
21.9232592702674
22.1440172280726
21.4229893296257
20.1663208685121
18.7055887526668
17.0384025394764
15.0801971005396
12.9051455500088
10.5774824415187
8.01109829407778
5.12942091068802
1.95169702005212
-1.49344318876229
-5.08700370060228
-8.44985480649061
-11.0913306820247
-12.7748340509534
-13.6553715843925
-14.147740494513
-14.7521082090509
-15.835228511738
-17.3885274851283
-19.0495073209697
-20.4029789741465
-21.1523556216652
-21.0549351306536
-19.9414002827176
-17.8446785391056
-14.9801773474773
-11.6444026623604
-8.22508466278091
-5.18365156216619
-2.87444415286082
-1.37236401408354
-0.465467227830723
0.175229272025736
0.698200989229525
0.95258979004116
0.844670011649842
0.727628336483245
1.11230573585673
2.01359118094684
2.8971293181187
3.24939107192316
2.96077213545455
2.2686189500541
1.57601963767104
1.22641815560409
1.31350402087998
1.80678786805958
2.77467378248148
4.18766593592624
5.60774766725128
6.48317358319147
6.74875178514659
6.82281512606471
7.05915212052119
7.47465206176295
7.91580613286789
8.20276011621187
8.18168678945546
7.86501453299622
7.44862704072684
7.0642710038087
6.64612544474007
6.10717918847868
5.47592536460028
4.8174181790532
4.15910745200654
3.49984147028914
2.82990947238285
2.1986702777731
1.75476373226362
1.61469252600277
1.74370130258212
2.05109751834415
2.45520532517338
2.75964227798894
2.6761947286839
2.08525763502638
1.09917674245536
-0.139767380399809
-1.50219045791692
-2.77020416826949
-3.75051354259238
-4.42749169244652
-4.82481752895725
-4.86111979471893
-4.48005157332853
-3.72942638903503
-2.6436887547667
-1.30541531981096
-0.0675093144995153
0.572552504491559
0.407682195624788
-0.337504495602091
-1.28047748452172
-2.12763704496919
-2.7273962516012
-3.0951978875467
-3.35943228952939
-3.54854322271077
-3.52145072774278
-3.23255828786751
-2.9557773741311
-3.13647932716532
-4.08876177899898
-5.84326269499598
-8.17461660840402
-10.7317030276434
-13.1214900708691
-14.8194327380972
-15.1406711435558
-13.581690226966
-10.2508098484112
-5.85672816534066
-1.31630155563975
2.59729703474455
5.45051521821337
7.19148695717528
7.94953390817585
7.82199391818087
6.9899338169116
5.89081646928002
5.02567952122995
4.71445219195503
5.16674329576904
6.44692700904126
8.10645160964203
9.18327300193539
8.88987157437809
7.19218875035109
4.71457445655613
2.35433256306425
0.901538959293373
0.560987979259776
0.721410722451461
0.486262605988559
-0.478953639918859
-1.74625420248409
-2.62942065527472
-2.68468546836015
-1.90756611595786
-0.737510101139438
0.178451605730537
0.376720037631664
-0.253091302876116
-1.54024162394612
-3.04151417697805
-4.08271588383663
-4.10260549187257
-3.04743175596102
-1.40313713400959
0.109188319833666
0.96854056806001
1.23812284508801
1.54334681926536
2.50434868795643
4.17629962845013
6.09178181855025
7.74151409995396
8.95272788704801
9.87790957338188
10.5779202076334
10.566289321754
9.01143968631654
5.61374014892853
1.10090991976988
-3.28371118202744
-6.54405187051009
-8.17246652277002
-8.13459560505109
-6.91133151541423
-5.30327055647123
-3.96533323466787
-3.16247756043543
-2.85902234667974
-2.79223085391261
-2.54477743609547
-1.87799740654732
-1.03978785112507
-0.554579990446535
-0.723157269143628
-1.4352862285969
-2.33636134203521
-3.0158234417222
-3.14780598323677
-2.63519906398229
-1.66989751765142
-0.658807706427054
-0.0412439279844364
-0.0679134276615176
-0.772036403177639
-2.19776267882105
-4.44361549458032
-7.29806246820527
-10.0829759236823
-12.1260365257446
-13.2039210526886
-13.3537547519519
-12.5245509336362
-10.6093565596328
-7.60271419282724
-3.63257893969582
0.951396849289565
5.52169706121062
9.41971691294133
12.2377255865353
13.7891811882806
14.0295983991564
13.1548188905973
11.5766211882105
9.69459518843901
7.82164680699649
6.27084992160849
5.29337431331377
4.9872437799579
5.4393154015047
6.79079842964219
8.90058469861152
11.0822540074626
12.4736206430225
12.6579702772853
11.8359176429895
10.5631152552927
9.42283999047799
8.71633226918425
8.2775172743503
7.65262385379121
6.49279836348737
4.74111309353797
2.55926669101819
0.201809067226414
-2.10673863600568
-4.29062406802117
-6.48157038574142
-8.99538522222087
-12.1227006298986
-15.7103241304952
-19.0482211431865
-21.5262634103087
-23.3454945911865
-25.1770438973627
-27.1643070676285
-28.6597344766937
-28.871536656731
-27.4031993722548
-24.2885023001646
-19.8690794043907
-14.583927357941
-8.70558915899153
-2.40151196634004
3.96004822141423
9.86975110792633
15.027553099004
19.267154641976
22.1671585885371
23.2392176424887
22.6459627359579
21.3085830926561
20.05249422498
18.866513489253
17.1372244319848
14.4252571346393
10.9140987219607
7.21286572598055
3.79849514213098
0.686538904906169
-2.31852367541303
-5.1585622668285
-7.43396923807882
-8.6872722944283
-8.6756395676172
-7.49524818288135
-5.55483483856298
-3.35496192475851
-1.2383448376816
0.657951777033116
2.3318170190452
3.85558316567528
5.22705909182424
6.21053397211097
6.44777741668024
5.72239316384182
4.05007526525668
1.70423704213584
-0.726392002138642
-2.6540524968043
-4.12140152687761
-5.79330003675822
-8.06142969671377
-10.4423057923635
-12.0646153370903
-12.4618824637196
-11.697539454437
-9.99546213896157
-7.52943015508705
-4.51102130744225
-1.32837945032038
1.47713950283966
3.49196626917274
4.77251710727444
5.77948248706531
6.85774307638697
7.9077237080024
8.65249571111107
9.08843286684248
9.62485108048453
10.8604796710445
13.0866776252444
15.8000486357677
17.8208736572176
18.1302574050845
16.592660512243
13.816402630354
10.4288286746935
6.58467339272921
2.17651106682403
-2.531807472057
-6.71657578285173
-9.69315988880321
-11.6200172668148
-13.1272797597073
-14.4293041517984
-15.3018556822061
-15.7926344472758
-16.367669508498
-17.3031458071505
-18.2680252233193
-18.4666611486923
-17.0489752387816
-13.6891905965805
-9.05519093345612
-4.48516659179788
-0.934334157760081
1.6759504469355
4.03071698977146
6.55587660267296
9.01032169379773
10.7113403491025
11.1090524134181
10.2840731904346
8.87434848042089
7.46182091958932
6.18804169244174
5.0000217216599
3.94205711368028
3.04234947083756
2.18701635129231
1.2912578074203
0.452401988814134
-0.168506916789363
-0.596586587222843
-1.2020326155268
-2.5430842842414
-4.86279449168804
-7.7402838377725
-10.3698374863871
-12.1217989160686
-12.7654269638331
-12.3714707774938
-11.1817559273452
-9.43235347164436
-7.21171633944427
-4.60264309854585
-1.87594320668543
0.67790170260648
2.98421720036214
5.01363476178076
6.5398047660006
7.30474094683014
7.29524512579501
6.73868207223046
6.0063371548649
5.54883939263489
5.65469141881703
6.20551307908737
6.88328607355946
7.62317689896479
8.64965653180879
10.084379109626
11.6852288694834
12.8973365116974
13.0585236457765
11.7693317409979
9.26166614306159
6.30285211384856
3.69532490315954
1.97551127297708
1.41085042040987
1.90276980540462
2.88801928565362
3.64360763626088
3.81814998636835
3.63397854921159
3.59082808996512
3.94124948984944
4.36928630726082
4.21627488017148
3.06467949125039
1.03977628647518
-1.37001834056732
-3.57322098506863
-5.10831960967744
-6.02597740089367
-7.00533848350954
-8.72113578335823
-11.1084912034319
-13.4921804860758
-15.2913171641629
-16.3516837734444
-16.7680238664335
-16.6440515726588
-16.0058160855584
-14.9554469698475
-14.0054840368641
-14.0468570069448
-15.6187556631038
-18.2538570564882
-20.7993334215202
-22.2182776319921
-21.7794013497962
-18.8239898493835
-13.0794639993384
-5.32378739741371
2.68983376209203
9.15595131769855
13.0406170604324
14.2723213262867
13.5519212621827
12.0759752827972
11.1746328922651
11.8091112012067
14.1201428543234
17.4414726860496
20.8372909611258
23.5857734119052
25.2149754588654
25.4575964276251
24.3993252976715
22.4327375799214
19.8900108579992
16.8992837350976
13.6227172429842
10.3767000811056
7.51535497592545
5.37334035922904
4.13730522610196
3.51370073674138
2.72383821389667
1.0501195262264
-1.78597208183569
-5.76168528904173
-10.5725005529412
-15.3688328052774
-19.0107107943104
-20.9866440108193
-21.8957523685828
-22.8177123781228
-24.3077740805756
-25.9698786265364
-26.7106488602538
-25.3807971342941
-21.5185864530206
-15.6631578849901
-8.85591995108068
-1.84531049929522
5.08013406391488
11.4969312055554
16.3498502443443
18.429013225162
17.5649084004064
15.1298590989418
13.0085262634511
12.1884051324984
12.5899619365956
13.8372186978213
15.5546732236769
17.122138617284
17.8446207618942
17.4877544482619
16.3443778715421
14.7761659881559
12.8088052781921
10.0658286145702
6.11039652402508
1.05143330720609
-4.27834667857049
-8.96524710025606
-12.670217175471
-15.4749110645229
-17.4091914716637
-18.4304466989905
-18.6203847262399
-18.1404968748114
-17.1512605067927
-15.8604426498536
-14.3826864900663
-12.4704424552997
-9.73615158017899
-6.36231936486677
-3.3866512185987
-2.07898653477425
-3.01032898349285
-5.59090526202667
-8.35358529604141
-9.85523334637079
-9.59196146802245
-8.0890234415897
-6.12075994360802
-4.03625217853784
-1.90962499237846
-0.0965650301213906
0.675717918053074
-0.0843110044428683
-1.99812924639816
-3.95951029394284
-4.93364089100973
-4.47357847128533
-2.58980047442972
0.381044320359164
3.63033525929888
6.1043140252655
7.25413103451708
7.41765996639321
7.40253319636476
7.89869653510723
9.18018232879149
11.0133460351876
12.8883305037343
14.577514053537
16.349789354753
18.4745109391258
20.6915510263238
22.2638154577807
22.3948841384947
20.7340841879
17.8773858772244
15.3010005988033
14.2838279554369
14.7453776784967
15.4016591954102
15.03723692026
13.3692792959592
10.7886152482589
7.60775808028029
3.63847977363043
-1.52644116838523
-7.73635052756654
-13.9092810307998
-18.7327645636324
-21.7070340593981
-23.2448678926872
-23.8502362605072
-23.5431605227698
-22.1166868004704
-19.7065079425832
-16.9614518738775
-14.6411276193548
-13.0486265242972
-11.860275771381
-10.4308484977277
-8.15660039713528
-4.71030253222463
-0.302078977077597
4.2149158331483
7.73431330971234
9.46527490105996
9.14975887140205
7.11653620773724
4.40748949936214
2.39355280814132
1.63996485812828
1.24477079886814
-0.218385045646827
-3.09331054651337
-6.33151513429427
-8.78006131389147
-10.3679571933848
-11.8369366564834
-13.6203775494771
-15.3797368918727
-16.6162450451984
-17.2600021006287
-17.2305349810808
-15.6701718705529
-11.4046460020294
-4.5288988809803
2.90523772173437
8.25971137060469
10.3860269628997
10.3346245268456
10.2093768086518
11.3635271389734
13.5129978691766
15.3989590284466
16.10860503914
15.6346603981839
14.4212602916486
12.817976725844
11.0082537433649
9.13575687180454
7.34691380266293
5.75159291962294
4.3075042527443
2.78554358959881
1.05230714635731
-0.593809317725308
-1.56655091584981
-1.54257193103068
-0.841639595694406
-0.300408719321487
-0.659328313009534
-1.80877171691856
-2.67992359749403
-2.20959086665498
-0.466388156218379
1.3984222055736
2.26899074494289
1.92428475283525
1.03273473551084
0.777656660858288
2.32397434120495
5.9187152625762
10.2407980893864
13.0687554160765
12.9896039811325
10.522360935395
7.58760671270671
5.85810571415958
5.47409978953686
5.23306257229847
3.92175238385751
1.3442733440932
-1.78507270931702
-4.52082387694946
-6.17568709953204
-6.55490757983273
-6.00874922197044
-5.22773415000604
-4.96123593006688
-5.83854198841213
-8.09778829198318
-11.2938701572212
-14.5308690089563
-17.1459267632353
-18.9936409833142
-20.1161753984365
-20.4808795236636
-20.055488030309
-18.8783103780548
-17.0774486323788
-14.9458951040366
-12.8092251451147
-10.673603753418
-8.21596550732107
-5.22415672648615
-1.81616854557997
1.79084415789175
5.37739155946819
8.53158035497188
10.782078762266
12.1413378949228
13.2908943421791
15.045031903758
17.6313418401239
20.416411648969
22.2853975784676
22.4373822412345
20.9114885296572
18.3586701264235
15.4962261033487
12.9018808043037
10.9870899220414
9.73735821989372
8.50502118501418
6.34369987672002
2.74175225110552
-1.84729037297557
-6.20828363250068
-9.30764286692878
-11.0857384739433
-12.0957744245385
-12.4745930781562
-11.7998003997096
-10.0097646453043
-7.87639968206761
-6.39529548128261
-6.1487030185758
-7.25169666295749
-9.28685353765638
-11.1348914967587
-11.4545692663241
-9.72586842821776
-6.68046895374439
-3.57792491144786
-1.12880392048667
0.92747264785085
3.34234746564801
6.4233145302637
9.4726637895567
11.2692481372943
11.2228975885821
9.89584308441691
8.25302205102455
6.60495777446763
4.56023094018736
1.98045512930783
-0.324096560068993
-1.12701942632519
-0.0350507495721761
1.96575614357841
3.25528076708728
2.74687697531508
0.41755518049158
-2.9357538954293
-6.28929019361298
-8.93157133550715
-10.6090382252886
-11.268374909465
-10.8857818650753
-9.63208331992738
-7.9362857650275
-6.20225700852278
-4.60006422864259
-3.10595759453872
-1.45216180852904
0.899677011368977
4.3021700851402
8.32054863934626
11.7801473844036
13.4528931342405
12.7870744095816
10.3310344903298
7.538877745349
5.75347353171448
5.16035848142313
4.94596313848557
4.4369455670911
3.68797074348885
2.98474785600154
2.29089550227013
1.32775884051662
-0.136724679798814
-2.11473057637751
-4.21601260417607
-5.66075068439496
-5.7309126725485
-4.24333451468915
-1.61635749537047
1.29060426002192
3.42652285130656
4.00698075915521
2.89551351953592
0.493869416579995
-2.60175686292786
-5.7475784879916
-8.35164141237638
-10.1009897409606
-11.0392713385939
-11.4008163516493
-11.4852963328183
-11.5919293532858
-11.8364301955748
-12.0225928092124
-11.7633771574207
-10.6694072135018
-8.49277299853242
-5.29044384189149
-1.39698521525729
2.87994313917374
7.30712655837925
11.3327259987212
14.0810886190844
15.1300680353762
15.0341861144918
14.7486041192184
14.7365986397508
14.8483298580298
14.7590592138695
14.2320137401963
13.1867060891109
11.7576702587243
10.140113517863
8.33217668235418
6.27242130215565
4.17816468332999
2.37101001194557
0.750815428596213
-1.19819804884227
-3.777907665323
-6.69052337632588
-9.42357029175027
-11.911567689882
-14.6005848532583
-17.7522716691205
-20.8533027906483
-22.9328799431142
-23.3583073754427
-22.1203409829626
-19.527128195508
-15.9150462853934
-11.5423676426207
-6.56071148526294
-1.21907718734228
3.89591667906052
8.1747524177047
11.5490031889103
14.2940818262511
16.301781608656
17.1179859488052
16.7256406136939
15.6953162854643
14.4327673592167
12.7324633895917
10.1707325383708
6.57903041796236
2.12565443799867
-2.61004255192961
-6.46838811214024
-8.00586011066267
-6.43334490592831
-2.43144103415978
2.0306619910207
4.8308899963968
4.84518564047275
2.30849486115683
-1.49580632935523
-4.73863628850801
-5.76011094463747
-3.99138214517118
-0.333284820622044
3.53427034666977
6.24924792386821
7.42548712710233
7.76373192758998
8.52636582575083
10.3106770623515
12.2224124862489
12.7489926593186
11.4308522953034
9.11396452842811
6.63615363422486
3.97403615863022
0.808735315906913
-2.63545592714343
-5.59245198821441
-7.41735490276306
-8.17493542670843
-8.61259581837016
-9.53294456013883
-11.2359272433259
-13.5303591456001
-15.926759047183
-17.5959876576826
-17.514653712424
-15.1477508075491
-11.0560791619805
-6.74296462428023
-3.92621958579294
-3.75955091891112
-6.29947023276397
-10.5207842906024
-14.9208375138254
-18.0446691399974
-18.5562492223841
-15.6146445941543
-9.88044570730302
-3.77709544372225
0.0287456986094223
0.585935461102655
-0.929028935194188
-2.38666497577375
-2.07332751089042
0.614074104937233
5.12435433927881
10.1438483844696
14.2483986407897
16.5412979253786
16.9097603464156
15.7354912399505
13.457050682348
10.5654125695598
7.83199271053802
6.01460196427451
5.19933813337689
4.82054632255002
4.4404898504593
4.1591845081373
4.2398520527108
4.75169681792113
5.6465516060594
6.83499788915232
8.10725358062535
9.20082424162479
9.98528670607333
10.5025269566646
10.9153752872432
11.4477308957859
12.150131735816
12.6361742027605
12.3185484877226
11.0370190637302
9.1933976059177
7.16073330716856
4.88658049183941
2.29401174654357
-0.155952832247733
-1.59959482342842
-1.52574760030822
-0.292121490039977
1.24300983252565
2.58997332690007
3.93826368840597
5.5725804221764
7.22607780372224
8.08099517309672
7.21525494849766
4.15042025889281
-0.651842229206929
-5.84829829617832
-10.1398358886871
-13.1783251875661
-15.3884079790504
-17.1665366367385
-18.6667623235013
-20.192281768932
-22.2911026037998
-25.3153611131899
-28.9980121793789
-32.5094954834252
-35.0043259197677
-36.2092885617638
-36.4269424607204
-35.9529026539828
-34.6810730972523
-32.3216747019933
-28.6908430196538
-23.5696879583709
-16.5510641199833
-7.44670318337014
3.11151976287331
13.7586806079628
23.2453085795931
31.0551395809911
37.0071069348955
40.4788927236132
40.6374083716244
37.6681431216368
33.1742167794132
28.8088096817325
24.9063119881403
20.9646894395082
16.948907179126
13.3502302436221
10.2932864185839
7.43067685034601
4.71061057816022
2.64801255164857
1.74161149211433
1.96639427806145
2.88246370945358
3.97836273037855
4.79162776679978
4.86553065287441
3.94211890337613
2.44043948067224
1.48400962190371
1.93677505611579
3.42142357677904
4.77100553368737
5.47489706050048
6.16411238545087
7.52440247080422
9.16464840730938
9.82334547978098
8.47286548828441
4.99429140799847
-0.0968211668485878
-6.2293876593874
-12.8554205546102
-19.1248481161211
-23.9760094781171
-26.8502974222466
-28.0925711146528
-28.3837569807906
-28.0241285707044
-27.0467455545323
-25.6721470426299
-24.1551679898957
-22.3500443200107
-19.9072316092911
-16.9353516136585
-14.1430356268808
-12.1376016672218
-10.6552858479495
-8.66812577728614
-5.3198054542879
-0.589632267639139
5.01521172569283
11.0135886778735
16.8986946674747
22.0033741984845
25.9823419887755
29.1446120399089
31.7770259153267
33.3839085951475
33.1037527711994
30.7456226093939
27.0943383016484
23.3115689919819
20.1478120080468
17.5448199221501
14.9578138689986
12.1623548598606
9.54009351102516
7.35524417912005
5.06102754096578
1.73751952849296
-2.90567408036345
-8.25449032611095
-13.3911890861716
-17.7734450158392
-21.481778043498
-24.9203941548341
-28.0928807324103
-30.1982976032442
-30.301066913804
-28.4311038744159
-25.5972687505584
-22.5291006640316
-18.7321926665529
-13.1538002590907
-5.80542457716812
1.56501150203604
6.74437749461619
9.02528794692033
9.6727372950291
10.4070594802482
11.7126171431383
12.6920685400238
12.2416307764795
10.2261874669228
7.74412583738482
6.34173561370422
6.79249832429068
8.5683360071414
10.4906423936251
11.7256489544653
12.1041333263137
11.7656090607484
10.7434432631103
8.91157445996154
6.33604921097567
3.62998118333783
1.73113670138991
1.20270723382917
1.88604834999889
3.20685270586407
4.46646268978137
4.76981436669907
3.19902481234843
-0.504103061879209
-5.58137026010254
-10.8112669002175
-15.3311357051263
-18.9148071949524
-21.6870818732737
-23.6345184206831
-24.2923129531389
-23.0222941133616
-19.7575025958998
-15.309863226121
-10.7065502982689
-6.28908696396026
-1.69306902330566
3.19928194341022
7.43779505444748
9.4423958135764
8.4472003934637
5.35263183440107
1.98611595129425
-0.29200493197003
-1.19553139951632
-1.24413604491623
-1.24491827813465
-1.63734248329371
-1.97322222425236
-1.31342827629273
0.73252146727475
3.80155732599624
7.62454227202053
12.3163739986165
17.4789074640386
21.6557140718825
23.2681126026259
21.9511122742385
18.7503924541061
15.2039223366947
12.3355078262222
10.2243515516286
8.29197959621063
6.11182545672228
4.0448516578257
2.97699187189982
3.3907925294392
4.82905411469592
6.30037836347701
6.97209314210407
6.26315085180508
3.55557785287963
-1.53137816075542
-8.38061775060503
-15.3698056917154
-20.9366705780013
-24.4074045492509
-25.7854602335034
-25.3379166149837
-23.6193415932035
-21.3084903491932
-18.6186342055085
-15.1949687371547
-10.8144230070207
-5.88953858733799
-1.17340333861092
2.72176898352773
5.42764859572471
6.72429442792575
6.50354612640764
4.80802652562028
1.93002627493345
-1.53860143724597
-4.84100768537456
-7.27918896151718
-8.40970105775933
-8.26565139105651
-7.4547368150349
-6.78234658571073
-6.56999197503621
-6.3899977265478
-5.48791686709658
-3.37590513372292
-0.13741779575742
3.55616580073174
6.73739638081432
8.73465097679212
9.60180161757053
10.0262406659087
11.0111740014794
13.5145389445377
17.7900847377071
22.8387319999129
26.9373514525491
28.9455468208125
28.8536531466565
27.1402002976036
24.1546930094873
20.293446999302
16.3155139576127
13.0607778323962
10.7761039801663
8.78777023309508
6.00208199147575
1.88987241002326
-3.06574298492694
-7.92783864185301
-12.1054862680452
-15.587069001797
-18.7722843658813
-22.1996027687575
-26.02397773962
-29.5736496814958
-31.7619266275701
-32.0620212111615
-30.7377379128561
-28.0399377339562
-23.6332110070577
-17.134929806841
-9.03490147429549
-0.843837045118447
5.64729475077987
9.2964879504617
10.1323867836492
9.27907664612323
8.38499225245913
8.80229555707958
10.7912124241375
13.1660308100144
13.873166408228
11.3476548324011
5.6149279277584
-1.68932167400198
-8.20212250522966
-12.0101027339687
-12.5868137027483
-10.890295481822
-8.4269484083512
-6.10684081510338
-3.91238531475738
-1.43042925928217
1.38302521259306
3.78097859053029
4.62010661474414
3.50579569346067
1.49229163176346
0.258299828118312
0.614337869825154
2.16816427581626
4.33327643991501
7.11752242365198
10.7118769058357
14.6233530063381
17.6119852268369
18.6042969521271
17.5056046498417
14.9795369750956
11.6398369533936
7.75922589701664
3.62087977944982
-0.298886993418287
-3.56477564527352
-5.87967358271555
-6.97796606674277
-6.8865978278996
-6.3855123144075
-6.70098024624679
-8.39313897139783
-10.6906732458687
-12.0536114303929
-11.3286878657054
-8.43925270698763
-4.21349842863048
0.219975490715248
3.76559832475322
5.3967983337017
4.56675716970518
1.90438781864277
-1.01789281301148
-3.09579144733502
-4.6011492833611
-6.38320326908654
-8.53997031914437
-10.2937313832743
-10.9886693981968
-10.8560889694448
-10.726893543954
-11.0039382034557
-10.9571709536608
-9.23728009770872
-5.19411227199104
0.455209141599365
6.27951082579222
11.2767138318921
15.4402962890422
19.441640488457
23.7103720919122
27.6344550690664
29.7877399750049
29.2245616763956
26.5441308184159
23.5060287785905
21.5737082531612
20.7881961409411
19.8301364209766
17.1175354508867
12.1111598069489
5.71633434826849
-0.628677801512441
-6.15778131835677
-11.0377610666194
-15.8056028503474
-20.8367759413671
-26.0778432866702
-30.9625223191404
-34.7266608546758
-37.0223443797653
-38.1714685663303
-38.7533009938362
-38.9288615886463
-38.026353526204
-34.7612886275827
-28.1604708017615
-18.4981077777427
-7.28815503267678
3.56267958182125
12.4774925169138
18.5141376108805
21.6393032846954
22.7949491463219
23.2798822295775
23.8396613538562
24.309532459567
23.923072516062
21.8210950054347
17.5006383028381
11.140762198732
3.65363359455708
-3.63265194807307
-9.5205226871936
-13.4149267964897
-15.3790484591017
-15.6786360230099
-14.2804073238808
-10.9316775329775
-5.71452968884113
0.654198154681701
7.03583736057709
12.252822608884
15.5323578972749
16.9786658292427
17.4835887408293
17.7927335099754
17.7575265131591
16.8520874311806
15.3084467906179
14.272209784718
14.6408394505569
15.9614873680074
16.7555892052272
15.9454294831573
13.7057293845537
10.8236417207709
7.61803613635047
3.86947845749164
-0.425674176395077
-4.6801047125139
-8.08449412883168
-10.2226771384232
-11.4901632428126
-12.900507189667
-15.1251866048662
-17.7125023843988
-19.6322683848645
-20.561841050296
-21.247281771711
-22.6415143294357
-25.0212633122164
-27.8480059498807
-30.165172872159
-31.2217364912905
-30.9668190244287
-29.8229153164286
-27.8379098693708
-24.3639315730006
-18.8151779084571
-11.4384360833091
-3.0778751681417
5.48105893783914
13.5569127798368
20.1746731688981
24.1421127783366
24.8713998975261
23.1919088854253
21.1216069653783
20.4569118140189
21.4204055045723
22.7749395948662
23.2451158540782
22.6912936037451
21.9722487668916
21.9280668285186
22.6072734095675
23.3545880364671
23.4233932104083
22.3323090125778
19.7709875126037
15.6364985052511
10.3943527081225
5.06612417604561
0.546690299822591
-2.95085927889149
-5.73123511095929
-8.14860764297177
-10.2776453262153
-11.7090672211211
-11.6737486876355
-9.73040818108035
-6.39935190821394
-2.87397957529149
-0.10497032413193
1.63669283272116
2.39351481419439
2.00187643379501
-0.0445797338283548
-4.27607111136721
-10.6420527092848
-18.1842351902732
-25.5119968783046
-31.5593649356474
-35.6352518172758
-37.0108318889316
-35.1574234462515
-30.5751222424753
-24.8979988578578
-19.7411276885307
-15.3827084886436
-10.693864510034
-4.51130217430721
2.85763420674112
9.59127508396547
13.8347184349724
15.0625029788801
14.0432309947862
11.9251110759122
9.59192161263488
7.55251849090667
6.02886083652025
5.07075660265315
4.6277728875223
4.54426362053229
4.60712716854606
4.66573017580227
4.65080184457001
4.54082715873208
4.42793268133168
4.46601673030766
4.56029154841834
4.34338339047284
3.83634323592594
3.9667244915789
5.87553941756755
9.60061468657275
13.862635371169
17.27592683002
19.3824549345925
20.362820374101
20.1848749669647
18.4420309312736
14.924732991238
10.0355263415491
4.57209621886905
-0.670981636824175
-4.97350310003922
-7.71790106853693
-8.75917640837194
-8.59937656988047
-7.77338433133163
-6.19065301716783
-3.52575564283236
-0.16690408142381
2.69718482130855
4.02596477892924
3.7631062155304
2.7727012901272
2.09393467159473
2.16594603659647
2.58828060448087
2.4913230703314
1.06543611089239
-2.01307157264203
-6.1716670985328
-9.95010036051481
-11.9986099401093
-12.2928871035279
-12.0035603445685
-12.1190538543554
-12.6385951250092
-13.1506281140875
-13.6312747427992
-14.3785655360838
-15.4628228342682
-16.4716717009515
-16.6720939914847
-15.4146639217118
-12.5994672953408
-8.81235710684856
-4.92177296934165
-1.55060609492957
1.13735791497637
3.43226517576652
5.98156583108611
9.40562402746844
13.6772799309154
17.8555299490464
20.6169205965226
21.2030624213589
19.8764060123281
17.4925512218132
14.8353032869147
12.4741014622353
10.868972960978
10.061826250811
9.35353714314735
7.82972484477803
5.27766834145241
2.25672483195307
-0.608470305320526
-3.04156105813848
-5.11793142684095
-7.40471981384474
-10.8967778830277
-16.2095407799464
-22.7271586215131
-28.7108417658677
-32.1634273968935
-31.6395277866802
-26.7490874741203
-18.406598813284
-8.65976650512611
-0.0038417610447618
5.60591403183771
7.66135173945522
7.33692097450865
6.58918889159816
6.71343215025126
7.75306621843315
9.15615462905376
10.5586211160978
11.8103280517545
12.6425427033034
12.641029049583
11.5506330271294
9.56169232810151
7.24717093032636
5.1280176868723
3.35239059527598
1.89263027028968
0.894977624985598
0.665979083722715
1.47681581983038
3.50289812089274
6.69978448057008
10.5713734870564
14.2916580557366
17.2003488616268
19.0522726142263
19.8557127865382
19.7076663112927
18.6683099438624
16.5329388307416
12.8708063346599
7.52432241157868
0.928319596990374
-6.1931144042265
-13.2302683224202
-19.6766973964362
-24.9408035475739
-28.3329417354854
-29.2371855965713
-27.4478656041771
-23.5615768681916
-18.935380156496
-14.9280010044143
-12.0349130025602
-9.77397958418167
-7.37046338816964
-4.60057422241333
-2.11246737074847
-0.835743357358175
-0.918220878658412
-1.47860058296923
-1.64491762402101
-1.45495902770624
-1.33256148894441
-1.11464313411715
-0.239831292247131
1.31938327487042
2.97746588995682
4.39877521826077
5.86764004263512
7.55812869705311
8.84822958551321
8.87737313887719
7.7865567580107
6.94256878113871
7.66366432428542
9.92364600259849
12.3959589044243
13.4438283594129
12.0774517404999
8.62017216727304
4.77701126311299
2.50305999349711
2.32537187139885
2.93996117350866
2.52793975474105
0.188092207437007
-3.7629903100809
-8.25869386597947
-12.1101616061796
-14.6818743095339
-16.2121959427819
-17.3491034703747
-18.4927912780302
-19.7536156389703
-21.1351397105771
-22.2814883358028
-22.2897134681463
-20.1908707551454
-15.500153967335
-8.19751927613259
1.38006828183715
12.2763514100323
22.859222097999
31.5416148650066
37.7247895061722
41.8391209008463
44.2161044345466
44.0330812265091
39.8411007401728
31.321397957182
20.1503992840747
8.89043135698656
-0.754485882362764
-8.60585096361767
-15.4292512483828
-21.8557262871445
-27.5839721197067
-31.5961753612047
-33.3127147729768
-33.3112672590936
-32.6365373002149
-31.6447560276272
-29.795048836829
-26.3410533819053
-21.0176181788262
-14.2637256800577
-6.86813307065669
0.810629539920848
9.13158397858972
18.211123939453
26.7759193696144
32.6219094517778
34.3682334357061
32.3897566006697
28.1742094073053
23.3953267635409
19.5470440155708
17.5436555311631
16.9851245547194
16.0351628748481
12.692668767739
6.55622966780989
-0.793485630606573
-7.31425579728301
-12.213784180119
-16.0696333772494
-19.7476104449761
-23.6550681628906
-27.6852836233947
-31.2090417866683
-33.0973300311628
-32.2117812029548
-28.0939365070007
-21.2255934083457
-12.7764306945462
-4.03108566827536
4.34030171338912
12.6189240554951
21.4564755046477
30.8970668946007
40.0437652368024
47.5203647082862
52.1046710860398
53.1694474371208
50.8521940025517
45.7942077103567
38.5490814233668
29.2020652843435
17.5964012532758
3.97851433228942
-10.5167345281026
-24.0927590543218
-35.2308871139977
-43.501431107381
-49.372183993455
-53.3555903551159
-55.649039061085
-56.5099800019865
-56.46259797638
-55.8371896885478
-54.2056820481203
-50.4504847982528
-43.639269603293
-34.1327644096009
-23.7646886210082
-14.5263773135985
-6.95456827583884
0.0092339171959511
7.64689607260432
16.1005532646183
24.0758399438075
29.6094957942055
31.4190071246418
29.8222519273657
26.231388804021
21.8371951255958
17.2541883369868
13.3458258343985
11.5584760014221
13.0154286884376
17.5942894491605
24.0310108209815
30.6378655029969
35.9271895575359
38.9938814270945
39.5924421434119
37.8060291724757
33.6402119735905
27.0669747411712
18.5114065674452
9.25352414318237
1.24681619828676
-3.77034641277377
-5.3542025622687
-4.61328941200343
-3.23805676091005
-2.2110673545922
-1.3694530561752
0.0151634098207173
2.27783561329466
4.76522335218004
6.13468790960362
5.37101190751137
2.52475292425203
-1.52000206528993
-5.7928287156148
-9.70248471299444
-13.044541868257
-15.7976600874478
-17.9796565479301
-19.7501664417969
-21.5319159319878
-23.6738121865408
-25.9235614202979
-27.5978242230349
-28.360821028711
-28.4451813339244
-28.0106641702478
-26.685167329048
-23.9445761580896
-19.80755881151
-15.048571014087
-10.5567338227745
-6.26160828569905
-0.975579702977028
6.09166992049686
13.7687518079789
19.6287043480795
22.3829888105948
22.8757764898565
22.5022463537677
21.4104925099814
18.7986897237403
14.532303723865
9.84042624399251
6.40393466299604
5.03723005559467
5.28632344600813
6.01620909839774
6.06295825678611
4.42270699526355
0.43204426095844
-5.76132480789439
-13.0415506562829
-19.8995884068204
-25.1926477176088
-28.4992608509372
-30.0696112396787
-30.4328388938281
-29.8145484395691
-28.0082523659805
-24.9481661562241
-21.0610803894342
-16.675329738267
-11.2885376742601
-3.7816913366415
6.61071774129897
19.4377215512623
32.7887919211098
43.9451259356443
50.7642462499993
52.6654827260757
50.1785703677745
43.7587352032226
33.5489252077816
20.3653201605588
6.41954652420648
-5.36230577509573
-12.8230023168171
-15.4771786178148
-14.2333053149624
-10.4180876195457
-4.91445001839891
2.12222579905504
10.8577793391429
20.7807998618888
29.8238735064942
34.8851867108883
33.9366297474903
27.7399287589834
19.1923197572223
11.0252952184441
4.2844174726706
-1.31034308026729
-6.08287682198862
-9.68316447252186
-11.6037323989658
-12.2474414351466
-13.0407347102812
-15.1217237820767
-18.1056259368433
-20.4748269838892
-21.0811945641294
-20.1122188545943
-18.8338983035089
-18.5969815492239
-19.9129017120885
-22.31528507103
-25.0510779666495
-27.6581940974265
-29.7577659263395
-30.7334596663574
-30.0389255738681
-27.5700989808638
-23.4056368090305
-17.5135604132168
-10.1747287882545
-2.45222254012407
4.34764944509407
9.76350851424867
14.3941428537958
18.8985510025946
22.9138923797398
25.0997889645972
24.3619390134388
21.0492037646614
16.8109871428264
13.2641575132162
10.9571728270025
9.54134744960631
8.60917121791009
8.2451049045343
8.77427988724398
9.83922852146073
9.87032136136039
7.09032066826737
1.30996958847195
-5.70472805591385
-11.8530682917877
-16.2889034344356
-19.3102089298753
-21.2175006929027
-21.6274593776894
-19.7646839908669
-15.3808394831898
-9.49903732394973
-4.05867572603054
-0.502742741577697
1.28397557825334
2.58180494999964
4.63097534735499
7.93327088647083
12.313433504872
17.104486514644
21.211615819528
23.4239471109348
23.1099261655377
20.7342658262955
17.5024086194069
14.2875989398865
10.9969449832421
7.19011642174518
3.12682264755225
-0.194696459206723
-1.95041759942915
-2.0723475441906
-1.07596731719759
0.231367955091212
0.962883242814042
0.567635214601159
-0.83790714676726
-2.73607827095422
-4.7763806185889
-6.8747116993621
-8.73191944229442
-9.51294564526762
-8.30858697164587
-4.91552121224242
0.144709445495054
6.38030651102606
13.5652588755827
21.0090892495013
27.2220928094073
30.8351712971763
31.5428002226126
29.8245258161482
26.0918224430251
20.3834991200949
12.624369640133
3.02541803558354
-7.6209452051006
-18.151408884264
-27.7429031713528
-36.1798956836208
-43.2147223261662
-48.1132378096574
-50.2915398277707
-50.1043149811765
-48.5506416182786
-46.3735837367462
-43.6909828485227
-40.1096120147396
-34.8203135044643
-27.0426061816976
-17.0246919018571
-6.41345931992156
3.06873348078311
11.4800524514289
20.6287361768378
31.692171038988
43.1277409162912
51.5795801181082
54.8594558933484
53.4647378388838
49.187710277234
43.0624612888463
35.081615736806
25.3955247132335
15.2122731391799
6.38003183128434
-0.0343418363829952
-4.83915994234917
-10.1131020767671
-17.2269692130039
-25.5882629430639
-33.3639445437476
-39.0168559410739
-41.9616876650159
-42.2315667914822
-40.0504325811958
-35.7634866146367
-29.9101332662624
-23.0420019038515
-15.3070541040626
-6.50029330700168
3.07425441942952
12.0510718862465
18.9757535996391
23.862624040554
28.2537153883382
33.618562763351
39.8774003018787
45.1213497056007
46.3897280197269
41.4543916676227
30.9271553362601
18.4983262028739
8.27213834251021
1.70412086038597
-2.67562050558603
-6.93776609137325
-11.5644393076395
-15.1718436683616
-15.8248989594279
-12.6597898586954
-6.63486198954419
0.0018802346582599
4.94628365144586
6.83946680099538
5.57987899392586
2.09197304504155
-2.08675397453936
-5.29807595094865
-6.53422896004133
-6.16714555937593
-5.52259404441831
-5.21187357679139
-4.33198593376995
-2.00222051902674
0.859187996641963
2.28387005046444
1.37581642536154
-1.35432461711359
-5.35058767351648
-10.356708278562
-15.3620759566995
-18.4206654855026
-18.0930042501957
-14.6929985044575
-10.0074658629757
-6.1070813864935
-4.28346199266247
-4.49653257805803
-5.45399832841978
-5.38509873303737
-3.27072781271341
0.196245809310335
2.99461014548305
3.71228872477939
3.19514709294734
3.74040450253909
6.56202538506625
10.5497051235707
13.532141497558
14.1519450954849
12.3826077255078
8.8459790306143
4.13772881513879
-1.23417214782822
-6.57838129267967
-11.0036702375943
-13.7665949492837
-14.47556555353
-12.9520601358284
-9.24379862925727
-3.92337003897739
1.92615263853789
7.18095694328694
11.0241500296097
13.0492639101935
13.462765863133
13.1196574671196
12.9206780448408
13.0767247259842
13.1581143270889
12.8560607115476
12.540004835085
13.0332541031966
14.8316856228553
17.4823160376926
19.7762888047858
20.6072082540565
19.4622433686255
16.0030103889046
9.70175480088903
0.536662055124709
-10.0837259316305
-19.7101555048487
-26.3652217436169
-29.532477863774
-29.8823741204494
-28.5986951300822
-27.1744293406663
-27.2504429850888
-29.624171763485
-33.0341954745515
-34.634621033079
-32.3877603317155
-26.6765190415446
-19.1442853265344
-10.6939946091685
-1.54674841112987
7.28655385669704
13.8701205224828
16.8571447025453
16.5224798287803
14.2733730239521
11.6084040876963
9.58063855203508
8.82687229494422
9.62181230566165
11.6064936721468
13.697006914782
14.8701012645351
15.1319586660266
15.1893591098721
15.1014555447745
13.8918225697488
10.7497922282819
6.16302990616975
1.62401013809115
-1.50251489818621
-2.79687944272808
-2.92540057225912
-3.16567919201364
-4.52226166009233
-7.10264121550718
-10.3125353605978
-13.4789002842872
-16.1558355017596
-18.0189996524988
-18.6951980855454
-17.7731840798907
-15.1173662045295
-11.235668940208
-6.99530318080307
-2.61408479706256
2.80558596991814
10.1710380553661
18.7574402079234
26.0827803091913
29.6832870627007
28.9793267900253
25.4538327290419
21.3245506388128
18.2574998566973
17.0049534331043
17.4416564861547
18.4795474734972
18.4563344778118
16.3873940004036
12.8796378661986
9.46977333898723
7.19216891714194
6.04419896916555
5.49112369082245
5.02598451422158
4.46107180388227
4.08192798204824
4.28383896096892
4.68304811966798
3.93902312285017
1.03600702679005
-3.43348971719643
-7.84428208835678
-11.4030139638461
-14.9503769624346
-19.7098749755276
-25.5401855574309
-30.772835959484
-33.7357924875505
-34.0840287715248
-32.5516569264469
-29.8766374393161
-26.3678759633641
-22.2512697961143
-17.9711760246156
-14.1141642288191
-11.1467443184836
-9.12949885172152
-7.64851907612747
-6.13327741568477
-4.2522593586028
-2.12936693600519
-0.588102604093608
-1.18458710591836
-5.24797117179061
-12.3446095145492
-19.9655025043455
-25.0641205649287
-25.8535565539387
-22.3328446741965
-15.7432603498237
-7.79718031655836
0.0040228703035704
6.81504149202565
12.3864114846435
16.5825390855564
18.9832039582451
18.9832322376456
16.4468962036036
12.5002806380991
9.52960886073564
9.86020200999238
14.1495976011348
21.1018917544281
28.502322438446
34.2531994684555
36.9356266931677
36.3198875747998
33.5554727381828
30.4115684442795
28.0786416579326
26.6924637720704
25.7717981316083
24.7830467747612
23.277590772345
20.7995516953028
17.0637676845605
12.456542067495
8.18643920295306
5.53615812736373
4.80903277868114
5.08622341194836
4.93869828460964
3.29378369597128
-0.118812303344457
-4.84060853429652
-10.1829441317383
-15.6409659432029
-20.7038147541354
-24.5858612218186
-26.818914278082
-28.2066998357241
-30.5871995611277
-35.2232947957039
-41.4725453040073
-46.9976778600355
-49.0887035819746
-46.0493154444094
-38.0360597008591
-26.98428974863
-15.5342588965898
-5.65909432141146
1.99848787991901
7.85510759407446
12.6906492398818
16.9468621163031
20.2445470429655
21.5071356175747
19.9428641617871
16.2667582432856
12.817927634266
11.9808477265351
14.1961517907568
17.5252838123212
19.1296388919521
17.2037600381843
11.8849839022959
4.70477839797257
-2.91928927898251
-10.7683139330331
-19.1293162185389
-27.0463322550243
-32.0726225189177
-32.3369518143432
-28.4149493692074
-22.7039750222916
-17.3908417908216
-13.4315810305876
-10.8726278017048
-9.17307354863245
-6.99080260796243
-2.23112644338972
6.84001732745897
19.8213057496902
33.3980863700681
42.9234365197444
45.4481934772984
41.481761622485
34.0135842302424
26.1681380528787
19.6732870709357
14.7604454108515
10.855709258602
7.38809645046652
4.200993254338
1.40075246423736
-0.852961750721716
-2.30206246441402
-2.85828686811221
-3.31305916846081
-5.30802424769716
-9.97336284231291
-16.6783013155546
-23.4366072206899
-28.4246051213764
-30.9600376339658
-31.2968338853731
-29.8637826452381
-26.7984049348773
-22.0944823792239
-16.0454654194119
-9.46223191156591
-3.42134579165182
1.42212589025877
5.58402598798692
10.6313166970088
17.6941309889585
25.9674541473343
33.125031618717
37.2014647155427
37.620378481151
34.677000790338
28.9962219752816
21.7382317766116
14.6083330290977
9.1794011558101
6.26748510523949
5.76481888522861
6.6523761309329
7.36003762630235
6.69929496168107
4.54519861997678
1.48913386194618
-1.78800546412564
-4.46515992724537
-5.46472455236429
-4.20226674882818
-1.47889837681996
0.902682925693127
1.61443530121781
0.66043644499764
-1.31070098933697
-4.13704344471577
-8.14666465224822
-13.2002725525566
-18.325506303416
-22.5044189345022
-25.5003993206976
-27.7888015937747
-29.9672266816778
-32.2895139916799
-34.3946932544738
-35.301061883807
-33.9534028039479
-30.0863585740268
-24.5812981556161
-18.8871963629314
-13.9949804085665
-9.88312028679159
-5.95559409935471
-2.02037225615925
1.32953763686786
3.45392550162566
4.59499754984851
5.68137792979158
7.06538230707095
7.71674726853258
6.02904620318263
1.53272273714721
-4.31338780909721
-9.07566243958017
-10.9814672679112
-9.71777506067715
-6.1633882208262
-1.83293438005518
1.68875689053159
3.59661023543838
4.5384033650197
6.09568106694501
9.29818473214447
13.8275536106061
18.8415190472318
24.3533810033129
31.4238476767182
40.6901575705771
50.6218699038696
57.6611906512076
58.8280314176542
54.4104207939191
47.6851748253633
41.8625107570852
37.6532706019142
33.7447091257221
28.9144322264018
23.2415398360334
17.6125413307264
12.6582253912679
8.48639917383358
5.2811522334104
3.59780227739106
3.70359548600658
4.92273418167676
6.02324963997094
6.0689803914814
4.59576928270561
1.21761572236079
-4.47071580705893
-12.5586267539361
-22.5622632918434
-33.4830631648529
-44.1430800680701
-53.7265115039334
-62.088636809576
-69.2948410379263
-74.8060827026648
-77.4218868090581
-76.1598111582711
-71.0391287595336
-62.9833990297713
-53.0746863382127
-41.8937179976103
-29.5952738642257
-16.6989670443812
-4.53180533541853
5.63007543168111
13.8334770315635
21.1991191817133
28.0416008095642
32.68620658623
32.8054863245865
28.0989437536705
21.3599077285055
16.5351789058947
15.616567169541
17.5446169169723
20.0196662530131
21.763230952502
22.6045071422791
21.945088914192
18.2670648831831
10.6769652929592
0.565729108009561
-8.84956514966799
-14.8549951820183
-17.0303552430223
-16.7653652875959
-15.4127252467987
-13.360426499807
-10.7202770588315
-8.06878407124453
-5.94955049012864
-3.98965448073797
-1.07194489392974
3.59104026569005
9.7330823100796
16.2797283696404
22.1653221912321
26.8979235030943
30.3275009757892
32.0824599340074
31.7545499148144
29.7968270257097
27.670144111062
26.5810053124007
26.3100703183068
25.7798220573364
24.672721550323
23.8925701440473
24.2159228146098
24.9762846039962
24.5042881204418
21.5714183082808
16.0059142186555
8.30665069287037
-0.623434138394383
-9.5430662582687
-17.5026313910342
-24.5301137904617
-31.0961059248723
-36.8703089404276
-40.6859783349423
-41.9309430815224
-41.4131035177044
-40.5113900698588
-39.7360917489275
-38.3446997965873
-35.1585992063387
-29.4704370279881
-21.2638076171777
-11.1209581036286
-0.451930073318948
8.4700827318925
13.7650925660084
15.7936145805673
17.0513804577613
19.4821855569107
22.3216490907493
23.2140529023727
20.9270694855073
16.1741348471816
10.1863069685018
3.54079155504852
-3.3640797415885
-9.34982390390036
-12.6866583527708
-12.5386156240378
-9.90745672928662
-6.65734146793671
-3.64351871664011
-0.373838901185661
3.44774398514623
6.81618505989303
8.20940411592788
6.91619356127935
3.25529567176346
-2.04668797139119
-8.30091074831822
-14.9186319644872
-21.3814996456239
-27.2778735778438
-32.3660797189502
-36.4114321542796
-38.7338895923641
-38.119005259762
-33.6599907888756
-25.7739548948492
-16.1049139902861
-6.3815190243441
2.56115445878946
11.00678398366
20.0055633268111
30.4245874666354
41.7441065259417
51.9391124326705
58.998249780647
62.3886619980661
62.6622384161915
59.9633042950424
53.7107032212474
44.0351480122863
32.9341277134713
23.0785777565125
15.2501117484836
7.70374086327358
-1.39354378145108
-11.4680955750955
-20.117951775707
-25.7029478322258
-28.6238778766042
-30.2693886059936
-31.2806949206595
-30.7945390331763
-27.2770386399408
-20.5301653830229
-12.9751468432486
-8.21316424468051
-7.77779169108422
-9.58620707706884
-9.88078799958702
-6.55068721159839
-0.61688149813972
4.99302660710414
7.74531025376618
6.83565838786395
2.89786741292088
-2.96720756541063
-9.61404166130975
-15.7231656080191
-20.0194932255115
-21.9278645537798
-21.7353813165881
-19.9902074568248
-17.0348199812307
-13.2346854545196
-9.3181287296657
-6.06029289842316
-3.41127769301249
-0.0874672171504791
5.44099667662686
13.1721029661156
20.9637218070842
25.960125322722
26.5230668360064
22.83489566449
16.2328863967313
8.41732588598877
1.05086739554484
-4.41546952975888
-6.93262917377215
-6.21787052684953
-3.11290183995262
0.595885959295104
3.05328583214213
3.39784767064145
2.38110825389964
1.97899398987228
3.71799842297564
6.83053831606422
8.47023210750887
6.39934489867176
1.35873438665461
-3.61167283490233
-6.03873481649902
-5.84620122006536
-4.50193354867017
-2.89796434097728
-0.425324891750161
3.94536845085107
10.0476779389246
16.2711713519169
20.8436819354487
23.1202230942284
23.6531535885116
23.2854490252786
22.2522352741844
19.9983115017313
15.8070324828175
9.62986693391076
2.21102020220934
-5.58833251612911
-13.3040827014263
-20.5596805883082
-26.5303372013611
-30.1415451829928
-31.0134607538224
-30.1567931320961
-29.4418397267072
-30.0175023296496
-31.1904778897323
-31.0835420191331
-28.4013240213978
-23.331110506772
-16.953899857089
-10.4724196329316
-5.1344074682766
-2.09946548008352
-1.63276757774068
-2.43684540398376
-2.11818918533733
1.41711163217524
8.69302783568143
18.3344887668203
27.7238519421007
34.1844905033793
36.2550476609477
34.5468528727523
31.3475678555611
28.753842112745
26.8747353534471
24.122675800525
19.3562716113081
13.37530914787
8.1749173122065
5.0834187223624
3.78439711657575
2.82997344740407
0.921352774029265
-2.07250211427821
-5.13991502446848
-7.17072480343463
-8.04474384161091
-8.85819539374036
-11.2616900897688
-16.3525283032293
-23.7275512044773
-31.557868360545
-37.9029013628753
-41.9505984464432
-43.7687972345977
-43.1625905671651
-39.452111439427
-32.4957630402394
-23.3902962030874
-13.7604016360585
-4.49164950746654
4.6108264973445
14.0437310607714
23.8071109105494
33.3592667826789
41.8719469733973
48.1755000296293
50.8482742681756
49.1204772561282
43.8826521239463
37.3282528146178
31.2291557450153
25.663189815285
19.5608913311299
12.2816150775394
4.37724805999605
-3.14664332953459
-10.0308264940748
-16.9442122751254
-24.3187971179669
-31.0895685718884
-34.9235455045571
-34.0583161153425
-29.1037757394425
-22.9599426077918
-18.6125403104196
-16.6565112124625
-14.9747594445535
-10.9797508591941
-4.07478168604837
4.11368756689145
11.5055694098859
17.1604964865642
21.2662075792014
23.9292603597984
24.216980424884
20.7190130506408
13.4302128434518
4.95594255309025
-0.721775352924824
-1.02743649360387
3.55733399575977
10.2794099917279
16.1612942424387
19.4539585951128
19.7418585365571
17.29254417954
12.7474577273433
7.43923280523456
3.370171232716
2.08355417584801
3.30611170822686
4.93492327343165
4.5425721884676
0.936679923362368
-5.58664740577206
-14.1719129903077
-24.2210522951059
-35.1225208383307
-45.4939938435272
-53.4734904770242
-58.1931315014325
-60.5060369964312
-61.6961694125798
-61.6508824543922
-58.6642200940529
-50.8955272138138
-37.9116867529028
-21.1405562777243
-3.00386623452985
14.525512187616
30.4021047095307
43.5433175979455
52.2729168225463
55.7139457200241
55.3632831148913
54.0557444714414
53.015060914016
50.5988337408672
44.3879999719285
34.2499610009155
22.9633118874641
13.7905825480076
7.72081822371594
3.26892217890119
-1.45273317959634
-7.10901778214128
-13.3345198043871
-19.5030229262062
-24.8135666945505
-28.1458871121405
-28.4532369923661
-25.4391928829757
-19.8973217474009
-13.4277674188741
-7.46946993538762
-2.17403325434445
3.60067356754765
10.7417836035462
18.4098365469418
24.4347259866587
27.0564523519761
26.0813323418066
22.6731421254485
18.4650267321016
14.7489789738706
12.0217054942282
9.9918706410859
8.03959986932683
5.85969028159136
3.79381178278724
2.50072025311353
2.27311874077309
2.75539415246467
3.25340572175299
3.0875598650112
1.73899365478716
-0.935355882916301
-4.56660690842465
-8.64444992531088
-12.9624935933361
-17.398807056268
-21.5133041119974
-24.8862144644013
-27.6475556457928
-29.9941411051673
-31.164289087356
-29.5672266450891
-24.3839663033191
-16.9242560246997
-10.0249529493276
-5.75301660514146
-3.59664562608639
-1.17955605189643
3.00512485654509
7.78290366541519
10.5051987484062
9.87769549639898
7.22084800447938
5.01807489240198
4.6151729157097
5.48639802130995
6.55153128613266
7.78798534062178
10.0350257131548
13.1334274830396
14.9714206925583
13.1324620895932
7.37661009335649
-0.118252826977686
-7.03217730519168
-12.845427717798
-18.2204622142368
-22.9913709207859
-25.6282843322173
-24.8465496293366
-20.9620692460418
-15.0855587211109
-7.61493538912361
1.52959207152283
11.4448786417634
20.0947922480396
25.954526497551
29.4024350438287
32.3369791378464
36.3814041854142
41.0467618460995
43.5499490681497
41.0499152897207
33.3915655819906
23.2554994484482
13.5579566252188
5.32589838859236
-1.80785747776903
-7.97606538888298
-12.6738686614597
-15.6780176224651
-17.8046339909501
-20.6398427659947
-25.5294227230981
-32.5723499046334
-40.2734416674907
-46.1458329297003
-48.061121958008
-45.5925211144201
-40.2067902759076
-33.8271521422244
-27.1151255330454
-19.4672094491
-10.5529578080016
-1.08986648728602
8.11343171200668
17.1208878710181
26.3786973083268
35.6667968047562
43.8421184349878
49.2734456578563
50.4288284383388
46.670646000684
39.010728438174
29.8857231391571
21.6653952101818
15.071752664973
9.0277199422886
2.12181044817803
-5.74433599683855
-13.0535510730431
-17.7513128799578
-18.623556296004
-16.2090765833319
-12.9305796464037
-12.0091422820766
-15.3365796047104
-21.8802174176852
-28.1908723149211
-30.6364962872731
-27.5237473362608
-19.7704737022868
-10.0015647691077
-0.779208408251689
6.73649611617172
12.6657166438966
17.3225488867156
20.6344491395903
22.4749638138578
22.9525383023324
22.0728786910102
19.3691054383115
14.2367531915803
6.82261524573589
-1.46446210121574
-8.55692532715576
-13.0446692553903
-14.9888456281392
-15.6105029745376
-16.3106215942935
-17.654068491251
-18.759989337764
-17.7383155354435
-13.2568763690478
-5.78959361442512
2.87154951326144
10.9824878692806
17.2612248883527
20.4824362558494
19.7160780159802
15.1742170837037
8.31521850903517
0.984660695430379
-5.32543430542975
-9.57376805023838
-11.1052026076326
-9.84171906772955
-6.57525559587238
-2.88570835839679
-0.307604695362766
0.778420550833204
1.20446150500424
1.7126937988274
2.03023129941407
1.65332384290331
0.956938191549199
0.721480687268788
0.790819140016554
-0.0572410624096324
-2.78913938906086
-6.97303296257371
-11.0107421418254
-13.4216701194514
-13.9201989574372
-13.2610967533823
-12.136852614761
-10.4682240454761
-7.77107755148687
-3.84015071134846
1.1229347426023
6.76162317861456
12.6075382288971
17.8523312085708
21.2721352055651
21.7569974004869
19.3607794304245
15.8419478411911
13.6332333141242
13.8260405704226
15.1731752586723
15.2180068316075
12.487302394342
7.71974456088369
3.08847039680027
0.262176395414725
-0.726796027566063
-0.772596751394968
-0.329108893887883
0.735960639888569
2.11237162683403
2.615106183287
1.08834697282311
-2.53260923399363
-7.07507089460222
-10.7317484316652
-12.0156409322322
-10.7586681572913
-8.26265189640552
-6.00731102822213
-4.13107020577394
-1.58450752860515
2.16842209365979
6.09063084537899
8.45804626047875
8.42431269246743
6.33276618817121
2.76892364033846
-2.10808671333958
-8.22940284488271
-15.0424316804983
-21.4915807057014
-26.4677059296697
-29.3210675390364
-30.1533785149606
-29.6490554603385
-28.5410716383529
-27.2174753874704
-25.5611503852004
-22.6373667233804
-16.687682171291
-6.48715626999021
6.74535808010013
19.5306590411486
28.9160614110122
34.6491034497098
38.1027312083102
39.7197283506115
38.4915680485349
33.8264046668476
27.0308749372189
20.5794800954804
16.2362029476468
14.0090653097093
12.5421292957469
10.1861680858956
5.91977066028486
-0.183066532868925
-7.08427787171823
-13.5625565684817
-19.0434440229234
-23.549190385915
-26.9042354075458
-28.4510540567668
-27.7698861152142
-25.3625699108416
-22.3440587584576
-19.4928973962759
-16.5710722304641
-12.4497602428235
-6.07411576283378
2.34476357900012
10.9847950203278
17.3428569222282
19.6672993156593
17.8815029481713
13.5464021526781
8.79525748703319
4.80931253664181
1.29596364395885
-2.23867886141781
-4.92625618964041
-4.89478675523366
-1.37269522857183
4.03887354766531
8.63170769169132
11.0412825733785
12.1313579666601
13.5077436838247
15.6134761382333
17.497077589755
18.0238052794387
16.7649032014876
13.783950569109
9.1874714354989
3.26417191678451
-3.16051230855425
-8.8141308834067
-12.436719033166
-13.235085515379
-11.2224441197966
-7.29722665990995
-2.8143432526847
1.15796936613693
4.28586737653294
6.80941550348081
9.07261256851695
11.2350238721137
13.2582921301527
14.773559994104
14.6826616457286
11.2188084013067
3.16195238152973
-8.61911801835835
-21.0802451265942
-30.7693187646216
-35.7951592500969
-36.3205098891555
-33.6493890097161
-29.1894548530722
-24.1537786281149
-19.6429673819708
-16.2589510597227
-13.4043163390471
-9.51945982721493
-3.62230900879479
3.48696701836987
9.93368342349116
14.5142908044047
17.3000153948319
18.7006366657491
18.6879225459534
17.2660400480519
15.3044644440958
14.4780684110668
16.2011041044019
20.3378464778799
24.7661590926206
26.5033655281887
23.6667543744827
16.4116498386699
6.10556372039025
-5.91767761951082
-18.5520401161679
-30.3121930182111
-39.1813549693944
-43.4536662847331
-42.8485219594188
-38.7160518048979
-32.9495609882786
-26.4963221617557
-18.7204256674022
-8.12423454934284
5.9323561606142
21.6152131142064
34.7641649328778
41.4670884067974
41.0224681196277
36.2006898917407
30.4904295287644
25.3252125784268
19.9083520041044
13.1080020967259
5.00854679262738
-3.26557526282908
-10.6711686787183
-16.7481081164458
-21.1656442354741
-23.3897300981606
-23.161882555947
-20.9540516989189
-17.3945651598415
-12.3487722035431
-5.24745354421007
3.39566950764203
11.3080783240188
15.9132172128036
16.5876831562632
15.2848727572537
14.7953892191986
16.442416217319
19.5245165666595
22.6899511860424
25.2747102993463
27.19486966141
28.1207441303796
27.2373038807931
23.7373152163675
17.4641416899338
9.21621456721193
0.308348456831089
-8.47806290594503
-17.3856876668739
-26.736404242379
-35.5765131740095
-41.7118928009014
-43.308624352371
-40.4658168382216
-35.2112164008702
-29.8487081628158
-25.2966325599862
-21.2638634404027
-17.7981929041785
-15.680198372148
-14.9428733760431
-14.076072120807
-11.6607818430426
-8.24783246584028
-5.65952010632666
-4.60463374026044
-3.73092751522481
-1.05963102311148
4.09793438351602
10.6439080086938
16.7423129278317
21.2297108419231
24.112020685843
25.9105683469594
26.840720565681
26.7681621079673
25.7808966224144
24.5855520190353
24.2227310355847
25.2041295682462
26.798212516561
27.3025090889925
25.2316541926147
20.3819251785446
13.9316040403169
7.56789473588367
2.18459727296053
-2.87061932845577
-9.08252841138939
-17.0597516898164
-25.6359524710027
-32.6884869110445
-36.6386770887688
-37.3561140723212
-36.1642575515455
-34.9251992172806
-34.4675576431581
-33.6781615343726
-30.4472039934693
-23.6225891302037
-13.9912050331167
-3.60424742233102
5.62997982631097
12.9761364939893
18.915062152485
24.1982551617902
28.7986622936893
31.8778152069164
32.6965477646776
31.3440917272659
28.712289698341
26.0038420819058
24.0170744399667
22.5336393496945
20.5476334130255
17.3605971967947
13.3342515568907
9.49726108364114
6.66701888187575
5.02224423177068
4.23827365922503
3.82738944687395
3.33687181640177
2.22102753872505
-0.36568108385684
-5.36664014140915
-13.1473439645507
-22.7678580340546
-31.7626411881065
-37.0500902099125
-36.9927205936711
-33.0078937241023
-28.7266919126372
-27.1870566622214
-28.8641698715867
-32.0102135847682
-34.0285063093287
-32.4980178352524
-26.086937442379
-15.6307996058254
-4.32802343209442
4.00390829317913
7.75027944080736
8.82655568703316
10.7953714781125
15.2985072607819
20.4945655825763
23.1592187899792
21.9271900504428
18.2015352534812
14.5133134576936
12.7034719378114
13.2869293074078
15.5834810926681
18.2211654070462
19.9660767861487
20.3275270168149
19.3789050207202
17.1802508876935
13.6625336272754
9.19329793382629
5.0622799837898
2.85170305405619
2.81268445830214
3.07681976517529
1.21909732747374
-3.13677491571824
-7.73196177263975
-10.037932447214
-9.97488286500426
-9.86504897420021
-11.5971058711865
-14.1802666415643
-14.5392525991361
-10.6241767994974
-3.15855071267092
5.5851089303611
13.6112359144074
19.3471925244836
21.3574637006703
19.4516285909211
15.652485419793
12.5244484460777
10.2316448982491
6.28351063026312
-1.3058423307261
-11.1775760256293
-19.3072471250233
-22.2705471332978
-19.8681460890344
-15.0022544956361
-11.2105038708065
-10.1518163250291
-11.1043758016849
-12.3105128098363
-12.4814262598819
-11.4907309740723
-10.3097761958385
-10.2409579584369
-11.7883730516755
-14.2254241486911
-16.3847566230237
-17.7113864061115
-18.3774690553102
-18.533468747367
-17.7357417131917
-15.1751686028954
-10.2619086677966
-2.83772590930148
6.83845261489197
17.7231531982016
27.6938154079708
34.4710328177596
37.3529248562298
37.7643165942502
37.8146593232212
38.3988741352365
38.6564418555176
37.0373526008899
32.8664065199938
26.9619503509254
20.7276656598308
14.8098802327335
8.94727794155842
2.94125530886051
-2.91316908837736
-8.56284862520743
-14.7459259194367
-22.3109610878898
-31.1918973480155
-40.2951707055098
-48.166914074723
-53.598462279855
-55.8895629048853
-54.974024446987
-51.4965367139556
-46.6103992301293
-41.2370870197821
-35.2137278327684
-27.3986113742414
-16.9424196425385
-4.37558122068225
8.65561041743745
20.5258985241762
30.5298618451345
39.0275317901556
46.7129383394146
53.3842142444221
57.5368258539468
57.628980810653
53.7063909320598
47.4365755360821
40.695635729926
34.428830189244
28.6282463450281
22.9667275456377
17.4120475266479
12.3363612113615
8.05688094246007
4.44767350626232
1.16560161546094
-1.9152919854705
-4.61910450893573
-6.55652986174076
-7.25909005199994
-6.79462564577942
-6.55450723026409
-8.77916978115049
-14.5795566466642
-22.5926648511032
-30.0167107281894
-34.8195156924403
-36.7594475480056
-36.7267584234046
-35.6474796920802
-33.9218533046986
-31.3637364592497
-27.3305916212321
-21.2061152922448
-13.4769303461511
-6.5156386146781
-3.47787126774914
-5.62367925015905
-10.8772368292522
-15.429836964593
-16.6606597004076
-14.5519590595172
-10.9296516651259
-7.6761386371316
-5.18679373660447
-2.0976334706669
3.41016020722035
11.9361653063295
22.4179540736434
32.9437753264747
41.616741269975
46.8809547958549
47.696808991045
43.9200326269811
36.6370913227148
27.894965482023
19.653584939098
12.6394594145744
6.1073060718024
-1.21431026934612
-9.72886297302164
-18.2013083062164
-24.2874945675886
-26.1688179942978
-24.0087611715885
-19.7413199021032
-15.3801495417134
-11.8486407710799
-9.39678004421296
-8.24235304677118
-8.16955424780121
-8.06223474571903
-6.61499523471312
-3.47215427298273
0.646338508870331
4.86540201023808
9.02302752168323
13.6215143581029
18.9621904555235
24.4895144031637
29.1967981438571
32.5091295599275
34.4020657804846
34.8014917559138
33.3519840456249
29.7554274918848
23.9147973937121
15.6832519217424
4.78438268316525
-8.74254739379721
-23.7950305648441
-37.8783703909927
-47.9867755667473
-52.3375029233546
-51.2918466923811
-46.6202587520188
-40.2820626170725
-33.8817040299056
-28.3243568372936
-23.2053340084462
-16.9526394436114
-8.40457744155339
1.60224225282057
10.4292732022606
15.4419557561549
15.8546292731846
13.3143240921119
10.7402006638112
10.1990140489588
11.7835069373769
14.4657801131981
17.4098037498326
20.053878810858
21.6212966702614
21.4782839130298
19.8953156800962
17.8113294754001
15.7149990376347
13.1327648848755
9.40424833284582
4.72029354414702
0.100178707912319
-3.56697495871571
-6.10378191233312
-7.72951624653943
-8.73831218931528
-9.63919092578142
-10.9477045169956
-12.430804762995
-13.0473956072625
-12.0288887073687
-9.69750891683243
-7.05757601336516
-4.97449887287671
-3.83467759731646
-3.52136203030162
-3.48252901058418
-3.06245636754284
-1.92621272178724
-0.168864791953352
1.80475384805481
3.41200764222524
4.25887501329994
4.64965074528053
5.38942833877429
6.72169421566914
7.78284468360335
7.58900582388585
6.41326596000951
5.64403000841476
6.0630267759529
6.58102540779574
5.14300405571888
0.928065168096156
-4.74433006689023
-9.77224045903284
-13.0110170198119
-14.4553524282811
-14.3395981864839
-12.6858946124758
-9.62774064204241
-5.81730492474713
-2.31895862499527
0.187732249399741
2.27157349617931
5.39091800267626
10.2029748690629
15.4553679072975
18.875120586656
18.9235835248739
15.6431063709142
10.3844579882425
4.9387407272936
0.41351637449404
-3.30469490415751
-6.79005985903997
-10.0465229998951
-12.6994773347002
-14.7774332578371
-16.4528507749995
-17.2071494263982
-16.175190611711
-13.3864286427113
-9.95136022090908
-6.88544039100405
-4.21063816449352
-1.27480030806253
2.34174742942266
6.2801859579536
9.71181789098765
12.2653827585146
14.5013682250855
17.1529758878991
19.9182276637909
21.3258233837707
20.0329717397256
16.3162063170731
12.1387370589942
9.437846416286
8.27825495865916
6.98458969305033
4.13076927396217
-0.0006302970988479
-4.01591682070923
-7.02577125423321
-9.4543047040202
-12.3918794813863
-16.1357487431603
-19.3877450158054
-20.2684570679426
-18.2024149668122
-14.3086432219058
-9.92733814988522
-5.56887805692846
-1.5760366385721
1.06017168135485
1.30361226845777
-0.74431528558431
-3.73515874819039
-6.11466186923949
-7.11459503276993
-6.8976634605816
-6.03683842452701
-4.95709276539245
-3.76029940937392
-2.30793880276714
-0.24895628036863
2.88328770545781
7.27493245576553
12.4894864245907
17.5788392022396
21.3712880796565
22.6693677684548
20.6333656082559
15.3131055191505
7.73339583476795
-0.561612669553431
-7.98372380774564
-13.2086244909198
-15.4230870794443
-14.3746068694287
-10.2747347660882
-3.91759247136551
3.21590716952484
9.48796963804773
13.9630046334034
16.7241234827379
18.6205068065852
20.7502419749153
23.356528492898
24.5658418229686
20.9205382844255
10.3211661270603
-5.419583760932
-21.4537623965454
-33.3819276071499
-39.7456570173703
-41.5905908165982
-40.5068638163454
-37.5048185823861
-33.2597516921622
-28.3660974230659
-22.6536312361397
-14.7370529463274
-3.44842180442423
9.89647200316133
21.4904229010346
27.8820410447894
28.4805435866346
25.1454555653006
20.083112746665
14.6438014975186
9.65116275967557
6.05358746484515
4.78017259410252
5.94032910360512
8.49415377024739
11.0058621513076
12.59240017595
12.9540402720128
11.828974381695
8.970117648946
4.73364088833483
0.361259802430548
-2.66396034869353
-3.81493868318189
-4.14262930067568
-5.44922098011901
-8.62034120873044
-12.7890882640648
-16.0060871438488
-16.5142794440304
-13.7407779079896
-8.72069427508606
-3.50017800811124
0.458115762439362
3.33763009269659
6.16504884923497
9.23260873394277
11.8091110354634
13.1404496806563
13.0628741730382
11.6846912198573
9.12230123837885
5.75418499279365
2.35121231841407
-0.33319950419507
-2.14709419353498
-3.7144620844397
-5.85480302421225
-8.57752763901787
-10.7258503417778
-10.8735742373318
-8.59719599522366
-4.84558678172194
-1.27311195845676
0.70657082386502
0.558675546151149
-1.22922675529208
-3.47489602196964
-4.93027091748656
-5.03850082835891
-4.53501581588431
-5.21001338821693
-8.44865747728001
-13.6277295408041
-18.1693165087875
-19.5042889837813
-17.1553231796152
-13.0488343621245
-9.80354478100523
-8.48736474205145
-7.88307656401689
-5.90094581466409
-1.53427678273647
4.59669503406202
11.1474974336989
17.0821533350635
22.1000793490681
26.4806143153669
30.3982829113901
33.1830163058621
33.5500112059995
30.8510038038727
25.8376924194466
19.9772372095111
14.3279075447208
9.20683637061798
4.48212434673361
-0.094703476462919
-4.58526070053549
-8.74711290570159
-12.2984303036482
-15.0977245090336
-16.8502203159657
-16.964479485876
-15.1247065957768
-11.9158464768468
-8.62550097686472
-6.45228312533249
-5.92150171207308
-6.80525780640044
-8.34896148177024
-9.61021977533203
-9.88285488110595
-9.17478250171752
-8.36933518939846
-8.54849893200463
-9.80724763067615
-10.8670157029711
-10.1137226370071
-7.03714069728814
-2.74760407500456
0.741668871915557
2.00031428111693
1.42708469103334
0.933618229865777
1.99673245949988
4.15387378691006
5.79831042780245
6.21868391593617
6.31052617276223
7.40127345247586
9.95619356776234
13.4593276588595
17.0250674828313
19.8784522537285
21.443798226693
21.2229307600691
18.8568151339804
14.5352234676536
9.20329234659912
4.02726182095231
-0.351125373024385
-3.86396294835507
-6.48635303743345
-8.02502441161712
-8.57667843735609
-8.97868464550918
-10.3398283655673
-12.8176381302098
-15.1796856098292
-16.1064868595332
-15.7168733593545
-15.1433173350431
-14.7595765590072
-13.6688471407408
-11.0362363467221
-7.20809568303819
-3.27727421113327
0.0389057698295651
2.91314775302318
5.94578674300063
9.20452500211661
11.816113669465
12.7505722091762
11.8840981180076
9.93719945883001
7.5581320509149
4.98486171353596
2.46580539451804
0.354189341358027
-1.29806769409064
-2.75369139564972
-4.12204621236318
-5.1528878510418
-5.29319864560827
-3.60677872010196
0.904993888524546
8.09460611584916
15.7754999598254
20.7153821619907
20.9374586206448
17.0122186121453
11.1149205051658
5.08923320646074
-0.444553712172067
-5.51582227551519
-10.064848683903
-13.966527807959
-17.2815111312787
-20.0392812414197
-21.8723987944547
-22.1134340314399
-20.3465609298872
-16.9792118856105
-13.2792995264035
-10.4985134511137
-8.70725552948289
-6.75195052749488
-3.52997692592513
1.01161216052837
6.16667710242647
11.1247083398145
15.0470944057236
17.0933983730078
16.97388297786
15.3300826469638
13.1466090370827
10.7621980359364
7.71159129327434
3.59671958577642
-1.0792448445652
-5.08545372131408
-7.40813726320098
-7.8911742925219
-7.02052794623221
-5.46303589760225
-4.00065634790051
-3.39948518102477
-3.71719060438512
-3.90775335742598
-2.67861874494451
0.206233480647706
3.69217843415369
6.36705864289366
7.50233434259724
7.45838970384176
7.31127058844542
7.95871847172042
9.41995177814966
10.9206486770299
11.5437089785487
10.8682001032495
9.2634794654301
7.58170014181313
6.32801399196627
5.20907294614854
3.69873522379162
1.7828110333806
-0.139376883781079
-1.75771504664988
-2.93145036756543
-3.56140436384206
-3.62650708859829
-3.12987305919265
-2.00022466213888
-0.360938644494115
1.22111894334991
2.16561356823572
2.36302415994621
1.73200653885844
-0.408820781688809
-4.76447463952669
-10.9256944416566
-17.471053973651
-23.1560303615127
-27.417519855719
-29.8294664814534
-29.8130571426654
-27.1625502698471
-22.4994241022214
-16.8441685523788
-10.6787136564154
-3.66102741277287
4.46378082125548
12.8264960883423
19.750541221157
24.1065953793838
25.986154319287
26.1312606005616
25.1929791500944
23.5728472665678
21.5578767861887
19.4126119526812
17.3662383870917
15.4547661443168
13.4369530303119
10.9974664048051
7.83281065741426
3.37490524048256
-3.08081006678702
-11.4180109550549
-20.0830344631101
-26.9461222114392
-30.8800285748921
-32.4279599230071
-33.0434653101774
-33.6616220820681
-33.7118048286936
-31.3960773110211
-25.1911867387941
-15.3540238179429
-4.01835094527353
6.17179102968858
13.5770337044442
18.0484036897601
20.3495143848898
21.3655590224981
21.9147115206919
22.9646187659245
25.2426731259785
28.1919561688837
29.8018274416659
28.1451509471044
23.1163209527512
16.4952714944116
10.4969372792282
6.33714138173621
3.80901670309484
1.82201838648039
-0.743639176899148
-4.5072934290576
-9.37917323951455
-14.347831139016
-17.6226528350447
-17.6569418534711
-14.289137386888
-8.71871341061678
-2.54264969114537
2.93755893760944
6.8931972828933
9.02472716553078
9.3402293828367
7.69643090413881
3.89637674742078
-1.60282139315544
-7.54334425468902
-12.7147874483483
-16.6821627962406
-19.5881903941089
-21.6143406679384
-22.7559814979402
-22.7456325727334
-20.9957367402073
-16.8530770260307
-10.1228265126477
-1.43424523186235
7.73418161897949
15.3941608578441
19.8125906902731
20.3524119339439
17.7172297476048
13.4264205072718
8.96788215959445
5.17023165057054
2.17318593502778
-0.102176069194442
-1.66256394485558
-2.58646532730897
-2.90224789976424
-2.0556078344209
0.851674907950707
5.69456950825809
10.5524504856796
12.827077359068
11.0856053847424
5.85351719411931
-0.900601510529979
-6.92282253999913
-10.802132624955
-12.32712621511
-11.871678513254
-9.70091902472464
-5.96572579244495
-0.998164144263808
4.6523937000644
10.2824641753219
15.0165065894939
17.9620701775294
18.5772450707373
16.9166633647643
13.6335553853878
9.76110479078717
6.12655708316765
2.70546618448616
-1.1567564816971
-5.63029574348593
-9.85529650536347
-12.8302011561553
-14.5950807794169
-16.237367021825
-18.7593653602156
-21.9578964850046
-24.3788712075665
-24.5293726489976
-22.2528098568573
-18.7989476417583
-15.5391689356055
-12.7492932759967
-9.54251539168002
-4.84574950144802
1.32707096505213
7.3949230766376
11.3309970143709
12.4888862556297
12.0237934562446
11.4524262048293
11.2696754149342
11.0514533343736
10.3491334462195
9.26519823153552
8.49991495616405
8.91213596788552
10.7473713022583
13.2907160706492
15.4856205151737
16.8163910323959
17.443308108732
17.7100880543863
17.7875486333884
17.5898208743146
16.6937713991544
14.4223484514538
10.3006630339475
4.49707335287642
-2.22999927785368
-8.99457183046699
-15.1990727157621
-20.5233092289047
-24.5478715859732
-26.6187104344257
-26.324611559844
-23.9889691391205
-20.4496568222379
-16.4026093302256
-12.0539172005387
-7.31369502712603
-2.34259190428735
2.00391346136006
4.56238151254877
5.06960149564938
4.78234275722592
5.44355801205736
7.64211386540376
10.3610171336658
11.9570535393827
11.4574716284837
9.17135275504941
6.25858844268518
3.69925095346477
1.72631468933299
0.123380103363077
-1.39344813780091
-3.13486304888363
-5.16324612309988
-6.8481760400216
-7.28053849749238
-6.42075994670236
-5.38352246179251
-5.35956188210393
-6.6236918258653
-8.65284833876448
-10.6923461518604
-12.0425506873975
-12.2628644761519
-11.4167694604263
-10.0343186432702
-8.73407891354162
-7.72073794766478
-6.3907005758571
-3.53170994650201
1.66419908552762
8.6473110588587
15.6488404525182
20.6969042733013
22.6127118092038
21.5079968446005
18.5780206768462
15.2704445189432
12.5891935265159
11.0489737976867
10.7124316070878
10.970208230343
10.7944043109793
9.56675719935249
7.33838070797409
4.3243384462327
0.845676674063379
-2.19194062463899
-3.6270228039465
-3.18414156258436
-1.78715165700807
-0.582623620505683
-0.0471706456504362
-0.0667402140104027
-0.423354474997667
-1.00762020075553
-1.77519908289022
-2.69018551054777
-3.7354817975408
-4.91413801899169
-6.08534215717983
-6.76769193967563
-6.44689595979826
-5.37218900814121
-4.74415469127182
-5.67938504859524
-8.11830575331872
-10.981643556317
-13.0898153864681
-13.6460530121464
-12.2155811949495
-8.8445432437228
-4.43120041099684
-0.813696740227023
0.0707535634996422
-2.19179259900906
-5.69432520508799
-7.76040703229739
-7.65913041962613
-7.36791738929863
-9.34711307998598
-13.7722371302121
-18.0579761260526
-18.9171556924332
-14.8832597641427
-7.06319055943309
2.23425524304863
11.1590150785667
18.5833370062574
23.6176060548032
25.8366826565877
25.8059976510226
24.5999321256276
22.7353466158777
20.0090942766911
16.2911572490591
12.0454136086707
8.06820042706785
4.95925752268563
2.80904292618716
1.27216317666417
-0.027024205152864
-1.23468681410462
-2.49851288889507
-4.13748814017344
-6.22409068171686
-8.23538962467232
-9.4962750895971
-9.84659294943269
-9.71218853965303
-9.71535143512355
-10.181515035444
-10.6147973490064
-9.6191265557474
-5.79986521561826
0.943547607232646
8.99135220616663
15.8651222517772
19.6716044216542
20.0254320104626
17.7614177953115
13.9304151151197
9.35734383451469
4.98448819664786
1.8227135300762
0.152510846812977
-0.753121531665226
-1.7710925927815
-3.09254996151748
-4.33796481280588
-5.11218389257274
-5.31866347848106
-5.20580845642307
-5.20939427654659
-5.63159029419905
-6.45781537899914
-7.48309688882169
-8.48839694011126
-9.26036682386755
-9.5926834719401
-9.37330106310631
-8.6623267915047
-7.71724894631639
-6.91670686586605
-6.43406771983565
-5.89989735691021
-4.69116777893854
-2.75559551631412
-0.891296406206786
0.0035592652109381
-0.210962894716073
-0.915353946805099
-1.42001732900878
-1.56041440913014
-1.67473123257232
-2.07078095030593
-2.6378727865492
-3.02020391016408
-2.91043548910489
-2.02180888819535
-0.149753832855277
2.42833695649793
4.93957117915445
6.77689080599292
7.84755553257068
8.11501934136157
7.3092497009926
5.4216878402764
3.19220853296061
1.84641442947777
2.2867803515117
4.26957713995641
6.26691331889302
6.59450349052565
4.98717067182175
2.76676211780129
1.35089793955568
1.04897628466627
1.39159701538743
1.94331762347962
2.42236961106949
2.59154240693608
2.55950290421953
2.92372577559586
4.19950229088553
6.14261704566697
7.81573799315679
8.39222440334869
7.92118521477121
7.19638844852467
6.75466447420841
6.21292033444936
4.83046021962673
2.48660217992259
-0.203738748321344
-2.576553221405
-4.51257581883159
-6.4739358529468
-8.94709056792868
-11.6508331006629
-13.5005403554072
-13.7666649467108
-13.0929006003733
-12.8756250102028
-13.6644490933722
-14.5021704835229
-13.8504683465782
-11.0948573337245
-7.2365348621339
-4.02187321532493
-2.24020819695806
-1.07581714374707
0.76544745799094
3.70788654525269
7.22686875101164
10.537158107646
13.0280386536013
14.480379140978
15.2354512963311
15.906270517841
16.7213245937221
17.3161254812481
17.1332165742434
15.7829543007768
13.2010264534291
9.85093717567143
6.63032929284043
4.17545121861816
2.2517023148021
-0.0587356249396396
-3.64288632101839
-8.67735365836675
-14.3454801457211
-19.3595058147634
-23.0507214598432
-25.7712593399465
-28.069792521934
-29.8671762159996
-30.6874350556902
-30.2834630197795
-28.6839048491782
-25.8211272767111
-21.3825264413661
-15.1386007338129
-7.52420722582004
0.240199031204092
6.96836801955421
12.3818274244534
16.7869016898911
20.1379006291965
22.0778397478065
22.7793447423993
23.0189584004677
23.2840084934933
23.2095965576162
21.9767988587574
19.1270794023439
15.1473240891933
11.3857624193144
9.08761741805195
8.26376815702274
7.71965056991737
6.34258901784403
4.12191416885878
1.8713726101603
0.324022115550348
-0.390640482540891
-0.700503403332117
-1.20044903765123
-2.20517901887975
-3.58571685634602
-4.89439562759464
-5.52939528898876
-5.02223901267548
-3.4934452927616
-1.69241721552868
-0.298347905138885
0.735392861653055
1.97952684608733
3.77020080639615
5.702003627323
6.79838813697339
6.30944392260016
4.49141810419375
2.40491303831271
0.774119890676208
-0.729923526117959
-2.93727039923635
-6.16165312468353
-9.8626560021265
-13.1598592660574
-15.6118022040249
-17.4704484608833
-19.0567225792877
-20.0386678655287
-19.7059553096909
-17.8560700163597
-14.9054460438778
-11.1839089522324
-6.73926193171358
-1.90954974660665
2.54485221091394
6.11240548969619
8.91850324091035
11.3259138716596
13.4512883034812
14.997373935397
15.2496710086449
13.4771809436184
9.7689805686027
5.31780599340381
1.52929708518144
-1.04335308361337
-2.71469697555909
-3.85220479264349
-4.32029341790369
-3.71691055963721
-1.98940524528806
0.343767680031439
2.591456660248
4.30845127072381
5.24497888445554
5.17050150746708
3.95485287260793
1.67076620803752
-1.36813870202151
-4.37124314401554
-6.07662206707153
-5.69970274599138
-4.0043560739351
-2.88316495200299
-3.68455167092173
-6.17398038179108
-8.95371129972829
-10.5007089847952
-9.97477142866038
-7.55263658584746
-4.17499704852104
-0.904076555108376
1.52462025455379
2.81800337429668
3.30029381578603
3.97148581786455
5.81473876725614
8.77489355114363
11.7022368334631
13.4231815638608
13.6998415313833
13.20802027189
12.7585942426591
12.4645751841633
11.6253698265164
9.56064401919821
6.46016898081453
3.20541149874305
0.539725954043145
-1.3223048339358
-2.46931439969955
-3.00231773196043
-2.97009313517051
-2.51808671448197
-2.03930387312182
-1.93465104911839
-2.1422224300403
-2.24618338793643
-2.15073079707514
-2.21097850416202
-2.63239146231732
-3.27278292495639
-4.06432520002593
-5.02814308905326
-5.86023739388475
-6.11264940997471
-5.80146658518131
-5.31310817716756
-4.75228848844585
-3.87964969385959
-2.67501679109134
-1.52187185167592
-0.760213439946442
-0.311436159513919
0.173069089436726
0.817724227187899
1.15057392726833
0.389880655371525
-1.65665912768162
-4.12051253266887
-5.76145939269853
-5.99544672324827
-5.09761453399384
-3.70641731263241
-2.41262953511824
-1.61742537920204
-1.42737031775992
-1.53849704806069
-1.28464858209976
-0.0936685722334703
1.80147155236464
3.26147141058702
3.25085120283409
1.92613260673146
0.457807917652382
-0.0779194158144337
0.595933563382511
1.99317200574489
3.16821261823115
3.24151288297108
2.10570482894822
0.628787648121483
-0.0083950411332212
0.785937453617453
2.61276295767557
4.39621601763174
5.2495025121692
5.2244500968963
5.06831921005145
5.16154849655941
4.9925260431378
3.84596410080979
1.68684309701748
-0.892477350826227
-3.35104906969195
-5.55158053632428
-7.54355993815588
-9.1466987428361
-9.81693108893955
-9.14272585123321
-7.48277477415548
-5.61535158962696
-3.59355106725889
-0.601840016017654
3.70636082734282
8.35773143284543
11.9920197698283
14.1489219569432
15.1176030119416
14.7822001437123
12.2487452509996
6.99809127468208
0.323471936441941
-4.91807776447926
-6.51599336013058
-4.85398787656131
-2.41054020180735
-1.42974435201942
-2.21542011469972
-3.37842450857951
-3.39423094124492
-1.98289813900966
-0.103674140227088
1.30403994906982
2.22309960478667
3.07193577889943
3.89136028677246
4.45369903625634
4.68876063888372
4.49252418712131
3.53200891980093
1.75036725095384
-0.263486693908379
-1.81799424555912
-2.72724224266314
-3.1535157534207
-3.34097586452799
-3.7943548991638
-5.17360940955068
-7.55723956765347
-10.1022714441595
-11.8056754336885
-12.5273023899711
-13.0111841891282
-13.7753257511268
-14.1669769559049
-12.9836272013295
-10.1250194036955
-6.9703156209219
-4.63497714704273
-2.40062695862988
1.37539570430097
6.9505673651498
12.4298798689506
15.4542452459868
15.4101359243863
13.8464170942561
12.7791213328942
12.7753224654499
12.8482658341873
11.92047531358
9.82318099999441
6.98180569788549
3.89167364964931
1.08404966513839
-1.02263768595437
-2.52690847537231
-3.92604857577722
-5.41771735727074
-6.54554862845898
-6.5927760995888
-5.22015170901299
-2.85677727333638
-0.591637209088284
0.585831742443915
0.647872300277805
0.413587411679461
0.499519841496288
0.735093648098234
0.667408753738855
0.187394418374347
-0.496048252795755
-1.15531662162246
-1.64487499743122
-1.87011873770723
-1.81146678346125
-1.64006195559404
-1.72249431783021
-2.26007897445507
-2.935692133303
-3.2821511607826
-3.39636117676351
-3.80878380847479
-4.61360232395465
-5.23863298212454
-5.12851238435457
-4.2092263407533
-2.68649029075411
-0.798725681218317
1.19948401257031
2.99626361317978
4.11545280607488
3.97059285152004
2.42541592343186
0.253284250100994
-1.40716558461875
-2.03575910311948
-1.84553941287516
-1.11107708299135
0.186916751947443
2.15980401736992
4.7776573749975
7.70022580385546
10.1370865016406
11.167020227236
10.5021886388498
8.7798658544195
6.99427644449608
5.84654563685208
5.52813435793565
5.66471416930614
5.49213858236723
4.56854308555302
3.38604109154583
2.97318604974571
3.8608556717961
5.57831683343371
7.07444362926983
7.50086322437695
6.65197277162731
4.78108269791689
2.12985323763908
-1.24968927722149
-5.30336549814463
-9.79154260864143
-14.2756094871367
-18.2689073294662
-21.6324092125415
-24.8224432338272
-28.2737047083807
-31.3662481360865
-32.4653544095921
-30.2166086795154
-24.556424870181
-16.5710461094429
-7.83442448891479
0.24423712743624
7.00862447185106
12.6058497757993
17.2150396991523
20.3485412556935
21.189500561084
19.5263677083807
16.1681883223769
12.5293693697376
9.83738925173127
8.47193529278489
7.91151524359037
7.43262988223076
6.82310620496941
6.25973055962302
5.71032469777565
4.84774769653443
3.51592039850006
1.99204770919631
0.743149583078645
0.0351741716515311
-0.169041550332423
0.0696012908028825
0.873869782479995
2.21736233681456
3.52523822867364
4.03637731716115
3.48692546309085
2.00618035787026
-0.409817004116898
-3.59998139469058
-6.52913116087966
-7.72285003948144
-6.68100657481063
-4.47441237267987
-2.81459603063792
-2.64191035606964
-3.46085810615826
-3.89472897636176
-3.01162938695558
-1.1702666500113
0.437305173991225
0.821660645484388
-0.331227356754846
-2.68692524492793
-5.25209678601647
-6.72052213739071
-6.58107446333159
-5.88989941903969
-6.3376823988108
-8.31752784915742
-10.204314775296
-9.73814375534867
-6.02854504718853
-0.0941104089541328
6.44206224209813
12.7332049265587
18.4525337927042
22.6640875453389
23.9358607193751
21.7899674175366
17.4260986789318
12.744167285174
8.94249331487566
6.08914729661679
3.72493286672549
1.70735037578954
0.419765121235569
0.157853335494351
0.599326484563635
1.11537266105697
1.30801850682395
1.04564523231781
0.463353811132614
0.129739234556491
0.459868443805678
0.584838576698938
-1.37642025036782
-6.31417244755825
-12.8906927882188
-18.6914870129801
-22.2191236239313
-23.6076611059191
-23.9523165105604
-24.3435444830174
-25.2894925848744
-26.590591166606
-27.3914496812376
-26.2258010522687
-21.5467294674146
-13.1767782991906
-3.40223653901513
4.30425116018431
8.27627874046765
9.92839550218444
11.6718142144737
14.0938336979908
15.7527344143132
15.3842281954755
13.4812036024084
11.4748266950778
10.0076288048872
8.71803372031729
7.51774461304124
7.18000126187904
8.31229276511508
10.3051936743373
11.7531706067459
11.7476977627343
10.6286302325921
9.61512869020091
9.59090874396203
10.0355073136864
9.41864771991912
6.939779368662
3.55148801303256
1.00771924792813
0.294859121191648
1.14074670032206
2.47449363132407
3.1319698309753
2.68799046648063
1.90866420299902
2.03635464558327
3.52918324542569
5.7941554496623
7.9596796639889
9.34783587441953
9.34613796332357
7.59759656037501
4.57143942492565
1.52717654153825
-0.413971651176263
-1.25061057533448
-2.20821185192979
-4.71749681183502
-9.04612526174602
-13.9736851578694
-17.8712826076395
-19.9149096909961
-20.3208343519002
-19.923556071139
-19.7195413950479
-20.3255481739718
-21.3591939278321
-21.3049408215942
-18.3274821404322
-11.7865288718669
-3.3635158750373
3.60666960086508
6.62112606942381
6.03111226843737
4.40600915454236
4.07494127610992
5.51573396957104
7.6355728883373
8.9112047749616
8.33415095373376
5.83718166472882
2.17058398733722
-1.49911192860443
-3.94584440796073
-4.34058906068803
-2.80580663226154
-0.317942587406956
2.31077939345135
5.18587170156704
8.81660094377243
13.1265018339296
17.2300663919374
19.9174174797535
20.2325885593952
17.9769761023296
13.8084075647349
8.5764259078242
2.64814855275955
-3.80102639898365
-10.1740512926875
-15.6959242385844
-20.0444999342623
-23.1780824612379
-24.6309922730311
-23.4933725594579
-19.3423593833527
-13.1388424869653
-6.90412352977293
-2.12369878194294
1.42050517653917
4.76977959458732
8.00722847204852
10.1667718572414
10.7319419143639
10.1644079381474
8.90867375729843
6.96986250695027
4.81469655546346
3.91357514208414
5.9287171036489
11.5008751606574
19.6756771459996
28.1300811431193
34.0893531012445
35.6287887487008
32.593513588008
26.4485919211219
19.1502996887437
11.8553251379799
4.41853652772515
-3.95970836340362
-13.6197951889013
-24.0023341104602
-34.1236058396026
-43.0870976698526
-49.9959008506513
-53.6693619384658
-52.8475218168438
-47.0173634377144
-37.2377300099302
-25.8705219365354
-14.9917578261425
-5.11310910004738
4.24418111997895
13.1752827403913
21.1958169028693
27.8386117035329
32.5120188206973
34.2324835161038
32.6509945309002
29.1786164565907
26.0085785375401
23.9315784171111
21.8928477800226
18.7114077011726
14.3986706923555
9.48106577393091
3.74935109528402
-3.4419096622841
-11.6220289835542
-18.8554160571133
-23.5997011207389
-26.3849979724773
-28.8467212913401
-31.4400560251348
-32.9787043619143
-32.2144072601842
-28.9727752468034
-23.8195896378258
-17.5083966091894
-10.8463042424873
-4.30262052683869
2.55862654471566
10.7930964038833
20.8395711770389
31.4915399762845
40.1747068178819
44.6215037513444
44.6462769498482
42.1310657390314
39.0855088323548
36.019405356449
32.2628136077991
27.1815703811258
20.629627594227
12.6841545841684
3.50801154031911
-6.54481622436644
-16.8934119803574
-26.8278813156214
-35.6354152233729
-42.6678855271546
-47.430146680043
-49.8662648625251
-50.4977957055717
-49.7272756571329
-46.8442223571938
-40.4124095531949
-30.078212740271
-17.4906416782547
-5.07960457423283
5.62682546103818
14.3100375824118
21.1722009816869
26.4105233588441
30.0902510340091
32.2329240921947
33.0634675554526
33.1006640977573
32.8045146466536
32.1974643389812
30.9481978716954
28.599773534459
24.6199329015559
18.7606449556602
11.7842958787503
5.36414304731248
0.619317789731249
-3.16901863632124
-7.95712387711914
-14.9364636698969
-23.1967004425089
-30.402467319756
-34.7474302851798
-36.0605003935992
-34.9670443723017
-31.5331515723617
-25.3876192939609
-16.9661543188732
-7.80276167814041
0.824661532536659
9.28468008872118
19.1111957476282
30.6507225677991
41.2371118714935
46.5375739596801
44.3564879320404
36.6670641507946
27.302986133044
18.1165654427831
8.114747905758
-3.99825667777019
-17.3457175070755
-29.120863049497
-36.8468040477705
-40.1560533046517
-40.5145380586312
-39.5105511813702
-37.5561562320167
-33.964510572677
-27.7717663251213
-18.5130214507818
-6.91846880395669
4.80500375181814
13.9779760294214
19.2712799559206
21.3338430657355
21.5403298990305
20.6509551681617
18.8987341265221
16.7860797743809
15.24684389557
15.0146321250801
15.8656653473239
16.4019316255107
14.7858475423567
10.1923996906768
3.89349103960588
-1.19049993490796
-2.52755995224635
-0.0821829856660909
3.56309300021397
5.47883261150698
4.90394621514179
3.58931089542544
4.00249130090928
7.20962761984975
11.7908481121452
14.4426545955606
12.3520561279596
5.60592310240174
-3.0367288119268
-10.902737282231
-17.4262039279052
-23.4897639594205
-29.6999739425739
-35.7055294903615
-40.5360718516399
-43.0752351186813
-42.5109092350221
-38.7609403192128
-32.4914286643809
-24.6767628151879
-16.1705663218624
-7.57235756243157
0.661723223363141
8.0392531334927
14.1866495985081
19.4735383331968
25.2094937118034
32.5057452864421
40.703047399034
47.3608678823399
50.1894707906461
48.9469920750425
45.2545395949185
40.6256632615435
35.061368593204
27.7789884526732
18.810761049358
9.18116657121923
-0.293861205457213
-9.55800241922652
-18.6299047485911
-27.0958080570858
-34.3608132832038
-39.7806349491465
-42.5537345392726
-42.1378699636052
-38.871608538853
-33.7466483988987
-27.5079014175146
-20.186285866843
-11.4540844779122
-1.41195404198807
8.71823963243457
16.6866793086172
20.4454992695672
19.5410960539339
15.1987973596013
9.1840084017255
2.91084228606413
-2.54721593761072
-6.21867925570319
-7.30926231813715
-5.48864085226501
-1.14536760489058
4.73662387480898
11.1902946186326
17.6775889376621
23.7603610307106
28.6983235516346
31.6271136024135
31.7569456464116
28.1929785014816
20.1805038351878
8.13824301998057
-5.71624155574122
-18.2547761723466
-27.27665002521
-32.7308751547325
-36.2222441736946
-39.0908272440935
-40.7996456664874
-39.3127630275306
-33.1186817456716
-22.8543704987655
-11.0775794199221
-0.462927441990749
8.08733085150441
15.6085221216048
23.0847683555252
29.5721183780669
33.0285647150331
32.8469768910411
30.5607859165316
27.8800076157555
24.9751734776692
21.0591595619943
15.8832314791125
10.2053088737603
5.26245541264904
1.99910431357927
0.326133420137322
-1.03646574863979
-3.60403604573391
-7.87017813862997
-13.0954456374518
-18.1769127943564
-22.6001909343499
-26.8068695890342
-31.8121258164677
-38.157415461367
-44.7783228477553
-48.7838225616359
-46.8548247092674
-37.7616816522344
-23.8709851555371
-9.60699896558238
1.99579964992404
10.904837371733
18.4816760042252
25.4055866778059
31.4111522941776
35.7848962330615
37.503398063125
35.8631411475505
31.5593850057745
26.4702855548206
22.0528631830221
18.4634948382046
15.2737492777818
12.3947737655743
10.0937580357658
8.51531958564485
7.51224091401739
6.99227829699712
7.29767628026442
8.85787900619239
11.155265444808
12.3583032932292
10.6285142770662
5.91032792447507
0.113808273058583
-4.49978591004113
-7.02392384410491
-8.35904389089995
-10.3663925439463
-14.4521602964073
-20.5903421156016
-27.3738262707822
-32.8013427519497
-35.3375994605094
-34.9562473011844
-33.2814917231688
-32.0539499012546
-31.2306507828551
-29.0942918730193
-24.3143486865152
-17.3381430511171
-9.62366151354151
-2.03083010162863
5.68987866547338
13.939470720406
22.0737713852295
28.4681122325752
31.8660221154236
32.3157358133678
30.6447077938541
27.6036239581965
23.8566429351944
20.1194577452672
16.7021617401384
13.3308291966925
9.85711762700015
6.74409723354157
4.50554601343697
3.1067000753769
2.30427346209185
2.19912929432033
3.01161334516824
4.45441015879099
5.57833401914333
5.21946487927113
2.69784068048196
-1.63647133148118
-6.49618454128334
-10.4759752033397
-12.9433197271887
-14.2998878734746
-15.4967189444201
-17.169352668825
-19.0612910617166
-20.242585785011
-19.7870921885355
-17.217191139455
-12.739287726719
-7.47220486548916
-3.09046008789824
-0.648631678245742
0.191782974559815
0.564526289280025
1.32750733162477
2.70359748847076
4.45319484074814
6.08312380938045
7.15682995057296
7.51069358100321
7.07802345260481
5.80018894483337
3.9253151642331
1.98566191094696
0.283083638941319
-1.16743269680174
-2.19021065838572
-2.62323332493831
-2.96817161709044
-4.05204568221851
-5.82844717312683
-7.23267855936051
-7.50919142036826
-7.07959947411394
-6.75790566677905
-6.48120934647683
-5.06576094555414
-1.12826574664949
5.5950569782529
13.5655527332817
20.1484400660507
23.2040821255685
22.151687163235
17.917946651581
12.2900724787346
7.12088689878775
3.61467628654696
2.09729734005539
2.29374277127959
3.61939920142999
5.34577004280128
6.82576533071199
7.6004848050948
7.34058862132421
6.08038125939502
4.55194188642824
3.69647479320169
3.64476423485093
3.68309625653789
3.30512414955219
2.7053266094452
2.11585538073538
1.23036029415929
-0.443983234260447
-2.93391990949572
-5.69131130796206
-8.06488018549169
-9.75620624926171
-10.7517398512543
-11.0002957476529
-10.5417471725888
-9.92530330354612
-9.90891675176939
-10.5115802029534
-11.0309431444697
-11.5423614602547
-13.7841886916589
-19.5926016882256
-28.3589398260611
-36.5670963301276
-40.1781691611234
-37.6240407537574
-30.6645664328419
-22.3840356926039
-14.2696761176028
-5.19022571809008
6.88561717010336
22.2439158010912
38.170419638528
50.0161247023936
53.9547210461091
49.5227410376645
39.7686759764704
28.849505236621
19.4964067358852
12.4623633086575
7.48668838505339
4.23574503487894
2.59616689565689
2.37074558517213
2.77725554266247
2.65918525264068
1.51696987084107
-0.114625966531874
-1.66895153384751
-3.3262240954209
-5.30418435595681
-7.03040601305135
-7.81756048647627
-8.10622104546449
-9.35158065120765
-12.6292342715399
-17.6988879480309
-23.4375318812536
-28.8474946782463
-33.3544489512816
-36.1492225626121
-35.7860935936577
-31.1535153304174
-22.7876066562683
-12.4166394168694
-1.01497044549218
11.8662375709381
26.3576470887701
40.4047538290775
50.22263537494
52.6770407682971
47.3350250981474
36.5989004001125
24.1523791073553
13.1732826732597
5.42874972117253
1.15062619906134
-0.724195434743193
-1.8273520504992
-3.32474965035608
-5.45740120114037
-7.88805472784029
-10.0744425105274
-11.398652739632
-11.4725221293019
-10.391174669022
-8.44902481316641
-5.83451722898403
-2.88251415489822
-0.274012963896112
1.41833772597982
2.25864948693701
2.88765387494345
4.0192422111022
5.76673194490737
7.13350962155436
6.53471763702686
3.45690102733264
-0.604612092732395
-3.44950717401317
-4.21095213511199
-3.70154473518566
-3.29513471721832
-4.09179558385914
-6.5773522522154
-10.1950618195516
-13.4254521630973
-14.9428126697317
-14.7925833915667
-14.2566629662623
-14.5498898212074
-15.6085234196698
-16.0971678936799
-14.6537781306446
-11.0749636192816
-6.23254605355666
-1.16934925338749
3.41422462871404
7.13168877655901
9.8244456634516
11.375043525767
11.4871916182101
9.99124091237447
7.41837507457259
4.82244355812312
2.94707179127512
1.84865946574196
1.17578838291874
0.487149592821943
-0.456359133735417
-1.36073452562949
-1.55686599167491
-0.659438287198843
1.25363134088133
4.16071055956609
8.15789152934036
12.7090166301514
16.4530537550856
18.2273056854953
17.9297743538811
16.1572305969654
13.5008549051276
10.5076638122838
7.88631200101806
6.21659190625022
5.36749514434139
4.45632859358404
2.77419446841113
0.865218698483941
0.235905264090328
1.595782418016
3.68124530579417
4.23490773226914
1.99072369320303
-2.5306591862634
-7.90840833523351
-13.1797173044596
-18.4085243461629
-24.1106004515678
-30.2382685932963
-35.7949157787197
-39.2502310645414
-39.1179747032219
-34.565209284337
-26.1316724553912
-15.6754310617658
-5.0093325800974
5.24529206197143
15.0375571705972
23.5758790016824
29.2874024581841
30.8920271280939
28.1923861397714
22.252360928638
15.2272968943859
9.49357828221765
6.21184724490327
4.77576315148296
3.92784662453928
3.17775587526949
2.94751419185095
3.7163554056443
5.3510487803582
7.08322411849014
7.9150178574514
7.16802641405637
4.94151683381052
2.22304629237016
0.319390823399247
-0.347335937997269
-0.951277212997944
-3.23035630349822
-7.48250363737259
-11.9283605418766
-14.2067507769688
-13.2716888695552
-9.92640827743147
-5.89554951268651
-2.39270937951058
0.596867749943744
3.5852374969393
6.272373871861
7.44588538084756
6.2402138984455
2.99537403901625
-1.20804210263837
-5.3529954989543
-8.70761457923275
-10.7124971580618
-10.9440559550912
-9.18511143073845
-5.64579590549054
-1.20828956268363
2.83337419231051
5.64525766895313
7.42903751160339
8.88379704579329
10.1306622086973
10.3885980809848
8.72927083337266
5.02958915483166
0.153728196271848
-4.73315020518525
-8.86385858372809
-11.8010296316451
-13.0912984470215
-12.6083315152219
-11.1064284026823
-9.67334461056362
-8.43199995285425
-6.2704499475855
-2.0558870430108
4.10347708039978
10.7579250881341
15.9974305614659
18.4712373927003
17.8975191488161
14.9769265943961
11.0430088886824
7.54477356267589
5.25844921150865
3.83323105433785
2.47773751537407
1.06153161709592
0.0450594260793777
-0.568540275990722
-1.52800660153371
-3.48016970160504
-6.25646263204752
-9.01714681652556
-10.8425424378558
-11.3626891106189
-11.0850896543762
-10.9269965077376
-11.2218125248322
-11.3323376180151
-10.2358573745238
-7.21067952418065
-2.1380293298152
4.24047972528643
10.3298158318456
14.5282089830304
16.2157577954584
15.6473610170246
13.1098185546771
8.71303057963731
2.98476131563922
-2.77612145946123
-7.04396139643601
-9.09617121170403
-9.49239284809461
-9.3904071759753
-9.42439941438258
-9.38185975728491
-8.67055447898724
-6.69944321204755
-3.15803991364483
1.44485942301975
5.71148693422066
8.39268332132327
9.40687354459771
9.56747113394782
9.62837240361195
9.80845523866249
9.82013858468382
9.15853028500879
7.67097952261796
5.77629908872769
3.79068243847661
1.39259913104387
-1.66377238407835
-4.60971316864816
-6.10353941736542
-5.52513095041927
-3.43783434319273
-0.976927470017523
0.902855024538215
1.92793861837808
2.67053836513702
3.96163200690761
5.83292677178207
7.21988406526352
6.82303265197437
4.1157527641115
-0.33116385079274
-5.18594969846888
-9.17182982510177
-11.9549461615134
-14.261077683846
-16.9221133022153
-19.7374288231411
-21.3334349104222
-20.3284554576347
-16.7876223144624
-12.2949148729537
-8.26438644659839
-4.43484713092279
0.531441374633929
7.23236127688192
14.7574360455908
21.3327324708402
25.1680770517635
25.0956569692454
21.1676580315955
14.7195899557877
7.64907674372281
1.62072660561622
-2.39778051031852
-4.47384808465028
-5.55959632381605
-6.45126410169288
-6.88587223964394
-6.07712970476846
-4.02092666793208
-1.76342442020573
-0.372577967780587
-0.0310961293573794
-0.145393892127397
-0.0234614477918148
0.601146555787931
1.5025001656064
2.26303476843465
2.5234841392409
1.95703031508713
0.373647337398758
-1.83443282315738
-3.58250298425747
-3.80658729095567
-2.32516753937326
0.0444262333521145
2.10397477165247
3.02623821644816
2.77225491150857
2.05530329098994
1.9976781662926
3.56543581420282
6.77880070198912
10.2702864406376
12.1094681683474
11.4518436805038
9.11873558869211
6.46745026572628
4.20774264394494
2.40346479040911
0.877179280867422
-0.736695672552315
-2.79649001774748
-5.18878141502457
-7.34498438600448
-8.82077548078375
-9.69324221723716
-10.4753510086907
-11.7236197084307
-13.4589322005035
-14.9060147610784
-15.2125424282573
-14.5103741577302
-13.7691076700359
-13.5364803284934
-13.4785053182232
-13.280028468191
-13.1003893062029
-12.5768382224351
-10.0119838858352
-3.479433329867
6.97949325957876
18.4928432551921
27.0122216465185
30.0480528804158
27.9163539141533
22.69577002369
16.5564757553564
11.0285866075671
6.90748215095311
4.13408788532691
2.00670924949308
-0.0848256270137172
-2.15340609103636
-3.76615711186931
-4.44815172358678
-4.06410635890795
-3.0654593421637
-2.18350559340027
-1.71218742387813
-1.37351744569289
-0.929830504393942
-0.496553891438208
-0.254888774915218
-0.341224997506733
-0.948102376583112
-2.0066192379918
-2.86896102625197
-2.85544062342082
-2.06408884514418
-1.17696479321744
-0.559573399914478
-0.0004518562003899
0.739765763051129
1.56438866154989
2.29200696925851
3.03783409618174
4.15299203573276
5.57386626162048
6.2504931925175
4.7665916447694
0.936836960829428
-3.52034027415784
-6.2395304129603
-6.01615632247623
-3.44790195556242
-0.240079981521137
2.05277073149312
2.9537491125299
2.91842980927028
2.39938622595075
1.38844955525112
-0.159319840166949
-2.00774864860817
-3.89274885053287
-5.64645946201528
-6.97041188722444
-7.4625724152582
-6.95649196300261
-5.68546519431457
-4.22562524786797
-3.29659699460989
-3.25267013754562
-3.61916977302331
-3.38587963568489
-1.86671580871484
0.746853618136802
3.45658018107324
5.0061807405112
4.78224590195633
3.41956897253183
2.18593251115272
1.59880220718998
1.02080701210554
-0.25828839189476
-1.97948190512784
-3.07959037327641
-2.51864643200358
0.0335890695411583
3.85455711640556
7.44422446575553
9.46324469448349
9.50198141382924
8.03485673086058
5.97776662989224
4.31325265380116
3.69822795414552
4.17614344177157
5.26171253096495
6.16204268936
5.96592534046592
4.09363327647759
0.747077189321451
-3.39509263788315
-7.89818664482528
-12.6051188125091
-17.1231656089917
-20.7631322383809
-22.8826647345097
-23.066601007999
-21.33931460234
-18.3156416971256
-14.5079421886697
-9.41330452938765
-2.21804199520077
6.32931311482231
13.7537412624512
18.1464834974576
19.9789784755206
21.1182190652517
22.5011271066211
23.2640957358844
21.9334186495741
18.0997700677271
12.8994570573036
7.95553241430032
4.00274754409212
0.749497435138368
-2.06185816740699
-3.92886816871821
-4.06497066102531
-2.39559633900028
-0.0036079056202101
1.47329167602354
1.14488683986137
-0.344675175188814
-1.52765402100186
-1.64224410857549
-1.33096117038592
-1.9169383180207
-4.1331548495968
-7.47989820000282
-10.7730907950182
-13.3476087412467
-15.5134936295016
-17.7045327039401
-19.6396568846
-20.6903675175741
-20.5360213949031
-18.8792956539289
-15.0170113339633
-8.53178593512088
-0.405507533740427
7.06906313974745
11.8001829389215
13.5105857831419
13.8890531779243
14.8400351339846
16.4155274387224
16.7973205666898
14.4641096777701
9.94456766909089
5.2501900757397
2.11087394816267
1.04372891262212
1.53565643818533
2.58261516190611
3.32123530883541
3.50698893612737
3.31560520096458
2.75843298757619
1.61982148935384
-0.107590774629083
-2.07895046226059
-3.87329016064994
-5.22063176670938
-6.01180494052855
-6.19335902298645
-5.68401181585401
-4.51257267268404
-3.04566183440613
-1.82310534260001
-1.07940838547713
-0.615002862082524
-0.0943447282780513
0.726207468570856
1.85602477149142
2.88311101116795
3.20632609518844
2.71801447100362
1.9530635860481
1.43309887725024
1.26949073482026
1.40024535981369
1.64055663744806
1.52085253594272
0.727586819811238
-0.253845299246015
-0.505751554417246
0.279764282507352
1.5630944988552
2.64334624030042
3.08050915682393
2.56447746561176
0.962077796684198
-1.39544729609982
-3.77563579383454
-5.46905367700242
-6.15436528900402
-6.03994038031024
-5.65370733166152
-5.26102433771642
-4.47889485782779
-2.61963818403761
0.56144344894491
4.37660514264219
7.34103701530568
8.06798989251279
6.42067207490453
3.68668593213357
1.42380219830698
0.346069565449842
0.331831847169482
0.899019836475048
1.37968400230828
1.14667241387467
0.074614048257269
-1.34155107238023
-2.32058381722021
-2.17866603718348
-0.828315498116297
0.691739592154051
0.579669055340657
-2.23550279008671
-6.92771118588793
-11.2641577402258
-13.2682403432788
-12.5924898982745
-10.5730855202425
-8.88380193018294
-7.89432734736342
-6.43794451520565
-3.31496664218644
1.30527185548415
6.20249205524963
10.3371316358072
13.3152197591002
15.0436095065456
15.556106628229
15.1404969478603
14.2427977324861
13.0759012313941
11.3553816917598
8.5852959998767
4.76923383573416
0.67051392997186
-2.8560554712921
-5.51345969241523
-7.30083726663937
-8.10770023751202
-8.03100710718193
-7.65734343184252
-7.5376970171985
-7.63102289355309
-7.45337768844474
-6.4414486250431
-4.21282282871872
-1.02390106883347
1.99506236337632
3.53187244531933
3.10742821942007
1.34034075198177
-0.477150794194528
-1.05238754795984
-0.0120299665691214
1.54559544738543
1.88950706234607
0.270864101571932
-2.60102391355743
-5.57016040197676
-7.92024944808939
-9.24428927123634
-9.14494365261996
-7.50447287445595
-4.87522184969945
-2.30735764472967
-0.556663972470266
0.687063827912689
2.567597607024
5.74836784951951
9.54101267197972
12.6408504719852
14.3679945703821
14.8042383364118
14.1358185887604
12.3883103604617
9.64810759026886
6.27190598302687
2.95290988677222
0.51299131074165
-0.658504226753087
-0.984763737084369
-1.39638604983599
-2.64537176050543
-4.7440232710545
-6.79080043573786
-7.54941096569272
-6.6253251435746
-4.93384407406353
-3.71745186748094
-3.40355974412775
-3.6479067639876
-3.96121722832342
-3.93598502900615
-3.35692164200928
-2.46049429101797
-1.74719965839787
-1.3603873456463
-0.988152814747709
-0.423777197069285
0.187835717849558
0.725116872228849
1.34150192125859
2.27401320103681
3.62918953129806
5.27057781312648
6.68531804649068
7.11173278617438
6.04067918005052
3.57252309610073
0.347736127245364
-2.70768911831619
-4.79476470152389
-5.7731990600394
-6.19457793716477
-6.57203005262915
-6.74000702116758
-6.1024927343454
-4.43482805857294
-2.36629753355265
-0.981775538454896
-0.717555484175816
-0.728316767049043
0.185380118128682
2.0142354967315
3.48370193540875
3.62554429806281
2.7841099699017
1.92586174602289
1.50573460902959
1.21493648145097
0.544172871693026
-0.521463084056632
-1.37367874885909
-1.50363168764302
-1.22666622909189
-1.2974495045157
-1.88803993712371
-2.38036894321414
-2.12467997088079
-1.0543481765874
0.320722422592785
1.20480008836071
1.03003425319923
0.060221192201215
-0.731657835529547
-0.686492530749825
-0.0817031395950834
0.462998728728798
0.775352182309142
1.07724555720182
1.52092771162026
2.04897059577398
2.58122342954646
3.24489151221019
4.32898526403826
5.78559275626986
6.85077631027826
6.53256703804253
4.51533176240432
1.41023218294083
-1.67745829152791
-3.61790817857149
-3.6936750862483
-2.04054607973256
0.381670769187518
2.37399445477239
3.07944595917761
2.37303247579778
1.06926097570473
0.40588349592843
0.841510103123564
1.58290358649713
1.57650420255223
0.625398600867501
-0.674822871446365
-1.66146871110784
-1.99821263201496
-1.69209080091177
-0.998552365709864
-0.211729451818406
0.477126667017055
0.830494567367687
0.487759779667833
-0.667124091638016
-2.19846323204694
-3.44790114924831
-4.0478676402937
-3.9818194402549
-3.43106645656099
-2.75184735066755
-2.32874032489369
-2.24756103203579
-2.22085115785887
-1.86679797429006
-1.02031341187475
0.108647005977829
1.03498399644146
1.39645983877402
1.25754330098848
0.926988967391472
0.581091771945622
0.13199671464329
-0.699625992419031
-2.14199294074846
-3.94187363127808
-5.33561967933076
-5.81203177954371
-5.64560277689312
-5.25194568594448
-4.41893946364194
-2.75588448614392
-0.567880276262419
1.28492164301138
2.20126717904655
2.19457947420013
1.72942496025001
1.4631251964671
1.86841339359233
2.86226710093667
3.90393457482399
4.45409285892608
4.20409195907659
3.0915110745342
1.5014483570881
0.326555385758416
0.351668901676137
1.4889078060558
2.78579898062101
3.13087158044707
1.9607385155123
-0.40050425023231
-2.91150124333422
-4.44356397364497
-4.36857794384794
-2.71973321381569
-0.101220432352493
2.54962129293453
4.44255687133836
5.29843783860036
5.23654453889784
4.59870396478185
3.998000102058
4.04282251135749
4.70535483367212
5.34595684481617
5.54238119756729
5.48184674153917
5.45555223384987
5.41003821551983
