-0.368592235214151
4.68627326313947
7.31371282730512
8.1463674756194
8.98152653935534
10.5398191833512
11.9652152924367
11.7852714276906
9.8107083779436
7.57891604226051
6.61091276848365
6.8156652089183
6.96832294903364
6.28069521256296
5.05267574319523
4.00624778757718
3.42236453896452
3.01454371686643
2.39734671465835
1.45211957291406
0.295425572436166
-0.8766886331432
-1.85863324246787
-2.51918222792021
-2.9302400403372
-3.40222059733548
-4.33838480514115
-5.90037748847605
-7.68609118378073
-8.91198990118377
-9.1456452983778
-8.68134667442987
-7.97427345065371
-7.04359734848224
-5.80045965950455
-4.58530326037984
-3.85438872806393
-3.54254741493033
-3.13619011349302
-2.19971112433073
-0.60764376817322
1.45724692240669
3.54338081025674
5.24581537043365
6.57139081177604
7.67295690332197
8.24005922023079
7.65307934426022
5.87613281719339
3.74496760724883
2.15071626273725
1.24436782027743
0.594605099296256
-0.15182100915487
-0.943846367287199
-1.4985351705773
-1.64376786226819
-1.4954733106833
-1.35198848650663
-1.46162839254577
-1.87125495554808
-2.40669072780062
-2.78844735022053
-2.84720363428712
-2.64860146069667
-2.4273152734715
-2.47469270769949
-3.00131429373257
-3.89507995954563
-4.6938055057605
-5.05897069498594
-5.1610843377076
-5.31107319783298
-5.41558841612933
-5.15870619589966
-4.4959080937135
-3.58119180625948
-2.42528428385948
-0.982884083365034
0.612908413776347
2.16056294360276
3.55360872189034
4.71791877117163
5.61860912257401
6.37132653752745
7.07849225105272
7.55222363740961
7.49275341123598
6.94234220318249
6.27607168198125
5.73922766808628
5.24669097547817
4.63033747750044
3.86579940752429
3.0616363726074
2.37704239180102
1.94119364856561
1.77957775394322
1.82060388831159
1.94647022259726
2.00678929720518
1.85570202498719
1.42760573408979
0.7424597124868
-0.137313821125704
-1.1168799555012
-2.11782750680826
-3.13684186871764
-4.13356192977172
-4.9030389792668
-5.25637067142968
-5.25855685195723
-5.07880436442446
-4.75557589586692
-4.34298901486936
-4.05204809571479
-3.96388524148781
-3.84678523195309
-3.49348048635379
-2.9640839465956
-2.33541069881128
-1.55613763103351
-0.700678210546144
-0.026003003131731
0.352430471769242
0.554190914102977
0.654303894120217
0.60514330926303
0.465719695800751
0.425954822737732
0.577059442274655
0.888181860691025
1.37870529722625
2.07016065758063
2.78114614633645
3.17234290576036
3.01790770171266
2.34608192201407
1.3458044382939
0.226771300763982
-0.80540301392808
-1.51085569539415
-1.70860770508405
-1.47862747055973
-1.14564192811027
-0.98837536054201
-1.08611169836241
-1.43765492678001
-1.99060368662218
-2.5393543285136
-2.84851721288214
-2.88288965839125
-2.72286293519444
-2.37760897711265
-1.90121041338402
-1.48128131357751
-1.16788640448459
-0.757170743156253
-0.14303531836109
0.510837976619599
1.10465673389513
1.77183301177722
2.57835002169654
3.37497065225519
4.05366717355115
4.65819041373282
5.16786645882084
5.44242335756859
5.44811051252121
5.32134852191792
5.17207698903837
4.99288585233535
4.7500011799692
4.42116167937566
3.98338429396788
3.46427950262755
2.94107403058106
2.42742572547341
1.83514967349145
1.0875827368858
0.226581064976432
-0.610648933025887
-1.32408275486562
-1.95217165272879
-2.58650628752776
-3.21906239301448
-3.80857552152036
-4.43835066786003
-5.18220334586112
-5.86694555455619
-6.22549754232363
-6.21271666724541
-5.92517729212721
-5.36999755587732
-4.58899407180784
-3.79366050365261
-3.08956621599459
-2.30678362298791
-1.33393587738009
-0.321163410578235
0.63584691480188
1.66599391229943
2.79593828164066
3.76505413606134
4.30071870366942
4.32987566384626
3.89338805946437
3.12326219517445
2.29956326153855
1.66045268020381
1.15863375114979
0.604620022787062
-0.0239881349746442
-0.60508468980331
-1.09474126135541
-1.53751887256415
-1.92333002209303
-2.16570717271239
-2.20100003290207
-2.06509549084575
-1.87460890012499
-1.73765526230802
-1.73044325297624
-1.96241697842987
-2.50303149149019
-3.16965633074821
-3.58255971308954
-3.53484380643923
-3.13639466993385
-2.56208155777692
-1.87949530541644
-1.12883730637816
-0.349502632509441
0.444071558862729
1.15313286543254
1.60027171464681
1.78448094285407
1.90726430500317
2.03231080062317
2.01735182265292
1.88299685297861
1.90447673342602
2.21633906787422
2.62976443716898
2.94137545955874
3.17216215930329
3.43437597498711
3.75742174343701
4.06972133959025
4.21624881229588
4.05037311189954
3.64073468257928
3.2811752895508
3.16086879102216
3.14258277831745
2.97138679449143
2.5677300076061
2.02695586636231
1.4479409869509
0.843008796431107
0.173742750794843
-0.556735677625061
-1.26486796967121
-1.84597430297917
-2.21344522397515
-2.28660629127337
-2.07948941668572
-1.80665272971617
-1.72590053982455
-1.88691712345678
-2.20162559806243
-2.64866305584576
-3.1789533097796
-3.58751176849546
-3.74484423327716
-3.76328149451034
-3.70600146609033
-3.40295483072369
-2.78249931897894
-2.08571965752272
-1.54648662537675
-1.14265792389224
-0.800630666164939
-0.553178428451474
-0.380440516785145
-0.148851152677366
0.202590145452077
0.598938165208112
0.969132806597291
1.28598243957293
1.49751011514465
1.57539258425906
1.58813809003666
1.61089637030854
1.63137155163111
1.61591449072015
1.57932541771272
1.5498701677097
1.53825166508237
1.54097742311986
1.53927981812227
1.53207735630102
1.55142239068228
1.57251606556554
1.47189247241815
1.16102853161701
0.669967407938905
0.0485514135799177
-0.669538980611357
-1.3837107807788
-1.98577811217731
-2.4847057685538
-2.89829884059482
-3.12369091742936
-3.11055324568506
-2.9982193136414
-2.89035661253983
-2.71400215674803
-2.46314602372118
-2.2940960423044
-2.21725413577011
-1.99212343257563
-1.47478197210564
-0.800174223848214
-0.120454051265441
0.576520353563182
1.3035387375778
1.95477831926172
2.42091883465526
2.66390624277825
2.66843601039582
2.45758168074761
2.13447952627466
1.81351499444987
1.56322596147214
1.44695110849698
1.50511082424615
1.67259676337141
1.81468421530249
1.84376842341922
1.74698222387371
1.55224227837755
1.30413971108203
1.02396807157004
0.703982313181082
0.365493370540424
0.0464699570768027
-0.264099464705304
-0.545902417539361
-0.651109105953888
-0.487795183095448
-0.233552107810892
-0.149928931059984
-0.274120427954602
-0.477965837442192
-0.671231058152239
-0.77887829771141
-0.731496844525722
-0.622817798266388
-0.64323950573648
-0.769277998928043
-0.773777713709513
-0.586127268434869
-0.381531373686445
-0.295039149204023
-0.28265021742166
-0.258701657729071
-0.167863605250203
0.0462317184449962
0.368666230250949
0.656325668333323
0.78156737186504
0.761715185657838
0.674331542167658
0.558108450476787
0.440465137521856
0.342362935402604
0.240120438168832
0.105023713872577
-0.0540500746291668
-0.228395045824193
-0.419024334095236
-0.615345580505366
-0.839524019214115
-1.13596393226499
-1.44093873680303
-1.59927185286413
-1.57887522638404
-1.50161845211587
-1.4338380732833
-1.34089875724541
-1.22841218096124
-1.11776804227827
-0.942574564777168
-0.656375579650226
-0.327572294397033
0.0085506885321385
0.396419938704921
0.754424077735701
0.873127429306563
0.711781204197018
0.460767575253891
0.267901997920448
0.122412597060798
0.0024406595004281
-0.0724213018388523
-0.113385466206626
-0.122516788439131
-0.0392715081150405
0.140443116264485
0.295063752550146
0.353938106061199
0.417361606222533
0.579795113190719
0.755387372680581
0.78395208111459
0.634241131331191
0.45618296897622
0.458375179928052
0.703580363009498
1.02856790229972
1.23444919485513
1.30055563785282
1.31551481524592
1.30829090234361
1.26572495191232
1.18804761430498
1.03352170600148
0.752207499203528
0.414965172026215
0.150557556228645
-0.0206637425531706
-0.12939426735134
-0.142762634291939
-0.0824015343523881
-0.0898231293708887
-0.206376421666334
-0.292022890069655
-0.287261392411164
-0.311414252179927
-0.416294394009599
-0.504778800543126
-0.547630329459371
-0.632218065213888
-0.767686430743144
-0.852695968573189
-0.838922483213466
-0.763926732584591
-0.654945661254597
-0.527960927017027
-0.422876120265131
-0.349690332627502
-0.281467503795832
-0.241499159768161
-0.287779148394972
-0.410791680555002
-0.565451314928658
-0.768009726941422
-1.04941848258905
-1.35616457211527
-1.55861549308367
-1.5243808934148
-1.2290468611687
-0.859458564364803
-0.686908144949215
-0.751278263767612
-0.825086032933155
-0.744032235730218
-0.567619945205673
-0.389650806777674
-0.236353992895751
-0.162540329166716
-0.213096379131623
-0.307792677438432
-0.339564885256442
-0.287384602549573
-0.105676857993056
0.302285996833087
0.877213932437934
1.38786002973972
1.71271187757917
1.93414544322023
2.12668205301411
2.25788575391976
2.29504603026133
2.22831605378065
2.01720306245576
1.66526734034947
1.29813419873921
1.04883022105888
0.936130341090249
0.933160397896876
1.03930877677699
1.21123948893804
1.34252432548547
1.36494380641415
1.28689476438964
1.14926412669967
1.01809395903257
0.95638660654117
0.939014721855409
0.859348980184671
0.631056854564433
0.232987586919854
-0.273942516761687
-0.717944074503815
-0.935131012726747
-0.967800264633847
-0.993233543964614
-1.06333759295943
-1.1104141182431
-1.14952857790787
-1.23327773848446
-1.28907463598197
-1.24437428135814
-1.212897868468
-1.35565860073633
-1.67978581257893
-2.09800432127518
-2.51702987093082
-2.79998611504996
-2.83865612371839
-2.69923090296303
-2.52810427604903
-2.33891031104479
-2.0481159825379
-1.64971120934568
-1.2012400330268
-0.726063495289754
-0.268840265513854
0.0576947566572983
0.211123730484708
0.304371788862914
0.459944643571203
0.675494479121397
0.876201550399087
1.00333094250538
1.03731750547311
0.989128997151062
0.848656162207607
0.564727390341588
0.167190726387269
-0.156280890128306
-0.236411740442089
-0.0942834133200692
0.168275352832013
0.517066096532626
0.93051254041947
1.34637569089916
1.72277096791117
2.02184574410681
2.16832088457868
2.16817594811865
2.14870079773214
2.12730574955258
1.93286512833559
1.51181954371586
1.07223267016215
0.78170823112793
0.579256967774584
0.39350105538706
0.280644866748557
0.251419580911652
0.190596415220895
0.0277390183950935
-0.166920055090149
-0.282820190651008
-0.255668696037165
-0.0776335903521991
0.182236574530246
0.395763990333012
0.463579213514439
0.351313040587949
0.0730416347186593
-0.270795320751865
-0.511514398223946
-0.580470630589312
-0.564519671165439
-0.516789981724884
-0.371885107063639
-0.128385659635445
0.0538089177152296
0.0082297190621551
-0.294805290096871
-0.737952287014829
-1.09881515461664
-1.19260523347851
-1.05125524968384
-0.853565385180358
-0.67851029815974
-0.496772992042207
-0.35979705450962
-0.377177381409833
-0.541576171214014
-0.741776756377799
-0.868821362357903
-0.81700372822322
-0.550630358242111
-0.24400913106492
-0.157506387795465
-0.333656124927196
-0.59401252816981
-0.800320280149761
-0.929115608282186
-0.961386811576736
-0.890148599568847
-0.775353107012787
-0.659034052357014
-0.515250295248181
-0.365033558287794
-0.292327571318062
-0.261759986650115
-0.0917145664526026
0.29299459393567
0.717160253263512
0.928970939123162
0.82965353362585
0.530194598350187
0.243811742379032
0.0970620936839479
0.0504654675919434
0.0554709920897088
0.182252361462109
0.461762019263493
0.73537562065643
0.823998607752253
0.730372968623033
0.567328253119943
0.426423856782275
0.370871929960444
0.399205372285026
0.411319674537039
0.356587168361975
0.346666492819298
0.483408126058674
0.701951717645315
0.897403283231828
1.03476467916104
1.05748087820663
0.890517112641663
0.585917065029272
0.284457109213671
0.0344936541641309
-0.19544336525983
-0.378261323546169
-0.451930778761956
-0.42406177332133
-0.345796905304998
-0.246473376113669
-0.147644354827945
-0.049068440779538
0.109574302760849
0.350753901427831
0.557376273535416
0.622845195780269
0.635077041650696
0.742503774065344
0.920852084362634
1.02079978642946
0.957553529680181
0.7603178225146
0.525700137172596
0.349164951141415
0.228703139884861
0.0897320319567602
-0.0486905487486357
-0.0802890659081546
-0.030329424062809
-0.0707934222120406
-0.272312134584332
-0.531444364213022
-0.745159599413105
-0.88507753649857
-0.964943440852356
-1.0898290070374
-1.4082603335243
-1.88141548791268
-2.26463154083508
-2.40413908002876
-2.36490108039084
-2.23831533588844
-2.03176442852163
-1.74813382519375
-1.39397710701502
-0.943889250350562
-0.434833596604092
-0.014470340358616
0.221929487772521
0.337000984470546
0.402574521787414
0.381800922897679
0.247066246768235
0.0815907671453724
-0.0059802025832041
0.026757479150738
0.146640918424306
0.250454851409817
0.251773369215866
0.217787763494088
0.295306932167303
0.480422093243021
0.628791995463711
0.689748141505098
0.755318906790865
0.901062283795277
1.11487951699885
1.32620470813791
1.42909224364558
1.37769791719224
1.2830635293254
1.29518993428984
1.42785846298925
1.61709095225249
1.82964542279413
1.98211668831157
1.92432177785306
1.63171697978109
1.24273249575052
0.842272146529487
0.399795989906735
-0.0703345950648318
-0.486602963818717
-0.818693865770647
-1.06850959408114
-1.191581903855
-1.15695973500282
-1.00155098557901
-0.7579449316007
-0.453200476765239
-0.21514006115065
-0.216118198605106
-0.477426431386326
-0.874097889423049
-1.30063154046574
-1.67025601724761
-1.84279792389502
-1.74910632625725
-1.50349545932552
-1.2546933258765
-1.03394708729677
-0.815057467903105
-0.574339887865646
-0.268807224498121
0.0991169483045609
0.419989874054867
0.59200076268311
0.623287055790473
0.562034924570474
0.452633353304852
0.376789308833343
0.381127434901246
0.386612299617501
0.317722981575608
0.240280091995449
0.240458574126333
0.304837694439845
0.424695203215563
0.633855478531273
0.861054751056612
0.943656360305277
0.843174346147724
0.676050849174165
0.52816141017751
0.385645452106683
0.212679237037983
-0.018004843843897
-0.307084731625241
-0.56484041357077
-0.664567787218794
-0.608467976040977
-0.51760857648039
-0.446128844367191
-0.360397841025847
-0.27715611526053
-0.236048727574309
-0.179611398298718
-0.0408694173129547
0.117170639535234
0.190354535140692
0.165203805425319
0.0771671778835219
-0.043897355202189
-0.157203790290018
-0.25129456324735
-0.362270627986305
-0.464892554643542
-0.458478770592171
-0.33317865023833
-0.198631204912221
-0.111181238413474
-0.0426220834624872
-0.0042211605254026
-0.0164357752483305
-0.0011917998218552
0.140719797097292
0.423276111711529
0.825218651352438
1.29299160301562
1.65442037622523
1.72600721772789
1.52604281607535
1.20516785479678
0.806919338709152
0.276303831904215
-0.359133377207249
-0.980311268075429
-1.48245162094723
-1.77914844789483
-1.80544690902505
-1.618289341494
-1.38593318528636
-1.20224549703812
-1.01244844688938
-0.747163050500065
-0.425432236956564
-0.138069902279584
6.55478822791447e-05
-0.0470501954057644
-0.147633807648549
-0.136726392134419
-0.0300512560761297
0.0456047183650907
0.0749727356440078
0.13864672472525
0.259981900707985
0.413897441189553
0.58462743602088
0.722693803821321
0.771868601446133
0.769710626335876
0.782804980616046
0.787205415726759
0.764826702092875
0.805020668757119
0.946138305861416
1.05896783093087
1.0222673678818
0.857549458155846
0.624495733069343
0.364497270719701
0.155259613354904
0.0377668242203722
-0.0695875278511904
-0.229403755716881
-0.360878803481127
-0.395808306096332
-0.412913669270221
-0.481145954297301
-0.529139791427541
-0.49405841270661
-0.436356482538626
-0.40389962958301
-0.344188771600545
-0.229811756920105
-0.131590103114726
-0.125953324262688
-0.220796042901167
-0.353158660611804
-0.415535838834786
-0.35954893383531
-0.275698246632389
-0.269226071165725
-0.309198093308457
-0.311151467974461
-0.261785572116583
-0.149363909852519
0.0864823888116582
0.431876732116093
0.763373187306883
0.986912121184891
1.08728132915745
1.0677983948036
0.969241969306429
0.860842311113293
0.706634730227155
0.39273907790778
-0.0341703418868343
-0.364829697699551
-0.530217256298882
-0.685859939048604
-0.946154134540146
-1.23523540245005
-1.42915924214284
-1.48225401585836
-1.39467557850684
-1.16880020415078
-0.825043740116325
-0.436536354184067
-0.150300278193243
-0.109960018317474
-0.271750985676226
-0.387271295006257
-0.312094383492945
-0.223841857681434
-0.353642264099806
-0.627149496372842
-0.777694616268837
-0.699575872317791
-0.505272831304328
-0.330575689763005
-0.212213451374473
-0.0960740747699828
0.0678898242163085
0.210477341351412
0.210525486162817
0.111449502947883
0.104905003199415
0.264503089868822
0.495083675071569
0.746595013913486
1.04188836190711
1.30285129870172
1.38481424636433
1.28527173848865
1.16315094400208
1.18210700863688
1.39264871417032
1.6739906471654
1.79846953705792
1.67957184910245
1.48578591763532
1.37444401155361
1.2562171828697
0.989120057733566
0.639723625271038
0.365552568125105
0.180984009964252
0.0073571638465241
-0.166064056463777
-0.307171002650766
-0.425774796240021
-0.546224481032872
-0.67730088996477
-0.822514782067982
-0.941095834629184
-0.957863250484834
-0.88743821959899
-0.83538790402163
-0.827324256572023
-0.792568502100784
-0.72502758026138
-0.676992866718485
-0.622963697094765
-0.511135223728386
-0.389338243207131
-0.330740700915072
-0.3212687817791
-0.316880244001994
-0.307210697091112
-0.288705206933541
-0.284035574993561
-0.348432104802728
-0.447594079519945
-0.440125350843351
-0.290532312686742
-0.144734481441999
-0.104000643954024
-0.102476168767996
-0.0667139520732358
-0.0152998292308863
0.0266141305190223
0.0603677481106582
0.0707049431348157
0.0466698554503595
-0.0150002946471373
-0.178520391315464
-0.51943754034042
-0.954989439964065
-1.26223372088385
-1.3145532084489
-1.17831940562353
-0.971556597389853
-0.760937179920869
-0.567493331912277
-0.341407090487135
0.0043713661944496
0.431259015575219
0.756790231294535
0.871951240115973
0.83924238098777
0.750825456276582
0.647735771840503
0.569000219152413
0.537707145759787
0.537502104317595
0.581792134700048
0.70398996908364
0.847764669750816
0.917861665089381
0.934519669530913
0.971760136507544
0.994071067312877
0.921768689427084
0.775745613383704
0.623439060524234
0.493168716742708
0.414699204207194
0.396630166809327
0.346331265081521
0.172610268402337
-0.0709337498927253
-0.295407977933975
-0.531040647674905
-0.822454626389008
-1.09065148547339
-1.23753197066423
-1.27432963012558
-1.24876879164063
-1.16689540899105
-1.05084826058556
-0.939193811107297
-0.793296093738497
-0.542326688669263
-0.225231393446322
0.0426741207178304
0.207617294496358
0.275752686868939
0.262834235622993
0.233858992343551
0.280577744040269
0.405100999587808
0.533606944671847
0.637855810554518
0.735274520902811
0.825391695996023
0.919783527026002
1.04809270186117
1.17950132126334
1.24631119355695
1.24735927876766
1.20821804561777
1.09608724140251
0.899711928210631
0.692037837926829
0.509299721346998
0.308259435019723
0.104607167325734
-0.0227634444511541
-0.084490679803185
-0.148326857532256
-0.177233755601382
-0.0858042785961618
0.0888796622918847
0.231004286238509
0.299594884912973
0.327531715453703
0.354037024358142
0.433526844993977
0.591992832098783
0.708014386718977
0.57312007629747
0.136177985084845
-0.428962601121019
-0.920577978996321
-1.25809983568411
-1.45712816812813
-1.58227657830652
-1.71442830197469
-1.90029359926195
-2.15109372344701
-2.46149017214008
-2.76344359440276
-2.93009613868649
-2.89845876463614
-2.70326573483953
-2.37507743758366
-1.94755007274528
-1.53538263076163
-1.20968695671826
-0.845872651407702
-0.297331408422421
0.357781463908257
0.914812319308403
1.25751169987081
1.34277202465645
1.1623409874716
0.835550221071921
0.547949318059176
0.346410074181478
0.180725009506878
0.10529721583489
0.217503989340565
0.459758671803573
0.686657527208451
0.853006123681657
0.980160858451034
1.04749399055362
1.05911413874459
1.10934031184442
1.26986434960956
1.49973127795202
1.70366425662112
1.77522902071878
1.61445247760866
1.24435513616661
0.866378386756233
0.690576290447592
0.776612876058779
1.07222719302046
1.46829646350054
1.80749775125173
1.99064386403346
2.05791596296166
2.06359640821807
1.97116303351225
1.76406799051206
1.51604023859176
1.26990096473947
0.976524072536968
0.577716189792447
0.0442461528864203
-0.603063173277123
-1.21477329775774
-1.60781353351623
-1.83742329058009
-2.16915225402629
-2.69109629503507
-3.1814804868971
-3.42506390158968
-3.43426322332626
-3.31945731284322
-3.14146177974294
-2.91225902688643
-2.59571039204514
-2.1122151759467
-1.43333471601536
-0.646788514793685
0.106667201985619
0.707110596523169
1.08235720698521
1.26387727243977
1.38847137484551
1.52849368368339
1.57026308112631
1.37034341783235
0.94853446393722
0.436331030657183
-0.0474464465966397
-0.406526702476683
-0.586399151695104
-0.613241458123754
-0.511598227363503
-0.242197463357751
0.17178552343812
0.569916517932327
0.80769141987011
0.868224292177344
0.795517193962904
0.679668450740818
0.689250034101732
0.927779415245874
1.28879392943469
1.59427983597673
1.78174267461835
1.85424777563135
1.81219618445626
1.72934560196919
1.72627743887539
1.80970108709698
1.87039231365883
1.81420834046695
1.57496119088175
1.09001989626099
0.386754903799669
-0.404230167284847
-1.19342171998967
-1.96310148866109
-2.63097952349852
-3.07196765253947
-3.31948313742616
-3.55609629710587
-3.85722793824584
-4.10515924393794
-4.1751462509202
-4.07050517461432
-3.87912382291102
-3.68302301778946
-3.47837175540659
-3.16518592726927
-2.6751478093828
-2.06151065563396
-1.39731135365922
-0.711592464654517
-0.0970440406725897
0.312399566187111
0.553835484504539
0.822882377144898
1.19934531948327
1.57864983068984
1.86278162577321
2.0335982006888
2.11323417637603
2.2188713774665
2.52615463265337
3.04528280854019
3.59275115295586
4.03918702969816
4.37653742875167
4.55190513614327
4.49457343814027
4.29560666806138
4.14044985335799
4.09579415250942
4.10180089614219
4.07068630888939
3.87787272087652
3.39492717521509
2.64785908148172
1.83460351101437
1.12312711479818
0.527281156199193
-0.0271642056656687
-0.623337505221978
-1.28106565557023
-1.86356644220614
-2.17120376905393
-2.21094146597351
-2.21600567909942
-2.35014303858339
-2.57514395781272
-2.81039731455247
-3.01562127511284
-3.12764079966384
-3.08437511662786
-2.87791366000217
-2.49931790419006
-1.93549561152377
-1.27228660461803
-0.681140058525128
-0.307125129660401
-0.282151070699035
-0.749701376994886
-1.69873349056768
-2.842322301122
-3.79135837725714
-4.3023244954558
-4.35544470867556
-4.11885717609108
-3.81538263315607
-3.51093536679803
-3.10430999154422
-2.5889330034781
-2.15303874754508
-1.93150895429235
-1.8446403140485
-1.76616016430117
-1.66686290636669
-1.52232303725793
-1.26082444003847
-0.873194954476613
-0.419595376393984
0.116443006203467
0.837226207408635
1.7616699650804
2.74280661962141
3.55108616603864
4.00925386809287
4.12331083820438
4.10288354110783
4.17398591523254
4.39334614169606
4.68911880742906
4.95880859886646
5.06980665486972
4.9442937358797
4.70794513287338
4.57367693970626
4.56241085389026
4.52766795850508
4.41646732516443
4.3041948338959
4.23074878475827
4.1560144108268
3.97702356141912
3.51993092030708
2.70990608391183
1.78307229259965
1.07485285726004
0.578897995653402
-0.022462246111219
-0.895279140884525
-1.87172105945408
-2.72252841370081
-3.4029974654799
-4.01369536738428
-4.6427312890116
-5.26567801591443
-5.77066335652082
-6.09310916919648
-6.27870568490482
-6.34929541530463
-6.20123780176234
-5.75652527007283
-5.11763698680554
-4.45380344558783
-3.83692151529745
-3.25601693171113
-2.64554026423237
-1.87697670606751
-0.918991888939076
-0.0206111129518842
0.45818307625462
0.41927964565864
0.1199391182912
-0.0683591693441294
0.0600609297886847
0.419751173061759
0.761046262918363
0.979501243452656
1.22229875477224
1.61799471930851
2.07474501145428
2.46038165700431
2.77627310443849
3.02594092509712
3.11084390690942
2.96303936270311
2.63347835807585
2.23154205141644
1.89380989484097
1.72165547860767
1.61854853353156
1.32424803428795
0.727992066211626
-0.0001987361807132
-0.652210299071192
-1.15997538771686
-1.48109550638179
-1.52814823374019
-1.29097140114149
-0.873586500649422
-0.392846017595773
0.0368639271439848
0.294258473048458
0.37273228632001
0.411156950099788
0.490378526972431
0.524808546951898
0.412745140824623
0.140608375848024
-0.269282878531585
-0.754497242420437
-1.18241042682986
-1.44817780277557
-1.54409474544005
-1.48126133014232
-1.26343428948408
-0.949501077775502
-0.601006753427647
-0.207805491111086
0.196987183991323
0.45997461067323
0.500275195111347
0.44856683273269
0.475229513598337
0.635985349301393
0.950493587970146
1.43498361157767
2.00113278666401
2.48176594645663
2.76864233045125
2.83970222222994
2.74182172423542
2.62752050590462
2.67071146184429
2.85966652036298
2.98869501311038
2.87837331195013
2.46912933925668
1.73152585273137
0.685101181300585
-0.501812583121538
-1.61199104662044
-2.56529380948114
-3.39053056105119
-4.09622267982486
-4.65916029520861
-5.02298657577816
-5.06174454721621
-4.67697072153981
-3.92639587455593
-2.95019006246926
-1.86762779457592
-0.855969943741403
-0.165656808195207
0.0827130231930786
-0.011981047574909
-0.30605719044166
-0.722485350467813
-1.15429365582641
-1.39830161220585
-1.22534758232913
-0.495882911110955
0.702400111350494
1.99363067722156
2.90376452994222
3.15166851890176
2.72459187190899
1.79397752454906
0.668253108301298
-0.321517116980773
-1.02300683984262
-1.44980748193262
-1.56369783457223
-1.28101828562498
-0.712367383748307
-0.139295056429231
0.323759964485163
0.848254817994572
1.61884326381602
2.58693973474194
3.48175489098119
3.93764613189132
3.7045968451627
2.88932584213794
1.89067120539964
1.00135644926254
0.222277894730402
-0.490769125149497
-1.01507566346692
-1.1558916640386
-0.801491373648135
-0.0092705697180659
0.922296103568199
1.54111688241619
1.54057662607482
0.956604102475956
0.0886020044042907
-0.680695040017317
-1.09228632714288
-1.22931210290391
-1.45668804785629
-1.99660113179719
-2.66294191416722
-3.09792498463859
-3.10571457819117
-2.69403029468133
-1.98203667047613
-1.12331197922824
-0.176024646174747
0.940039883276651
2.24855122146788
3.56140195844942
4.6271969833257
5.33691039500006
5.69624149564607
5.69894643669127
5.29465941242634
4.39893252448551
2.93894132406969
1.02011003653385
-0.963571926584555
-2.53315204314484
-3.4629661023535
-3.87885080983746
-4.10847069528481
-4.47335554062698
-5.09592142054876
-5.85720284086777
-6.60185265853836
-7.30385234383097
-7.94871364819613
-8.42371738400609
-8.64802855326517
-8.62887072587901
-8.29333912247368
-7.47795379866493
-6.17957130242838
-4.63100973698784
-3.06264924336236
-1.52009165464029
0.0772313795373037
1.78295906858129
3.49212688923102
4.95537907339544
6.02185098693875
6.79717876955442
7.40343951080645
7.72329262112628
7.6103589455577
7.20636567300683
6.79691378076526
6.46037574169818
6.06275376981139
5.506226525671
4.82808719474217
4.12406365070867
3.46885976191843
2.86888279950476
2.28428583170257
1.74187636741629
1.34387052740045
1.09471611329559
0.877158742889762
0.701460547089559
0.775688903178013
1.20990925217161
1.84713637840873
2.46250849367027
2.93618114038058
3.21342661829128
3.28741852524603
3.21779534170876
3.05424056743932
2.82477894136403
2.65093853936593
2.7009847647978
2.96464165978436
3.21447143144835
3.18224136253257
2.65750429184237
1.52831442560608
-0.103922746792954
-1.93942285222418
-3.7115776518852
-5.30711734235633
-6.66116127360444
-7.70678439471878
-8.42715098724887
-8.82387447166307
-8.88305306303646
-8.66445480926978
-8.32190890603221
-7.95546770443909
-7.53088847040044
-6.94997043710742
-6.08552268574305
-4.79963802665874
-3.10136689466164
-1.24597275198726
0.485671481306244
2.03010967711227
3.3944329234826
4.38970859190129
4.73465637152836
4.37056274898779
3.5349660276481
2.56711093339193
1.6564315812225
0.681456886359921
-0.669991498569978
-2.51514104058425
-4.57778849657228
-6.43162211065379
-7.81894932145231
-8.72156492593255
-9.29291796488144
-9.70576121660542
-9.89846976015545
-9.53901471231683
-8.38039384750693
-6.51452812846405
-4.16890714427258
-1.47939193209566
1.41723585969614
4.31642049212407
7.09092195115417
9.69490783593108
11.9587273099385
13.5509358468931
14.1779016007098
13.7505109087047
12.4280873781006
10.5552628710853
8.44650522753535
6.20168283304161
3.84427067339394
1.59964077898244
-0.147305915139267
-1.16215883564222
-1.48995473821198
-1.34693349696028
-1.02498541872988
-0.768221546063835
-0.551064215852133
-0.0649619269446805
0.953556596253045
2.46166297578404
4.18562784485774
5.81495386365035
7.13578197897974
8.10643006173401
8.78447965491213
9.14801973197377
9.10244510801904
8.65034282524573
7.85217461130043
6.61498452933784
4.7357654924463
2.19010791522034
-0.749596653139158
-3.66299162465461
-6.18160186968359
-8.12303481510077
-9.47827196923889
-10.2327910086219
-10.3159991247825
-9.85530723885009
-9.29989622125251
-9.07834636670201
-9.25671069849929
-9.66183124511641
-10.1342633626944
-10.5001380200541
-10.502894302586
-9.98729403005797
-9.09274874707933
-8.15451847604416
-7.43398675224141
-6.94050554294191
-6.43740037982721
-5.61120991155934
-4.25330946607961
-2.2415354916699
0.543910312440027
4.00634929170338
7.523099528027
10.1827611446647
11.4820259223657
11.6386470027177
11.2283304428762
10.7157483427752
10.3187234255846
10.0932942769009
9.99969013545362
9.84745785562986
9.24858104535253
7.86193978821652
5.8069181265255
3.62967081935525
1.73220610451772
0.0525998127917919
-1.61494302041811
-3.29656450945691
-4.96761756744884
-6.71962422082259
-8.62466776436253
-10.5513133449407
-12.1479649638431
-12.9452973189275
-12.5792810835022
-11.0413739229727
-8.67316200262161
-5.90888178934203
-3.09767875598435
-0.477502221567244
1.88362189762549
4.07472918190266
6.06327058628055
7.48589374335674
7.96472241088071
7.62058827988425
7.04661731685541
6.74652407025483
6.72400739297395
6.59127840717276
5.98388164610688
4.90267415355667
3.69015416171309
2.67824260563257
1.9419567068801
1.38679550235269
0.849198332015133
0.038903011900718
-1.3431385138448
-3.25757908501707
-5.24612258008719
-6.77378735610078
-7.5352411143675
-7.45268771520434
-6.55417430416035
-4.91043170756544
-2.67972094224363
-0.235757234313388
1.88478821784063
3.35527665449551
4.25917734689518
4.70870695743327
4.45773783560381
3.19773035387662
1.1213049317545
-1.04993509933484
-2.51510184926643
-2.78101868521119
-1.85054147528434
-0.262419296343283
1.16935752070126
1.86637839660454
1.79554333280372
1.33413453214749
0.954918799489424
1.00242400240416
1.57457033714067
2.53341804587633
3.65189386810556
4.71920224404296
5.5332701213734
5.92608078198876
5.79876547751321
5.04130182070209
3.52171364521735
1.30634652998907
-1.20363308199716
-3.48017666920629
-5.15125989465432
-6.09602846481827
-6.43414089375791
-6.41744399163711
-6.18720715797291
-5.69630038440327
-4.9760659317433
-4.31602382315545
-4.02380236832311
-4.14921952413469
-4.55407740651601
-5.10195263212536
-5.68481271427863
-6.16116160055157
-6.33502488478952
-6.03943067819001
-5.3376236889133
-4.58358716617056
-4.09425614484253
-3.80751520896408
-3.45776173868274
-2.97399578076343
-2.41697937374284
-1.61112437285458
-0.207120923143473
1.81295653370071
3.90351174195117
5.2790981360433
5.41571062698522
4.39124349570069
2.89893445217695
1.81398711143849
1.6285178669082
2.36048179418012
3.89487470263275
6.12745585765321
8.79627371058221
11.4530320103298
13.6666450371926
15.1658578011625
15.850838473968
15.7548270931224
14.9591940909549
13.5769838188925
11.8616915127183
10.1403847133542
8.47994215456837
6.61851204102961
4.39516889136312
2.03425368038628
-0.138600820286582
-2.03097652074033
-3.70532336664128
-5.16457320535518
-6.32202187045219
-7.09815870582005
-7.56718100207162
-8.05599721510511
-8.95745917753195
-10.3210896198031
-11.6950358275477
-12.4222048644722
-12.0640540061575
-10.6401784742019
-8.62729124038762
-6.67366024624166
-5.13053357191994
-3.87188796289796
-2.68178731667604
-1.72355618270681
-1.4592659149839
-2.13719392507673
-3.45786472386327
-4.74070544159532
-5.42379424750964
-5.43727526691462
-5.08378624543642
-4.64052232889209
-4.21670015865868
-3.84639654231066
-3.41737891648285
-2.62835213705333
-1.4001522511162
-0.282237051856183
-0.0958132476665207
-1.15402703645904
-3.02286285677587
-4.94975214210654
-6.3401783937541
-6.92102718027068
-6.63148100398638
-5.43547648622471
-3.36019456822988
-0.739954334572676
1.88688070778787
4.34958126480841
7.05531773502463
10.3577772134336
13.9094124573455
16.8858007946086
18.6972169122951
19.2664596182854
18.7565168608028
17.3024627404193
15.0334886949803
12.2008588630697
9.16911988011942
6.23331093157931
3.48623426732063
0.982738396521398
-1.01917331529226
-2.2356522724941
-2.81028422910988
-3.32495745737993
-4.27066771265842
-5.67112719444992
-7.2037376569231
-8.48986187885408
-9.28230895068551
-9.51076041876987
-9.12243410632444
-7.8578777807823
-5.32319300064199
-1.36590560355347
3.63397004429883
8.77237209596625
12.9129161112052
15.203447145998
15.4579478400221
13.951876433634
10.9500338165514
6.75620994345063
2.13916383788176
-1.81296503964193
-4.47359747512619
-6.08187276173905
-7.30085896041521
-8.5784774317528
-9.96669428314072
-11.3353163375612
-12.5855155460408
-13.6320632441946
-14.2444465963275
-14.0649143312487
-12.9113872341516
-10.9744680462304
-8.58214896222048
-5.89751166963465
-3.04157535146011
-0.3832043970074
1.57320900215482
2.62066959379413
3.04265723686539
3.32699850394025
3.70500724872223
4.05545097598482
4.34674659322568
4.96890436392191
6.26349776318607
7.81145337625449
8.65343904814318
8.28506451003794
7.08631602175017
5.74781871053546
4.5958999011082
3.50537144731476
2.23192241081151
0.801373586473009
-0.362659841415265
-0.821161199395337
-0.674270011038191
-0.554262724871052
-1.02643471778469
-2.12504179280734
-3.4036409772023
-4.27484810256549
-4.40240675151492
-3.92062375342133
-3.20906838453526
-2.44613481747344
-1.56922559638714
-0.648164637882901
0.0299913896489221
0.372589160163772
0.729153044405751
1.53970611973296
2.8057117809515
3.96833940819241
4.27171627264067
3.28093463265189
1.116057707886
-1.78289318180286
-4.99366507626249
-8.11321630503298
-10.6244118400068
-12.0483734189151
-12.2055472718194
-11.1975425967741
-9.23536882391857
-6.58931440631552
-3.58193804003051
-0.527572163112759
2.29671777224499
4.68671706041619
6.59338061409358
8.05332930784826
8.98074247617406
9.21830076656359
8.86937251942209
8.39483410279412
8.32907698577029
8.99193272973267
10.307711970387
11.661343952603
12.1143813054874
11.1128919818735
8.99196261195601
6.66906062014716
4.93226264460053
4.05486548085107
3.86066075009261
3.95509812015546
3.92148587646947
3.39941025681704
2.08336668985325
-0.189520219006529
-3.2687646820329
-6.710177111059
-10.0223036805918
-12.7927222078392
-14.616192512067
-15.171993202423
-14.4823157828698
-12.9595599030237
-11.1898190813333
-9.77223611867963
-9.22178307982246
-9.72491863995457
-10.9113216058254
-11.9962306922723
-12.28070754302
-11.6239397276239
-10.4506133284611
-9.17480355097142
-7.59534730584706
-5.07549689558719
-1.40977380284314
2.71978108007916
6.27744629318817
8.6818210736182
10.0367688378447
10.8200246903602
11.4860209704841
12.2382327545227
13.0289273163128
13.6667656470346
13.8676725989993
13.3723636606932
12.2454440142445
10.945479052294
9.84333427856882
8.78677317302455
7.42941606991471
5.88584648254749
4.72777847598543
4.35457637044693
4.66809937819275
5.41922761945243
6.65831788469086
8.70216024372064
11.6055869864267
14.6485282557294
16.525037773747
16.2771613192144
13.9837562257109
10.4089062461139
6.21307629081708
1.73649334068864
-2.74920946426609
-7.01152221229896
-11.0440885651613
-15.0118173284479
-18.9320502517808
-22.4417930154862
-24.8687524744542
-25.5464593209563
-24.1066144061893
-20.5657546691146
-15.3999657578169
-9.74883508287786
-5.28702216575616
-3.3892234350272
-4.25761207451246
-6.95786724721015
-10.1952070348403
-12.9323116574479
-14.5480934036891
-14.8452813949941
-14.0057897886176
-12.3658190655235
-10.113507547371
-7.20563778853609
-3.66474055944353
-0.0646859312272169
2.38517761591516
2.60890298115322
0.691999033696799
-2.11538697916844
-4.55815280802176
-6.22846962355665
-7.17180601431707
-7.16877760910446
-5.79379001496869
-2.92132554233816
1.13202461084262
5.8470695380282
10.70611545476
15.1982745893109
18.7360016896637
20.7621120580482
21.1855858002591
20.6752845982164
20.2133538148966
20.2359731802921
20.3137434329367
19.6259646752766
17.6390125363413
14.4853111175427
10.9156614476089
7.86568706243487
5.94122110763961
5.19456509262734
5.156911007331
4.99025217681063
3.950873327292
2.04925556686155
0.121039700434761
-0.987773677324036
-1.20869449363193
-1.1383875765128
-1.37119171568123
-2.11129000298401
-3.2291748322158
-4.41263116597041
-5.26253643243902
-5.41325950900912
-4.67308367369084
-3.09848616059953
-0.952389920425144
1.42326042578477
3.68507444012503
5.47461941838194
6.52687849810632
6.91834103120324
6.98336022373923
6.74347215658049
5.58512287942545
2.79046207456883
-1.60865683708051
-6.59173186274987
-10.7299036396422
-13.0621474686434
-13.588146798539
-13.0147390188001
-12.0925128834297
-11.2484114713079
-10.6223366084132
-10.0533339138524
-9.05688356642437
-7.24485156150008
-4.88355418641437
-2.75818332703633
-1.40467766058532
-0.654089285408778
0.0278733398690828
0.836407669293863
1.28957387964242
0.684112186959293
-1.04429852989476
-3.14365578923756
-4.90658641765445
-6.35229053094802
-7.68120356596437
-8.46294190290112
-8.05209915216696
-6.69474902884772
-5.57772065419118
-5.70588998871153
-7.15416658463485
-9.41582079487351
-12.0434090881292
-14.8215453103473
-17.5646973125145
-19.8953350283512
-21.1916751208637
-20.7465219754202
-18.0266048557416
-12.8849448050196
-5.66457536371385
2.86857220392762
11.7386516416071
19.8784636415547
26.1147750569359
29.4271160378203
29.5724684812072
27.3771576641586
24.1717055763696
20.8822094466313
17.6455961697573
14.181929089351
10.5045196406225
7.29008726358439
5.45591573367884
5.36108340384547
6.60885779720631
8.56351473713229
10.6538792230734
12.1586106100603
12.286246748556
10.8245044272272
8.43865398913845
6.08801494733014
4.30301222885801
3.09988933064424
2.35908947757234
2.15736680522643
2.81471675778506
4.54894346149199
6.93457719382586
8.84725786634718
9.20298796176257
7.76138837700127
5.15284881020235
2.24153642869907
-0.487198988393214
-3.0544451517043
-5.61987311857948
-8.06418056605581
-10.0681795318881
-11.5524878681834
-12.7621616884388
-13.8510429756276
-14.6067766115962
-14.6464159150325
-13.7211292556822
-11.8504480260686
-9.37090373632328
-6.9088240029295
-5.17883738430596
-4.67245155915874
-5.39690115864504
-6.8344739797212
-8.28122294734475
-9.37577124449961
-10.2625871218064
-11.2368528706522
-12.3977118905496
-13.6660443455601
-14.9057721322512
-15.9197587639138
-16.4827882024975
-16.4947586009107
-16.044493818445
-15.2529790148509
-14.0345326652784
-12.0266281881868
-8.88658327448152
-4.82109068734155
-0.693098002760048
2.74518665299186
5.72844103203301
9.21227292604758
13.6678202982174
18.5077054661466
22.7660198841651
25.9189534517563
27.8857997657623
28.6447673995861
28.1848785238053
26.6712243022213
24.3814185909938
21.4925011688582
18.096016273827
14.4279277114461
10.9032894401616
7.82302271713935
5.17746426826339
2.85828363661174
0.923660859650486
-0.486904926326432
-1.33081006532009
-1.59448716097062
-1.25496020952436
-0.499965263975135
0.224867364286729
0.58746000917001
0.613486370434643
0.422053664958013
-0.101328307051558
-1.2595346121341
-3.30970254123673
-6.26805188568029
-9.73174553947203
-12.9071614271381
-15.084470884278
-16.1380560797804
-16.3779188426971
-15.9591071696679
-14.7034939635401
-12.5357860823608
-9.9052378955381
-7.68564777801703
-6.63547783048063
-6.86958669360509
-7.79425630260569
-8.51561249317192
-8.29257783778856
-6.8002915776836
-4.28801775692817
-1.49512062816083
0.814460288868457
2.22479827944899
2.50908281439802
1.40778752944671
-1.1304964496036
-4.66032211597761
-8.38183357981579
-11.3939890941288
-12.8238192281994
-12.1723992779138
-9.72728280223842
-6.297845706553
-2.39948733871411
2.03482527658115
7.08411677932098
12.2795405621949
16.7561394521088
19.8662783452255
21.6055909340646
22.4794975400666
22.9867539455719
23.2862612744004
23.333877979689
23.1143793156894
22.5931378744105
21.6456915241876
20.2640780911702
18.7054909763286
17.2449356713694
15.8805366172502
14.3872303084823
12.5032935072913
9.95719420603665
6.45254682357998
1.7730588594449
-4.02337198386302
-10.4210836588354
-16.5060471720136
-21.4405227690426
-24.9711322007722
-27.3786325680069
-28.9555516796909
-29.6200482108579
-28.9723109894288
-26.7310953785387
-23.3051498724408
-19.8713001160425
-17.4984535238819
-16.0905269345229
-14.4756730479763
-11.6155249921221
-7.5900870982643
-3.534023421677
-0.812407615951226
-0.0430144350564033
-0.615722633873046
-1.20462486444639
-0.802840260031552
0.868904475269543
3.76095145629174
7.69684174937192
11.9851666807492
15.3225625268488
16.5483475426422
15.4832830417511
12.9189343038577
9.88933319861433
7.02162489523515
4.43533393892522
2.02663517839053
-0.287201616205536
-2.47760840606096
-4.24342053459271
-4.90544928900182
-3.85151011231297
-1.27273667475887
1.83205443683921
4.46910260009667
6.16630422948039
6.83313661173044
6.75142208306771
6.71557315318687
7.4485669683417
8.65399356215693
9.19499715081295
8.4156721906434
6.85009181136239
5.44916588776826
4.4499520564814
3.23152368730257
1.17342594989329
-1.49496200051996
-3.77204333087552
-4.76691870443404
-4.30246344006767
-2.59149507387266
0.279369555189675
4.09423762830055
7.87513246850858
10.0993974844245
9.91238905449878
7.96590906888098
5.77757426327321
4.3077848305108
3.36287926444486
2.24637469608807
0.540699692245906
-1.84995850410603
-4.89324974775318
-8.20839070326013
-10.9473470412971
-12.4281317698212
-12.8355528448246
-12.9746595447807
-13.4740839481105
-14.5001127490366
-15.9667092742716
-17.5596816353729
-18.6010062893567
-18.248888168664
-16.0368354292817
-12.303162611646
-8.09564934004886
-4.46117619227687
-1.67734444190731
0.707340893110523
3.06334444822949
5.20903131154036
6.85119929615066
8.12562821906321
9.39492200891478
10.6939835217483
11.6952542171356
12.2013219080787
12.3667879978945
12.2725243789455
11.5528493127695
9.86432404066558
7.65954132665654
5.95018511842668
5.09544323878007
4.28992828255196
2.60445510862772
0.181302666617375
-2.05187077680214
-3.65810488490772
-5.20192610568427
-7.47611261955826
-10.5594824132955
-13.7327470659143
-16.1049063106005
-17.1462058224487
-16.6615088316233
-14.5037110927065
-10.5808510239708
-5.13386205810023
1.1691979256707
7.36499498174406
12.3005304997474
14.8847892550821
14.6657793549878
12.1978833178374
8.72779509457651
5.64511170683647
4.15464091480964
4.87576220850411
7.35912987511854
10.266346265808
12.3026082691229
12.8879466005467
12.0417240655625
10.0569480021251
7.37304973040309
4.42208883287601
1.4455699352463
-1.41145710568311
-3.81275576931927
-5.16943699298177
-4.95494713292195
-3.12263988066733
-0.220257351435984
2.91047185861726
5.4827822938669
6.84510751236281
6.58026159880112
4.90020182994891
2.74432441717114
0.980392457912491
-0.46299210782417
-2.21164271883866
-4.24997331033159
-5.66352780965917
-5.67251593582434
-4.48609979239852
-2.98188402082315
-1.77357478576996
-0.676334260091875
0.935009886446784
3.13879724252328
4.91480825540811
4.90061574178122
2.73453923930532
-0.620012017590883
-3.83941939101856
-6.21425023060165
-7.75087416110151
-8.77910992693969
-9.70626686746876
-11.0242605234442
-13.2936154855534
-16.8394800890869
-21.3113082466999
-25.6657241352315
-28.7445620907686
-29.8562567607739
-28.8952948589871
-26.2472156864212
-22.7026084904478
-19.123730638128
-15.841090743161
-12.3522892028445
-7.74266502965415
-1.52699443806306
5.74669097587554
12.5986136246605
17.4512539494449
19.6585771940783
19.8949971774248
19.5857438848861
19.9343847760498
21.2805514551252
23.0753179286362
24.4292754234498
24.8613179574899
24.5254509811647
23.6691686100866
22.1467215576633
19.7780848466437
17.0339726731162
14.9136723896584
13.9119204184468
13.2373492767559
11.3359857935499
7.33140816310825
1.83619475397955
-3.72345856415528
-8.31499633516117
-11.6323065963765
-13.5755862050126
-13.8745904540586
-12.2118716097148
-8.5325200282608
-3.37215440305805
2.01703751890297
6.15411242728074
8.17549033905566
8.13002826004563
6.53611383710094
3.96675790666812
1.02311137567646
-1.70458341836889
-3.80570963924542
-5.03275389635564
-5.21634689146696
-4.47284058170373
-3.38365315422527
-2.59346693001849
-2.20282197342139
-1.78234981363686
-0.946865040324358
0.242166412587188
1.32486167564278
1.75050731745158
1.2763702474316
0.167708339172412
-1.14273494038564
-2.68197212232754
-5.08710560164773
-8.9635602812079
-14.0131538951402
-18.8334905650122
-21.7858263104486
-22.280280836147
-21.2174046198367
-20.0901227261227
-19.6585269460576
-19.4356614957186
-18.2689698700513
-15.3723388722698
-10.9583484306704
-6.00694314131083
-1.48622502008458
2.16831643412651
5.00124815315165
7.31589105174227
9.53788376009492
11.9929242265062
14.6511165947957
17.1190729604772
18.80481346719
19.0206592912968
17.1541215257906
13.0752139604512
7.4967545598953
1.88912090034074
-2.08085665472273
-3.33338774604891
-1.98815669110935
0.683235969210908
3.07973625135203
4.23999737386035
4.21538887374716
3.75177714812873
3.60448660226519
3.86538577414541
3.88589497563734
3.10363759106118
1.91596342708118
1.39102319045324
2.11798157537479
3.70602385012995
5.42678376015218
6.95960684589039
8.38074024319272
9.68487064204662
10.5170487487946
10.3865050318876
9.12575985261508
7.08642833951282
4.84914099499579
2.84073543475571
1.2617862857681
0.15951618298024
-0.603144117820391
-1.35197241524275
-2.4884514575538
-4.39085433647463
-7.26823047294699
-10.8613816283049
-14.3266985894872
-16.6591554208935
-17.3304413387452
-16.5189782458418
-14.8334392769734
-12.8948930592583
-11.0307841894192
-9.14581568671522
-6.84861753733094
-3.80782191804701
-0.103363683652103
3.63429352614021
6.37199353314241
7.1400174610767
5.63911368838442
2.54263766160716
-0.756739305455343
-2.77934211056898
-2.69909819028989
-0.85322228478806
1.50720570105032
3.2447963447593
4.16241973899467
4.79791257292885
5.6502750011962
6.7545717207758
7.7468627093465
8.13134780108006
7.64467953553377
6.47278108620507
5.02858035427373
3.63119071215561
2.58529205174678
2.33093206571216
3.12628710165049
4.63347196943616
6.05823523639419
6.66882695655049
6.11495430178534
4.40559092222833
1.71448142099132
-1.79126102433136
-5.84908956347209
-9.76165924657088
-12.3740959230204
-12.6843022320116
-10.5331222873425
-6.69602889465655
-2.44456836722206
1.00539160217467
2.96592999988547
3.45478214269618
2.86416950050163
1.46173817949295
-0.691374649343532
-3.4691328091506
-6.58282648329392
-9.79287763450905
-13.1067646916174
-16.6338834352558
-20.0688116393122
-22.3270943761187
-22.0431453783613
-18.6767270197774
-12.9905060279101
-6.41898816688421
-0.273224012879204
4.51298402906524
7.53642086225409
9.21547567339607
10.6025787075421
12.5724004917522
15.2063009395759
17.9038380542727
19.9242899463157
20.9395072596078
21.2823720377665
21.5929202235738
22.1074293428662
22.3952312338446
21.8216476677827
20.070594641221
17.1409503609316
13.0593507097212
7.81272946445754
1.53128727062036
-5.39273937324264
-12.4179103252956
-19.0625922803971
-24.9478066855417
-29.606945906526
-32.3552170239862
-32.5021499793503
-29.7559505839422
-24.5150124861525
-17.9582053033288
-11.7556334858843
-7.13915286725131
-3.85196449230409
-0.227732687103257
5.28306665839387
12.572272958544
19.9009214570334
25.3459573416873
28.085741420924
28.3937321278809
26.7992826400796
23.6295169447064
19.2377419575354
14.1329551921985
8.64338377510918
2.7742642132852
-3.3748394720908
-9.26352029920503
-14.0757166673026
-17.0126195942427
-17.4807791742352
-15.4156654566495
-11.5710394142716
-7.24733814852222
-3.58338655700629
-1.10003013032065
0.236816994835675
0.714927490408013
0.609452758196465
0.103111185278734
-0.545989731068512
-0.852247403341705
-0.309257856639384
1.24696635672344
3.57710075472562
6.19147744320291
8.40394882983377
9.48152578036504
9.05386402940906
7.29448471267675
4.55746689202823
0.950489365298263
-3.71377868380688
-9.68966543691036
-16.8789983355963
-24.3249235287002
-30.2291873556701
-32.8858618809794
-31.7722981898538
-27.7148905132286
-22.1254820372216
-16.178930794788
-10.5291080871069
-5.496886108627
-1.33712790519637
1.73129253786114
3.68274713580324
4.7542202911289
5.38067721905433
6.11994175463414
7.4739349700702
9.55096584195088
11.9140294999486
13.857153390548
14.8109457726605
14.5734411466561
13.4208321407218
12.0475036729816
11.1460697025209
10.927873977807
11.1575389422013
11.5779668116906
12.0669559021007
12.4684349848645
12.6097112383565
12.5149946213351
12.3647967428067
12.2153265755025
11.8729835984918
11.0351164481691
9.61977897187425
8.15132975343403
7.7137062181249
9.13519421796632
12.0909845190537
15.1197384086294
16.4846903865953
15.0714089107896
10.8857053615689
5.00530865302061
-1.11612980321643
-6.48801043302118
-10.7433018834789
-13.7326717449505
-15.3772480119811
-15.8755571775363
-15.689084863143
-15.2506696073607
-14.805520752313
-14.4709728569568
-14.3551059376859
-14.610207127839
-15.2454795911992
-15.8146412709789
-15.583916338055
-14.2851974590073
-12.4852841595626
-10.9259964543193
-9.69924695288437
-8.3535929471454
-6.60858054894687
-4.65501091077066
-2.91815622816395
-1.84622562439665
-1.85627848592656
-3.19888976445708
-5.73430349117146
-8.75890522030228
-11.0085269112101
-11.0898734878183
-8.36436986899841
-3.59038301631768
1.48913624186617
5.38759441347107
7.72866130143753
8.90204008079334
9.10663834505283
8.0602197305464
5.7127904971585
2.87923787463481
0.78212142865828
0.0328989511820022
0.323802383745246
1.03152110200088
1.85351627283999
2.94853882905027
4.73132930303874
7.42728680174498
10.5312803312538
12.7787015020441
12.9922406746115
11.1009952261255
8.2586600065737
5.9044821201061
4.65992091026136
4.06643481339156
3.35194575924346
2.37509087469297
1.67372965085227
1.58093258629738
1.52078266630265
0.354478612394108
-2.58621396139378
-6.74302629722402
-10.4444514069121
-11.8861112584174
-10.3628116218385
-6.729239303993
-2.6370557460286
0.727509360920059
3.36029512591584
6.20130913756416
10.1235750093819
14.8348687911034
18.7713627371809
20.2806938471345
18.8437613144124
15.1020525857689
10.1594184957228
5.25621470136024
1.72784633303324
0.556277778381652
1.72004505175248
4.1090892300827
6.14330664294587
6.59513700129356
5.11063987991796
2.16096065906301
-1.49074249936526
-5.36738112685702
-9.4880649125265
-14.0859724209215
-18.9771612226368
-23.0843104943463
-24.7146951985953
-22.4752199001159
-16.0389724036267
-6.42464511279181
4.00602048825343
12.1401483099993
15.7114623268309
14.8149706300169
11.5111434996641
7.76563317439872
4.06163326563329
-0.104674867874984
-5.00385519141348
-10.0969135503858
-14.2657298088056
-16.5292294665167
-16.8034059390457
-15.9934121340761
-15.2471189121037
-15.1841587771759
-15.7057875193002
-16.0785743810863
-15.1004672135944
-11.7308614931432
-6.00816896396147
0.793943192669113
7.18727925614749
12.569331548079
17.1337836702793
20.8521021992136
22.947858854226
22.4778614308003
19.0757434080466
12.9627828412491
4.73305107821529
-4.38238115389499
-12.3812354887502
-17.3211328065492
-18.4948164989567
-16.7370272396388
-13.7780797610364
-11.342235964591
-10.3758749688725
-10.6779523704701
-11.266870990217
-11.1023362536553
-9.32233618341511
-5.16875423484103
1.48768334816639
9.36294391876788
16.1379869100405
20.0430177458325
20.9662517035186
20.0695156755674
18.5882785133774
16.9082554843886
14.5399608227909
11.0345026555236
6.95591832083062
3.69203385823041
2.2366670992446
2.41909520485216
3.34133304710786
4.25701808429273
4.95228664375227
5.49814833433954
5.74831749139198
5.10653870721694
2.95740828151988
-0.527230310207403
-4.08522720316126
-6.02292378362555
-5.30857142972984
-2.15365401535655
2.37169733520332
7.19625534264517
11.6115021663617
14.9074284476665
16.1640809775044
14.874230187734
11.7065487396292
8.25792984267332
5.81761307846381
4.36850280471063
2.83170921647815
0.299101296300337
-2.979093472588
-5.85434372827795
-7.48619953385278
-8.1345767725739
-8.72624457790348
-9.94473361903488
-11.9788219440091
-14.7976010991511
-18.0810622362636
-20.9056794709839
-22.0959650601496
-21.2298177710519
-19.1032247032285
-16.9736680590469
-15.4006744422459
-13.9287789695551
-11.8042278542122
-8.8159981171305
-5.42628608123215
-2.27722977063781
0.308043007218429
2.5208557300999
5.00844754581512
8.5415257756893
13.4587194003115
19.2686502231015
24.6822573932606
27.9598804697867
27.5071534378824
22.6684185934941
14.1652235776718
3.67515527668491
-6.99912222600149
-16.4528117775254
-23.9641914739298
-29.7029297387199
-34.2941143801684
-37.6317575870179
-38.3358389521651
-35.035146997971
-28.3078265202325
-20.8785463369638
-15.5354797671613
-12.8628983626835
-11.0685706850423
-7.89538259494824
-2.53045200669569
4.23645649477321
11.1852086251803
17.485861554118
22.5544016321489
25.848401557515
27.2343710532855
27.3127962151027
27.0109897770603
26.8163906312097
26.5412883319264
25.8608943069103
24.9574129916506
24.5013426723975
25.0234711202283
26.417585588699
27.9314440290544
28.351763723673
26.3847696251892
21.5776333581131
15.1723957748245
9.54481602896558
6.34286302628921
5.26509375507942
4.67566993804856
3.0880584092007
0.0507237842329377
-3.88162866720923
-7.66396127834644
-10.4008107479754
-11.8115934396113
-12.2755625030114
-12.513913415913
-13.1683462067198
-14.4612110457742
-16.1066354264803
-17.6016382290534
-18.6339037603115
-19.1159147629992
-18.8832057871494
-17.6373179475643
-15.3669012252383
-12.7902710889161
-11.2502835114429
-11.9360105168731
-14.933156718516
-18.9880235106388
-22.3500171231386
-23.8955098713942
-23.4298342062404
-21.1378626614359
-17.1467071072146
-11.8138700534926
-6.23441596455953
-1.97683102665115
0.113507596550554
0.856304357099396
2.1514337707901
5.29607974395108
10.0017901223206
14.9564608091768
18.9200064169941
21.2182553701811
21.7320071962312
20.8621442313987
19.3809457473589
17.9962528690753
16.9158142735008
15.7780690457025
13.9720262970552
11.0891288476415
7.16242921993974
2.5300142583346
-2.40483906237327
-7.13349685706691
-10.8916915052035
-12.9275039256735
-13.1195037046808
-12.2406356414518
-11.549839363622
-12.0603932017414
-13.8337088742797
-15.5758338315403
-15.0583303080642
-10.523567647834
-2.14613573222165
7.80545603227255
16.445727305925
22.1033622687748
24.6782107510387
24.346381726938
20.7075518984408
13.9086667440021
6.04507648982775
0.218324913616663
-2.02460907405707
-1.65000825602883
-0.571872583185529
0.0499035897845852
-0.180918017615949
-1.64536658273315
-4.66857899322311
-8.83098072174633
-12.8414636165804
-15.3993611060738
-16.127407729859
-15.4929071159163
-13.9315527968928
-11.4437536107806
-8.15244183814038
-4.80130801250784
-2.26850903947658
-0.692022221950962
0.619373644516505
2.41035255321711
4.79289196586811
7.32995221564622
9.64119869776522
11.7832228931547
14.0083058712721
16.3407529565585
18.5850900334966
20.5085041293548
21.6244044976781
21.0767650362079
18.418994601165
14.4620920116125
10.7344330783387
8.12524646269503
6.60690888071726
6.11365449472306
6.86359445568502
8.63347943205679
10.3460886701298
10.7503952609362
9.30080052793157
6.21482137853695
1.86032483414968
-3.67585101511373
-10.3727031675459
-17.7969812883363
-25.0438398906715
-31.1555111552166
-35.5104024376235
-37.9895801762922
-39.0718923182359
-39.6313481493046
-40.1369352659274
-39.8629840779495
-37.2041435537622
-31.09422963753
-22.1135041281157
-12.0556592082687
-2.42150875019317
6.43725987252432
14.5448640220102
21.0091066701687
24.176431602718
23.3502195571697
19.9166885250895
16.3588362413433
14.3416821000806
13.9411309730617
14.3421004887131
14.815856048913
15.0560121796532
14.8819948061817
13.8921679055691
11.6461770521728
8.23389765541114
4.41871176832747
1.09066478749847
-1.24211989204458
-2.45754026716825
-2.74743855352046
-2.67447528770976
-2.89748914533453
-3.6138127652974
-4.48865617193253
-5.1726000993149
-5.60114411697353
-5.75702712961539
-5.43233179213719
-4.3100778885652
-2.11057396924056
1.3331368875099
5.84716511311799
10.4978258914351
13.5104195413593
13.1334097929273
9.09752329487385
3.20618558833297
-1.91763282821617
-4.82978561463378
-5.8749878456135
-5.98153432375335
-5.42325431041975
-3.93491805468378
-1.48018517065002
1.52682875196174
4.45105278943737
6.48998789672864
6.7416955285919
4.82418480629633
1.68442669436266
-0.59082443521613
-0.415675663568329
1.6574378439136
3.34895713129062
2.92065174069979
0.656398029124077
-2.09780944885272
-4.76120628479833
-7.8046541544765
-11.541138361101
-15.3733341025814
-18.4091136400404
-20.325901184158
-21.1366609502143
-20.171010279369
-15.878751799346
-7.15267628802933
5.20812228059001
18.6369098051229
30.38635435354
38.9495320182972
44.3126193600732
47.2399661348144
48.2249249662585
46.8814456608382
42.4610550978489
35.1132280286038
26.3460405053942
17.8578834797806
10.0177209659218
1.88501643795816
-7.19744652340821
-16.3016707721817
-23.4252789289337
-27.3334060380447
-28.7591202897777
-29.5857660889355
-30.9160737595395
-32.3238230081984
-33.0651389590818
-33.4236261470078
-34.3043694890638
-35.7512879853999
-36.5910481549048
-35.8345336994732
-33.9950616948077
-32.4996083436444
-32.0119333731522
-32.0616930046373
-32.2502843311021
-32.6035733849882
-32.1283547215069
-28.2560567603909
-19.1563580014648
-6.3361668952693
6.03840952943663
14.3244397013625
17.5200129003815
17.0103782411576
15.3298814708095
14.9201360036234
16.8805231851616
20.3558864352964
23.4954527936557
25.3047095413957
26.3795667808707
27.7493246613088
29.4283325219389
30.5840026419338
31.0168670378799
31.8518613876409
34.3507488058911
38.2288809380544
41.5327553376946
42.2412974233824
39.8359191031445
35.3150717572834
29.8802855834741
23.8392287237904
16.9100842692519
9.38838503100572
2.5478216875023
-2.25343833214221
-4.56350440916965
-4.94864974115413
-4.63450745827983
-5.10393868396326
-7.30128811176035
-10.7030420634565
-13.5378667266153
-14.4395355828171
-13.8302389915291
-13.4231091281032
-14.4244747730942
-16.4490172720771
-18.2506691170636
-19.3017060150902
-20.290918443132
-21.9523027462028
-23.8344463625462
-24.7240698319714
-24.0697104866039
-22.297644969722
-19.6385636277857
-15.4161890754355
-9.10506016559178
-1.78366836997343
4.15654277969374
6.97876985386901
7.02935752508878
6.01103536935454
5.01575248905069
3.67218665407636
1.29603945369276
-1.6862907478668
-4.00603070045199
-5.01283587711901
-5.29451196303279
-5.82556166248446
-6.93891597206374
-8.29189235223569
-9.54661831556986
-10.6990964769814
-11.5566269410513
-11.0367696865626
-7.3630310287083
0.706557869663128
12.5582641413763
25.2883064366119
34.6634459314651
37.3850797579284
33.2397179629967
24.9100474964617
15.292252237073
5.30616789177783
-5.3588936230847
-16.0288478798641
-24.5222188402337
-28.9308552737906
-29.4638073762976
-28.2527078588948
-27.266471747051
-26.4257439348706
-23.8870548082365
-18.1259574190167
-9.35434868295571
1.1378055602348
12.1473750926922
22.260431581278
29.0938643774261
30.4704892824859
26.8916433803928
21.8230835481499
18.6188326472632
17.4329624651065
15.7026322331522
11.385178445676
5.04103248064856
-1.18963117256059
-5.7632121521163
-8.42132897926291
-9.4069895095567
-8.8744415225032
-7.01570286361282
-4.25106289319078
-1.30586269713461
0.670747980440514
0.418013360510593
-2.41882947466938
-6.59659291877859
-10.0506075273332
-11.5294990412769
-11.2757928747212
-10.0572325774775
-7.8865808644556
-4.11903756169462
1.21678724126559
6.67266297894736
10.2810773531625
11.0669301378444
9.61788652821331
7.51389120978496
6.39341097969473
7.24031086257872
10.1631009507072
14.6982764960636
20.1364485360449
25.3860573733032
28.8960962265894
29.451870654607
27.2197787155729
23.5129751025125
19.3335353678944
14.5513021632072
8.69000238475799
2.13868905042809
-3.67152472816352
-7.14255274751111
-7.50416180114085
-5.20670704599569
-1.63708314474566
1.45916779297544
2.53653306763469
0.768203617401648
-3.66282405299671
-9.87916232355066
-16.9370662908309
-23.8869269274974
-29.3126425385619
-31.548084439827
-29.967600370047
-26.0078898811027
-22.5650803518274
-22.0819177322653
-24.8403825185884
-28.7542730531416
-30.7930969906426
-28.8871886892177
-22.89719407507
-14.3059558240172
-5.30247600308469
2.14338116313308
6.91254057166874
8.69239878429879
7.24205360006048
1.88074002430627
-7.80252391430237
-20.4251737241649
-32.2729348148321
-38.9755377665085
-38.2646446471225
-31.1554811034205
-20.3877860221963
-8.02557095702147
5.14861962677272
18.4121345052708
30.2345311237427
38.8525257862616
43.2512049415281
43.5442317364418
40.9338853992911
37.4453427275206
35.0944078108005
34.6517896360962
35.0731858000511
34.4127104986457
31.5855545499267
27.250153828969
22.8773818504623
19.173105450542
15.7211464320847
11.9335735738045
7.78128926074361
3.61493791285834
-0.154931507328847
-3.0817562853933
-4.85400318724259
-5.57645437275703
-5.56219469588759
-4.86851455787066
-3.45192991871287
-1.85138901312234
-1.37992478686436
-3.44576133977639
-8.63215851025046
-16.1854096204632
-24.1433733049404
-30.1184467596916
-32.3853096678242
-30.5897766423456
-25.759584556919
-19.8496814631491
-14.9572148999237
-12.2714524666274
-11.3922713825532
-10.6934561329651
-8.37997412773921
-3.35929059086509
4.31844342641875
13.3462463927597
21.6055158848286
27.1400851369033
28.8909152570271
26.7116983618642
21.1711921623506
13.5987432958706
5.91112747701496
-0.261181059830437
-4.56364954317212
-7.96015078377503
-11.7110795798045
-16.3308858609519
-21.4182451513895
-26.0882629476649
-29.2793177690687
-29.9157393087275
-27.2792831806313
-21.3623326951272
-12.815790391866
-2.75126206218419
7.33967451733589
15.9757310691557
22.5226691420729
27.555550744115
32.0389081900509
36.0707855131555
38.4578679226162
37.4300107544579
31.8997618816286
22.4663929461483
11.3486888513623
1.022396849171
-7.21987669952441
-13.2172290001886
-16.7772477556503
-17.3706219556181
-15.2448090021364
-12.1863212537488
-10.4716278080374
-11.0076167357291
-12.8373321961167
-14.6105102653073
-16.2990910743742
-19.177268281458
-24.1802046205175
-30.5912595539682
-36.3965201023132
-39.6857168213975
-39.6756664369167
-36.6823344731561
-31.288398705969
-23.4328935576062
-12.3399056030921
2.32610301522369
19.0513969629733
34.507527285796
45.4616270241144
50.8857329466992
52.242543303087
51.9103214454979
51.5035364397066
51.2894225601466
50.3567181779478
47.1091019410794
40.3759747475374
30.7562161842321
20.5770880590894
11.8612194873553
4.37535456764024
-3.78459465368133
-13.6816645945895
-24.1358764481227
-32.9081663074452
-38.7820344816998
-42.2577222622166
-44.5446954561561
-46.1718637538396
-46.5215424148462
-44.5789276551928
-40.0434652444524
-33.6150064740211
-26.2320744054696
-18.2033847049485
-9.14079306846348
1.30993468921087
12.6191387929114
23.2057374308926
31.2645600378705
35.8703003398424
37.2327935159157
36.032088057406
32.8166167274836
27.9874145742073
22.012091546086
15.5753817963039
9.61860537835523
5.06742757391148
2.34066758640289
1.25153849297238
1.43489605484229
2.5888853711661
4.17795158427812
5.2291369113294
4.77155211874926
2.50968043773005
-1.01599709887147
-4.92478329092553
-8.66598990426599
-12.3057001574914
-16.2388578248362
-20.6475307852238
-25.2303395129677
-29.3692003379587
-32.4437017142542
-33.9741147759574
-33.5374693123749
-30.6967845811451
-25.3099539759672
-18.1185279550466
-10.7828033423101
-4.86035521919194
-0.619945478758947
2.99035121017307
7.24018461214206
12.6005262422615
18.6344693194773
24.5173273598986
29.4690678124672
32.8289416402194
34.1552293472086
33.5690942888334
31.6720961021061
28.5622890100325
23.1443606018799
14.2151618790364
2.35640249188309
-9.92041938251001
-20.1506901375132
-27.5539998843253
-32.5507503595124
-35.2353770786642
-34.8483357285432
-30.6841625104419
-23.2050584051165
-14.0644673241523
-4.8988337025175
3.9801621799532
13.5227817572693
24.2723584610668
34.7810071054863
42.1241877915651
44.3427058656443
42.2881786464981
38.768334355654
35.8041223871449
32.9326890526805
28.2835440406024
20.9230498564696
11.6684423266642
1.83182312216988
-8.02929549990853
-17.7895215893292
-26.7181359822195
-33.3818605905985
-36.704316376798
-36.9246484341558
-35.2586402712262
-32.4741272614033
-27.9981796975256
-20.8336365297192
-11.3633776225949
-1.67381693835325
6.36821748821468
13.0333062610407
19.9581315579888
27.2703654185392
32.2476858147294
31.547180250553
24.3418778543676
12.4395508072421
-2.23299647531375
-18.8194907694794
-35.947336848593
-50.420485767416
-58.8433080283266
-60.481079083168
-57.8150002227085
-53.9811199723369
-49.7419706723269
-43.1142489197834
-32.0754122927212
-17.429634802031
-2.50188696879323
9.99176037016118
19.9521283449872
28.3826496500831
34.7861053526329
37.2306137196263
35.0144518740152
30.4350142902544
27.3458310383447
27.8903104701114
30.7581508111088
32.7479356554873
31.9580314475556
29.2377583688257
26.6703026679628
25.2019824591889
23.9538402120183
21.3789878036764
16.7462734678818
10.7924555443662
5.29458111854789
1.89900590342145
1.05118559698102
1.8586049650592
2.79916619401904
2.44563712390661
-0.187427007432548
-5.32993173200259
-12.0825124996352
-18.6288200986274
-23.3746265893728
-26.0389369727819
-27.3639894960502
-27.7142553137983
-26.3966935643186
-22.6175670540997
-16.6922719442308
-9.87290077937463
-3.30982939697349
2.29514828743136
6.35673001430405
8.57565337312879
9.60552584038172
11.076137672334
14.6423422016261
20.801084270902
28.1914519540885
33.872053056314
34.8357706061617
29.9874672777617
20.9403847946605
10.8581091079044
2.35556120698103
-3.85555058110025
-8.72550487314789
-13.4936735220669
-18.4232565829043
-22.5493128394302
-24.3425618995399
-22.7100243437183
-17.90521413892
-11.7906698589251
-6.87551786362356
-4.70364639252411
-5.23146009673096
-7.71283721861106
-11.6208677749013
-16.4226610866587
-21.0855911013098
-24.5515612320886
-26.5846519688353
-27.6250871011705
-27.8230718073997
-26.5624696386644
-22.8475994035335
-15.8999957303707
-5.65706599251354
6.84442154903806
19.6783064860287
30.9936969358479
39.7146361022424
45.1055894529888
46.1108027012279
41.9768607754377
33.6892357468367
23.9990855803914
15.3535994604777
8.04845856046086
0.851200629489535
-6.91394289507702
-14.4703158390693
-20.4977452793478
-24.2975541690927
-26.078921881653
-26.4742009275742
-25.750181600151
-23.3953153299212
-18.7673199979291
-12.2617305057754
-5.4528188928883
0.030096118253522
3.33909911194863
4.213430410846
2.85244640076698
0.387620539658153
-1.23881176133021
-0.565326739310985
2.33726469583232
6.28960491752155
10.1619994101709
13.4411947394734
16.0721240284226
18.1492093528254
19.6303624197316
20.0453401261247
18.5334645197059
14.5164015084362
8.5468528503324
2.35061087886248
-2.21876755311113
-4.30497114573746
-4.13747895970286
-2.28592812863467
0.847891716762343
4.86909257425789
9.08225197118674
12.6027222157346
14.839673030765
15.8320656574437
16.0839165594784
16.1679257980612
16.4972086964894
17.064798725086
16.9421588083151
14.3058466877947
7.77078933075982
-1.95703131530611
-12.0737846315662
-19.6038946686031
-23.3760475718748
-24.2805971512487
-23.8904387038111
-22.8823132215767
-20.6314966799809
-16.2250729265016
-9.80019741215959
-2.77745469705507
3.27654651373375
7.92804756897969
11.8879173432026
15.7296570141775
18.7624310862536
19.355760469521
16.30266141818
9.65304018330787
0.335863017097136
-10.519087274875
-21.6221749463916
-31.3482448809818
-38.2422602209981
-41.9403490923018
-43.327001340614
-43.5888940241705
-43.2552198730639
-42.3112209144734
-40.9588114932123
-39.5777978199907
-37.5812800160183
-32.9491870754907
-23.9880494556747
-11.7460758640621
0.226004615774756
9.15234458871712
15.6422531388617
22.4925980808777
31.204903590036
40.3202898806863
47.1426745010274
50.4343494183288
51.0475577860313
50.3195338035254
48.5279135514923
45.0452583027474
39.5263389600296
32.6267487076382
25.7617923727089
20.2716949256681
16.4735183388599
13.3536023820231
9.55758627425666
4.91045467859596
0.641756733236832
-2.06793132436071
-3.36961290419408
-4.29277894961076
-5.34106434759978
-5.98400342187691
-5.55980202002688
-4.35937806211211
-3.43584976134174
-3.24153286757426
-3.00173287987481
-2.11457850397199
-1.76943337171977
-3.97925826825894
-8.83859928820477
-13.8410185909718
-16.4254389452731
-16.5641950034307
-16.5450795128884
-18.6948605916287
-23.3879579743592
-28.6674313215486
-31.4967369064198
-29.7012237438687
-23.2127977813823
-14.0055372976927
-5.27022168311322
-0.341163370844724
-1.24784027453254
-7.18130191945847
-14.2267970685484
-17.4526414294354
-14.3593816582339
-6.79061155657701
0.731548678444824
4.7919308337842
5.26004499948035
4.18829312400911
3.57613519572767
4.62139276116138
8.1836398752216
14.6536855385654
23.0838573823053
31.0530627726602
35.9218076602634
36.4706019488289
33.5235621037646
29.0517941660299
24.560336973349
20.2713897064387
15.7409918216171
10.8796128751677
6.13754068517094
2.01634843222991
-1.20471333150883
-3.38790846215561
-4.57549292843386
-5.19612531973485
-5.97418906611735
-7.40159800632435
-9.42039462139635
-11.9650870485301
-15.7608965252451
-21.9581735630706
-30.5737837788117
-39.6517219132781
-46.3783601986146
-48.8639681352256
-46.7645016757012
-40.8426386791414
-32.5566049352429
-23.6816912246739
-15.4083417799039
-7.47170022580239
1.51455065169622
12.5757148197543
25.1917375293093
37.5082557019778
47.4891412176869
53.7806411214408
55.8198699551817
53.7288214464544
48.3923661541814
41.3341366086296
34.0292770567615
27.1366257758693
20.4318862214927
13.485404426382
6.36201223697691
-0.32873983049279
-6.05380264107075
-10.9987291629932
-15.967052256133
-21.5786920520194
-27.6995424702278
-33.6313605397285
-38.4345386935532
-40.8258322287109
-39.2674249860858
-32.9053938046702
-22.6078503604605
-10.7968727337841
-0.0643584898541276
8.11098792419448
13.5237531171518
16.5631132454552
17.6972978374129
17.5390271478395
16.8607543371738
16.0043751320414
14.3814896279967
11.0684647747777
6.00089452852858
0.30440030675688
-4.54472493162043
-7.69401422881928
-9.24842976285265
-9.99627555243254
-10.830392761555
-12.2581410652795
-14.2586108953745
-16.2443917881083
-17.0075515795463
-15.2691764712851
-10.9517566263891
-5.71224001838987
-1.62575913029914
0.547222479473657
1.37177025519742
1.41995160314174
0.725631045439219
-0.496696061556639
-1.30236087807336
-0.534436644418583
2.1897676195659
6.02168052256603
9.4188446432543
11.2978451726501
11.7248768643995
11.4577524592993
10.9869265666023
10.2061737126361
8.88165703948982
7.20319365334015
5.83638741718336
5.47445795130908
6.36727171434529
8.36333027650534
11.3323678755014
15.2051833847812
19.4168694767363
22.546583028496
22.8181402720345
19.1579889645737
11.9964419966246
3.09756294499376
-5.69913705488651
-13.77374008014
-21.5736792564372
-29.1061529818059
-34.9723157388849
-37.1975388761516
-34.8533980727751
-28.6831409701333
-20.3694865417356
-11.5673899298313
-3.62630667366132
2.3255648733027
5.72573615926307
7.14954310535123
8.02663854365145
9.3711562167929
11.0170319081621
12.3640482891426
13.446809822887
14.7370531762743
16.1699197642637
17.0033028526818
16.6510795554971
15.2152244003569
13.0938710755414
10.3308005611428
6.52797723349519
1.37574726978703
-4.83656103072377
-11.3090469845422
-17.2147745358893
-21.9273305179687
-24.9560104473215
-26.0720036054295
-25.4854838981724
-23.5134831143913
-20.1165899027806
-15.215591920955
-9.41504980641163
-3.80405901886021
1.14884327046324
6.01168359329764
11.3851379928739
16.781391088202
20.8343824383744
22.4603162834543
21.4985684780892
18.390703233751
13.8348482137453
8.9876214874391
5.39084143734357
3.83676493293637
3.20598900858722
1.13632103014107
-3.67378792861137
-10.1085702170816
-15.8557965900627
-19.6412705586001
-21.9075059565303
-23.591823732998
-24.7790274457271
-24.6473767357273
-22.40483997006
-17.9972254638204
-12.0083555588154
-5.24859268579654
1.47084198353878
7.61748135490808
13.3632904227558
19.447859486535
26.1748962172116
32.59521129816
36.9432969572949
37.8731572379047
35.2568938748081
30.0781038871387
23.8219662551416
17.8754892466901
13.1929028221143
10.1499643366933
8.42101413988036
7.10446444187143
5.35895338719744
2.95911721285983
-0.0361864882765252
-3.93620336367944
-9.07794923769364
-14.8126990245745
-19.6318262354704
-22.7301255484784
-24.877159699129
-27.1297359393165
-28.981485027547
-28.5185887897761
-24.5238980462803
-17.8366277495185
-10.2508099713412
-2.5694163496898
5.46250273656318
13.4173850452808
19.4104340435454
21.6118369993519
19.9903775179607
16.0657981393536
11.4021294016035
6.92601144381989
3.34515857242413
1.28958188306822
0.586565092858542
-0.328900178302233
-3.74150592597621
-10.9482060945925
-20.9964216907623
-31.0921512571992
-38.2726029198433
-40.8050925850567
-38.5194982777039
-32.6160021046193
-25.3654911819963
-19.1602073392397
-14.805483767811
-10.5922647538735
-3.78415392131306
6.41390930804241
17.5905910251673
26.203879118182
30.675837496324
32.0348703128628
31.9604981797934
31.1691288129628
29.7287672896302
27.7468357853161
24.9823142032161
20.5468666805466
14.0200635636845
6.62178017920258
0.432863709326168
-3.52195547975754
-5.74461717186264
-6.78156846745244
-6.04759857825882
-2.75951303445498
2.23102281178527
6.46390245098682
8.23339556888843
8.37390146426871
8.95749855039735
10.5234559283095
11.4860562394189
10.2592125141638
7.02687453398597
3.06759761334864
-0.910183649116224
-5.07159507820124
-9.37833412004498
-12.9260862201743
-14.6179382264748
-14.1682583681495
-12.1231504980433
-9.14620458975579
-5.78811216559458
-2.85536903763531
-1.32602088311992
-1.60024543932517
-3.16996564123852
-5.24713060550446
-7.48746674711446
-9.93280822546775
-12.4438678544228
-14.4303954794103
-15.1730512471133
-14.3783577917994
-12.4319218694246
-10.1287066386208
-8.16983922741534
-6.83488816919619
-5.86908443582421
-4.56605175912961
-2.32316906933885
0.534364451110232
2.76829535948633
3.52271862797572
3.46566161112459
4.21565690500547
6.63373195578623
9.9399155295086
12.50688098293
13.3277516801694
12.6523114651538
11.3268446898803
9.79383090652746
7.98275637083329
6.01060186455496
4.4715434602984
3.862845252417
4.0751171811477
4.60622793905468
4.95789222427989
4.68833278491806
3.45312470351043
1.33153654454068
-0.965182481407609
-2.41984781541375
-2.34960963054249
-0.830468529746826
1.38199753073323
3.3790941189941
4.76030153681492
5.91545754313172
7.55830571661707
9.86912139530003
12.2163866699328
13.8631153634593
14.699422849005
14.8150725155509
13.4089852381478
8.86081287359033
0.414393330903769
-10.4426781573702
-20.5946948808864
-27.1820485204138
-29.0206129928479
-26.9345745254627
-23.1548699422151
-19.8989709950173
-17.9208395645243
-16.4391350440453
-14.5248395755195
-12.1934806889174
-9.99649456157697
-8.00919215559726
-5.62577598855065
-2.22951359178564
2.13919448717485
6.70569708008629
10.4295820943841
12.6267423093563
13.3670417418321
13.4445536847044
13.7803541044926
14.4189994818816
14.0659612660799
11.1352942515035
5.61324049482554
-0.372278085694172
-4.18855633841134
-4.89411774104721
-3.77983680847694
-3.01709869442942
-3.95377912008867
-6.39248046539604
-9.04912154021612
-10.6300252639067
-10.6176361627204
-9.10291150559853
-6.10161218287407
-1.5372310177466
3.85099005618109
7.97207572909518
8.47748760173248
4.83587117098902
-0.800051140101356
-5.13602294026648
-6.23547551980345
-4.51473044391006
-1.68708784204806
0.825984644056629
2.71015989136561
4.6553555087543
7.56105558278076
11.582979582647
16.0552000783157
20.4746938751978
25.0540599511405
29.7559861004034
33.1490053895814
33.0547382823406
28.535242424641
20.8512962751919
12.3441085803464
4.71946760625046
-1.47332171604641
-6.26197110227925
-9.84095071702161
-12.7087499939887
-15.6267214466631
-19.1065937593489
-23.0955068765965
-27.2948139978193
-31.5444646859282
-35.6186537014372
-38.7422415765177
-39.5813185549689
-36.8361611644772
-30.0382954385494
-20.1017037366081
-8.96818927447861
1.91148741041424
12.8131722776129
24.7024809027779
36.6286328015515
44.91068644149
45.7824756182617
38.9032924879906
27.8722285836826
17.1692811202442
8.79278189685549
1.89661837668805
-4.87662364793218
-11.441235900904
-16.5126636805425
-18.9758612060857
-18.7939278287016
-17.2140545279475
-16.3287508392326
-17.7984555106312
-21.5211314318011
-25.6629701228023
-27.984013725853
-27.0315143258864
-22.6086442114761
-15.9512891762967
-9.457913602952
-5.41036173690242
-4.29953055872903
-4.31955040718777
-2.66387806178135
2.43737071150847
10.5862491220895
19.7325325221084
27.6342525738627
32.9264090203095
35.2098861135669
34.6863318777473
31.9689341769998
28.033060080611
23.9838173092719
20.5739409972026
17.7617800433603
14.8534730334471
11.4040392152725
7.96749989104859
5.60040943900509
4.63347941145629
4.34580604256804
3.85570650072883
2.88552097248007
1.6036992752277
0.151527362167466
-1.53914219544359
-3.74313982585749
-6.85186757768656
-11.0707376941147
-16.0155724161191
-20.5339324327554
-23.0539685635249
-22.6017890632952
-19.9251159603145
-17.4186347457961
-17.3620959630366
-19.9363170928583
-22.9225669858784
-23.2832541092062
-19.279448064962
-11.7390722095515
-3.69296767026843
1.5717749308882
2.72241430666161
1.02561365973969
-0.949741686288174
-1.11797524737289
1.21380163740489
5.37053982995843
9.81516727500682
12.8770246086405
13.4491482831186
11.4461833833738
7.92776940019882
4.63025927028067
2.91060879957791
2.98256454250465
4.22747531831066
6.0042028923723
7.94250848690109
9.78457698103306
11.370964063893
12.7057084246536
13.7863332728835
14.4208043832642
14.3659665934726
13.6170051665522
12.4019370428163
10.7465681262748
8.11473249877585
3.83419772474346
-1.92063810283819
-7.85601871431812
-12.5019660880342
-15.175994079802
-15.9113381120635
-15.001025565468
-13.1007986371735
-11.4137104255231
-11.0659797430259
-12.1215071730958
-13.4691582000153
-13.7768788789956
-12.4573151517169
-9.80687737550704
-6.5242738190754
-3.23444207859727
-0.310595287564169
2.09720846627777
4.00767022108891
5.54266316771417
6.75892671203626
7.48317630468815
7.35808808001268
6.0475359075663
3.4793391448581
0.14562622688678
-2.83661109758163
-4.40357069509152
-4.55223956438353
-4.46710789328693
-5.45493676982411
-7.71511430122916
-9.91648072187283
-9.83610775926357
-5.91411496297081
1.21823214177709
8.86256399705134
14.2868277610084
16.612196734869
16.7317231467713
15.9580989043257
15.1053284600746
14.3794736444862
13.5039556306879
11.9147404262202
9.16364737442531
5.35675006873849
1.27060876557753
-2.01742387319515
-3.77753156428387
-4.03973459875345
-3.42808143514355
-2.67128674815819
-2.25714849602923
-2.29252218310905
-2.45429276950873
-2.2118640502863
-1.34646264368441
-0.19431931385412
0.717909014144843
1.05899551389516
0.582785163476819
-1.05260571099777
-4.02788754159083
-7.96326017375784
-11.9337922620992
-14.9773857860436
-16.6935067387085
-17.3576806180585
-17.3514461958092
-16.5279510586147
-14.286935808762
-10.2170836448802
-4.57587987781078
1.66515072762592
7.12563493596946
10.7113212415355
12.3516683061681
12.9372917638519
13.3858432708567
13.9259216259612
14.2899653628246
14.2275637898408
13.6081560075098
12.2153285119108
9.72547976511789
6.07810137836588
1.93827752399891
-1.41161846485395
-3.00960600403773
-3.12959696519499
-3.02669040401392
-3.69038916828532
-5.03222451096529
-6.29971238821983
-6.99658008461419
-7.2966918343499
-7.77779830736893
-8.85251903722881
-10.3275945458109
-11.4677828085758
-11.5480896082939
-10.3536885479782
-8.20470861256269
-5.63487885947668
-3.03084636368191
-0.401459354439077
2.62600148495753
6.56918770839321
11.6525594333268
17.2360871406783
21.5774396593621
22.6463452843505
19.6776839321522
13.8540059524575
7.28041309214086
1.48307149697868
-3.05037646885562
-6.35044516198778
-8.38979080186455
-8.96528275309665
-8.07488431729632
-6.35295221873459
-4.78765937297261
-3.78924396158777
-2.86411553233374
-1.47157217027469
0.108119266716054
1.02129091044259
0.679240568262172
-0.887294951914569
-3.22131021591117
-5.6130029390373
-7.14176013185818
-6.92167735171058
-4.6654784703806
-1.16924036451364
1.93028399934006
3.28337549563853
2.93839942977267
2.25802886448277
2.67455570626809
4.50546316012035
6.79155154750822
8.15075868473538
7.92542271054538
6.52118481924823
4.48281749893547
1.58345107953473
-2.52111510746639
-6.93233972780274
-9.78176287294732
-10.1669415398465
-9.14842465815518
-8.44666961925315
-8.54799304825739
-8.40055625973379
-6.74569958497468
-3.48323579143382
0.212649167203291
2.86768328363157
3.63508651066463
2.49562635927727
0.0806050479545727
-2.50260516156724
-4.06676335042338
-3.97215529084105
-2.39230295434377
0.0696020652078556
2.99701377023295
6.51978803331375
11.103694525281
16.6370177048831
21.5204249584919
23.1822740340705
20.1680130113108
13.6896308875898
6.71917072660062
1.56988500506341
-1.46891605585201
-3.39854515766466
-4.86688556639336
-5.38800449597735
-4.20410301677833
-1.83120963264281
-0.298304031677279
-1.43654369691093
-5.10422629537892
-9.4212477733516
-12.5744205554079
-14.0861726026768
-14.4723942004552
-14.112838513744
-12.8048311948387
-10.4504943454827
-7.72076845774511
-5.49272650419482
-3.841682075161
-2.29866883614069
-1.01561602561243
-0.772900629796067
-1.56787922803829
-1.93938803680866
-0.269163765446242
3.40777778627122
7.21570771782853
9.15161708472352
8.93234426090011
8.03132431175106
7.92261140016958
8.58429991736532
8.88748769949964
8.13119512625722
6.79499425095549
5.83317047302103
5.54144105147932
5.25689787184276
4.14901526397159
2.22678575377231
0.338273851514249
-0.955319833302198
-2.12834354156094
-3.88121894008196
-5.87074912938928
-6.85756306769
-6.07596302789679
-3.97616391654885
-1.56685400767021
0.636792073003649
2.86934947902117
5.375993452297
7.51172154086945
7.88016609394983
5.72337516819159
2.11149575969809
-0.636630071098733
-0.93522460732284
0.695650486714222
2.29511974555425
2.47351374115119
1.58643043189491
0.780457828934758
0.288838154686846
-0.634666274103423
-2.22749802818066
-3.63729917014529
-4.17461438745798
-4.40992261646374
-5.48657157922502
-7.70002375017476
-10.1566400530102
-11.6534000091497
-11.6153016297741
-10.2735518309342
-8.23862949352201
-6.1174429062634
-4.51536653804962
-4.03356004040507
-4.79410317621258
-5.98085091275887
-6.34179704852963
-5.38283391695499
-3.80954832751297
-2.65664491448431
-2.19812759490504
-1.79285254229921
-0.635750653375075
1.35580105356289
3.27212407802335
3.85932874004669
2.61643465068223
0.425050659062716
-0.820031951572419
0.560684127273101
4.66349531211132
9.70878830445535
13.4608309680685
15.0402305658048
15.0876617436774
14.4563007694221
13.5290524095063
12.7352132328699
12.6847983674261
13.3026003415779
13.4089480319823
11.6751557897003
7.89727929919297
3.22934535081895
-0.675868197704681
-2.73678328793512
-2.91169006195459
-1.89243626828823
-0.546541358149887
0.347196804383319
0.244651421358811
-0.768242292298884
-1.78054878370263
-1.73861637773634
-0.518811890987429
0.837036980907462
1.00701692092273
-0.540564156528584
-3.23794891349148
-5.96886800115602
-7.84302680588888
-8.5554741989001
-8.35282820794427
-7.9026789412098
-7.86828236219065
-8.11952348321033
-7.56629071525884
-5.37806488936403
-2.37559936885199
-0.723695155001403
-2.09695504309257
-6.27369826697909
-11.3674890079603
-15.2023868863241
-16.6486064247878
-16.0412207919294
-14.6057044546074
-13.5655308483412
-13.4801762791918
-13.8036992248442
-12.9112427554893
-9.17153425619292
-2.56835955671886
4.80221320509493
10.1045448254924
11.7268717890276
10.0931871399396
6.93775920627733
4.0062406907487
2.33309947011304
2.41378000574041
4.55180891120941
8.58279935660131
13.3646038969412
17.1791320866572
19.0309997965433
19.3680635102016
19.3747743584289
19.7433244678678
20.1855261691847
19.9229977317717
18.5293595142691
16.2579730412293
13.4703201660861
9.93738177538669
5.12834766190115
-0.803219470106066
-6.72053548780941
-11.2642292756185
-13.6994269793563
-14.1592437766281
-13.3799508062392
-12.0860539938504
-10.3508378703909
-7.61803129443942
-3.46216975917242
1.78649877242323
7.12707049320449
11.3585743951831
13.5479864060925
13.3952452962766
11.3210465429531
8.20527448167039
4.99173451461539
2.25483202510512
-0.219935527415168
-3.35874148139182
-7.91830518397787
-13.5960998482586
-19.2190731164086
-23.7931521953192
-27.119285709384
-29.3084738670272
-29.9083718877678
-27.8960958670262
-22.9058779775285
-16.3796201620212
-10.9001020659386
-8.073331645292
-7.40290312262745
-7.3465146698306
-6.93295378935871
-6.11909888073456
-5.13446649352765
-3.99962032417639
-2.65013265312939
-1.29886260385594
-0.376586403092271
0.208976340390171
1.55985335286187
4.8620148229682
9.87055655656856
14.9647739964323
18.8740540365007
21.6969314705238
24.0365056516092
25.8921827356103
26.8353674763535
26.7152704468869
25.641285654553
23.5141632852946
20.0897551028185
15.610805371019
11.0967951797627
7.71467868799789
5.82617702429063
4.8319871353242
3.97191579386565
3.0050041403488
2.01939731520812
0.982797180424634
-0.197543804082181
-1.45775078368107
-2.75889037877418
-4.25245412634142
-5.95529169844255
-7.45789935594992
-8.24026402906301
-8.20214847523316
-7.76744640454848
-7.51320817378332
-7.65930215872005
-7.85661352162887
-7.564980284602
-6.64019582947249
-5.39481525082754
-4.18160897689368
-3.22927393428943
-2.84068707845228
-3.36197825244313
-4.79904414175452
-6.65407202383714
-8.36464811901127
-10.0019121093231
-12.3725816150184
-16.0399167907685
-20.1993828290626
-23.0332210485087
-23.3402968570763
-21.2329353352256
-17.118645864205
-11.0037757374362
-3.42006278307607
3.85811765855606
9.06558674711702
12.1122308413986
14.205920478697
16.0077051147225
16.9268580837288
16.2450902305805
14.219462532971
11.776266024043
9.55475329368867
7.65330122938404
6.11513479545132
5.17574711472935
4.92079633200092
5.06555353811321
5.28935294247677
5.52600705084717
5.75796606820089
5.84932137636155
5.8094067569319
5.91531607268507
6.28698656109385
6.51463754826208
5.95089088506022
4.36734227726127
2.25429536526866
0.413945067866951
-0.827590945169991
-1.92614562794993
-3.4498722380959
-5.20338675293922
-6.30159884418972
-6.06086361626887
-4.5919626410246
-2.64166215613314
-1.0766721048393
-0.376002123763568
-0.414462669523563
-0.779636831972931
-1.27954814715101
-2.01394472527744
-3.08869294606066
-4.48537239524429
-6.06255765875793
-7.43970370312829
-8.0344954849749
-7.50712643550843
-6.13636691065308
-4.61021162291581
-3.52345350609963
-3.141802025689
-3.44117438973536
-4.18182275212273
-5.02103724370053
-5.65594527627799
-5.83921817357414
-5.32010460042329
-3.93583929764003
-1.84712795068356
0.354439121555654
1.98948014993975
3.07437309685052
4.68132891809106
7.86197200826828
11.9473775613189
14.6087413681098
14.1368358163085
11.1633424271651
7.67591863408649
4.91160432644023
2.80995080854638
1.04685636268098
-0.20277983393266
-0.551496202194073
0.0288788662861064
1.12223390894286
2.19315374601891
2.80327361383222
2.58162813423736
1.33379833005764
-0.637642644544633
-2.5693219119471
-3.81536771109752
-4.25569668870385
-4.06276373309739
-3.35158606801934
-2.24529732406045
-1.0505548999243
-0.123208579625189
0.382650464558629
0.581809303523778
0.776960361574287
1.25745272573405
2.02755849429947
2.81977190631774
3.4333628039715
3.79173976034225
3.63822745753019
2.69662587957251
1.34978780640574
0.631545724692761
1.17694680581333
2.47125028136966
3.33302970408549
2.87719356646982
0.935705797432008
-2.11799135825767
-5.72636942496987
-9.37529903411834
-12.5669379247614
-14.8159437568981
-15.986632152337
-16.509527594852
-16.8469323873276
-16.7814123615727
-15.6072747566039
-12.9869211959441
-9.32541228133929
-5.39174550916323
-1.79979434654479
1.27358649572251
4.06385155032949
6.8656451865713
9.69015716786406
12.3453612612753
14.6706829399157
16.4765416058228
17.4717372482395
17.4901358091241
16.5264153495954
14.3936888545962
10.8333840719805
6.26159672624517
1.91731212028211
-1.10626587750861
-2.65282401432631
-3.13396363450895
-2.77637039510836
-1.53180319473291
0.453386707882767
2.51905117502481
3.72628332339842
3.48293069517892
1.97419728099313
0.0183513115866276
-1.37185317456625
-1.36818725558975
0.280220092698528
2.96940216015312
5.59706654890046
7.40798579249682
8.38668540963102
8.85567467866257
8.9435403769853
8.45319433067114
7.05144218002973
4.56057686012179
1.08927644394601
-3.16759667127355
-8.10152515686409
-13.462500325494
-18.6624201185626
-23.0637377801209
-26.2323496520196
-27.719361583773
-27.1078206356576
-24.7688550568261
-22.1129257539891
-20.3373711773609
-18.9936083721437
-16.3045871183306
-10.8932531174712
-2.95490516743713
6.04323064165059
14.40871528853
20.9697447141679
25.1202384865376
26.5685464623128
25.3931157642042
22.2497154623255
18.13291228484
13.922387796669
10.3988325186755
8.40156957405142
8.3493601304284
9.56638786330511
10.5006814864674
9.7837439188837
7.10394222822914
3.25519136350122
-0.540947979903392
-3.48476463714696
-5.48677861317833
-6.75648444825457
-7.44543672108349
-7.80105177135338
-8.25988784065427
-9.05485219572286
-9.87011221999771
-10.0263871298945
-8.92504246693855
-6.43571445198544
-3.20746387474541
-0.636163688802713
-0.115410611347683
-1.93786525249391
-4.85053436907009
-6.7781725424776
-6.19643268910815
-3.1556237014996
0.771230643511982
3.58326754399054
4.13019324200608
2.64546354739739
0.422327306671194
-0.930277382567032
-0.35415396354824
2.04700548093722
5.19661830792105
7.87274675019938
9.28428462117711
9.08993396780919
7.36416055126712
4.65836783697563
1.81700400915989
-0.414401071598901
-1.6872696757291
-2.20208418816352
-2.5762893819727
-3.25679337302383
-4.05020517268881
-4.50008295120767
-4.57169096832981
-4.58004179413762
-4.63018289623483
-4.54950371718036
-4.18339234495379
-3.38538507607565
-1.97612392851232
-0.141433622602796
1.32079764511615
1.60539368128109
0.790275586059058
-0.0961321274565305
0.0505108344383224
1.52134198659421
3.73302942283002
5.91288004201971
7.65853216547161
8.7624855865228
8.8380915971589
7.61476689588782
5.54295462434167
3.60505103799513
2.40764185290846
1.72844356362743
0.926872584706308
-0.44492482529827
-2.32564901437465
-4.1402377085679
-5.09589604420254
-4.64512082411684
-2.82689105650007
-0.36319132085185
1.5930662057939
2.18871582192193
1.58941624765228
0.807838411936305
0.73459468571804
1.40891883767164
1.99384967785947
1.20415836859796
-1.84530304084857
-6.67352326177674
-11.4411498516735
-14.2232051614231
-14.175893749881
-11.592503221766
-7.45983200287247
-3.12091508207743
0.234367813769491
2.14267723117396
2.86132346234681
2.93457461761177
3.00033628217755
3.6442284969925
4.82856675939722
5.58388558084852
4.85646057371196
2.72453475665314
0.428912308417107
-0.741057840648392
-0.310325805354378
1.41005809567879
3.71565952898301
5.76519906245492
6.71302549419752
5.89607821984649
3.1332289931534
-1.0818676174032
-5.80231844053867
-10.1501993580623
-13.6664680881011
-16.2552566847024
-17.827529463537
-17.9079769245105
-15.7345422809179
-11.130131035025
-5.2146680826175
0.329346158870828
4.88693382027415
9.35285922063503
14.7053532027039
20.4123527151171
24.4476419794645
24.8520929943996
21.3609939361822
15.617894589699
9.81759147100607
5.26739125624855
2.3086264461353
1.09448785033506
1.6976051199788
3.46510341309016
4.9934850421515
5.19129951987314
4.18906452174593
2.98774510267102
2.29883842828418
1.82448924215685
0.623038513424124
-1.89242287832527
-5.3816211679232
-8.94795958733863
-11.828588732043
-13.6532364361078
-14.4066973114025
-14.386888985282
-13.9285217865822
-13.0009957439537
-11.3187009609714
-8.85332309964914
-5.95324157238216
-3.10662903153032
-0.965630639743327
-0.350323148702992
-1.6401302804488
-4.13085318427146
-6.30672103892494
-6.82256809713792
-5.33295730363488
-2.65332460253467
-0.0199069776463005
2.16339721455934
4.67588375977052
8.18821420940056
11.9264009176389
14.2230870681365
14.2604430569931
12.7183373058883
10.7380456771839
8.75578336186872
6.51907461704091
3.92207182284647
1.48343528098912
-0.0326379257819614
-0.247977425099101
0.730219890361578
2.63917134829492
5.17555014300847
7.88648909604731
10.2721364508461
11.8687999947848
11.9304905727502
9.38513082658126
3.73603826759581
-4.06783426708504
-12.1232371909456
-18.9530611923411
-24.2579414811759
-28.4894912373214
-31.8342572644626
-33.5104576251688
-32.0860899387867
-26.6545677228116
-17.7502549144639
-7.27391183244208
2.24350741521795
8.70966960217588
11.74399826164
13.1373967338226
15.4015332000892
19.4268852604775
23.6612145953481
25.5349645848036
23.5528386858947
18.3216593626324
12.0315738835253
7.01487140867731
4.5590031120577
4.70161713386631
6.60995757195915
8.9285772172453
10.2545076050588
9.89196624975291
8.18836278750198
5.94325461547185
3.6011211828643
1.12509298102745
-1.62625443819345
-4.66840569149175
-7.91452772692234
-11.2587826076977
-14.6486676474473
-18.0476517009403
-21.2625715240435
-23.8122865240846
-24.8513015202884
-23.1816118996757
-17.8872150289243
-9.57491843685096
-0.64302745686437
6.45016127899197
11.0477609205962
13.8826680139882
15.2968927384196
14.873325881593
12.6954064618893
9.87415934583342
7.35860897293965
4.73526652297537
0.76715103245131
-4.80849319088171
-10.3350618265347
-13.4388344073667
-13.1234555595149
-10.3272681459692
-6.54971295906746
-2.58807675076632
1.23487834751627
4.30267160001418
5.75655926234499
5.22720764061025
3.21493479909096
0.62655266433638
-2.03436966068427
-4.86804408020606
-7.85293581143932
-10.1592238345196
-10.6051200443996
-8.7798609720698
-5.38318198809496
-1.51650418433553
2.11698703033136
5.6149287867979
9.84633033001679
15.5741938115927
22.0520440860072
26.867001407513
27.8172098956695
24.8343173394574
19.7056141640254
14.1480430242695
8.58926495647157
2.76981560463521
-2.92032409900086
-7.13278521398793
-8.73030471116769
-8.03660248763685
-6.61331993239837
-5.86864280819142
-6.09378813904688
-6.6198706762068
-6.52284825666221
-5.30860392785228
-3.27141983655175
-1.21996643157765
0.138486458694807
0.416183392897534
-0.547015866789652
-2.45867992338225
-4.39960390767777
-5.47025218870956
-5.62802677152669
-5.49820663467992
-5.51777405337414
-5.70338621759715
-6.04145341351703
-6.58195917947513
-7.28102660165079
-8.16755976994709
-9.46048257010187
-11.0847893368303
-12.2172137072759
-11.7444723676307
-9.28752130801203
-5.65298617155977
-2.09840136906872
1.02962256848349
4.79626074134466
10.3453072199555
16.9180029239734
21.6908470935786
22.0421352916802
17.9030740562943
11.6804042480696
6.03690778303771
2.04802332130133
-0.57923692134625
-2.16493285854266
-2.66059824852134
-2.5264179453683
-3.12738516293207
-5.58084990773058
-9.3782706578783
-12.6095979014772
-13.7074866229195
-12.94522691747
-12.1124387020125
-12.5169587122301
-13.3876477768796
-12.6472518850414
-9.20862912905768
-3.89424953728819
1.9226730474105
7.61612202040448
12.7544864985068
16.1587320536158
16.5988942706191
14.4005258972808
11.7443007012358
11.0857342760098
13.1504176665836
16.295416281509
17.9079114362294
16.6453390174136
13.320700820036
9.72925401495499
7.01440454176965
5.16314848695465
3.51475452780214
1.5022525486294
-0.802351148961981
-2.71153065269645
-3.56071696383273
-3.23681719808014
-2.10815733716461
-0.800333362582579
-0.0600980458957215
-0.321451733270852
-1.25075803054629
-2.11161798802496
-2.64140509431164
-3.28606988337093
-4.72600192822906
-7.4763846921137
-11.5931397093178
-16.2090569816284
-19.5371810302208
-19.9502276394781
-17.2820871564071
-12.9407216981434
-8.75119490661688
-5.7976063774241
-4.25467527902734
-3.92012851834657
-4.53672856946141
-5.66345020502807
-6.74567554210888
-7.65919973103116
-8.83375446259783
-10.3569321062908
-11.2773656657434
-10.4403589351104
-7.7498754135873
-3.82695130557271
1.36304490324726
8.48199413175652
17.1477061893069
25.1254549511701
29.8548532226433
30.6126568988518
28.772190475571
25.9886363697477
22.580598433937
17.9396748315911
12.1094561016167
6.28623539633579
1.72285806376523
-1.32061979257715
-3.37926483193522
-4.93672934495975
-5.94298521559521
-5.96146353131147
-4.7412161927211
-2.76139162379463
-1.18854369899789
-1.23914102380603
-3.54149705779367
-7.86687257334239
-13.1710849089138
-17.929968416643
-20.7462272977208
-20.9301737423883
-18.7383910566543
-15.1632217357618
-11.2652922187074
-7.36656729412789
-2.95216179543842
2.3150715150536
7.57837189132232
11.2159964788444
12.3319172153828
11.5557075837083
10.438055124284
10.2767251070754
11.3548459805751
13.0390824066591
14.5762849584364
15.6765540898956
16.2302911783389
15.9115522578137
14.4896513100957
12.0487595264045
8.30897168533481
2.25080568218548
-6.72218168128223
-17.3835854272954
-27.045469974924
-33.3005064238489
-35.2391466403251
-33.4039230604366
-29.1424869347356
-23.9769299424136
-19.0014007450324
-14.2016654282367
-8.18852508338225
0.727937577122031
12.4196299158077
24.018413215774
31.7848508293747
34.0851113431556
32.3403767772095
29.2728085784464
26.6512424863229
24.6019721803712
22.4632264748249
19.8691648264922
16.9967211314454
13.9585055626369
10.2749802489547
5.20297619344213
-1.51105137391538
-9.39888461076057
-17.6210320295502
-25.3420387762659
-31.9917639108996
-37.4383765438298
-41.7973569161598
-44.9298992928686
-46.2160303594053
-44.8371742837727
-40.2095523654052
-32.2463541553941
-21.352244317016
-8.24941541501522
5.94869055041408
19.3297380422252
29.3237598876508
33.983430445535
33.2805322586244
28.9918508174211
23.5287559356497
18.9293460157982
16.2291894174571
15.0456984873664
13.9012430957026
11.4519814933904
7.62295064635146
3.7247571611491
1.62351803138599
2.49575603200272
5.89177855676474
9.97497872905947
12.903747465717
13.9513746304486
13.3195609135501
11.4053135744759
8.67936204185504
5.90369110630039
3.8234148286862
2.50769136732567
1.14259151768783
-1.45809780807517
-5.92859692141704
-11.6027378681913
-16.6333958761927
-19.0554711230658
-17.987825237476
-14.2000248622907
-9.7638072483361
-6.71537698807689
-5.43975223394915
-4.52418049828665
-2.67970376702339
-0.562222996844419
-0.154222311628141
-2.49823095403407
-6.49622236764431
-9.86726857171434
-10.9671121062476
-9.69992510367024
-6.96274714334809
-3.61990781040152
-0.331039089077282
1.98332556315133
2.4344446194897
1.24592434983352
-0.0975108187336931
-0.2903349602778
0.447670482414208
0.732002045078693
-0.509517874365832
-3.09202978726018
-5.78097076182702
-7.1292588986707
-6.34584786433844
-3.83150785489942
-1.03914452929977
0.45803996182478
0.229571497703828
-0.391647990821292
0.889027423941115
5.55808245698409
13.1131738490195
21.3540535375534
27.5164730079712
29.4942766282873
26.9878162385285
21.939516928923
17.3413109597831
15.0319767747337
14.482613091335
13.6427032837903
10.9338789895576
6.47483504998073
1.2449278264554
-4.8889648595722
-13.4826249325463
-25.1082193845749
-37.2234944512621
-45.5274943022132
-47.4000461614279
-43.4146056186267
-35.8413482183472
-26.5429837229332
-16.3726281564791
-5.98255028127454
3.34129900073022
10.0645173625829
13.7600088803301
15.6474054742878
17.3215476873435
19.1146884760582
20.0301099330724
19.0886791364917
16.4724994621735
13.5667461519717
12.0680765506508
12.6682156928018
14.2251251417545
14.4511264453074
11.8463607213991
7.08043055679721
2.43903219476801
-0.156756024483771
-0.809921318149329
-1.55734481486967
-4.61149728239346
-10.5539636075171
-18.0280460409096
-24.8338419817507
-29.2605279164252
-30.8462731987058
-30.2292289797875
-28.0587527965396
-23.8224362911098
-15.9443996555465
-3.3827910972504
12.5753338663489
27.9244389093955
37.7515307976669
39.381877794325
34.1694939502358
25.9522431539253
17.9139631359041
11.3620434279947
6.78450205372105
4.5255406697876
4.13444940844025
4.1761335923744
3.30115389275158
1.10089044806857
-2.19297178376203
-6.26001690874853
-10.6664516425131
-14.6634680567969
-17.3425806177272
-18.0725940992374
-16.9232306823015
-14.6903035060921
-12.2126206184536
-9.49947353622335
-5.79568979278562
-0.765472108235077
4.489502498411
7.88927103246637
8.11016938144932
5.88300494068283
3.35005291513813
2.11143646532815
2.17116778714535
2.68882316238256
3.13025268420721
3.46140501852964
3.73255294770018
3.86428655538675
3.77990621418552
3.76719871684199
4.66298682025525
7.10915883758378
10.2796038117405
11.9625095030461
10.4877694338985
6.20032115718594
0.701191301994269
-4.82603752680585
-10.1710042651188
-15.5306284701481
-20.9170011864342
-26.0328021852587
-30.5019232876085
-33.9999059040176
-35.7881749309622
-34.2072400170624
-27.5843162588563
-16.4045833366644
-4.0408336931486
5.78296442546879
12.4776004758274
18.9311735062331
28.0115507409446
38.9134324904639
47.2122379604713
48.5538394395086
42.2677130661352
31.5721088301613
20.7250868500086
12.1731986515985
5.90240307030995
0.732878631901292
-4.0357292448475
-8.06576268579738
-10.8005079392156
-12.4150447294415
-13.4647884921333
-13.6835192612213
-11.7901959065558
-6.86322433282705
0.25123738126485
7.02939855686289
10.7472813853472
10.0783210207528
5.62417974125927
-0.823168726762953
-7.40954214574866
-12.8609462206997
-16.6490990664015
-18.868757018624
-19.6290032158168
-18.3502141415999
-14.0864172263731
-6.8810961231952
1.46362562030793
8.23556105027729
11.3666082514755
10.3114590246744
5.91048699867543
-0.368985860858401
-7.24120180901637
-13.8346723030776
-19.2854897068797
-22.4520617903815
-22.2377932738438
-18.1440423484336
-10.738158515434
-1.92303580611596
5.70695701687695
10.649756897581
13.6138074205059
16.2723092763332
19.1182512341633
21.1286451504955
21.1771885276743
19.1237486685942
15.8964561033039
13.1199279161234
12.2006817441311
13.0411293320932
13.8600884430858
12.7692958607919
9.41040768754367
4.9551491443882
0.992957011680835
-1.31435486988499
-1.58618184137816
-0.531107539374086
0.0508219279654359
-1.75757436563665
-6.4502708334664
-12.6129207394201
-18.2240791637197
-22.2137489233111
-24.5317272421455
-25.3074583553773
-24.7395986729861
-23.4977375454205
-22.2418091178928
-20.6335875653709
-17.5423640769254
-12.3050679228628
-5.18796675716071
3.19873860095074
11.9833995207468
19.5045796515394
23.8135617407105
24.3267413373583
22.5366879783213
20.6405132823433
19.581573972305
18.6000513690375
16.535946085006
13.2647455013494
9.73550419770483
6.83403848532573
4.54621223994096
2.21541353842951
-0.671956050146622
-4.00911386809282
-7.23347732924878
-10.0261821638871
-12.8485824525062
-16.4389409086184
-20.6446432622316
-24.1021382813044
-25.2008714247086
-23.181752006039
-18.5973810852583
-13.2246419179881
-9.15881869564306
-7.10966322237884
-5.56214288792176
-2.27788090060274
3.28429079826306
9.50679864356537
14.5826173444864
18.450080053201
22.4979748532929
27.4967238394147
32.0801676317419
33.5147664067087
30.089300687585
22.6958450776659
14.2003153219736
7.62063627353303
4.66175418622843
5.00349478298708
6.53190089398697
6.9203841119171
5.59876007876554
3.99388592242026
3.62540734731865
4.20763682383635
3.83245406958639
0.924012656597432
-4.23572897360214
-10.2132543146716
-16.6096452778903
-24.8660234602418
-36.3122487855457
-49.7182773388489
-61.2494110184839
-66.6873696686397
-63.8087064905291
-53.6089558121046
-39.7343675637875
-25.7594955343979
-12.0390525328225
4.30367666525467
25.292992339547
48.0299270768968
65.5500918278337
72.2757648911934
68.5154803803257
59.5208259270252
50.5569437842817
43.2481924413028
36.1468131955836
27.5902660267687
17.4495783757786
6.93612916634647
-2.33685070943545
-9.40616677332048
-14.8510748579776
-20.4124776173102
-27.0694364919271
-33.6872790181949
-38.0849252314633
-39.2760819293329
-38.3927820939429
-37.6953757683298
-38.8136127936135
-41.4742620650293
-43.5569736951773
-42.5043825064122
-36.9703817790434
-27.4847942618028
-15.8941934845468
-4.02290014674084
7.59809508999139
19.7023858594335
32.6968103000226
45.220505150813
54.5612718875197
58.3925303793666
56.1277901461986
49.0755664857984
39.5284016720359
29.4772242735717
20.1083951127777
12.3916521114658
7.39472230870751
5.392230243313
5.07334486670565
4.33323752748477
1.8570228982223
-2.20340941301524
-6.6644362162291
-10.1029569173283
-11.7255186849298
-12.0098220084451
-12.3795891482171
-13.9901056032071
-16.8166332188261
-19.7411769993262
-21.1775752413023
-19.7302729895082
-14.9147127327386
-7.8696378974291
-1.42034108244124
1.24193018305616
-1.17420867568326
-6.94703795048592
-12.9127976716596
-17.0482014915003
-19.0333588369918
-18.8666301583329
-16.2905879206139
-11.5985321519099
-5.55811029187315
1.9912205391823
12.2860389811205
25.4396542564329
38.5503139675432
46.8908844858026
47.3560671120462
40.7280961477618
30.5521552408631
20.0333481318547
10.3474781166504
1.64931993327019
-5.42333029656844
-10.0192221543691
-12.2624456677522
-13.1761063787951
-13.4200506626093
-12.8415349650175
-11.4943948638588
-10.5537749108027
-11.6735981236782
-15.3699411583459
-20.3550033566009
-24.7425684362499
-27.67500425711
-29.4014205357003
-30.2366559657059
-30.2976164345718
-29.9055062006601
-29.0561084323106
-26.5265000655992
-20.6993951238928
-11.5195657017466
-0.72835511562699
10.0520078472044
20.6117127730266
31.068718016476
39.9997946009134
44.4603426581127
42.3921483738073
34.924975462328
25.6913023133752
17.7377459024442
11.8025158372297
7.65147401826958
5.67803127399481
6.20187077092692
8.13208729378161
9.62018885929744
9.87337204362384
9.50732029816355
9.16130434495612
8.47052284756472
6.66170931615903
3.71191240278477
0.393648932847371
-2.76028402503895
-5.89583332656832
-8.88828264194754
-10.59965795243
-10.0637492294249
-8.38461833836561
-8.4924623018277
-12.5056692961281
-19.6889436452425
-27.2384535457873
-32.6655710212009
-34.9960140452485
-33.9268373878742
-28.8638518119461
-19.6974702054064
-8.01961052807951
3.9024496068619
15.5138249645859
27.736225640976
39.7209430814197
47.5120426990028
47.3839199969176
39.7805327247476
28.882488087617
18.744230838833
10.652175644187
3.85767741928044
-2.14808004332411
-6.58428828524112
-8.30061504454001
-7.11473991375911
-4.03387562586843
-0.709395299086354
0.966530490751719
-0.533105552823585
-5.24279029504054
-11.3356106458392
-16.534112011498
-19.9312223647447
-22.1925217770693
-24.2752102603647
-26.4058851430752
-28.1743673435036
-29.1233651930384
-28.9652254001297
-27.2671978325748
-23.3104797199417
-16.8286371998707
-8.87334570646613
-1.21142876244313
5.35784941997055
11.3468834007526
17.0330754015847
21.5134264867231
23.8189649573635
24.1761306259172
23.4125303050699
21.5289023056446
17.7189812733339
12.0024057210115
6.22787156987558
2.71093584061467
1.88105493218168
2.04517382518361
1.73020894876851
1.35994440458475
2.04536212240661
3.65837347605283
5.0995727744067
5.89209620366344
6.44825226311745
6.96505671522907
6.97675213442123
6.13082812325775
4.77884740963715
3.44486570940111
2.00282566748098
-0.124207096526873
-2.8328767593825
-4.840912716908
-4.83307378230433
-3.07258247245414
-1.37794574230342
-1.28247230927973
-2.49178923857506
-3.32229150232161
-2.48602599505248
-0.406810666172553
1.06635420333878
0.295328979372934
-2.64127507622418
-6.03901793384284
-8.02020967428621
-7.78850527724439
-5.87827904175385
-3.67777302090846
-2.42690078783331
-2.17358092780072
-1.97359397738501
-1.44229411276018
-1.44896738940804
-2.56030818847556
-3.36931320442932
-1.48429493429532
3.66715790129115
9.64240051645854
12.8698385702045
11.551734431997
6.73830281437039
1.09089178793063
-2.86635500603811
-3.64419672753273
-1.22695108091057
2.62873086269638
5.18402230943384
4.76054311860812
2.03678577758564
-1.0163080146074
-3.28514283315857
-5.29394088043754
-8.10139096554176
-11.8407593467123
-15.3887274607496
-17.3776786144351
-17.5031437983853
-16.5970021179583
-15.2309063524555
-12.7380694608147
-8.26843518115589
-2.58233826152014
1.96686066731721
3.42216369486166
1.91087834561399
-0.580418869548719
-1.74724105889588
-0.304405224816115
3.61454347584158
8.72707817429876
13.2676547291298
16.1017462923152
17.6186014923518
19.0257802191456
20.3059090797409
19.5197718840866
15.0397465424653
8.2726931074096
3.26338925939558
3.18967038885275
7.33821078140277
11.5793462917274
11.9063589174526
7.74749315438308
1.95267786699272
-2.2826848047088
-4.13901651065777
-5.0166581528156
-6.59696201169553
-9.5871049047543
-13.6896976130126
-17.8719673346021
-20.7559671502215
-21.4513876137249
-20.178215642283
-17.8030292292174
-14.8247105447142
-11.0394915454013
-6.01033591606119
0.507557920023157
8.5722540923218
17.9389105339103
27.2787910067334
33.5200426460903
33.0418790667763
24.6530528961839
11.3097106800255
-1.83980391620361
-11.2284459075036
-16.5914205077506
-19.5265302718503
-21.1086309193435
-20.9848996136059
-18.3562673934414
-13.311683195384
-6.88215477801313
-0.163104504229872
5.87936961780982
9.98645787946595
11.1746056563508
9.98441128784793
8.17261731495275
6.76404787588331
5.12734934588386
2.26265671211946
-1.62926191280847
-5.18324420270677
-7.0978109595724
-7.10295550972534
-5.89054026156674
-4.22348473618667
-2.13703393054432
0.907476988697434
5.15069957497526
10.0602529044268
14.6637353845754
17.9855962469893
19.1980660030095
17.895012540717
14.517773231925
10.3762328896813
7.11103305269026
5.83780625141838
6.19872051013611
6.05824606013364
2.74121946880112
-4.86529112758724
-15.4095997216222
-26.2081143819501
-35.0952070538669
-41.4137457895516
-45.6855580508247
-48.3046836954686
-48.1708376175384
-42.6190987359718
-29.342431774891
-9.23833353287679
12.3294936316806
27.9134444992009
33.0499163855968
29.6210706169058
23.8717097602697
20.9185721515088
21.2674505863165
22.0287691351476
20.449575538925
16.1927910407533
11.1161239343861
7.49355159351047
6.40094609133309
7.488541211548
9.78701159973817
12.1929823370421
13.3775220737562
12.2182457181617
8.87633009885734
4.97075961984692
2.18660037984569
0.824537011269235
-0.238077484893378
-2.47677741509353
-6.59582996207063
-11.9879840790315
-17.0231570574132
-19.990503722078
-20.0533257472639
-17.6124274409686
-13.8480951148219
-9.68671737184661
-5.07919933187139
0.607806651391746
7.57361417235033
15.0622395783991
21.4403819693105
24.4741482365513
22.2645895552795
14.9274804211425
5.28966022682845
-2.76134452688574
-6.87034417892351
-7.38967767410163
-6.59189687882404
-6.83145596883609
-8.81587419774466
-11.2865791485565
-12.5043435799586
-11.8880074669915
-9.98719790153047
-7.37641228056728
-4.31453717430642
-1.36209759346256
0.440529132060337
0.436786469537506
-0.767743259967693
-1.65814419111807
-1.3100225100789
-0.478860084828659
-0.860221177303681
-3.23525876771836
-6.75420003980163
-10.0512548153621
-12.4502270064821
-13.9498148530138
-14.6930847957879
-14.7287841147042
-13.8642486764952
-11.6226426863947
-7.59884792538396
-1.74564956354042
5.778724311391
14.4481745759542
22.6731198572853
27.996438210372
28.8406679674861
25.9879290097242
21.9571550735999
18.9818575436237
17.6186251630805
16.935681121034
15.6700622622728
13.1171173451669
9.12915826439189
3.82917047628575
-2.22631552070151
-7.88398488018936
-11.9299130631127
-13.8396921583277
-13.9397374386009
-13.1263196170803
-12.4845232589509
-12.650591740985
-13.2108852346324
-13.008574183258
-11.2806920124325
-8.41141377102191
-5.66891561186693
-4.37661552942639
-4.97763706190433
-6.4344598841126
-6.79952358453888
-4.84717233554509
-0.963642038179342
3.7726285431451
8.7924457639303
13.7827003464885
17.7762321894858
19.4112758055247
18.2314241493515
15.2286660629514
11.8338955100907
8.62876183131033
5.37042007317023
2.04297873445248
-0.832618627452666
-3.12023922795608
-5.52550134679501
-8.59735553719104
-11.8922759153825
-14.706355404454
-16.9722856997866
-18.6969324687347
-19.0833927205881
-17.1071463452016
-12.8475735068524
-7.74375571474806
-3.53441111936073
-1.01301077204399
0.419358493520265
2.04331970566572
4.44015997865476
6.78063315319923
7.62052864201213
6.32513165711258
3.68691564508953
1.53204916357903
1.90863597472788
6.00443860791236
13.0327634742906
20.1729715679711
24.2211983610186
23.7592242659667
19.8338915022566
14.6306017351785
9.76880106628821
6.03304235245447
4.17174817581072
4.83817095595397
7.37806249654325
9.52130899716467
9.04428941256458
5.56342639892311
0.448684816571124
-4.69129218657438
-9.29778733409879
-14.0617633354966
-19.9807730304474
-26.9248963490766
-33.1854767001197
-36.7402962861427
-36.8480916554793
-34.244872261024
-30.1752503000092
-25.543069408807
-20.575788653872
-14.8230157710589
-7.71319089180247
0.328982539745999
7.24346404848247
10.3808991911186
8.88482302201158
5.17403811341433
3.48117047469958
6.29457090577108
12.2427557129157
17.7690894971335
20.6716157664375
21.5465385255439
22.047963925807
22.6204614983522
22.261720702299
20.0163591984167
16.2262593095622
12.2846140145175
9.38205425550584
7.73388164863443
6.95374421207838
6.66643377423605
6.49715461337603
5.93770443078607
4.68694407982825
2.94642159269724
1.17337299655898
-0.263120814033141
-1.18786136271809
-1.77843866277438
-2.69670033133807
-4.70379405638262
-7.96694151193005
-11.8197695568714
-15.2179873238794
-17.5045707051738
-18.8426387536677
-19.7104739132784
-19.8585368490484
-18.2733142160578
-14.5305213705959
-9.54401516763104
-4.36198714191325
1.12136472789887
7.32294241526129
13.2592268518075
16.8268326818691
16.9247080881023
14.4949562310908
11.2245063190255
7.82795810321842
3.97577346694233
-0.442092791016364
-4.52856324847197
-7.06406757200057
-7.75930569253431
-7.47983308747146
-7.23206741879579
-7.1821781587272
-6.65647104528764
-4.98489138101733
-2.53449880518686
-0.927461480291732
-1.73327128337188
-4.7809029865154
-8.27582217806395
-10.6323541352475
-11.4878778134326
-10.8883493762742
-8.51254261117499
-4.20294133557279
1.41984665902609
7.36514192620146
12.8741711583868
17.3084571348665
19.8701830108151
19.9075566993068
17.4734187528359
13.367968933993
8.60514561559672
3.97740295067967
0.159048736088887
-2.10385048249893
-2.32973811833086
-0.815578015881608
1.48727914945899
3.59550346139327
4.78898351083368
4.57821163002328
2.93740583746088
0.510475929797357
-1.87617710030139
-3.83509408220245
-5.25050804819604
-5.82244956839121
-5.21486938537776
-3.36722343413389
-0.338959036476277
3.74403652461871
8.23110640635051
11.8081255889217
13.2218406866384
12.0848973186308
8.91718979885347
4.54794432010521
-0.491973747537816
-6.0859822592338
-12.1636778239331
-18.4270768986716
-24.4683668362558
-29.7897248330638
-33.6183006876044
-35.2612415560907
-34.7934386307955
-32.6214164263058
-28.0985687990354
-19.6001074770124
-6.78218885134771
7.72144704085205
19.5558316951579
25.6527188534685
26.1262153057398
23.7789876753086
21.9818719679381
22.4780711263721
24.482625937897
25.6048014503117
23.8931683152945
19.4645974471241
14.3894457660101
10.8398051573342
9.20627630532059
8.13295585285544
6.28280445805349
3.59124484992839
0.766299497879514
-1.77638659663364
-4.16025270122356
-6.62605370945356
-9.07029834347938
-10.8204278509792
-10.9917056820254
-9.35882585415066
-6.73147599978029
-4.28395357398781
-2.74992960543204
-2.28471661118506
-2.53293184253788
-2.55181443640724
-1.20948351758417
1.77859084796123
5.25094166552852
7.35268035430689
7.11582793573565
5.33619846665832
3.68411659733897
2.83641214852516
1.81636626673327
-0.576557478432947
-4.10055300962779
-7.29105761924458
-9.15393844814788
-10.2874209531865
-12.3481031229309
-16.4505352771666
-21.8972160870406
-26.4353614654202
-27.9722072693006
-26.148017244497
-22.2812574403808
-18.0536532708076
-14.341205150815
-10.7841883955799
-6.06585029684104
0.915314152812694
9.5839947543075
17.6763481502093
23.0749692774566
25.3754109052132
25.4834523489697
24.259245472728
22.0122401036075
18.9782745214121
15.7456598279756
13.0415861119034
11.1743110003211
9.82636394872517
8.47169391474593
6.86127041472272
5.03139572590588
3.13650989954493
1.50129086489604
0.564801552319083
0.489688613104532
0.942993555379797
1.35477693163728
1.29459007947994
0.719018976449786
0.0474331835496129
-0.199733231768288
-0.0524256154291448
-0.170369519207053
-1.12167247320459
-2.81402782732097
-4.69484164826286
-6.22802031960647
-7.17854929834418
-7.74401440762849
-8.34948668122007
-9.01198612066162
-9.11807011701832
-8.24967047228957
-6.97711944128616
-6.30343505708576
-6.43769528742923
-6.4802835655052
-5.21008264569732
-2.08618647184608
2.18289279445997
5.91808222325893
7.62430862612175
7.04133536273596
5.0650049723191
2.88857525503722
1.3555217764665
0.756947616923207
0.864926830510196
1.1897584009545
1.28695604690936
0.857818649187285
-0.144361507179535
-1.2863454222958
-1.84693367455768
-1.56913418329751
-1.09184535961
-1.51214459697631
-3.61114858735428
-7.30195632099642
-11.4636768640607
-14.4450826704835
-15.109952086915
-13.4313884710248
-10.1444337392395
-6.25788193389774
-2.92559212428658
-0.984253681860642
-0.0047026485427065
1.78997075305945
5.95076624700251
12.0411110733223
17.6921712262058
20.4774602357165
19.7368835200855
16.6914796649563
12.9693017996468
9.27911441693505
5.61063375187473
2.21575791869325
-0.272777431960508
-1.54940128410399
-1.8514202920966
-1.49477854609909
-0.636784375060932
0.567489473775554
1.91298759581838
3.19045559541227
4.13192926323127
4.44777520601772
3.99950088218572
2.87853591799537
1.4389486970104
0.282715832669202
-0.176568899471456
-0.345143258380488
-1.29738039219736
-3.77427960709513
-7.50711909570995
-11.4673103169208
-14.5260411497904
-16.0739927363403
-16.3554048036485
-16.0618540698781
-15.4054594681082
-13.8577832192771
-10.9593556290116
-7.00709931434704
-2.71464496814585
1.39256315051812
4.9058575420809
7.25790083354122
8.07073267132425
7.71543131618883
7.14350504985494
7.08925646979261
7.58428726181811
8.22292695600751
8.64935494257231
8.59391921200691
7.64425918143525
5.51061560842179
2.69829575821739
0.498852644814014
-0.0060569130421096
1.20443760075986
3.21853185260199
4.87242849684058
5.4246751154207
5.0266436815381
4.54560177579473
4.63537838424067
5.06570375661028
5.07080762554518
4.00745672881829
1.60003094460217
-1.83325710800026
-5.12280622019686
-6.82490125302298
-6.51233829526855
-5.24928120002983
-4.57914088958223
-5.19556191719011
-6.62003688668922
-7.87700000219662
-8.17829344395337
-6.96234196767166
-3.80595631461478
0.958884288962113
5.52862318308754
7.44394547281156
5.7875605380926
2.19497181420372
-0.808640221793477
-2.16313865072375
-2.65961163307739
-3.51352140201407
-5.09629806420157
-6.79969305986994
-7.70370619055744
-7.37591219411113
-6.08360184547186
-4.2989121946239
-2.39127358958126
-0.970643642099335
-0.928840467575069
-2.58619213630084
-5.0252953529675
-6.59527641971067
-6.00309414563723
-3.08114507124008
1.02931698246019
4.52536573361349
6.3625530322882
7.19130572744804
8.60632538807452
11.4105331030414
14.6840324562011
16.4774401613127
15.4828432031098
12.2227783833222
8.54204120653662
5.84410188863496
4.03322930076804
2.21493088248558
-0.0190686824405064
-2.28805662294487
-4.10231441406971
-5.48284219293122
-6.86966082834976
-8.48569737909052
-9.87173552913603
-10.2405268083768
-9.28856518838612
-7.29587327328136
-4.40286065687061
-0.473415071535272
3.96677939659786
7.3080156041642
8.0050874220858
5.95351885687045
2.45779981016686
-0.922243964753652
-3.3228200528054
-4.64444475190277
-5.02062754719723
-4.48371016179002
-3.25648629179613
-2.02512375200244
-1.43891474014992
-1.42236961687414
-1.36351788572811
-0.884744479562869
-0.12600919232748
0.562088339802461
0.928569440370544
0.989349930965059
1.0662030750813
1.51663103798469
2.36421272526379
3.29081048784215
3.90454749882482
3.95608097070038
3.51367520043224
2.97228316904908
2.60717001969541
2.15255540577775
1.24156320090632
0.24159954155007
0.0946197259502492
1.17680056303764
2.79077135740303
3.97079336936635
4.38844805574526
4.27426966674941
3.77106258574452
2.6427033244842
0.631918931910128
-1.97091543738631
-4.30793558634559
-5.66098931870005
-6.02291896538671
-5.85377202593227
-5.57112567265633
-5.42256626800198
-5.46173077165472
-5.42921549746692
-4.96544291229036
-4.07264840975709
-3.14299591922545
-2.57879797199589
-2.60532454866352
-3.25970857056954
-4.26948879612457
-5.09830531738303
-5.32205606659631
-4.87244424684744
-3.94812484806761
-2.87594228097382
-1.89740342039239
-0.831780565672565
0.849407119074196
3.35304243001911
6.13498741473062
8.2904309395905
9.23130463972173
9.0102947176825
8.23761228435088
7.63411519638553
7.38399802781385
6.97515416990905
5.89715006544758
4.32126211601298
2.81960475100797
1.64641372873381
0.613415420584114
-0.532151267987745
-1.85425844144983
-3.15801210652865
-4.05319062173606
-4.26573114704951
-3.84473606761132
-2.92280640638841
-1.55621916592541
-0.0293677360938934
1.0838499316892
1.49308945718806
1.50411729894363
1.5232998278803
1.57908942866118
1.53862217064707
1.52748597031535
