-0.391211964135474
-0.459529518350462
-0.511885399858703
-0.464380085627871
-0.387649289397702
-0.362632498814923
-0.34508592214113
-0.294749791695399
-0.268565024708907
-0.294023299746844
-0.31233094245647
-0.294233895310497
-0.261843860634846
-0.196286242436758
-0.0703569404026542
0.0632184130330837
0.141869416675434
0.16940963606304
0.139740395096362
0.041769640635209
-0.0111427511749073
0.121204535979975
0.360277090845439
0.49834821589638
0.489796685553757
0.420563282544182
0.306223217733261
0.150734771281522
0.0530197445808637
0.0644570218768934
0.100461643093103
0.0987885043534975
0.0878885630787744
0.0762369496905663
0.0597061798136925
0.0927028629071518
0.188598992440226
0.258964098504746
0.266366218723196
0.270509543436115
0.272154195301282
0.221450367881521
0.166868571272278
0.171412525273942
0.154184705850548
0.0251368487707533
-0.139064217398845
-0.226281962058154
-0.253126838169907
-0.269524026773483
-0.251839122020449
-0.181282021040812
-0.0835889673425276
0.0520569282684955
0.245226074222392
0.417043570364798
0.470754732610621
0.450325442677296
0.472523144332429
0.560370316473228
0.649096377367075
0.662025372811545
0.529127982137875
0.248325481734613
-0.0743176991922849
-0.34278922484345
-0.548322758093498
-0.668085257230371
-0.659819021586124
-0.604684415024586
-0.637213850928123
-0.712539110922389
-0.672462011947623
-0.521923443134212
-0.419406012341384
-0.448461747775791
-0.566104772761582
-0.664317587107608
-0.585089395782402
-0.267891234816581
0.0642253120741846
0.102698944177935
-0.149763125223485
-0.408037181900179
-0.474810068687947
-0.36530365477674
-0.160562722971111
0.0660589182620861
0.255493960100266
0.405302013690742
0.524946181408539
0.548764435998372
0.431195742789417
0.28619759087478
0.259830829815349
0.324573349766944
0.366797153244703
0.372472711449186
0.362047172491258
0.287914274556446
0.145337572156322
0.0244456281398639
-0.0344406919009243
-0.0635953858480412
-0.0459436963697795
0.0393530016584319
0.114830066922625
0.125952643604097
0.150383753532419
0.251532878164399
0.37274216288087
0.450290874003194
0.461600954434508
0.363922538795845
0.170838032553671
0.0204211531707039
-0.0139583907339367
-0.0529658187781272
-0.194955225751015
-0.346504844278556
-0.395978642895714
-0.369779588587194
-0.339702487827631
-0.338103177565894
-0.368803864095787
-0.379097702432504
-0.296256377353615
-0.173928807753555
-0.156360211242138
-0.238069147079895
-0.243721528805532
-0.0934970199672675
0.0996368593092267
0.218523799297073
0.246809231259528
0.202508145406083
0.137602906737454
0.143295404522651
0.213746152344871
0.226419928870245
0.158504085999281
0.132408308422287
0.185444722949033
0.225669766678301
0.227554039719984
0.232337081389234
0.201231308895608
0.0923352135540534
-0.0092311746146439
-0.0166958322838748
0.0291706642470262
0.0651699796188034
0.0847416959984337
0.0706481175177935
0.0114857358498609
-0.0386557932929577
-0.0619240933412148
-0.145115718595235
-0.326811285669506
-0.512788812145004
-0.614182363918282
-0.613351825720818
-0.498469808063667
-0.30811533445596
-0.177599674767973
-0.177717261174004
-0.208120991652206
-0.163561602010781
-0.0642361323884514
0.0441045710535292
0.150840142254227
0.215203519525137
0.218822571248886
0.269150170626764
0.459626201038037
0.671881734220995
0.713452803612859
0.58298640342859
0.424175549787416
0.322726792530608
0.28551838578398
0.280599252922277
0.214521884914551
0.0233535013254889
-0.201819596505296
-0.32283359689024
-0.319940599363851
-0.23881869970231
-0.119298705831789
-0.0527084332452278
-0.113241558810576
-0.20373888056189
-0.185101565274403
-0.118607794246272
-0.151645115775516
-0.262205001433806
-0.339769660922431
-0.381650896532035
-0.424186168122069
-0.444493791018989
-0.448736127390877
-0.473801356991551
-0.465438251280084
-0.350599520848448
-0.195083036482136
-0.104070661435297
-0.0594532248275705
-0.0121055119469847
0.0044397505071549
-0.0133096586549184
0.0317670811010497
0.183470257316927
0.349913350462365
0.446769977008559
0.495403137745351
0.555077831024918
0.665548136698919
0.81661837271838
0.892614340386294
0.7670875891434
0.512786745631075
0.338928413192582
0.304568712519984
0.309826454679893
0.318654977106337
0.345344812476287
0.321737742854349
0.209798356626811
0.106259787457657
0.0606584567042856
-0.0230710641550544
-0.188077670837894
-0.346341227507705
-0.461779621581323
-0.598734962408462
-0.777679243306691
-0.949222392367498
-1.05524552604581
-1.0211018142813
-0.828551548927191
-0.63144640185099
-0.596605490445211
-0.648712494642362
-0.595852130282786
-0.430353094176362
-0.280983280876758
-0.178649859245856
-0.0693644436838573
0.0567607057011946
0.195817734504245
0.372313638353759
0.559067086852751
0.665680399787143
0.6475887736559
0.528427341332864
0.344227303237297
0.177175731002513
0.153875478805208
0.281655406979364
0.409606646314645
0.445586901581702
0.438711523225516
0.403658982505752
0.28933011093648
0.135988467583593
0.0425416656970924
0.0074536086816684
-0.0235895413847334
-0.0453743245461232
-0.0536076527660825
-0.0818950730973876
-0.118936771072766
-0.146135748522288
-0.23158688204437
-0.401870684716976
-0.514441178147868
-0.456959159151813
-0.339495266325358
-0.309328024735297
-0.336289102058577
-0.317880504756876
-0.227656672091255
-0.0815201270067976
0.0951179862118218
0.260145955124863
0.414291653933889
0.591418197008544
0.741207385302988
0.774187912250427
0.739416994490738
0.760710917349979
0.805831522035851
0.739111279373624
0.578483435015659
0.475397294350289
0.474888709966102
0.497251969454444
0.489016345068903
0.422670220001001
0.263645828722618
0.0717563189256088
-0.0183206866997822
0.0013528571478998
0.0014580496630411
-0.0838797031486944
-0.218292220717848
-0.360726760345495
-0.444115443481564
-0.379505850086141
-0.205407200836817
-0.0788784790885231
-0.0624083879881457
-0.103435520237803
-0.202398708151326
-0.381577052455736
-0.555377938052208
-0.640276878001176
-0.680025933655424
-0.704203770497535
-0.643819309399077
-0.503393637080954
-0.39564926025837
-0.33690675105333
-0.234483007117951
-0.0890998874307848
0.0016415000702144
0.0124514794904435
-0.0049480021178197
-0.0284546593509526
-0.0653014735800448
-0.11873280541532
-0.205505995057745
-0.319679378195824
-0.387578731295775
-0.367826926944821
-0.342564923716081
-0.388677493689113
-0.461818997220678
-0.530041367974797
-0.663133177770389
-0.872629118487028
-1.05354385013249
-1.15693294134411
-1.21023832170914
-1.17048155154057
-0.990915535552866
-0.77328976796593
-0.638655343277142
-0.563301876454429
-0.511279028401812
-0.550242169599204
-0.694237940517661
-0.812192996857891
-0.767806018847088
-0.496953721258977
0.0047871150845739
0.585417157333943
0.935827464926608
0.879975115272153
0.566471138181408
0.275002024274596
0.179249494821267
0.316567522164688
0.595642449835986
0.842242803561699
0.992519340856463
1.167690398241
1.44438128956306
1.69376365248453
1.75570814797125
1.62377287369088
1.38993485115133
1.16990482833611
1.12169465327125
1.35411579757751
1.7759775984508
2.18687609261399
2.50597422918598
2.77259619959442
2.98996455884862
3.1062706308611
3.06798120614336
2.81618437904627
2.34381106432026
1.77146448475593
1.24827184525028
0.827431603095315
0.525881189060885
0.364521901808949
0.272323933644297
0.140196989936827
0.0165580646195141
0.0465515615951988
0.229492437235003
0.442587251016916
0.633024647925558
0.799754270066594
0.914792230702942
1.00195224381434
1.09872550513514
1.05239423041103
0.599142578918402
-0.305339287131173
-1.46062977643185
-2.6789170525134
-3.83852885762802
-4.79850103768313
-5.50075937200064
-6.05356466824343
-6.5475523692088
-6.91728475460453
-7.09506358766442
-7.15105994197057
-7.1998659595817
-7.30352077287579
-7.47736562385759
-7.62585686914861
-7.49282199065256
-6.84662979993986
-5.68476225261066
-4.15353067211727
-2.37434875180608
-0.430630501692398
1.59177846658296
3.55959688059322
5.1809420884412
6.06608086249508
6.07973660157669
5.51242930534731
4.7921378231146
4.20119343618508
3.8990129571987
3.92437498721948
4.09607727437587
4.14328782316837
3.9582896329294
3.58707709936566
3.11020067822718
2.68616694134787
2.51051339748143
2.59168473692434
2.76045322816725
2.93035215763676
3.11342453583808
3.22516176078994
3.13912345882626
2.87998381409817
2.56344245313819
2.24126641305522
1.9363139930953
1.68856473650523
1.47270211265922
1.21611518686975
0.937576726855146
0.713369354469374
0.517788071416166
0.263117241117501
-0.0501456179055799
-0.370479368761362
-0.684859327394543
-0.961814111531659
-1.15954058168045
-1.35518182767889
-1.67068373199311
-2.05120477241235
-2.31254466175272
-2.36905036537377
-2.25141189799694
-2.0090416334492
-1.72889924334357
-1.51218279606183
-1.36683321468597
-1.27302910452255
-1.30614004678935
-1.48820961565072
-1.62947481069904
-1.55551517119976
-1.36498590980736
-1.26547030211883
-1.30738915304772
-1.40742395627111
-1.45491457207514
-1.34019639466037
-1.05776841184362
-0.765740512483437
-0.605951171657657
-0.566534293808004
-0.603396199251835
-0.697141632038005
-0.721942627881723
-0.509596408528847
-0.120573129553833
0.181865272333478
0.274056023756157
0.277037228206771
0.323957922802942
0.428778011051404
0.545786120502446
0.585544988941876
0.465050411861433
0.264350484403353
0.174233636817563
0.224411641953961
0.276462766920438
0.284570401985382
0.311290122338394
0.333660368439396
0.283553281430972
0.200976647308138
0.151972335579768
0.113896933750926
0.0672929974937476
0.0464966750771946
0.0437488153386379
0.0301546222696581
0.0487688058785096
0.124184353012561
0.182615700374156
0.206972064104714
0.298500669504223
0.46630735751783
0.5680339663424
0.533667224505911
0.435676208171165
0.336965395695456
0.277334049802036
0.349092666290258
0.585133836075058
0.841868227574878
0.937657831684456
0.832423666528683
0.607733496571214
0.386540113755132
0.296963854633966
0.371432053189616
0.476628700981027
0.47422958669008
0.394641966134483
0.321569302015307
0.234229233419223
0.108065180663878
0.0054312367861261
-0.0584721569653424
-0.163306836318494
-0.33056488491864
-0.492381082262347
-0.602321606843328
-0.630226284236101
-0.539366054285053
-0.388451535315562
-0.305493373190416
-0.286860996136504
-0.214568585378508
-0.0928031886677608
-0.0494307739549507
-0.120640785609855
-0.227881239068967
-0.29701757755029
-0.259560488292088
-0.0825127726540556
0.102980214318855
0.0960931536391308
-0.0985877618821937
-0.289089199636158
-0.367706853736553
-0.365389906074543
-0.311491647839531
-0.227079937433574
-0.169849301706154
-0.151607852434143
-0.105980681828087
-0.0024044873707826
0.123510266210207
0.263619146221514
0.421992482112428
0.531645821959823
0.535097617700491
0.486444235517789
0.43913012325122
0.354137915096821
0.235537456268415
0.173520960903814
0.160782096733433
0.0840303364752835
-0.0582215899975915
-0.158451993133645
-0.201275904483893
-0.242189088238299
-0.262384822780081
-0.233297836052975
-0.207037849607891
-0.20820991374279
-0.183084618653498
-0.123562981195622
-0.0790923606683046
-0.0451927976647452
0.0016946167184077
0.0183513668972607
-0.0283402283317964
-0.108659153131932
-0.221285003510887
-0.376172272897481
-0.479560789122872
-0.427668804257767
-0.277361998941907
-0.151801760968645
-0.0711302947827171
-0.0180462340126672
-0.0286832831935262
-0.0953752399621341
-0.124348600914523
-0.0749223429121345
-0.0062214099142442
0.0441631710802086
0.0844834274403761
0.0897912986658922
0.0640571072139544
0.13194420172403
0.38698315915449
0.705162369084363
0.85701052421837
0.729445558582396
0.370479567842629
-0.0479418733210877
-0.296053393059878
-0.280422708548268
-0.144034184856598
-0.0456554606380838
0.0322576220443172
0.135268540472152
0.19695644025246
0.170593623080657
0.100927189030852
-0.0001061645164662
-0.149660230588322
-0.279663480588472
-0.328794799510748
-0.367893092226814
-0.446227100827475
-0.453283558174756
-0.299982292068733
-0.074666753727026
0.0945444807151019
0.16955518520624
0.15581232941018
0.082852159807335
0.0152534722812035
-0.0310546752590228
-0.108381222847823
-0.203839702176344
-0.217488167926564
-0.125902311861626
-0.0157300025604412
0.0777540701602574
0.205699499592766
0.374276774598782
0.536151705420846
0.674406479179636
0.747609361583042
0.658967830406936
0.428416568881473
0.241331932710406
0.203354888453967
0.221115170631884
0.181616970936641
0.0607644637783976
-0.124796042314935
-0.287874621465678
-0.285940003940052
-0.126138340900461
-0.0077716893644592
-0.0523640208506101
-0.180150980027896
-0.294045488780117
-0.360440531379267
-0.325220717695044
-0.188219726944197
-0.106841919741116
-0.223336541927626
-0.478409222052893
-0.718920237294661
-0.847686934949608
-0.818124505067159
-0.660694481924701
-0.512848297376083
-0.465833409496688
-0.450812916838812
-0.387901846096024
-0.301058649330925
-0.198325699368886
-0.0298804811275218
0.16463612698462
0.269521138212354
0.29630321229919
0.369535123226793
0.503818212883656
0.606278118484906
0.671361329398532
0.761039307135201
0.849999724038707
0.870902961362275
0.818913554438669
0.695020168745367
0.492285989249738
0.297088299343921
0.229672405976705
0.276307584193962
0.333336117806016
0.354218140787104
0.333478454476026
0.272551469621812
0.240061882285835
0.299597571736095
0.358941288873678
0.284239327113574
0.122936146622079
0.0140774540842343
-0.0287236070288664
-0.0702687820844958
-0.135142935149332
-0.259260237013964
-0.470544235472709
-0.662124784293615
-0.705970662210787
-0.682986603756605
-0.767383879882123
-0.940201454688415
-1.03629080209053
-0.995329583935206
-0.887121900503005
-0.773564945501519
-0.672073443380513
-0.574407310158504
-0.437780265623109
-0.241252559008061
-0.0467692648075238
0.0995620815882427
0.262777299135721
0.488881944341418
0.682622640701952
0.735724102262519
0.649821275853091
0.468646121434087
0.254619021015028
0.129012108069474
0.140260708310622
0.156998747560524
0.0773415076935206
0.0070562259539562
0.0632617232182691
0.191902235080886
0.311494026313665
0.420767755038895
0.488714782847668
0.462068813630744
0.390757270971743
0.343562233743989
0.277823836325611
0.169374920588593
0.110014801397538
0.121997301252903
0.0776279148376154
-0.0891638848900015
-0.291143393810688
-0.436088096034456
-0.488153340541991
-0.437245331617064
-0.357803742492519
-0.379942675276085
-0.489236082674218
-0.513441568159795
-0.380752277979345
-0.2032053377984
-0.0585193833127581
0.102917567272075
0.297183496773974
0.446864662901622
0.494774472179671
0.434179574271732
0.28885925769757
0.16887002794832
0.197409415240657
0.30269890115762
0.279795080431192
0.0853892231355397
-0.151017286156248
-0.362767644170648
-0.552607383945362
-0.65795495004624
-0.631582823027671
-0.543552033836132
-0.456964168123646
-0.352324116348297
-0.240995460177522
-0.170444283580155
-0.115851926928735
-0.0478043190134008
-0.0373748064330225
-0.131469547747272
-0.250206285251774
-0.323708295870389
-0.363820455873516
-0.357423457150423
-0.290919109881946
-0.260893242648237
-0.353330470595385
-0.478404369918286
-0.497645755696902
-0.404519299165489
-0.247746097585839
-0.0227621404561942
0.250850521963062
0.489434606227225
0.656766155642331
0.784487076360524
0.87225600978653
0.910718433907305
0.953118963786772
1.01342136387172
1.01226243444657
0.974379366254425
1.08875388507416
1.41377589472342
1.72787662277146
1.79264428792339
1.58132656185373
1.22409448719719
0.90476972930482
0.752434933885981
0.681304318496305
0.459088338169768
0.0342366298542846
-0.387278738684624
-0.643807452280164
-0.784009687725551
-0.922569600083551
-1.12436939005994
-1.37967043990108
-1.54981312553161
-1.47163036908778
-1.20884505697277
-0.998160852415463
-0.908635105330571
-0.794147029527952
-0.562739346459272
-0.246350426156387
0.130311494758002
0.531605488008878
0.85685686938521
1.05878140869806
1.18856025119752
1.23415325805971
1.08433418100114
0.717253682307211
0.250152338835724
-0.222780260737839
-0.669611018746505
-1.03191499486199
-1.28168988017019
-1.49635813368975
-1.71893678996685
-1.86566015422908
-1.88868816994529
-1.86050812098813
-1.82800717963378
-1.77153528055191
-1.71812778299411
-1.71186186013998
-1.7143795479
-1.67311375461578
-1.58631113922104
-1.42529071966537
-1.16016605775549
-0.88882218498325
-0.730476685646073
-0.601189120701213
-0.304253165094552
0.20408304148044
0.801675737718166
1.34330247799172
1.71061965265014
1.88923644460476
2.05197172160732
2.3759792315665
2.7882275010226
3.08031231454805
3.19460794755131
3.2091033889497
3.14900451432234
2.98136452125334
2.70099999462259
2.32561854483503
1.91150515828579
1.59497818165387
1.46172540712758
1.3766117663859
1.12245810680839
0.688464296812788
0.252668812329338
-0.0594370668960926
-0.25400406095042
-0.418105068902076
-0.689223832560197
-1.11935603474386
-1.53543333576418
-1.73472526557245
-1.79718613962014
-1.98190493262473
-2.36826639937059
-2.79553474820613
-3.06680469025664
-3.06275389972385
-2.7717940332103
-2.30593049886923
-1.78190473046152
-1.19446360540934
-0.52710773122735
0.11792464667106
0.650836378927674
1.10259441015039
1.46229727773974
1.58826068936895
1.3956031369563
0.970255167269725
0.463433816895732
0.0253739352927032
-0.206584936124111
-0.212629183900382
-0.110319324228342
0.0278473327415042
0.245704437936737
0.529177902631666
0.746532893086679
0.837752437285276
0.888739495483851
0.973216643609162
1.08665637679657
1.21593583340543
1.28881891936735
1.12904067461495
0.662374914438267
0.0735555464056949
-0.392829070694223
-0.656205522481737
-0.74911372186975
-0.731189007164422
-0.698385442441115
-0.70700437891062
-0.703115562761539
-0.649223494966985
-0.616653926740813
-0.650298597795308
-0.687114789747829
-0.670392762514129
-0.595251366321387
-0.46015833883745
-0.336992305799432
-0.39549378217181
-0.682525673498833
-1.00645096041364
-1.17800220980424
-1.20182983049715
-1.15667433297992
-1.08838962254933
-1.04890271671376
-1.04964646155221
-1.00871645632618
-0.899843956896606
-0.847191925891046
-0.926684063041272
-1.00527137047968
-0.89667875359361
-0.546820836332632
-0.0108969240862528
0.580134625384876
1.00002879617193
1.07846171111105
0.911215547119651
0.762738700657863
0.779947920447904
0.92253568681138
1.0793335376065
1.15288139621751
1.15918669576606
1.28347357071671
1.67888207261489
2.238246273792
2.73109294583479
3.06838666477439
3.2708331802006
3.32966110213416
3.25224389971803
3.09162567479402
2.85238279644574
2.53709105861218
2.27138324751347
2.16999735158539
2.13574985449082
1.99283689452278
1.72059288687864
1.40060470278323
1.07221711128685
0.728937810158731
0.291875872189619
-0.417120251067131
-1.47702770066332
-2.68052372282553
-3.71951384038849
-4.46918509038635
-4.95397180515498
-5.19226627830277
-5.23129065761398
-5.18752029981662
-5.12089268639147
-4.99601742615628
-4.82236921732664
-4.66631804080495
-4.5086696317415
-4.27085572440211
-3.95266398439861
-3.57468771174698
-3.07017979196677
-2.37817646395105
-1.52093545814188
-0.508427439221113
0.667535549406225
1.91408646013393
3.07578370939489
4.05272099022657
4.74224135852015
4.9886698580214
4.73803999670858
4.12228950354687
3.33102126569425
2.55492550971729
2.02227909171663
1.86462871125926
1.97447496115552
2.15799011967414
2.32108567283465
2.40017766594791
2.32462880973008
2.16223781262743
2.09029947767961
2.16906224107165
2.33479183904446
2.5701200247725
2.86651292380506
3.08556744873988
3.03444489251244
2.6073508992522
1.78024731985125
0.62958877984998
-0.579688268265062
-1.52492990971277
-2.11796556428717
-2.51848971056307
-2.88993796951906
-3.32424157700153
-3.89814769922378
-4.57175765455608
-5.14681861238774
-5.51917839907844
-5.83104137570117
-6.24038348954504
-6.69611991476248
-7.00060908694771
-6.94664631109765
-6.41942017077128
-5.4977782984424
-4.37401145973868
-3.10394455433533
-1.59574080822642
0.128995555556812
1.86692084143752
3.40364357815829
4.54981842336278
5.11536789055278
5.09289178208501
4.76893684103357
4.47865440585925
4.37025497691179
4.46648829150853
4.7347254647527
5.04372611978622
5.25265198593624
5.35548838726815
5.41691371395799
5.46673453674356
5.55992823531502
5.76207613298233
5.96082073028641
5.88085741962938
5.38282371347166
4.57310126382529
3.59582518147895
2.53815824907862
1.5263535248732
0.649173259164382
-0.212329481620472
-1.26403689574048
-2.54992832726806
-3.95718479967653
-5.34384411175001
-6.56901052918654
-7.54730891444527
-8.29981186579626
-8.81206105185825
-8.92378336115074
-8.517237495318
-7.67594739278905
-6.51990983214431
-5.07498557830427
-3.43097206811729
-1.83767128812802
-0.54629114715781
0.327797826479038
0.82157048762021
1.12529646239104
1.45291772719049
1.8147834477362
2.08050622312945
2.28225998176704
2.59366482072489
2.98837326783051
3.18112504889587
2.91625835648541
2.12667598710895
0.887298301397449
-0.595447735951693
-2.02664084949906
-3.20380989819376
-4.09544251572604
-4.70384315661183
-4.99141713501258
-4.9671889202959
-4.68756978593536
-4.17164698131987
-3.44554111950938
-2.57591901818994
-1.51594803286213
-0.0770194794339832
1.8073675696401
3.96359437699982
6.1637726653229
8.17363923095582
9.62647893925073
10.1781225194159
9.8354670227944
8.93011136945483
7.80644449857417
6.6442513425248
5.42048818884029
3.93607156539525
2.06407181855824
0.0265102819745443
-1.7458530869076
-2.98419056085539
-3.64182899686639
-3.74030244905469
-3.3908393475736
-2.8520218736234
-2.39659230539615
-2.18528706693594
-2.24677332528273
-2.42274879880416
-2.42430261297035
-2.13516373254496
-1.74538412459183
-1.4436912140024
-1.18098398888389
-0.900582978205543
-0.76773950380016
-0.969200266661292
-1.45587203548605
-2.0102520485505
-2.3928626995822
-2.36968680759484
-1.8126047076758
-0.828667965496455
0.331836308373906
1.4220977645778
2.16999357798783
2.32173808883361
1.87911689979353
1.15047507296367
0.502481458373378
0.166389049458685
0.191820477132875
0.412890779656561
0.563315815248428
0.548856907514572
0.472470947372933
0.372788087186237
0.174937062422569
-0.0920221844966783
-0.274883516994779
-0.279867680970785
-0.110786841618981
0.149747244497669
0.271339378253115
0.0179021150029136
-0.520660703589322
-0.980364670860719
-1.15489726287845
-1.1258008047091
-0.999378590426233
-0.796931451182362
-0.568516675797899
-0.381161078090974
-0.233370129107872
-0.113414235423774
-0.0378925790129085
0.0478253080485503
0.243858730042172
0.511564476835103
0.706449296580282
0.823249305642912
1.00343310470377
1.30831037539545
1.67807649507956
2.05465207654013
2.36974661031287
2.4953543925777
2.32700486245508
1.8450218189807
1.10307166151325
0.268811684678592
-0.420083502960174
-0.881064165733291
-1.25102974152313
-1.6505318090079
-2.06366922427699
-2.47393642252356
-2.88506558310426
-3.21213512727327
-3.3790395514474
-3.46533386333789
-3.56330180087747
-3.61785961298519
-3.5497477986299
-3.33054483419406
-2.84462809651233
-1.94909551736243
-0.737906163331343
0.508811440510119
1.62690126849776
2.57646242307981
3.24161618313552
3.50152256161169
3.44454877442314
3.29833947948479
3.19522970349494
3.12528669333477
3.01752324200492
2.77506363643515
2.34032486948429
1.76707196275767
1.12893561551999
0.415576909669284
-0.348515920288772
-0.995067807179219
-1.34695747868167
-1.32560397548326
-0.885428056213627
-0.065932717980879
0.868404850726279
1.57406745938729
1.91929679419617
1.97415646070862
1.81383181322155
1.48214324262576
1.01991394941585
0.432975210060631
-0.230797025493704
-0.785275818297928
-1.08053637450736
-1.20558179621359
-1.31705790592379
-1.3943245453414
-1.35179861081746
-1.21753591067882
-1.03865024173855
-0.794925445427825
-0.507403272966129
-0.258661761841396
-0.0774929640367476
0.0492926572153588
0.0964306358467715
0.0603889961449888
0.0160208417118722
0.0145946861984924
0.0258706380479431
0.0336982777434148
0.0539576208156524
0.0271964647633097
-0.150372052680419
-0.472851007359771
-0.837916730172927
-1.16695923812372
-1.3853027260905
-1.40359346551353
-1.25272651663356
-1.09747490889665
-1.03414497103089
-1.02726075555901
-1.04138131104932
-1.05568768730583
-1.01507508313887
-0.937845306490196
-0.947235599579378
-1.05811741039637
-1.11064890642512
-1.01734944825355
-0.870214421043171
-0.751487785814496
-0.656143730599252
-0.59945064093449
-0.582881216556578
-0.487352187605859
-0.177019546860022
0.346982478894209
0.974783572765081
1.55115899775828
1.90705706902909
1.9919732813801
1.93415106616928
1.81900504993038
1.52895254592406
0.976674918742412
0.353403674751483
-0.0343122340384692
-0.0553008524008687
0.239188547556544
0.74718137990979
1.34269542488942
1.90689807745803
2.40416374566919
2.82543733975804
3.0861487399082
3.10464249770279
2.90414555747363
2.54026034719443
2.05123578566362
1.5191644335466
1.0141366589738
0.499854519073192
-0.0294070650571531
-0.421231614403793
-0.558821149296406
-0.5304184491781
-0.457943098730681
-0.363023182718676
-0.302380614927002
-0.371635475907842
-0.496454903495236
-0.487953894875003
-0.339253158254962
-0.223689297362463
-0.238178533972908
-0.379573997147625
-0.689013709822274
-1.21099109269071
-1.88768952242422
-2.61236483154213
-3.30126779942334
-3.88484458563952
-4.32119088502461
-4.59254003277231
-4.64062695729372
-4.41595888770397
-4.02030924330804
-3.61616329779974
-3.14495761277174
-2.33748709204485
-1.06064147233578
0.521341765300491
2.11575527749128
3.42932259156485
4.20468035046758
4.38243299878442
4.18441439366759
3.89440612267306
3.68765397133072
3.73159293748596
4.17348885942038
4.90273314427044
5.53863183190022
5.71048064866613
5.21050536214847
3.97905242597038
2.16283273029231
0.117461279901246
-1.79969178813155
-3.38993476087483
-4.58680042152605
-5.44066243955031
-6.09549245592698
-6.61831581749419
-6.93756970857758
-7.05481281480047
-7.11380948773305
-7.14172810519317
-6.94946920024192
-6.36998998638423
-5.37262295734792
-3.93767922361255
-2.08286667316357
-0.0426926698712777
1.78283968783395
3.09830146595164
3.8584140244705
4.20743516032854
4.33991272192212
4.33912886479265
4.12637758756007
3.67115358819156
3.20650010290091
3.05949682103797
3.30396620000553
3.73163637649179
4.0820838205834
4.18532664913592
4.02786832634215
3.788128374521
3.68340117614668
3.77268482486284
4.01657114110527
4.38432665593613
4.7266086504762
4.74467952931669
4.29190045981131
3.53130048716743
2.68110138587745
1.8220620907997
1.01038623503256
0.338786752349247
-0.144830058138978
-0.415869494434704
-0.466260257785332
-0.458811064519781
-0.689644771046014
-1.25729807620889
-1.99245263642169
-2.79556400764775
-3.78096472770799
-5.0181736329846
-6.34728189422384
-7.4760228362425
-8.12455173175701
-8.15707253193873
-7.72655238190424
-7.20639751545948
-6.85100029095314
-6.59684913398661
-6.25619435433021
-5.77931464419543
-5.26572212346607
-4.82736216232065
-4.46902423560815
-4.05041527146934
-3.43521012294915
-2.70005373060094
-2.03599934977169
-1.4483851017382
-0.783766323182264
-0.0258295197147986
0.696811221318599
1.35787609502183
2.06446218589442
2.91982219475905
4.0023837486943
5.31034703685119
6.60164861453443
7.49987640319678
7.86376314724847
7.87895985628484
7.79318324666168
7.74786237226034
7.7724710492066
7.73991164758159
7.45898243320694
6.96855866437862
6.57450109321146
6.51107641973026
6.76267443607974
7.22448211532986
7.78621900839918
8.23992808629994
8.31888521219805
7.85818353753361
6.82680978626614
5.27667018873416
3.35163345628049
1.25241557081236
-0.879044087283525
-2.96679892645476
-4.92491463430884
-6.7097194788098
-8.3765008123154
-9.93926708888836
-11.2917135625743
-12.3805005262888
-13.2753526226481
-13.9963566462479
-14.4972038424339
-14.8190763912589
-14.9747995713265
-14.6959036577108
-13.5733485219676
-11.4479699842147
-8.51446605777345
-5.14740650607211
-1.73068247501773
1.48014478821671
4.35650153616441
6.62725812469122
7.76464908102941
7.44554430141061
6.04981679136485
4.45409419559688
3.39978667229337
3.15420643345639
3.55102673607855
4.17053987378756
4.60305127476997
4.65466790379163
4.3161175937215
3.662687522777
2.88025972842702
2.23701772883028
1.88927660890787
1.79897557418662
1.88437700302978
2.1133470724595
2.43596010124578
2.81059138788747
3.30502219352814
3.98518093684594
4.7306150425981
5.32641275683226
5.64475087129203
5.59148975698523
5.03986869748343
3.97458745780348
2.57157895554626
1.06981166691084
-0.334753007826078
-1.54809423402139
-2.66918099290017
-3.8780543589972
-5.11974885849045
-6.10314724713222
-6.67451656158243
-6.91952749942821
-6.87232610971793
-6.44476827649959
-5.66087479145223
-4.67739520440706
-3.61385833623346
-2.6009524040714
-1.88322027001492
-1.65597642510776
-1.90191162253029
-2.48103918651873
-3.21969544926793
-3.87428188478696
-4.18520921627952
-4.00096711916886
-3.28286482437863
-2.08623221750052
-0.614200309858074
0.855326659921255
2.18262440369839
3.38287787903517
4.42789897319496
5.21829328529233
5.72978162062461
5.97449309814485
5.88988209785815
5.50459304804564
5.0995044930281
4.9567643061939
5.06103983636291
5.20796798854006
5.2385127721008
5.07143962143298
4.70841363982442
4.25807347014189
3.7863534398963
3.18024447160188
2.29965996227979
1.15737753769973
-0.139937645434093
-1.44761174002149
-2.51916661572435
-3.09841660036802
-3.12583129165847
-2.72091197736804
-2.03649543831296
-1.25478066018032
-0.566712178921155
-0.0326538742914105
0.384653772510141
0.641045826451073
0.673661653767931
0.583212968604569
0.50601676957055
0.374780011358006
0.0375882612780395
-0.453627121050275
-0.859578417288965
-0.998472604713877
-0.866502686904183
-0.617753821737253
-0.504769899357142
-0.709229507103633
-1.16126853610198
-1.63121967767291
-1.99733679704257
-2.31407046716243
-2.67971597763292
-3.14030439636505
-3.64663928217067
-4.0961297599555
-4.54207147671567
-5.2417952824355
-6.25451244655365
-7.13883407095772
-7.33077084499173
-6.67852038165205
-5.39944907304039
-3.76344300775113
-2.05690248281457
-0.603878751735497
0.426417682990515
1.10558588220664
1.58305642532275
1.99060720273596
2.44365824277001
2.93853703393593
3.32226859556301
3.47126195573778
3.35083288531003
2.87734531138213
1.96950973460147
0.756690562711618
-0.494245506609474
-1.63843092758309
-2.66009024343796
-3.5256871369291
-4.21558522693729
-4.77872869679492
-5.18417358543569
-5.23262508881593
-4.74446244396522
-3.73919860468788
-2.39553253757037
-0.972528670120702
0.248886094396297
1.1027804931046
1.58632948662691
1.7278988347436
1.59640441854404
1.48452904449
1.80018637033757
2.70814640093412
4.13813167642273
6.11590892320772
8.7321622379222
11.7571409921025
14.5954001720527
16.7042194290768
17.9267438634521
18.4391212733983
18.4528350602061
17.9328789989898
16.6340076522789
14.4695472894378
11.6804978526224
8.5109306353012
4.9532950687742
1.02271972925883
-2.90883863905125
-6.2377788894478
-8.49524740568451
-9.57838138675077
-9.76905354673036
-9.52329076349799
-9.15795040485478
-8.78382609846709
-8.50083832911854
-8.44343420388231
-8.62302917147656
-8.97061725558619
-9.55992804971204
-10.5436530865688
-11.857405263175
-13.1988388988528
-14.2172845717319
-14.4944916783591
-13.5438718005046
-11.2098482907341
-7.98537288202
-4.65106516501157
-1.66025864209971
0.957055835481658
3.16661156338385
4.54785234005839
4.44241001301206
2.64594791544096
-0.0864527886765406
-2.53252259994117
-4.0358773209387
-4.75657377476564
-4.98162417922279
-4.66439158551819
-3.69141463542171
-2.19355329200248
-0.477929898437443
1.17836544550384
2.71121655373203
4.29983398504252
6.02750074224707
7.53361620267818
8.30683441342984
8.30071279678049
7.95742176341774
7.69187959446538
7.64335064596352
7.82348194717704
8.19206626338753
8.61288799844689
8.90988040832832
8.91235601641516
8.42367541278312
7.37158897372212
6.04727111009614
4.93496741745646
4.22715903589557
3.69397685821948
2.99170211926436
1.90211635126695
0.373274776932818
-1.46421553070275
-3.38395420496658
-5.23735919512302
-6.92516502684464
-8.2371670365535
-8.92931455527255
-8.94391557482539
-8.41604890029964
-7.54799478032484
-6.58041249754388
-5.7564883188221
-5.22073490786522
-5.0118354313394
-5.07397848911762
-5.14192011442738
-4.77817774169798
-3.74600624649158
-2.26137221987187
-0.778880317619215
0.34485495638006
0.991636049686356
1.31618620313103
1.6530014880785
2.23120654259768
3.0239807977659
3.93215210573952
4.90516628458915
5.7703906834796
6.20098064835407
6.03831369697965
5.47630253046921
4.81809286276355
4.22428248045983
3.74159011615928
3.36306776088326
3.02712702723136
2.72850301028869
2.5831908321287
2.64314833496092
2.77473507512344
2.82955042226021
2.75162211725249
2.45235158173294
1.80066638906826
0.777593029391421
-0.52443419595326
-1.98516085845954
-3.38676558556766
-4.43098741063978
-5.01756146254047
-5.36702282182605
-5.7668009048152
-6.35648688102313
-7.15757467012345
-8.06637156829851
-8.8032479749418
-9.06933145563042
-8.76172438467175
-7.97850923405675
-6.92734041986554
-5.83165100497476
-4.74089783288097
-3.45478219075411
-1.80476979036675
0.0844008220761352
1.9708702815374
3.75790626758575
5.39237038290405
6.69036623311194
7.48105901628654
7.80741106365297
7.85030606643303
7.76020976893492
7.59949998431174
7.30863657369294
6.75365016689436
5.94288721128648
5.079478170583
4.26871244800882
3.39217376318143
2.42870561737295
1.64909582654269
1.32605514545163
1.4387305152282
1.72508066576875
1.85040807688035
1.55710665658289
0.836017465260532
-0.0851730779690961
-0.989744594063289
-1.75641923764945
-2.1818510098155
-1.99798918977097
-1.18252010321094
-0.101372650232001
0.674610196727452
0.641828629641335
-0.341795337204876
-1.85461062923438
-3.16556418530276
-3.83130189578903
-3.94939686421698
-3.87634754857358
-3.91497960307177
-4.21865268952525
-4.74780213544835
-5.31755542743177
-5.8233777474694
-6.34579711906868
-6.92483919387778
-7.34962165879577
-7.276432722775
-6.46109966019267
-4.87396977362593
-2.76557545046556
-0.620297859973964
1.12872952173543
2.32466001672279
2.96699651016622
3.06853759241772
2.7711349583895
2.40428100444319
2.29670987917017
2.63939446700775
3.47208701990848
4.58464749952031
5.49766428020036
5.75454327471776
5.20274003930477
3.94957424038785
2.24602095224374
0.477978766116803
-0.960200704709711
-1.8647313087525
-2.19039618177252
-1.94853652641719
-1.32045998097538
-0.687090204710456
-0.328935512463802
-0.243708881075007
-0.369535908268602
-0.788774376411793
-1.64196073533033
-3.01298651949736
-4.86938671936056
-6.91316871243641
-8.53757995498582
-9.11559051046805
-8.31593304708455
-6.13425210239676
-2.87233172074714
0.790202797094466
4.0118061524341
6.33628830527292
7.89735880592748
9.008543207298
9.7831425701556
10.255384520917
10.6659457644988
11.4521184777129
12.8898277939783
14.6844194553823
16.0160069951924
16.1908449193903
15.1990553403914
13.4898576372529
11.3902297105229
8.99233514766469
6.44734148423525
4.10354542029453
2.38084066704354
1.52112363966643
1.29461221352864
0.999164050808067
-0.0128647277485668
-1.83789469153266
-4.17873352489157
-6.80554480017231
-9.67518409806933
-12.7728937834695
-15.96929719014
-18.8928343991053
-20.9651840195094
-21.7934401431746
-21.5136827632777
-20.5730301441498
-19.2427019856017
-17.4810949850494
-15.159123815712
-12.320797372347
-9.38656181663738
-7.16151672036351
-6.36553271877197
-6.9502545694844
-7.9826097196279
-8.26921026350429
-7.05541657134687
-4.30186982684269
-0.57419106529483
3.33042526556546
6.77915178885505
9.36181107790884
10.743631517105
10.8121600132743
10.0112862477247
9.26348510039746
9.43753030284668
10.8470013460148
13.0471035143279
15.0292362511989
15.8639155279692
15.3185911436387
13.797692134798
11.8445345255429
9.9503260173559
8.60912805446618
8.11472011863414
8.33188573223447
8.8761126532735
9.369645082046
9.41545778929867
8.63202571204014
6.92640139530997
4.55650999511297
1.835076020054
-1.08152050373854
-4.12108897766948
-7.18196571165137
-10.0898930994459
-12.5588749254265
-14.2056415599941
-14.6607981899532
-13.7219922159669
-11.5803092300933
-9.01314526863847
-7.08817359081357
-6.36217487767229
-6.49632410697543
-6.85163998182207
-7.22680262203879
-7.80534262279943
-8.65277505209246
-9.51043414640335
-9.92840581055411
-9.50274162944616
-8.1284715723819
-6.04049635211783
-3.5453805260634
-0.852922442805786
1.77027715118578
3.94061030767994
5.396341823074
6.1469218218359
6.37428744726044
6.32697033902641
6.1915297248151
5.90818716898278
5.32350422112061
4.67146639025006
4.58136930865489
5.39088862049791
6.71608516424143
7.86940246808441
8.48608909479212
8.65216619293942
8.64199148328553
8.66688602315456
8.82375762077153
9.24278794254836
10.1887069858357
11.8047374142124
13.7187495260776
15.138331296592
15.455930927407
14.6338564987199
12.9878961790916
10.7556107969974
7.88624211875523
4.20763034592173
-0.0871064347778024
-4.16759681531194
-7.11387512837017
-8.8239643362812
-10.1239699199969
-11.9559034130066
-14.6503805295644
-17.8494599603225
-20.8072456480309
-22.8058255563229
-23.5185163025057
-23.011593964646
-21.4738945087284
-19.1893142714791
-16.7103783258128
-14.6596049128645
-13.2483144666781
-12.2107370872501
-11.205415032165
-10.0719264445062
-8.72884640429568
-7.02071300982268
-4.7307647777054
-1.74938770116961
1.76155399638876
5.46607862027199
9.15243816443614
12.7338125304863
15.8194696693509
17.5373742761639
17.138128746215
14.8324060324263
11.9033438945528
9.92770682269012
9.76839430893873
11.0874379691516
12.7456045142767
13.7765503649402
14.0073061048151
13.7673113402184
13.231904502553
12.20822678415
10.4152545340087
7.85761078107909
4.9685711212838
2.27273566774067
-0.247077808150988
-3.27067540741971
-7.4054355995062
-12.4489911408773
-17.4840139063079
-21.4975834735529
-23.8573252389258
-24.4827790777329
-23.6978271903878
-21.8071702571937
-18.8787617190109
-15.0325004709767
-10.7027610629949
-6.44828546189482
-2.72015622260727
0.150584351682866
2.08631948841611
3.43324844548077
4.67641259602623
5.99143016305288
7.33999606989043
8.84714730109068
10.7000805823007
12.7649814104104
14.6646117553185
16.2071835998489
17.4845402442211
18.6022977510913
19.5097167905774
20.0481537801288
20.0849361738124
19.681980886417
19.103133853733
18.5016308772044
17.651798146896
16.1221702368813
13.6421303571823
10.2637788893647
6.32656850337604
2.26387163513346
-1.74315089748367
-5.85365116051501
-10.0943120482072
-13.9272357294384
-16.5852887009127
-17.8117679454748
-18.0891888250385
-18.1666552186946
-18.4225388609128
-18.6025925637319
-18.1447871818678
-16.777567693871
-14.6983261459838
-12.1636708607993
-9.16885636473282
-5.65186958752539
-1.79225341626599
2.01098866777153
5.29461521772423
7.58870975916469
8.45226867412346
7.59102202344829
5.07331719210753
1.53302508816172
-1.99719992725173
-4.77621662470763
-6.92043592829645
-9.07739720551734
-11.5970590316618
-14.2901507274815
-16.8818062455813
-19.317476628355
-21.6495117767682
-23.9105702613183
-26.0030449774359
-27.4562174013809
-27.4177624260183
-25.1050087461702
-20.1994923054236
-12.7888906413282
-3.18032976144254
8.05986829127209
19.9067303581559
30.7423059930867
38.6127443558635
42.0835002714661
41.1145035927041
36.9629520078445
31.150653232671
24.6547783168522
18.00903855297
11.8226587384699
6.94451249298849
4.01338812354407
2.79189691650573
2.13690987688607
0.96194474749994
-0.769794978890905
-2.21613551883584
-2.6991789444742
-2.31159772361315
-1.61194242058042
-1.05544743749826
-0.728785928290584
-0.411205088306994
0.140938761398076
0.873152914251817
1.4396856451837
1.58206245534347
1.40309962511471
1.25802085334411
1.5176278318272
2.41537153749728
3.96023277519217
5.9853449147025
8.28016069889306
10.5023032892859
11.9572403978104
11.7693022031263
9.44499214951499
5.22476680805922
-0.0195099081600981
-5.1084897569012
-8.98962823444106
-11.1420288538461
-11.5919963712693
-10.6038735728464
-8.57215376632079
-6.11781592157245
-3.90535742493353
-2.30850974155447
-1.47181982471484
-1.5941412522454
-2.84753472393703
-5.03954589315572
-7.56510613062683
-9.74587785227101
-11.2439027304177
-12.2087567765522
-12.9558884630529
-13.4516410715941
-13.2726881760828
-12.1536432463568
-10.3846334318736
-8.57118571450318
-7.17889950143614
-6.35613217113322
-5.94904843518729
-5.59150472340557
-4.98668962922141
-4.16441166519745
-3.30999271954917
-2.38467255815152
-1.07093996705613
1.00829076447275
4.11120055914845
8.18992067574074
12.7219905808881
16.8663957275728
19.8384790057074
21.0801961945615
20.2912199077618
17.5785986386989
13.4873190852197
8.73358479870965
4.01022043424977
-0.0195639506813504
-2.92159187170806
-4.76445984868935
-5.90733951309873
-6.52188689867287
-6.5727443043495
-6.11801735609749
-5.28903561274153
-4.10781885565251
-2.65788871439933
-1.34382796071317
-0.68992954923843
-0.873038694605331
-1.59984431321131
-2.46523207091808
-3.37837403520976
-4.60432765706557
-6.36045450406894
-8.38134119367126
-9.92731979868063
-10.205677737997
-8.7458312434472
-5.49838240806202
-0.811537579483116
4.65640221388526
10.1557789435087
15.0276541555853
18.7065561629751
20.7552312948585
21.003510435686
19.5402387874796
16.6561656562129
13.0316657080382
9.76064347806401
7.68884731186334
6.70381700159402
5.94636786445632
4.61819143298483
2.42366620066665
-0.434302271100582
-3.35487307648118
-5.67694831424655
-7.21510829520276
-8.35947860152439
-9.59008458253302
-11.0647713062592
-12.6346849234905
-14.030448029272
-15.0464358034969
-15.6532649001993
-15.8726720423718
-15.5906022807792
-14.6922745255592
-13.2849901704682
-11.4756814311097
-8.99285492857058
-5.41770359912872
-0.892697943649482
3.62121184602929
6.87066039970092
8.03344839673069
7.08536146710869
4.73349696216972
2.04559793675985
0.0228847059179024
-0.673766355330812
0.043811104356793
1.48863307644452
2.50887508775199
2.40161496009476
1.51018664811829
0.808303604214566
1.02197311812214
2.14424137925739
3.5170992769558
4.3255140830204
4.26969452365808
3.88278514245576
4.15001367215442
5.81928564834942
8.95244988195043
12.8483428746551
16.3636437542921
18.5641469692976
19.1729866341852
18.4091959443842
16.6454948485359
14.3638058721876
12.1203974862004
10.2439592764903
8.64787050752724
7.03307928482821
5.19135238502062
3.12624334072876
0.958974121545911
-1.33249715702074
-4.03577777110457
-7.33829855736531
-10.8639390174508
-13.9194609401549
-16.2618260553434
-18.2770326704261
-20.3634831169587
-22.5749965525647
-24.9679314172093
-27.7925906080688
-31.0174880971908
-33.8735890215424
-35.1026770889742
-33.7413050629766
-29.8379976359755
-24.4998746883339
-19.0569910114477
-14.0358702970541
-8.98329864533052
-3.21497952975969
3.38388546007953
10.1043169034527
15.6870888109702
18.9870565554941
19.7230670617723
18.7274346196206
17.4461571551084
17.0973430809104
18.0374140621344
19.6893512647077
21.1131522011044
21.7173748679853
21.3944869387752
20.2079036503027
18.3592625850698
16.3857072465138
14.9323779803017
14.2657419426376
14.2773374267446
14.8603960419017
15.8990858281738
16.9073948233819
17.06850198874
15.7988337394506
13.1720602480936
9.7904740751503
6.31920919181065
3.08106067520914
0.021620311467605
-2.94488774991645
-5.67102022588063
-7.94015001657423
-9.704451414163
-11.0149882238494
-11.9252822024026
-12.6197172840727
-13.453186136688
-14.7486094566843
-16.6346596457532
-18.9599060611156
-21.1701267439793
-22.4714090653337
-22.4191489407677
-21.2384945201934
-19.4007754564729
-17.1088576593206
-14.3746494332535
-11.3516877911994
-8.36790702344892
-5.74020936269294
-3.63816722442035
-2.03307646446121
-0.761778581527524
0.292774835429781
1.06638313941043
1.31473073056531
0.710997026633756
-0.949161521027698
-3.53299745235736
-6.60750688471588
-9.67928129149711
-12.2440662442072
-13.6285071829834
-13.0940424828244
-10.2976018397663
-5.58742808537802
0.140168068506582
5.7543461295513
10.2647737334265
13.3212994095665
15.4056121435785
17.285809537023
19.2905921633303
21.228042339376
22.7669398225663
23.6227452521248
23.5481907674556
22.4482150136087
20.5244967842103
18.2228369245109
16.0197222795803
14.1937434421127
12.751904419568
11.6046449540485
10.713026302691
9.91698052975399
8.81187089995167
7.11350862829547
5.01907967426593
2.91277390141125
0.893625363367079
-1.07990026432332
-2.72716596414
-3.42110177019122
-2.60528583821399
-0.240833270203046
2.93571758851566
5.59644987093873
6.55815016253821
5.48809218619471
2.88277750882482
-0.495887495113814
-4.06591730264302
-7.60457123610196
-11.2983476055273
-15.477772848673
-20.0590137086888
-24.3646064249989
-27.6660094654113
-29.7991544363329
-31.2013220058618
-32.4942939804276
-33.9864525468865
-35.3545309275132
-35.7834597480465
-34.4922484919474
-31.0944841218462
-25.5757969338517
-18.2496102466534
-9.80533634489713
-1.1738122275047
6.750133513791
13.249922945916
17.8412551719819
20.3695115041741
21.0426922147416
20.396765561065
19.260507311543
18.4566154726449
18.1989338571967
17.924592417874
16.9905077476214
15.4148870291354
13.8023237493815
12.7575903126531
12.4465138392754
12.4324945217821
11.8435501883734
9.97955085828841
6.91512275038126
3.43764228315454
0.424372053887439
-1.66227253633096
-2.82984481961899
-3.26711602761927
-2.92683056920788
-1.40281931486772
1.57142639902792
5.53237804287236
9.47833503680566
12.6295221610914
14.7305332708251
15.713370005098
15.4640520900435
14.0085813513302
11.7367292293102
9.31188093548633
7.20035834160297
5.12559001152992
2.1668710498442
-2.2638299841893
-7.58565481328089
-12.4232223909477
-15.7418178321134
-17.4631562476592
-18.1473899150692
-18.2986497284189
-17.9190908251626
-16.6286670482034
-14.1890526199995
-10.7995513125789
-6.8875969330965
-2.89938075252189
0.631237536462603
3.1864828698143
4.62779243669921
5.21604074112669
5.23237795380558
4.85669089134968
4.36084151471543
4.01973748186537
3.79182106803564
3.39222509506631
2.64793351654224
1.47069051252866
-0.429509245942213
-3.37616874479532
-7.15501833258269
-10.8251538949478
-13.2358651480073
-13.7761586881221
-12.6899687745403
-10.6859505096977
-8.29750197077125
-5.78554235044698
-3.61613820283748
-2.62060274479331
-3.36717682844454
-5.45734261663625
-7.63721293901999
-8.67459100501084
-8.15894069613372
-6.44995271646177
-3.87426499895462
-0.239983178177537
4.53167749558166
9.44719367059172
12.6444772741833
12.7988403645923
10.2398727318193
6.72459838951995
4.17361799166096
3.34755009219792
3.4647946530081
3.18075512431158
2.03833923555485
0.875216386505533
0.899582370625789
2.62176830038589
5.61592539368895
8.94953824491377
11.7059556546611
13.300879038296
13.5346541144478
12.508859164189
10.6245226943485
8.57782401825773
7.04985919000138
6.24250921120687
5.78287989315759
5.0166237478329
3.27986030106393
0.145067460485228
-4.19114377545529
-8.75669307170496
-12.2646186469398
-13.7809384023298
-13.0215720885244
-10.2916668303491
-6.30841455735784
-1.9618339000629
1.91850646226817
4.71477135318916
6.14487427469215
6.29371752345815
5.43757317246277
3.94619900312144
2.48453202443545
1.94614417964064
2.69162601035927
3.98985459818899
4.65318921353484
4.17789174308173
3.00237277623834
1.81388208977781
0.899932256357225
0.125518378385498
-0.628570420967399
-1.07194320988537
-0.682610954076573
0.592624593104696
1.98405900968294
2.51276120044777
1.93208069640943
0.900931730081339
0.264478982159311
0.207501346821451
-0.0527230677995691
-1.77444888350883
-5.6012337076501
-10.7762913830373
-15.5911768928981
-18.7566038265865
-20.3386521080558
-21.4100041166095
-22.8534834690772
-24.4939986303823
-25.4161437563481
-25.0713450333849
-23.7896704801822
-22.084409310195
-19.7998808250119
-16.2287773108476
-10.8727147546005
-3.93120653661658
3.69857911653843
10.7582822919555
16.239766385318
19.8886187559907
22.0966186582524
23.3703189795882
23.9520148786431
23.7417004558314
22.4616769281951
20.083127901826
17.1264074440928
14.3063581861431
11.9002652413778
9.72744355700681
7.67427668039796
5.92069986111708
4.73444599831041
4.39789660685353
5.21726677617858
7.06565177081607
8.80655300103933
8.6893070800604
5.79715693962063
1.1650446563749
-2.6806908028979
-3.48178164254651
-0.81131727748624
3.81797144725385
8.14020732943123
10.4137178312833
10.0212091816976
7.52362190911248
4.33521623659841
2.0216981418989
1.62180173164506
3.37412733026939
6.53568666569783
9.14576498986299
8.54255357559045
3.02827678643266
-6.60251804874283
-17.254537764656
-25.3960624807179
-29.1536227905868
-29.1613134272817
-27.578906125955
-26.1553795977048
-25.177824227492
-24.098080653622
-22.6199002999715
-20.8286831995114
-18.5786564738454
-15.2823289842982
-10.5208023589578
-4.78014896059265
0.664093378070074
4.81702052760635
7.82138563308197
10.4961676471081
13.193087878195
15.5918781106886
17.5636426241407
19.5391847314334
21.6871509856881
23.1427983323614
22.4620134805032
18.8599665173246
13.0390664343569
6.88995198655239
2.2228676633777
-0.413320035743034
-1.7189280911101
-2.68385444090743
-3.93275868536199
-5.75349047430994
-8.09463819061494
-10.3328884060806
-11.4062447592992
-10.4259852364387
-7.21025606625256
-2.43624654422518
2.55460264898657
6.33059235947047
8.13575389553542
8.28391946646236
7.82667300218977
7.70434264066236
7.99375273770028
7.96325415973273
6.97090867679302
5.11284443146711
2.74125467009518
-0.320910300896076
-4.51357495410133
-9.53016893190579
-14.0556801353292
-16.6807837531242
-16.9465334732779
-15.4989597077411
-13.2979272457693
-10.6399488470089
-7.04980852558006
-2.32902955749428
2.49402461714262
5.71490804983584
6.41664006991677
5.0564163365336
2.83609542036514
0.998600833719553
0.524587665210008
1.79685836504717
4.30478912506338
6.91255758836309
8.60002502341304
9.03318067870754
8.52015939781447
7.46338493126148
5.99016464604254
4.33853754586332
3.39557851165188
4.20106105172497
6.69803969326478
9.41340753905357
10.5864415770458
9.36859312020212
6.03737602249135
1.61256354349061
-2.5869371988186
-5.46475045520898
-6.63315921962806
-6.5077741434082
-5.95669799450179
-5.75022433194727
-6.13349457765151
-6.85855153920284
-7.64470274055591
-8.47468804708673
-9.35081875252524
-9.97963949037732
-9.94006714885006
-9.09406922404381
-7.70641809016409
-6.2359120708387
-5.00840865222353
-3.91475781350519
-2.44086680853345
-0.174947298055893
2.75671057458807
5.83480218364832
8.49971895724529
10.2336229590227
10.6017381585728
9.45881676540334
6.99444963333511
3.53359349572085
-0.542424865167255
-4.72390326544115
-8.42917810796188
-11.1326506818992
-12.4248090453735
-12.16091380652
-10.620310487492
-8.29186147737349
-5.45033706239217
-2.11923780429752
1.61947612348925
5.48634810068777
9.0715326438668
11.8971719136372
13.6170920367635
14.3166392024438
14.3926843595129
13.972115725601
12.6753841216897
10.1828030332556
6.92288719904235
3.97714304572649
2.2320668785755
1.62913602912083
1.24599513272796
0.172898837404723
-1.58898699767535
-3.02886008746614
-2.87953661410453
-0.555834319834636
3.32723957946694
7.11191378427538
8.96384974010182
7.9734294538076
4.5942774403334
0.115680533646788
-4.19174034189684
-7.62236002904634
-10.1392658323965
-12.0500850907285
-13.5214737933851
-14.523309030918
-15.2149211799467
-15.9439676359926
-16.5893922157175
-16.2004185379745
-13.6468822145986
-8.68980841129011
-2.4650406187197
3.03277962859448
6.21704490118213
7.02688106840859
6.79459966758381
6.89640197438637
7.61730201102792
8.31879930005024
8.43213501707339
8.1122803374536
8.00034989672675
8.46177192815662
9.16452502415597
9.4751770924301
9.10349734608397
8.12747995861349
6.57091084448514
4.39873994209994
1.92174030076364
-0.219147443361792
-1.56082719926833
-2.04311306611231
-1.78247923475232
-0.950486774576758
0.0916363415686118
0.656358039779556
-0.310919062065422
-3.90048967100118
-10.2918154892631
-18.0731680592713
-25.0361280308778
-29.7651305695641
-32.0596460792263
-31.9396456020327
-28.9707879794902
-22.8467098243825
-14.2851606329086
-5.11490695742405
2.54630268916607
7.44343550374315
9.85110489592633
11.1534195741179
12.6396622731907
14.576647300282
16.2913809107788
17.0540691476424
16.8959774944718
16.5541565554642
16.6359423042197
17.0401175314557
17.2920786341236
17.1653754233138
16.7326798005427
16.0093089029487
14.8194938688053
12.9328939885396
10.2022825117635
6.71746342911899
2.92762864398419
-0.580911286943492
-3.54605156117269
-6.17122711699509
-8.88039723034856
-12.086053759146
-15.9143673343812
-19.698271341114
-21.8338673182064
-20.6412871897133
-15.6318183191035
-7.92927517981507
0.536231149885819
8.2992080479178
15.0197533817851
21.0262452658829
26.2960259109197
30.0159016632498
31.124951998413
29.1091776158101
24.3420224530853
18.0230508087128
11.8749297229082
7.49048840326229
5.51768067223214
5.2561909439565
4.99037365985762
2.89921363318617
-1.92796211630333
-9.00737831322829
-16.8512520779697
-23.8626821438036
-29.0978634682377
-32.6044521094775
-35.2329837751989
-37.8426817233287
-40.3091439254422
-41.2706987342356
-39.0930169785264
-33.3290429685213
-25.3894322231757
-17.8120507444575
-12.661080644965
-10.2750839819448
-9.33241631579886
-8.02727231754547
-5.1782182860983
-0.554767397516063
5.2750400477185
11.3161147593586
16.8356107059854
21.8552462675384
26.6596198157488
30.8220960717747
33.1306104365586
32.5929119977995
29.2853909076191
24.1881090740673
18.347925201821
12.2150147938635
5.77108045806675
-0.70942954403181
-6.3090739864489
-10.1772832509934
-12.3700907358109
-13.6142746053973
-14.4511334731283
-15.0348811952415
-15.6040705411984
-16.6545705890102
-18.5310038112559
-20.9843207365019
-23.0791753765111
-23.4407470265272
-20.7935758411462
-14.6628595110791
-5.81226727275906
4.05218176319388
13.249238101601
20.9579061979163
27.0827754811043
31.4179640589275
33.3981133984682
32.896582025582
30.7696393948323
28.1078849826104
25.2612379884467
22.0567039953498
18.6396307739225
15.5684734204376
13.2607997622029
11.7561349621975
10.9091201245723
10.4886246046664
10.0330569089116
8.71043226272842
5.52361087382086
0.044630148193531
-6.83099732099673
-13.0967559325537
-16.8987130841225
-17.6550840686392
-16.0823245016221
-13.411395150718
-10.5386343121578
-7.60213554056794
-4.24948730159855
-0.35930995520296
3.56693454502643
6.69718094872925
8.34686984687408
8.23079840973926
6.58759238401988
4.13402698912939
1.6765049836126
-0.319249321002356
-1.84909318798221
-3.41219204380575
-6.04142572967243
-10.7132448158566
-17.1934392318136
-23.707180275058
-28.1555838221609
-29.5477669969202
-28.1349143080164
-24.529126069597
-19.0564455229337
-11.9615722139891
-4.13263332633533
2.62202292347928
6.4815703778111
6.95687182921678
5.04245275017134
2.0525371509998
-1.24879837246974
-4.43017935010595
-7.02884916888006
-8.7730858124001
-9.90703483247498
-11.0802696554286
-12.9154356338092
-15.5609650312691
-18.5215913146914
-20.9619158416786
-22.2109545128372
-21.9769235004915
-20.2125532759484
-16.8450389937646
-11.5148911907028
-3.67103974225718
6.72016826245066
18.5447403354106
29.9621762281249
39.4614628157282
46.1947683456463
49.4785515355446
48.7278556762183
44.2084020935293
37.4147900964797
30.3287705514497
24.3815336060646
20.0575630647973
17.0455885694203
14.5638745461868
11.8166166797946
8.40968593995605
4.36350292871506
-0.23530847258404
-5.43343924110926
-11.1427301991696
-16.7827976941025
-21.4947690450028
-24.8036056700896
-26.751435039573
-27.2232141123982
-25.6238833096503
-21.6932053969053
-16.3392839721248
-11.0676327169615
-6.53692143864778
-2.04464875930771
3.35537719079138
9.26516965994712
13.6506318179138
14.4378628592515
11.5233560247565
6.96520763139095
3.07883373126701
0.64800453480826
-0.86692406653265
-1.83636582136682
-1.72038131542542
0.144910957703808
3.31856963105911
6.06642801246071
6.47982229564832
3.74035054482149
-1.65700966790722
-8.52321518554193
-15.3730660401176
-20.4144686921762
-21.9689449679648
-19.4872636180856
-14.1060965888933
-8.02649031908046
-3.23998074880858
-0.496764807198131
0.942394251002636
2.57142491517857
5.37660147086977
9.1274513527361
12.793236251127
15.5120190446727
17.2046684756195
18.4278224665621
19.7190581915436
21.2203692891816
23.0109932516985
25.2553181354994
27.2503013828206
26.6729963633963
21.1124473823456
10.8960727363533
-0.333527657782663
-8.3970562847244
-11.7171707575059
-11.7577588565162
-11.0315568377678
-11.1045087661235
-12.2914630737762
-14.6399461717736
-18.4941605584106
-23.7621046079454
-29.0260038292828
-32.0860354862633
-31.6404147290614
-28.2193881943677
-23.4012254473764
-18.3896554252808
-13.542252625076
-9.03980054277164
-5.50295700632501
-3.59365172345872
-3.12976976636897
-3.06364349629726
-2.50554827796077
-1.37204869311772
0.161598071198393
2.2737251890358
5.07208273270672
7.91897048063061
9.65565106196605
9.35627369212996
6.71393512587858
2.07183414780257
-3.62967641188038
-9.20037338540117
-13.8005507549621
-17.1401687472835
-18.9353633473808
-18.2556113633115
-13.829385281894
-5.49674474002926
4.74352219264909
13.9185799628465
20.6618431895098
26.0292260026415
31.4776243016833
36.7729410646432
40.3372997833046
40.9798335008652
38.7198293425366
34.360910936688
28.835294371419
22.9176509897565
17.3640119043581
13.2096908694064
11.565471649683
12.7130097444673
15.5086173497039
18.0243908506339
18.7704596177602
17.2479330650243
13.7239349842943
8.86910445745729
3.4395605543349
-2.08776813124217
-7.72303710775705
-13.7738215481341
-20.2881431319086
-26.4593709996828
-30.6162037723965
-31.1581289173168
-27.8095023336858
-22.075326614023
-16.4834267951247
-13.1328037351981
-12.5254909798305
-13.6609398789119
-15.4455555716903
-17.9400296030901
-21.9801569589752
-27.7888981249292
-34.4125453444713
-40.4228286685904
-44.725254993274
-46.6555856085915
-45.6254628642105
-40.9498660634715
-32.322103933827
-20.6885884023257
-8.32960870449716
2.51953278183241
11.1733932804676
18.3584646879473
24.8626012879887
30.8889101393483
36.544732018004
42.0827114162752
47.2494308726309
50.8144783860483
51.2007361404644
47.6374726216941
40.6912624561838
31.786815831447
22.2550555339161
12.756200183303
3.52592028073219
-4.84655262761391
-10.9406773549666
-13.1601266701834
-11.4234295436839
-8.18504807201042
-6.96305368867234
-9.33690551328161
-13.8111391208231
-17.8888662082609
-20.5867887145388
-22.4663081748111
-23.9173050050369
-24.2337460896457
-22.2189012025126
-17.2485979227147
-9.84407941301928
-1.48264378858505
6.1533495504098
11.8597434224807
15.117040017454
16.1626507511203
16.2060649441639
17.2656448361798
21.1472832218757
28.0983468606559
36.2595592340006
42.5606980687905
44.5994272637612
42.0500534661301
36.3126175076282
28.8258190092234
19.988904269292
9.78182488591204
-1.07397633461168
-11.0147953104746
-18.4685181976734
-22.4659216470878
-22.6710756469871
-19.3219148676902
-13.4226794890222
-7.02777505494903
-3.09198711183217
-4.42683712783325
-12.1107864547361
-24.5318177391922
-38.000589772873
-48.7320418210945
-54.8546283969357
-56.7775131147125
-55.5711520529941
-51.2854219072374
-43.320551752335
-32.1512033295085
-19.8459066993794
-8.79548929398551
-0.521174055402943
4.36311182540347
5.88084615609549
4.76245279792168
2.4802495181788
1.04482735059575
2.60665394469426
8.54891424808187
18.2544506803445
28.8164773958671
36.4594892614378
38.6192244153511
35.0551142590626
27.5232036367357
18.6039582731968
10.4816732503881
4.33729334541252
0.505916940047789
-1.19564918287732
-1.42937820635787
-1.15245058560957
-0.929901539977182
-0.405438588877861
1.33768321585408
4.86112321800293
9.82192361929841
15.2907182731811
20.6315708252861
25.9758381242926
31.6047829182867
36.9386822866615
40.5134561520377
41.0567623560439
38.3899917985086
33.3535021641884
27.1715449632698
20.8853869068129
15.0794365748508
9.92927425646597
5.39664805850524
1.2746985963253
-2.87658613820776
-7.63332232396049
-13.4690506739662
-20.5414612480893
-28.5120884982802
-36.5336224453708
-43.6218306208151
-49.1154716476992
-52.6665867972764
-53.8892809931113
-52.3507060627962
-48.0638828702454
-41.8763323421407
-35.1955051954197
-29.1435623159797
-23.8169535487256
-18.3911781938483
-12.0196639825442
-4.4696591546942
4.14317717762573
13.6004005536058
22.9588035826291
30.1845918211221
33.341625998097
32.1040017217104
27.5171855250705
20.5703365730685
11.8141787752052
2.20682456465642
-6.68800111376077
-13.7405944926327
-18.9692875842501
-22.8303850001544
-25.0949357074493
-24.8908647481077
-21.8581901482116
-16.8439543408017
-11.202127156306
-5.64710745377953
-0.0340738737297193
6.05159498614378
12.9104042783371
20.690257861527
29.1287849740167
37.1704849636556
43.1089103337555
45.3684338851598
43.3916835538573
38.0769594849074
31.4646855520199
25.7118263207421
21.8924596309123
19.4544358341531
16.8055133262727
12.6663419912584
7.14187523527096
1.56120746554281
-2.77647100037341
-5.63283275221823
-7.61555462812999
-9.324897103626
-11.0935606822697
-13.2888560450685
-16.266261922841
-19.931120007528
-23.6411454376477
-26.5773562331962
-28.0831666590058
-27.7441992470937
-25.3156326046776
-20.6262247594367
-13.6639578999918
-4.91391325080624
4.4209763033218
12.6807660164045
18.363654834659
20.7956334671349
20.5980458953024
19.4777208573434
19.085645515828
19.7109782347339
19.9934743205755
17.868485373145
11.925945649358
2.27828089850672
-9.54516115002729
-21.5089896088652
-31.9500225863288
-39.7838018344357
-44.3366300778376
-45.2692954499717
-42.4462706035206
-35.7825867812202
-25.7121926559612
-14.0803431981103
-3.89209996722187
2.62562644991114
5.59438482495535
6.67250634558459
6.96069974155516
6.34859313583056
4.86519228542293
3.88953581121361
5.34818526567981
9.66643794591682
15.0014453809954
18.9350254688718
20.7268263946849
21.4513449594155
22.1607023758807
22.6311792612888
21.8948522808476
19.2214417949016
14.3562388718973
7.47462415357317
-0.634384776683474
-8.64184759330001
-15.3143077835828
-20.0698391402922
-22.8112750708418
-23.3035136824178
-20.9656741879265
-15.4993328805112
-7.64964201515768
0.947954406917221
8.74551803429386
14.9858866735871
19.6150445091691
22.8473940870238
24.7469660962876
24.9136976364657
22.6345973146562
17.6396787960501
10.7130232130483
3.40957606322584
-2.79615329081567
-7.17334227584624
-9.97617048441619
-12.1941820774018
-14.7220345054127
-17.5803624262158
-20.1039731203028
-21.7305423402867
-22.1048280458784
-20.389644572557
-15.0667143582748
-4.93635313719988
9.5258393334639
25.8243317853089
40.6252584496488
51.5680662576893
58.1088464507651
60.7909156392917
60.0805605368176
56.1108712329654
49.1467322692635
39.6984720782636
28.101123282231
14.3544615622114
-1.36283766370289
-18.0543545217035
-33.9309086034835
-47.2384211463386
-57.2106502746719
-64.3250090465374
-69.7092381686912
-74.2173681072081
-77.7806311432805
-79.4438891567548
-78.1361522305614
-73.5391114336311
-66.1689148614265
-56.685202386898
-45.3493714651935
-32.1455056034176
-17.2502631666722
-1.52990028552281
13.2119815311306
24.8450162018536
32.238930140744
35.734409048995
36.0354137594368
33.349398425161
28.3187057527429
23.136176246841
20.6195545755432
22.0798145958103
26.524808219093
31.8768526257475
36.6932722001187
40.7530794325413
44.1726062654394
46.2923742135153
45.9412541947888
42.8338216596889
38.0890117731647
33.0919007675019
28.2895554415815
23.2416845971995
17.2693848034924
9.758378679453
0.288516212444589
-11.0242594227108
-23.1046683541321
-33.7276942430042
-40.0306899537628
-40.0589323046001
-34.4033298921715
-26.0532744158193
-18.1484202071068
-11.8512424338033
-6.50501368027099
-1.52811403566683
2.32729898709048
3.66997675458934
2.18510299784497
-0.554852815194797
-2.13410032256814
-1.21129196468559
1.6068159268334
4.63682142034423
6.51465643940241
6.70328314751445
5.17669386086347
2.26034216626194
-1.09004806535118
-3.37970574596824
-3.638067915147
-2.50992755396541
-1.70808129735011
-2.02114050088615
-2.37999097653007
-1.4082918273083
0.64151166133958
2.31727849768489
3.07262326765759
4.0530481205013
6.62858351334755
10.6773119235064
14.5359435624466
16.4702650665166
16.2136109281499
15.2015403627303
15.1424514194764
16.0543165864756
15.7058368470684
11.3398175714295
2.2466587984266
-9.39362596956167
-20.3162792650131
-28.663830966613
-34.6118980055736
-39.0097115398293
-42.1287980375044
-43.9063605829807
-44.8344706225125
-45.9129603338422
-47.4650100672658
-48.1870950734268
-45.7710945146437
-38.7546155412269
-27.6621156919809
-14.1869060432769
0.253330721706853
14.471283737989
26.4688794063213
33.7538500441245
35.1470099360972
31.6536051907142
25.4369599822433
18.6519363780847
13.362760536276
11.5534075899329
14.1978890059448
20.1107655648437
26.1232217915066
29.1013892181827
28.3270995138943
25.8165659900211
24.10615864612
24.0763242728544
25.1427482937254
26.7505716658904
28.7689751186861
30.7212009269534
31.4598799405902
29.6890030394478
24.5576732096382
16.0497907460034
5.1689375418145
-6.53929446691219
-18.0384978083083
-29.1833923767802
-39.7505266859918
-48.3381934997257
-52.7293891627849
-51.5368840496481
-45.4346857376658
-36.7324608201982
-27.7377676153587
-19.486764050503
-11.8429228235991
-4.40131045743552
2.89412668373212
9.69933569236854
15.6133500302633
20.8832224093128
26.8123275747718
34.6801541976485
43.5748432417302
49.6712122382383
48.5849449701295
39.0545418777428
24.5108279339538
10.9112962412841
2.48356197113449
-1.09632584850319
-3.67419549159444
-8.84121999345743
-17.1313435307071
-26.5837492174509
-35.3032070327872
-42.9233917238982
-49.73547923374
-54.9840575065235
-56.4963688745935
-52.1599323730207
-41.7847493436108
-27.6192128509156
-13.225948871942
-1.67590426179384
5.96454013231513
11.1360998287732
16.5795103705719
23.7373498158486
31.0186561948089
35.0980791124123
34.2026278370985
29.8550980234351
25.2924173075703
22.4605340173545
20.6417360028874
17.7080793375082
12.4125372411247
5.49627430414213
-1.04617658330201
-5.44003734195767
-7.1202151935656
-6.81094795238725
-5.66168509676212
-4.0526328407666
-1.55427418692679
1.58445359777307
3.56536572473511
2.54618061860412
-1.26080268881524
-5.75577658037388
-8.99642638879009
-10.4213784704182
-10.254650021266
-8.3816437311853
-4.02576035940361
3.37373178430768
12.5927086159646
20.0107638290417
21.4633449263713
15.4757593225126
4.62908265067339
-6.5335775722976
-14.8535434971556
-19.8123411116435
-22.1346249868311
-22.0960812410901
-19.424604893453
-14.1060437784638
-6.60863647934393
2.31286093872472
11.3006419999441
18.1709203512942
21.0851501950331
20.3425778657595
18.4976210439582
18.3257500292403
20.6150322116161
23.58242267622
24.0297701315984
19.3185874855383
8.86542053390803
-5.82765075984009
-22.2296556774567
-37.6616226546358
-49.6894699884341
-56.7161745444003
-58.6982341780115
-56.994929096774
-53.1554039563731
-47.7519269984241
-40.3623664403537
-30.6856716510574
-19.6267218328832
-9.01465936379911
-0.0342912505784913
7.88397767149458
16.4209116822047
26.7172532968553
38.2285776993339
48.7190192719743
55.3942743885081
56.8397421837533
54.4448849358057
51.64918103576
51.1435538737864
52.4532499857971
52.2880887899986
47.5001645917943
37.9395082002812
26.497631749497
16.4513343312216
9.02693656521244
3.49332551110351
-1.18597471829401
-5.49516112670421
-9.64378353552223
-13.759972234133
-17.8655743087137
-22.2482982897692
-27.6112061386104
-34.1466375190209
-40.5661911299599
-44.650083703405
-44.7949693358897
-40.8440312454363
-33.8549526588953
-25.6534614159504
-18.4349820264535
-14.1009535940283
-13.4399389007498
-15.556134390347
-17.8357154313552
-16.8940725636138
-10.6611315148071
-0.260029710710816
10.5250172404825
18.3397299855067
22.8846655305606
26.2055855345982
29.7340118902315
32.7838929239689
33.9213026834585
32.840861724617
30.3579109828859
27.1523269524253
23.1720548847601
17.9840094211714
11.1697098053948
2.57533244940828
-7.33331576237513
-17.4488375617432
-26.6758667118436
-34.5165176272052
-40.9023161321289
-45.7549376002511
-48.8923216164879
-50.0733392164977
-48.9176702239401
-44.9399400126815
-37.8206172074168
-27.6659426763664
-15.1084473188665
-1.26382833896596
12.5495651009451
25.3288423744711
36.6877769008286
46.4031513082239
53.5074358239896
56.1661062884424
53.0423005495721
44.9189815678959
34.5073953438723
24.2950479275271
14.7666911166641
4.92522867210273
-5.75188710306538
-16.1719640232232
-24.1574955948725
-27.7751464386198
-26.4076551518131
-21.082355608539
-13.9607719493245
-7.31758432431913
-2.68969274735357
-0.59143586059765
-0.608621052788302
-1.65745596736254
-2.51832217072003
-2.57884039078593
-2.23427772243192
-2.49456885373016
-4.04987066114576
-6.57489783602353
-8.88375159856146
-9.72307005172054
-8.34527665726671
-4.53645875922031
1.25762694091664
7.4708111895523
11.6116933534473
11.7350997053588
8.02226224244833
2.83857101099389
-0.82787420511158
-1.18514077824104
1.71012808513823
6.87018673045119
13.776135179201
22.4859132692699
32.200511319003
40.3708409490401
44.0775278431675
42.3470539676092
36.6368081433723
29.0620743088841
20.6004942705551
10.9918020323706
-0.247920011100731
-13.0624217921903
-26.6657818996766
-39.4966218913428
-49.3072161474548
-53.812196096388
-51.8559358495094
-44.3310205620398
-34.0270089526696
-24.2578753904423
-17.0155440332387
-11.940927146149
-6.97854208269007
-0.184613020089875
8.94321728176391
19.6144466482983
30.5911635754254
40.3882685733831
46.9020644189479
47.7069836697258
41.4139251131155
28.958501870378
13.5360018529208
-0.917548603922077
-11.626245728753
-17.9621800586322
-21.0755825029942
-22.8284343521218
-24.8753245419142
-28.0567423471187
-31.9740833441283
-34.9950155955376
-35.0053893078527
-30.6750427400081
-22.4920430125051
-12.6822240074404
-3.69969360560659
3.5006106419747
9.41619065264051
14.1950945321169
16.7137421715644
16.0944455663603
13.5030611888364
11.2860997436078
10.0357198184059
7.17515078271604
-0.763315065906036
-14.1418001320453
-28.7052216665643
-38.4646094773547
-40.2381461401993
-35.3040847413527
-27.0020962746959
-17.6136420078892
-7.83758001855627
1.73980076113788
9.90228531738908
15.6304023998197
19.0874556220455
21.5993225517797
24.7626624061014
29.3230941385111
34.5089159018687
38.4170051192967
39.2875590699725
36.5712666245852
30.9224890124416
23.4635131153772
15.2469454662542
7.23777715182421
0.446838618510407
-4.10456701552787
-5.61963976051388
-3.9893768377928
-0.35503077773027
2.89212286110286
3.23631828714089
-0.367408367792858
-6.86621560943571
-13.9530622710507
-19.5223828533659
-22.6785916676691
-23.7175940790517
-23.0729558018248
-20.2661851600139
-14.3838774090216
-5.83937441344277
2.99204962629177
9.5617434067673
13.3117804361516
15.6254917162777
18.0518158898632
21.1459434526825
24.5955685360467
27.5919191216971
29.0721424713525
28.2376171300956
25.0794655684084
20.2929384507243
14.7320683199406
8.97330248607951
3.24551590198091
-2.24697956743104
-6.89601777271404
-9.8869361809929
-11.239603124828
-12.556107900368
-16.1383912861995
-22.8550809922718
-30.8219862704775
-36.4954852879111
-37.4351239292942
-34.154455829577
-29.2489327736007
-24.764459266246
-20.5323861690865
-15.0228639802176
-7.63540758442057
0.003405505456084
5.17061821608986
6.59301402154439
5.67725720438833
4.91357032547971
5.26875440461959
5.66461423422631
4.92482665156493
3.4652458118359
2.62203124922643
2.74907162390288
2.71734842619901
1.50216263097425
-0.226010487576838
-0.723180347664346
0.55127369640611
1.86171502470754
0.860349532174446
-2.99481512308953
-8.21277344868826
-13.1688017153821
-17.3445707450771
-20.3568961283826
-20.4224416091923
-14.899467014307
-3.21028772138191
10.8367434663896
20.7660991562451
22.5854086031957
18.1748382399618
12.9320558759176
10.1908872876692
8.62802340108045
5.07187307545237
-1.11917828134292
-7.19399401742365
-10.2580657226766
-10.5105427461892
-10.6020686470813
-12.0965509853675
-13.5457722198261
-12.3215878160148
-7.46729079727995
-0.201394133832007
7.64589370583866
14.9319917969758
21.3509349607943
26.9840803056374
31.6652098051811
34.5761057306705
34.7030350277094
31.8353535725365
26.8137496319927
20.6758259166433
13.8865584481048
6.60690524429252
-0.459778038910428
-5.77503841176957
-7.86589487436213
-6.76667495412704
-4.24333652127168
-2.03878456573373
-0.0520115954372272
3.1650929561334
8.23234557553227
13.9673923275732
18.750701432495
22.311179492213
25.5997974024816
28.8181754708417
30.0828486349395
26.7550761598111
18.1007211731236
5.83856850858291
-8.14404458951463
-23.5118780123772
-40.0591795925154
-55.3414886421936
-65.1061054769267
-66.4468132833083
-60.086128216015
-49.4071013262385
-37.5964200972203
-25.9438941769397
-14.5864509685759
-4.2077063418788
3.49782277301925
7.04955559736035
6.73431062520703
4.97144704282755
4.95470217437691
8.24478578516344
13.0965768427943
15.3354822595484
11.5439608657384
1.77710999209851
-10.7355367032459
-22.2608755461561
-30.6987929287451
-35.5259345936181
-36.6450471989268
-34.1365582347637
-29.2415870709868
-24.7881062866864
-23.4489856889618
-25.01719781707
-25.8454500141695
-21.5792734216373
-10.5760094068502
5.17350704869797
21.8545152180683
36.2099452207856
46.7256360135606
53.4452754368154
57.1521251199028
58.6496397444015
58.4507002656856
56.8204324245525
53.9862704871027
50.2543746416409
45.8487405389504
40.739293115537
34.9100668039518
28.8274982786932
23.3217240802394
18.8339583959168
14.9836516088847
11.0373670697411
6.65050495024378
1.98597576745661
-2.75420957904272
-7.64856904059899
-12.8878882344627
-18.4781672850961
-24.1748840116622
-29.5753128641343
-34.1937327233093
-37.5486602787811
-39.3070833632164
-39.3513977618755
-37.7012885300462
-34.545443213676
-30.5171657929077
-26.6869188514361
-23.8358232561266
-21.8238514674448
-20.1792309819679
-19.2651024625539
-20.1847681850771
-23.2429568725098
-26.9101151224417
-28.6306904458401
-26.5558407054392
-20.4618393568094
-11.2765980455273
-0.111040167211352
11.9768672622987
23.4472228499232
32.3034181045098
37.363595252372
39.3210516845083
39.8958288492071
39.8418638491294
38.1636538513682
33.3926477669839
25.4542098158148
16.2350632762923
8.34913563743105
3.27763017613096
0.634905573454372
-0.863371131048447
-1.91987128817742
-2.09803277240369
-0.309345014233731
4.33434952852061
11.6657813869398
19.9324258989094
26.2506736873582
28.0562540673511
24.4553262280714
16.5321764224838
6.66857087826549
-2.69664013468046
-10.3937356248186
-17.0845270916508
-24.3797025378974
-33.0348717064188
-41.7447046484858
-47.7130585125642
-48.6993261565744
-44.6987504079464
-37.4894404067534
-28.6265238566772
-18.4611362147064
-7.29148879272525
3.36772103051408
11.5014926306283
16.4367615615878
19.4778848191706
22.7127488585519
27.3348099438059
32.8105287085923
37.1084256227435
37.5735445956087
32.1555264996167
20.7054571173925
5.45636243239415
-10.1771484493154
-23.6700846944652
-34.2057851390694
-41.6676846343818
-45.760776600919
-46.694498009323
-45.8867207699014
-44.62003882442
-41.8360773648378
-34.4165886804148
-20.575832505586
-2.70264843121401
13.9441624886473
25.6075704188234
32.8172239914902
38.7686905293184
45.4002749395912
51.4427340995249
54.0199758915013
51.5407205753276
44.9266250537337
36.5387459058062
28.4007128887014
21.4873882995315
16.2694681227325
13.1774148919978
12.089926841487
11.84724652905
11.0120715610663
8.91379128634135
5.23867065500927
-1.09250630338748
-11.4787394958109
-25.7386682258662
-41.322850886435
-54.7101282091755
-63.2190665366666
-65.5473146964485
-61.4758167644048
-51.7890166292534
-38.2459787051812
-22.9841225491761
-7.77875647587147
6.06700081263535
17.6273454541844
26.8419802548415
34.7567148787697
42.1180031565551
47.451372116487
47.6749623257703
41.5216163900232
31.7532821230182
22.9687770184469
17.2465646834418
12.5012395461027
5.01730067828035
-6.82794762464612
-21.0890069296851
-33.8005501772147
-41.8254535363153
-44.538489357036
-43.1768422405001
-39.0327676138822
-32.5949914563928
-24.1964722235992
-14.8808326267406
-6.25767289355952
0.546346753976622
5.73864386475266
10.4808800916858
15.4960236911413
20.2142353096482
23.4204177720724
24.3782047038289
23.1085677055409
20.159140852574
16.6455036026905
14.0893816358969
13.533972033841
14.8445987089151
17.1244597632234
19.5351354550462
21.3629281139485
21.6021787463998
19.1755006050456
13.9134796520437
7.1895680910169
1.31556978005109
-1.88696442655237
-2.02417401899625
0.150936658415869
3.50793010504852
6.72524490528799
8.10477823342818
5.99900246220983
-0.167305579673456
-9.31055977354018
-19.1331593877294
-27.3286556240099
-32.8612976574828
-36.4121403609238
-39.5101975704214
-43.1731500549297
-47.3465066718407
-51.1821659550237
-53.357933156426
-52.450585802762
-47.7639875492805
-39.9066502373931
-30.1249150705886
-19.0523393200008
-6.56327616816695
7.01687544787914
20.002901566784
30.1293793412724
36.2907587147101
39.253938852631
40.5989056969934
41.2594355514712
41.1911031596633
39.9803529374519
37.3211813550189
33.1000719191705
27.5052182693925
21.1494622048602
14.8457031901565
9.15629523075609
4.2670825426975
0.334928070475837
-2.21427928428616
-2.96601021217638
-2.15191851378367
-0.775486689081879
0.158694551200474
0.460925182703358
0.589411641915963
0.860578294957585
1.17667296885993
1.35380492305166
1.28028785606808
0.842965763699831
0.0210868850356442
-1.11316441977058
-2.68421247017247
-4.88283907381049
-7.22074907395774
-8.38196928551605
-7.24524573513895
-3.71855178608739
1.65766293288103
8.3324522136682
15.5446919400196
22.1009120553378
27.0891599247218
30.6720597523624
33.5700447760453
35.5947207764311
35.0632582051097
30.0910515867222
20.6042363448266
8.96406917406873
-1.5048248522948
-8.65989942509573
-12.4945539134275
-14.4577336725448
-16.0936738095461
-18.1628732600675
-20.8339478448114
-24.6085016767534
-30.7028685190222
-39.9855883327408
-51.5658378109621
-62.9674327742768
-71.7265990500915
-76.4039366513288
-76.3364213519932
-71.2930406487203
-61.5864629280917
-48.1821987048509
-32.7858102254146
-17.7954371198186
-5.19921149863538
5.17213005899195
15.4340636534522
26.5987038727732
36.1415531732296
39.7142339322643
35.4123928259802
25.7533433554979
15.412235382102
7.65725496467228
3.24328013529204
1.93523836615176
3.83625394408822
8.90740518962076
16.1013957655495
23.829712193946
31.1354191180049
37.8910251249491
43.8826778034095
48.142990550174
49.4134169886985
47.1969738805707
42.2784322134705
36.2129822564709
30.3266340818635
25.2087261685902
20.9963614393635
17.7598047531681
15.4244464843218
13.6344352239389
12.0377022903229
10.6076384346318
9.48738088461601
8.58860247333028
7.44654394547519
5.45565383326311
2.30444178418998
-1.72801571821526
-5.90661187222755
-9.47157421892149
-12.0004483249285
-13.5990372437933
-14.8234873312248
-16.101867333069
-17.1583746035153
-17.5082847526723
-17.6888480697901
-19.3520499670376
-23.7362527938687
-30.5167635133019
-38.4854934336459
-46.8574013174164
-55.4213927637622
-63.6018858587337
-69.8025900624115
-71.9004004122928
-68.4595333755101
-59.5190094571408
-46.4445237903907
-31.4226847985901
-16.9853591432664
-5.05655518563337
4.43556570680945
13.8686369479423
26.0139073626641
41.1481291749048
55.8770516939343
65.0418784616107
65.3728351948422
57.911100010146
47.1204056388748
37.6023241524533
31.5572657692083
28.8627963388949
28.4846179926939
29.1841507091502
29.5310868175759
28.3150580352572
25.2556792296389
21.0121776590139
16.2860631659795
10.8904799029089
3.8159414057849
-5.49685551307437
-15.8170855306523
-24.3425978256904
-28.5970922013856
-28.2165610650166
-25.0082433788385
-21.4317474987168
-18.7935021760174
-16.4854169793282
-12.9388852490491
-7.45031805894854
-0.912805707400539
5.22104231024936
10.1089440846941
13.3515499242706
14.3049760511765
12.389053380398
8.11724792106989
3.181660300886
-1.07110423443439
-5.27462206155979
-11.6114800794738
-21.2121641277021
-32.1435243223381
-40.6014136683755
-44.1979741617827
-43.5951080363487
-40.8939194499236
-37.1062795413433
-31.5199083093822
-23.0670396960837
-11.8793180615371
0.482978288791521
12.2698585785421
22.9621965998876
33.2628132715076
43.6688223141417
53.3469469454734
60.3939006485625
62.8157877722892
59.3816347202121
50.2910038803956
37.4528262320281
23.8266549153501
11.9900568450169
2.92901904864403
-4.06226042016866
-10.226704203482
-15.8473610680467
-20.0083764308617
-22.0493328446244
-22.8927693624953
-24.3806732148163
-27.366838672563
-30.8144598486818
-32.6487663561964
-31.2308864205004
-26.2987104839019
-19.0401746325796
-11.3956193563787
-5.08175336114267
-1.04783297682714
0.578698987081412
0.557431178675019
0.44803114377539
1.78184650833443
5.00052435732163
9.34421350834207
13.636326634022
16.860737182194
18.2350237111543
17.4355427797525
15.0565798780283
12.4101846537187
10.2385404486514
7.59069061337159
2.59986133901479
-5.29940774314822
-14.3957922600515
-22.1606772880429
-26.9894510433151
-28.1959033431455
-25.380390507421
-18.813977615221
-9.8519242352992
0.0622296408681374
10.5747797757644
21.7935010320335
32.5876535666685
40.3736022434931
43.0798540303274
41.041385296893
36.4120595593948
30.7190001223025
23.6783351310596
14.7207443825198
4.8626118335007
-3.79184053856895
-10.0026333165374
-13.9700566770032
-16.1981910384455
-16.8152708458825
-16.2023631227004
-15.3288012470819
-14.7150059989051
-13.4236466613472
-9.99363619713535
-4.80266150601448
-0.95054027616672
-1.83261622412181
-7.67277988050123
-15.1906582406985
-20.8662194118128
-23.7227511975763
-24.7875422447684
-25.1010412271759
-25.0918382095435
-25.0670767389066
-25.0915738358481
-24.1896613540889
-20.3316107695132
-12.0443965189231
-0.462359932624905
10.6722127794776
17.858234905335
20.7327442194845
21.6964535012389
22.9877507421251
24.8415102054766
26.1681558505988
25.9506756310593
23.8430916487352
20.2429415094401
16.1554937180482
12.5900158980997
9.78796646767603
7.13468617377889
3.94144180336397
0.295893006461901
-2.94924614106576
-5.1102976301051
-6.46089958649363
-7.83411760547241
-9.63016876689217
-11.7929131972311
-14.6686894854643
-18.8961479092446
-23.9536790095827
-27.5147153471893
-26.9605494641595
-21.4847239838621
-12.6417234187997
-3.16432859434043
4.67139087045172
9.95844852950286
13.0027544476315
14.7163032682857
16.3816407917259
19.5756127171182
25.3986431864059
33.2690323184983
40.7072284829273
44.740417045898
43.8288392006097
38.661165104264
31.1805395570843
22.8679442198528
14.1016627060112
5.05515761908303
-3.48137830654568
-10.6262995544043
-16.25213949321
-20.7365549655862
-24.1739562291288
-26.3254735052986
-27.134641565964
-26.8517523080191
-25.6873307005236
-23.5852969794228
-20.4151828098735
-16.5058911816632
-13.1053370691055
-11.98124876608
-14.0061996734554
-18.0911276774486
-21.8770707909416
-23.5224178717012
-22.6921288710847
-20.1510932644334
-16.8868271723992
-13.5261185378266
-10.1067553416326
-6.16521929479066
-1.10467387687237
5.40689463394467
13.2902783838322
22.147944872509
31.2376932085094
39.1046320325511
43.460932546832
42.2170276783062
35.2375160669825
24.9601098345068
14.9053119575709
7.3750118490663
2.28573485597881
-2.20721541547247
-7.94589109305736
-15.1591273099972
-22.2811566425674
-27.2535063144857
-28.8799205564487
-27.1295054894657
-22.8191605738368
-17.3645123421152
-12.3983676428916
-9.05980229549497
-7.51787155180077
-7.16808219689224
-7.09837578047144
-6.28925712904388
-3.65236520815527
1.67243086404661
9.71524940343605
19.2413077993607
28.0659472422721
34.1180265067252
36.3841354128057
34.9633837015582
30.6147702876268
24.5235387796026
18.0545236591271
12.1117155643967
6.7971548335295
1.96825227945208
-2.12463779618113
-5.00563646639212
-6.47568371954655
-6.75383124901453
-6.42981570175506
-6.37297944064246
-7.29185357759287
-9.19248438225223
-11.4526805501065
-13.4199009232346
-14.764428236921
-15.3885122486461
-15.2956975340715
-14.6261217397447
-13.7259082595028
-12.9929300497968
-12.4004575538834
-11.2391005948836
-8.74094711067818
-4.99977363634092
-0.866434314111271
3.02235590431555
6.5633557550958
9.55915820138629
11.475590719586
12.1006853795612
12.0119988179492
12.1148026570566
12.8599282636954
13.9218087250444
14.5037790580248
14.0579498087123
12.8093101088717
11.4198333756189
10.1418320487801
8.56384328524996
6.14738462324802
2.70624165067674
-1.57571237450268
-6.26249006308106
-10.7729070360981
-14.5305055568367
-17.0347279053349
-17.9115830146952
-17.1698360769881
-15.4146906452461
-13.6197168485606
-12.7233815303448
-13.4593875832044
-16.1847610828943
-20.5256343381229
-25.3083610281334
-28.977570583077
-30.0485308802386
-27.4690220541095
-21.1612902003401
-12.3794559814838
-3.14368615190689
5.07444774333452
12.2733692288227
19.4718323729284
27.0712003451178
33.638884610504
36.8194631092108
35.7546059358317
32.1266637096938
28.4015704803316
25.5075257657785
22.7077011525864
19.2115842876658
15.1776381285515
11.3605926796469
8.38719748946919
6.36920777840236
4.93449895231633
3.65700026398038
2.49999546396739
1.74422504271052
1.59955210749112
2.05549870569252
2.89763496620484
3.60533294829411
3.41304489592087
1.7886705667525
-1.12422164712496
-4.6338303675005
-8.08844485779985
-11.3782452778483
-14.8616305111854
-18.7229903232864
-22.4552411237563
-25.0869250781528
-25.7983005800192
-24.2704610896279
-20.8777807196227
-16.8676216491385
-13.9167801505283
-13.0383283975531
-14.1142324707188
-16.5169747195439
-19.4269628936195
-21.2358594653582
-19.7418090773669
-14.096401065164
-6.24722440107553
0.543218226165115
4.71575903832334
7.42535629520871
10.5949727567246
14.5831671431617
18.0715811909752
19.9154640715126
20.5240584403762
21.1677670539205
22.3152065800117
23.1916137044089
22.8656299912532
21.2349155842823
18.8788084821371
16.3378684799823
13.6836185113779
10.6470838646116
7.10416170997511
3.40049391958899
0.161646351985821
-2.03924750509716
-2.71449050588826
-1.55431800002004
1.11285166478761
4.1796440264313
6.44320580009748
7.32439025439778
6.82105294784454
5.10899554507918
2.4206091619562
-0.926418299714141
-4.57169620353044
-8.06011289322433
-10.6914361631224
-11.6375788976378
-10.5489166134111
-8.26322354515787
-6.69312542389293
-7.41408618635154
-10.1020873940345
-12.7707809538718
-13.8639976654855
-13.7660241642887
-13.9450434154508
-15.0321198995084
-16.2253552129877
-16.354052205064
-15.1083818523419
-13.2883547887732
-12.062145552864
-11.9769875565349
-12.6424330165999
-13.1775826707292
-12.5486534189778
-9.56899831222752
-3.45532127249764
5.1048615388345
13.9475841963898
20.9479293500339
25.2939589716249
27.2210227061572
27.1310705088954
25.3889623980328
22.6485757284249
19.848162100625
17.5666609371461
15.2901752108068
11.5971732542091
5.55584304640308
-1.95317469155402
-8.52570174144058
-11.8977895901848
-11.3921824021424
-8.14537498813013
-4.24963316482009
-1.45285338844211
-0.219179498175961
0.271519732094666
1.30444640861214
3.55938718918716
6.36318823908194
7.90502141768671
6.66757154099087
2.9345393238881
-1.38870821737776
-4.53374755519231
-6.05646592275515
-6.34592722268885
-5.75719737674939
-4.56301720262116
-3.12103873071955
-1.59203914724468
0.218282307396921
2.42012563174718
4.57700762705594
5.85090249419548
5.62532837194999
4.03246458262961
1.88189220815888
0.0256129856769424
-1.14711065321912
-1.6133316015099
-1.48552565452464
-1.14735709450673
-1.33769451534966
-2.68401109242616
-5.08721475096084
-7.63733163434115
-9.18754344675134
-9.23047065137929
-8.37966948129199
-7.84502675814653
-8.36040266219731
-9.76349730667336
-11.4234000930685
-12.6477102780402
-12.8745657180392
-12.119019306189
-11.2374619227153
-11.1737072135191
-11.8329615377724
-12.0485986145471
-10.5977406108136
-6.95604496249002
-1.39198929245378
5.05306300087692
10.7700350165873
14.3616872789727
15.4655577767829
14.8097369157209
13.5912198531608
12.7605341746142
12.6055659019023
12.8822889340912
13.3340258673518
13.9208446826315
14.5380918912556
14.8618327660814
14.6417667402519
13.9283659825701
12.9423425702079
11.9070769685513
10.9732462350163
10.1015913780107
9.07317290834478
7.77126538543455
6.40240940301256
5.40208636254305
5.16637633013191
5.67515657553767
6.14436114348956
5.29356806209717
2.34400370759358
-2.3143433748126
-7.61422560594122
-12.7227712766117
-17.2265645700406
-20.6878193742831
-22.4672225149325
-22.1042535285721
-19.7392696364746
-16.0326637635517
-11.5899256119938
-6.52954371322357
-0.851900251799437
4.74658155552966
8.82035932484685
10.2019486596856
8.93846556574213
6.17988217874978
3.33165821331219
1.09491435081359
-1.17448729857534
-5.13095828680119
-11.9920016562623
-21.2344177766827
-30.7397774479235
-38.0824462893846
-41.7203009036236
-41.3900055023017
-37.7594528672198
-31.8167166935356
-24.5353226298475
-16.7267284801259
-8.59352037467384
0.57972559643973
11.5407576685615
23.4492832264956
33.5542129086267
39.0026870217052
39.1162969725214
35.9243019375978
32.4604723798668
30.3910816594938
29.189343763357
27.4817921174087
24.7897104217122
21.7162991248246
18.9291974513318
16.6064530032752
14.7154634935706
13.1897762687593
11.7215938246476
9.78422190042858
7.04089979087123
3.68032112565146
0.4355160974216
-1.77361026200316
-2.58836402536981
-2.72805563669629
-3.46094892896609
-5.49300134643987
-8.59809526777804
-12.1741125084594
-15.7321298945033
-18.8801614748313
-21.206391823999
-22.3348457682518
-22.1775419699915
-21.3023366725391
-20.8520872983322
-21.555224988037
-22.7117442032183
-22.5837727205526
-20.0049877848013
-15.4931765315763
-10.7861072391034
-7.29661654421212
-4.81655198949932
-1.7139729690152
3.32778434917198
9.76581906600988
15.613679277046
19.2493478259887
20.5023556989192
20.2140024817934
19.3218678158818
18.424677364028
17.705137401979
16.895868055829
15.4135506582244
12.7753829016996
9.0151219776986
4.68661124625761
0.406066963257425
-3.55545840964082
-7.12209306968671
-10.0189767046556
-11.8346018010561
-12.4022993782137
-11.8250573088853
-10.2471364817001
-7.92141748479078
-5.35990466602401
-3.0964056980702
-1.35691232217193
-0.0753339242506127
0.917574213072068
1.74035766805355
2.3419016563978
2.65920293554552
2.99374285073095
3.79904219137096
4.83562153660739
5.16468982858499
4.50783973929237
4.03498998793534
5.0917810156391
7.44533706523534
9.37969931337342
9.41890853171619
7.61901587785222
5.25889151127745
3.49445391022092
2.32182238194882
0.761858338276944
-2.04388241651817
-5.98396453974493
-10.0436153918305
-12.9686930958992
-14.0376533577833
-13.6483009171436
-13.1864924701131
-13.8935333415304
-15.6975892404183
-17.3316627008394
-17.5269964454631
-15.8697207733881
-12.6712176948759
-8.41793246743124
-3.5137390400499
1.53813250543814
5.99894362604739
9.33911747437528
11.7995727582536
13.9877175429464
15.7783718530998
16.17708900636
14.5317832941634
11.4134952912947
8.07667556526516
5.47816628340693
3.99815057154217
3.63353844102527
4.05773010743474
4.61415272132192
4.58278311675214
3.71884822054214
2.58084709519994
2.05220298606692
2.34532354021233
2.77987311674906
2.79209070607051
2.78283230412969
3.59422180679999
5.42893651456658
7.60143005155399
9.06370278278448
8.84693185175083
6.30306429221814
1.49585955479711
-4.5134759034053
-10.0947169684979
-14.0992774962181
-16.5798318222206
-18.3407213255335
-19.7105674313913
-20.0470787738482
-18.7080947977249
-16.0651618831222
-12.9105403952261
-9.16319375283604
-4.04887467556011
2.37021747905725
8.52362337093293
12.3893764148744
12.9722738730213
10.9105004393343
8.03960013061838
6.31677129377024
6.81111884569901
9.43236468587108
13.2962015059804
17.1477563620587
19.7474599622072
20.3575592525448
19.0122295342525
16.2983928957658
12.9413319007696
9.47265948884552
5.94761462919614
1.87074992936894
-3.41515498366353
-10.1144480905907
-17.6708680739912
-24.9836899605049
-30.9595785101046
-35.0057972101524
-37.0988177733301
-37.4591501347618
-36.2620287421923
-33.5920476619488
-29.3812750204836
-23.3082651332864
-15.1621168723702
-5.61925644282561
3.66833025885181
11.1849865867855
16.6337263504568
20.6998060272578
23.9507180315245
26.1864434482542
26.7759146283441
25.5564581374596
23.3767611375252
21.5438868082759
20.6771477665599
20.4072638799545
20.2180087475415
20.0655321255599
19.9373189242211
19.2329414040606
16.9926965729173
12.7460792599212
7.04871104466756
1.10450588958996
-4.23225131855698
-8.95847194933898
-13.2995175997871
-16.9314978211413
-19.2302855463547
-20.0269782240296
-19.6572174204602
-18.444728396769
-16.5423229323739
-14.2021676480143
-11.9510693957458
-10.4618687271525
-10.1116323557716
-10.4279388979089
-10.1607150781862
-8.32768402070728
-5.13155271452109
-1.5422604926797
1.80013168175654
4.87476427403668
7.75101304740461
10.2610134188109
12.097566384322
12.9638660403842
12.7345780952506
11.5431830937183
9.57185047514881
6.89012653365282
3.76255988659424
0.940040667085838
-0.693923760314382
-0.83016376176661
-0.169702109598331
-0.260834008888294
-2.48875252620038
-6.65696284339648
-10.7635211704587
-12.723079797529
-12.2049277019962
-10.522403483039
-9.20678375912803
-9.13655555523629
-10.4522098973805
-12.4622135319103
-13.6737891367195
-12.5142329774323
-8.41286253845787
-2.32896635925889
3.80131635584356
8.39749529913508
11.266335383825
13.3662650819423
15.645659827798
18.2389728017954
20.5996675712305
22.0369973165168
22.1141341813991
20.7920949703175
18.2387111430706
14.5163923847653
9.76818438838011
4.80344130381768
1.01920626193429
-0.62336969174308
-0.402435953006114
0.443285355243046
0.644392946412395
-0.265345785584119
-1.68401732199599
-2.52243956782661
-2.17230086219991
-0.819457099157645
0.982928934025488
2.48746718164611
2.5051822787504
-0.285638394560789
-6.28006713746158
-14.227865273761
-21.6831163283322
-26.4230979607334
-27.9249437764641
-27.5670752330403
-27.0111448763973
-26.3573620881962
-24.2162553297417
-19.4277345634173
-12.2613707603889
-4.07428893161446
3.76524658253393
10.6489487571155
16.6990893554469
22.0319303636977
26.1860676048268
28.5109349358087
28.9062760114132
27.7271798033304
25.1107160252249
20.945364124268
15.4878666338949
9.57507301165854
4.20424465920816
0.037473418833584
-2.98122765567566
-5.73196931187593
-9.30992378644425
-14.0542978144526
-19.2717975302601
-23.8099877549523
-26.7265344960291
-27.7475930995949
-27.4955161060699
-27.0229498052118
-26.6711295353211
-25.4204012298308
-21.595881452733
-14.3172650628234
-4.48497657412962
5.43405338587921
12.8354574821723
16.6759942388511
17.9910464013679
18.8030137053518
20.4409776454898
22.4898439288239
23.090758018726
20.6917407073149
15.8985549388007
11.231602365608
8.75736333315016
8.41255340987454
8.87430181726394
9.37617238238923
10.1504840884393
11.5789819071184
13.4930126530126
15.1364065879985
15.5086301008202
13.9522971294846
10.7026443400627
6.82617665799631
3.46582718878185
0.995687201425834
-1.22933355082898
-4.18610061566599
-7.99674008837375
-11.5334980480244
-13.5021725681695
-13.8004527701967
-13.5219749568704
-13.7794814135792
-14.7873718839889
-15.9020929573616
-16.2592455665007
-15.4300790617556
-13.6163493526833
-11.2839740880902
-8.81425919200531
-6.60758928315761
-5.11934259175728
-4.39534484147344
-3.83694707965872
-2.85576124295225
-1.64442316365447
-0.998039116411676
-1.4353891537051
-2.65248725785141
-3.75427911558851
-3.89357249153098
-2.74037759322646
-0.540833439411031
2.08444688570975
4.47286545187919
6.36183137086195
8.07133778802504
9.95106393761167
11.5674341176123
11.862807868919
10.3992679927085
8.10120556616488
6.41238892742824
5.93896716697018
6.17094739944703
6.25687775647966
5.77156614362719
4.91934236170554
4.19844038955217
3.82166000077875
3.50966291654423
2.93592860692699
2.170626371072
1.49218353264072
0.8981333038629
-0.0996081190457217
-2.28670910661851
-6.19008516217709
-11.371164988175
-16.3559842121603
-19.5967875565343
-20.502428209978
-19.4608604742374
-17.1532021772015
-14.0258409936646
-10.133750161208
-5.3036411398394
0.381441990399711
6.22595990444356
11.1537905662613
14.1654482470754
14.5572588859356
12.1671204815319
7.7439530703462
2.78827202062411
-1.29860380342453
-3.86107031320333
-4.89492135287477
-4.74499966481284
-3.98456725067365
-3.15686364824154
-2.34178567851007
-1.04596982859263
1.40393257612796
5.21695526607971
9.59209225373605
12.8812701302763
13.777632806149
12.5183708672943
10.7146395200825
10.0151566859906
10.9934497503058
12.9571762999129
14.5028520187395
14.4959376472597
12.8558569538942
10.4547787953132
8.36136984690692
7.2298953365323
6.99775399888972
6.80503490549636
5.55349512701846
2.95495709067983
-0.204983588883491
-3.04919448652412
-5.51766355551477
-8.20016122534698
-11.7259213714335
-16.4432595838157
-22.1857187484412
-27.9748085749915
-32.1059190303207
-32.9469165497966
-30.1204181516663
-25.1173830945357
-20.4325770973111
-17.6609521418775
-16.4217921077862
-15.1541235670999
-12.5489262518049
-8.11075370406074
-2.19147222285534
3.79356525064616
7.76919731235006
8.58436986251264
7.17654147844993
5.71668749759007
5.71349471015105
7.13362856723519
8.99867287083161
10.4437082931327
11.2306090263976
11.4225141435015
10.8630470606493
9.41467989995153
7.68338128368953
6.85097844886536
7.44293965651726
8.67012773888023
9.34007011248959
9.2176249809453
9.22722958072775
10.3242422096311
12.3233767528797
14.0689382179589
14.758144731528
14.6285547367356
14.172393980357
13.3984685936356
12.3324313024242
11.4743345583414
11.0799582815616
10.6148594141772
9.55045773580428
8.06616117272341
6.30682228009951
3.57605100054495
-0.889769538810841
-6.62424001935038
-12.0979018778281
-16.1687182522035
-18.9936905646013
-21.4607291057837
-23.9418068067638
-25.8337807592221
-26.3342987154818
-25.2680317275579
-22.9053818230801
-19.5532260970622
-15.8833988800062
-13.0388673698171
-11.5158512435045
-10.2320088290022
-7.50124255334637
-2.91861721874485
2.06998778599702
5.31331289481158
5.56650105368827
3.38253319699108
0.671382020927636
-0.76234762152559
-0.304838357815262
1.67477996296804
4.52239015289443
7.54027506417531
10.1600093673853
12.3949229471998
14.8071988767218
17.670912980682
20.357040447228
21.6922492439937
20.721296447052
17.0903264015367
11.0299777959602
3.25793633497133
-5.12511410845595
-12.8845507530211
-19.0658284010166
-23.2270987419299
-25.1142527867954
-24.2064367728402
-20.1076596374228
-13.5729666275309
-6.53505993889057
-0.634661508317993
3.93377807543762
7.83634846291282
11.2985117543589
13.7204049076291
14.3278635266426
13.0057095631809
10.5919468366576
8.34726663583915
7.08031846931388
6.84182677675875
7.27231237427045
7.90929343156649
8.36702892714609
8.71621299708746
9.53330851883406
11.0502830307623
12.3579684968148
11.925924094652
8.93428189453563
3.96413968221311
-1.38515038357277
-5.44281000995852
-7.42815601556126
-7.85296812731215
-8.0047139274004
-8.9494850461578
-10.8580772828083
-12.9947162411762
-14.2820979174026
-14.120405137991
-12.7855213536203
-10.950948714346
-8.93527319504484
-6.65695617009979
-4.15118139218425
-1.67414021875338
0.707223710728675
3.2229043199017
5.98680942438053
8.63224104082725
10.3257625142939
10.1624720394433
7.89106050203439
4.42382489567923
1.36366635471685
-0.245630138644802
-0.79082621310166
-1.78258432740999
-4.56789167721624
-9.04168937770095
-13.5653171300752
-16.3306158482468
-16.8072249169066
-15.8396858193187
-14.6125210430366
-13.6245099328474
-12.2723319020479
-9.24820918741516
-3.73240390680253
3.59613051658946
10.906192029804
16.447218501959
19.2345641194397
19.0044388785436
16.1677778930929
11.7357584662449
6.91059025195104
2.71928663497203
-0.121566946930174
-1.5188161973762
-2.25103643893331
-3.34274870580033
-4.98312010135747
-6.43348977284516
-7.03659517283126
-6.86000047994608
-6.2873025248241
-5.41958818164305
-4.01738803597062
-1.8046123172169
1.21154288908435
4.68684056694396
8.33587716592822
12.3095598569449
16.8858717563854
21.8259743341765
26.2940224866946
29.3379442150401
30.3139938791095
29.1094300774744
26.2220901348145
22.5376058327137
18.945615421051
16.0909535208271
14.0157746113837
11.6670512108511
7.22686734962255
-0.439518458768691
-10.8106354506047
-22.4191447931869
-34.0283967735343
-44.6545186948632
-52.9318512958241
-57.3424613939535
-57.4277008678163
-54.5035456957767
-50.6007772564763
-46.2942581390307
-39.7994518705648
-28.7406295403094
-12.8878190506733
5.14740665976677
21.8612020260433
35.1186463381977
44.5608982003121
50.3998460279783
52.2686785562959
49.2742136683888
41.1278933087656
29.2317984475479
16.5591166915831
6.30636793174946
0.34923536182922
-1.57588708692196
-1.51647390838645
-1.7194904887326
-2.87980009917217
-4.04665039741286
-4.31659835565718
-4.10444552786211
-4.56092876265467
-6.4122166916608
-9.815938085401
-14.8455276909772
-21.4901892910175
-29.1512574695121
-36.3803294082571
-41.3654270613394
-42.9243881172999
-40.9682389092829
-35.8257595906406
-27.5437448967849
-16.4077675310396
-3.65471131352787
9.28325474457037
22.040176347446
34.8510245552442
46.762885093488
55.1717031366543
57.6325455988308
53.9750358632578
46.5082863478418
38.2326016988904
30.84442806095
24.3103481970028
18.037082348091
11.9921813684856
6.61960605754934
2.26374478273764
-0.89650856330725
-2.76905293230868
-3.67786552844327
-4.51059331806131
-6.13293054346825
-8.68496007026656
-11.5499167899164
-13.9562622970731
-15.6257689834932
-16.8461434846808
-17.901163371298
-18.7127376492183
-19.2829550784083
-19.9952244210406
-20.834879559723
-20.6445377298799
-17.9619525528578
-12.6329873911971
-6.17111585546549
-0.62141935799541
2.66867365640203
3.47507677849057
2.42193861346703
0.451752006828146
-1.49625456379533
-2.58567088630097
-2.41120943868447
-1.38870322216683
-0.365871696090719
0.395207904325196
1.52265089428972
3.69662418459887
6.85252846385204
10.2928283771413
13.1798820991854
14.8025832030646
14.8084522102611
13.4614811885195
11.437780464903
9.10907874501885
6.03496012955681
1.28439697160043
-5.52780324055068
-13.3737359921678
-20.1909087602813
-24.4027190433935
-25.97938198337
-25.9805054748295
-25.4335922443128
-24.7147966521819
-23.45992988041
-20.8490073804698
-16.4431823436208
-10.969002003359
-5.90839759974871
-2.07959367093864
1.22485342697472
5.60166120411409
12.0987903661104
20.4380129496117
29.6252914093877
38.9526853841172
47.718926502964
54.018610601181
55.0159286783353
49.3097514344738
38.6088737933752
26.5737880889731
16.3960977853781
9.61772131105053
6.25958759817601
5.10594953307039
4.07736332390565
1.07811444444868
-5.08910611730664
-14.2692949471248
-25.0162001800332
-35.3052397079177
-43.7614827301049
-50.2484922910563
-55.0419616124249
-57.6956327592192
-57.0007119436369
-51.7998485863062
-41.7656335271765
-27.8577350029273
-12.186571107119
2.9262622338491
15.9154598508106
26.0960403286652
33.3567604258485
38.1014193070209
41.0733026852523
42.6907934013296
42.5522659107575
39.7971736877364
34.0814319037534
26.3558396441266
18.6118147250883
12.4668927985206
7.91136572236419
3.73425699273124
-0.92484105955957
-5.80559236337879
-9.98090223012322
-12.4885433691422
-12.8127801802142
-11.5354890017455
-10.5360320016619
-11.8859759911887
-16.1594693829528
-21.833739457398
-26.3067328136628
-27.5267311947161
-25.0146036889703
-19.8076327360991
-13.61575496708
-7.76679288163687
-2.33091472812167
4.09424856639397
13.0716125853325
23.7823525433823
32.0248613793595
32.9729710767244
25.3267553022427
12.2829541083346
-1.32437384456974
-12.140717802981
-19.1589209595643
-23.0378370297421
-25.1755009347483
-26.7960949339388
-28.0809369021001
-27.7273006671019
-23.533584191329
-14.3019168739424
-1.80234597446961
9.71041696267231
16.7866331027829
19.4434149783861
20.1566614213341
20.7838463700006
21.228555929103
20.7135927848781
19.2540074411204
17.4512422453923
15.4096145521126
12.6192861689081
8.97235973486335
5.25230618588536
2.27007751818356
0.0105698223018732
-1.97259636829883
-3.85179414773923
-5.73488973681313
-8.00576251810235
-10.6892128158407
-12.8409960452314
-13.3473424967066
-12.1437419714499
-10.0462772598877
-7.58297897836235
-4.47848946993007
-0.121070196967665
5.74417068282641
12.5447507823563
18.9085277386543
23.4008524591651
25.4390901860926
25.5057016490522
24.5454354928469
23.1292565800599
21.0143357004255
17.5341523089095
12.5592003602568
6.93401463443562
1.84369088783759
-2.01316275412616
-4.59227334448592
-6.27344193397326
-7.52722559745026
-8.40589955563587
-8.450257521931
-7.55246607005683
-6.68431767480627
-7.24027061930018
-9.88489592430134
-14.4603796754605
-20.641569667915
-28.1573255339238
-36.5559856585918
-45.0682192680237
-52.6243623001372
-58.0591478704433
-60.5341263131548
-59.5869901720499
-54.615342867978
-44.9848905645522
-31.2757709557361
-15.8235944497204
-1.1923019868761
11.5936310551013
22.7964464583524
32.4657682054526
39.8519702357033
44.1251891962399
45.2808957671555
44.3467043801
42.7977930211028
41.799864977354
41.9778143336549
43.493096602742
45.8272951701357
47.6715031214716
47.5989169472949
44.8983417598423
39.633161870451
32.3100432935085
23.7909906093483
15.0756713355073
6.81970330918238
-0.714122731019841
-7.3665352918083
-13.313492401369
-19.4242293315162
-26.5808318937059
-34.4458413060249
-41.3630182939615
-45.6853792749877
-47.1666211344117
-47.2405614992764
-48.0427135085666
-50.7424657378796
-54.3123631874242
-55.8962164146407
-52.7027388591296
-43.8590028490597
-30.779287037838
-16.0418378820814
-1.71576279674752
11.8168784116097
25.7090492991269
41.1247266662311
57.461917590012
71.780192061494
80.1091760100571
79.984506559705
72.2810197376264
60.600944833907
48.7847608643331
38.8919938192555
30.8420261253436
23.0686803152508
13.6915613821808
2.06541966921574
-10.4471836185299
-21.5359888115634
-29.7490172551492
-35.2035858201112
-39.1290779120876
-43.1662194905928
-48.5557730228748
-55.199215697985
-61.268219316206
-63.8518341606582
-60.4579676029435
-50.7887774571243
-37.4751178426088
-24.4601148179641
-14.0405054411665
-5.5123026617316
3.50390579069363
15.0425654837428
29.7615420262048
46.4458267707631
61.7697228563557
71.4006887566263
72.4958137725166
65.4691613021954
53.2757689501753
38.9888674131442
23.9814104591456
8.2357211047395
-7.89288759132802
-22.6369907296559
-33.594777436813
-39.111960420672
-38.9517411416858
-34.5733177448684
-29.1788701511693
-26.3581901187021
-27.4052780286505
-30.0158856238348
-30.318620080712
-26.4539850338573
-20.265542339234
-15.6818565706131
-15.237690357117
-17.692048501157
-18.9458763759469
-15.3800869566241
-6.2605526993587
6.65600630541055
20.8498310039918
34.1020149963477
44.7486227134877
51.7305124340845
54.5703467912195
53.3794993671921
48.9783780824848
42.7099115085231
35.699164181718
28.2094347569428
19.7889810264634
10.0088641676017
-0.823494410373003
-11.4301931836382
-20.1594543252158
-26.1549679345567
-29.9076287428169
-32.5552557637454
-34.9134352838782
-37.1622617918738
-38.7551801667748
-38.2972233108038
-34.1838570605937
-26.0233627133589
-15.375004203515
-4.829311663359
3.77858531998725
10.4596110684909
16.5273557670389
22.9258768801392
29.1613930146871
33.8755227500924
35.9826137109995
34.9623363951353
30.7306908895512
23.9730774415543
16.2858485850717
9.33294062621862
3.83230950728522
-0.581550537465203
-4.81300356853767
-9.61475689445337
-14.9690116870512
-19.9559646745304
-23.3234228208373
-24.1352662547101
-21.9738663018729
-17.0197265688802
-10.1921795577767
-2.86563500134529
3.86955300864916
9.62200489504084
14.4859683787118
18.7117780311375
22.41978912802
25.1361326076501
25.6320509515458
22.7001985002357
16.2466803928285
7.46875934171828
-2.11275742492746
-11.9377656201725
-22.853457484507
-35.9399146617662
-50.5137590902118
-63.571721072551
-71.5656954422985
-72.5696535338068
-66.883111870466
-56.444769349894
-43.9146396717958
-31.1429159281875
-17.4911181800375
-0.169051827858148
22.5202835836214
47.6994233168049
68.0655747816386
76.4631214218705
71.2129085373281
57.2509713187097
42.0187814482348
30.3213630910617
22.7645536078797
17.7585911097583
13.8428070444341
10.44598900947
7.60875034732885
5.5612819375967
4.44522532084562
4.21121591452449
4.56256995906078
4.8790374601438
4.46900427712971
3.22427634364809
1.81470009995059
0.911441903206104
0.471987131879014
0.0416428209435856
-0.661513183286053
-1.70717867673771
-2.92462002605006
-3.6133771757344
-2.9057282358696
-0.860386080929175
1.18287630765613
1.68237503097231
0.168327980838275
-2.69450734283993
-6.16003063676033
-10.2327495509174
-15.2251612607924
-20.7658504962376
-26.0105621667777
-30.8647108267896
-35.8221021009792
-40.0102812814941
-40.577223077727
-35.1901109762141
-24.7448337744687
-12.8878409398218
-3.04660349284448
3.91113211268712
9.58865345320585
15.9643670385063
23.2287548711682
29.6410820299745
33.3605688768037
33.8683843995553
31.5309785309708
26.6947853264776
19.9143420365027
12.5684759686988
6.41464681711008
2.38983144464586
0.0277850249274475
-1.94252653989634
-4.34765941708534
-6.77075609794929
-8.06940456543718
-7.65545899330103
-5.98624879621743
-3.93577533199244
-2.19865177694531
-1.21670316256872
-1.0886073050181
-1.51876445687777
-2.24661459030109
-3.39903948812353
-5.04982955059791
-6.62305460518331
-7.16136342936796
-6.21143736885608
-4.28549279821234
-2.46276749481532
-1.63725754116958
-2.2327937810789
-4.50718083474642
-8.53635642117305
-13.4159278185881
-16.9237529144181
-16.8234577543228
-12.6573365886457
-5.94742017805003
1.32700857564857
8.30357595631843
15.4873200474517
23.541614457975
31.7301819958486
37.8013428431431
39.8053576650773
37.7935814679508
33.2621597589734
27.317735575638
20.2473475976174
12.754898081169
6.52813540562953
2.96956010992038
1.59729502945578
-0.0120010206594355
-4.54661675777491
-12.9486013540797
-23.8156560915501
-34.6240727529174
-43.3681867691938
-49.309768018118
-53.0031819804863
-55.8555283850744
-58.8152637603441
-60.9076108710066
-59.5584739886276
-52.814242946401
-40.9619068799939
-25.9253599337742
-9.71155741560314
6.2773715997157
21.0662617725197
34.0268552006386
45.0736674795554
54.4824087283471
62.1065311669745
66.9371778360122
67.9300509910272
65.1747974864753
59.5894037229182
51.494222316079
40.4474824723847
26.9118239391983
13.328681143594
2.80605209585418
-3.16544281008863
-5.47383464253065
-6.13759849966327
-6.59510390281604
-7.12616237485076
-7.60322702132031
-8.29430707750841
-9.45539887430505
-10.3834694952515
-9.78804966665404
-7.42344851044163
-4.73545597775673
-3.59036917388665
-4.77428182102263
-7.74876744453152
-11.2758206011573
-14.1465301842414
-15.8436011802081
-16.9293748469952
-18.8319897150769
-22.995056181976
-29.6248916345451
-36.7907887946729
-41.100119560729
-39.9887370133638
-33.5746097265657
-24.2258683662649
-14.5386934647358
-5.74610240623358
2.39446462462626
10.3977536101784
17.5171977216917
21.5134645198674
20.4213940295387
14.6585151318126
7.20877220382206
1.71573953530499
0.256382627762308
2.49813450384272
6.71676793143416
11.6765058936745
17.4539209594135
24.2859783895118
30.9311626300139
34.7741525929408
33.7221725115334
27.7908096676902
18.8782731942185
9.27923099445021
0.480591349431335
-6.83245054942095
-12.1181018736683
-15.0369550006807
-16.2419942058864
-17.1752608200957
-18.4439573501166
-19.0396576410127
-17.8087096437306
-15.1344105488705
-12.456724370521
-10.4340414119178
-8.22389951822775
-4.72111310689575
-0.308923827019855
3.04010516266506
3.92261477958796
3.54702996473571
4.64544117756778
8.14137369943764
11.8720352179061
13.0105442846726
10.9258385557401
7.32502502835209
4.46444007622088
3.74887164893404
5.39764391847681
8.65132287358153
12.2016852243938
14.7340392153979
15.3770773299527
13.8938817356633
10.541475759695
5.72864499884882
-0.0757211866623673
-6.0388025205184
-11.0103405454374
-14.4196428608729
-16.9859375566931
-20.0564217279462
-24.2859750404242
-29.1856387699769
-33.583210005335
-36.0199648995354
-34.9179484585304
-29.1080048732239
-18.784328456773
-5.96932236798979
6.54152024732814
17.1945564737356
26.2642308972978
33.9368247631815
38.5918097759454
38.2406612997153
33.3867860317164
27.1192475854472
22.1744943617925
18.7767785778862
15.4656058423336
11.2560320477343
6.64575786478457
2.81384310560364
0.211542877397997
-1.77265743667542
-3.87001381378409
-6.29565086057094
-9.21092069664658
-12.9347146179936
-17.0721823747518
-20.0721560741558
-20.4293074425533
-18.1223550081338
-14.438966104292
-10.6446188705633
-7.17043249680168
-3.82870084691494
-0.417847294204322
2.87554333079119
5.50185702180908
6.82882506540293
6.28979699828535
3.53252925314067
-1.05757087087291
-6.05360476238454
-9.75127788858632
-11.2943620540116
-10.8158124770937
-8.79861263773764
-5.69409352198446
-1.80480498897661
2.94914480538678
8.96632780653571
16.2500666406612
23.5863353800134
28.4353882520553
28.0903145372821
21.8080082218313
11.9509562422999
2.20315005534148
-5.62738469829241
-12.3852658830137
-19.2575230986036
-25.8005932541779
-30.4659796116169
-32.0095716292963
-29.967482894139
-24.6602567138243
-17.4696640659719
-10.709659483636
-6.35698194205552
-4.5007825167704
-3.31155578100899
-1.01835259738131
2.10640711171328
4.22507322384683
4.36024140556943
3.49186598368487
2.98376604495861
3.06680456752804
3.68463277589726
5.77156099701074
10.3381880570861
16.6308497202774
22.2642466546461
25.2673436672082
25.5934979781959
24.7677640953286
24.4226998097949
25.152024538187
26.4417555947682
27.2558229803322
26.4755516455232
23.2604761403915
17.7106874298184
11.1486216465323
5.20616239048067
0.590402593838612
-2.96591460008367
-5.74038441173648
-7.44555440423099
-7.65150816627479
-6.62548317050824
-5.60531314826349
-5.93783944652015
-7.83438759606811
-10.3084120247506
-12.3949234406617
-13.9888410811296
-15.6093583786616
-18.2024092489009
-23.2854762854705
-32.160974816289
-44.1739086572059
-56.1713714657586
-64.3039096415001
-66.3758963490815
-62.5233570790011
-54.1666995425632
-42.6421599575847
-28.6331395215017
-12.5355424313882
5.09153201558333
23.672674316727
42.5506125114392
59.8759858581811
71.9848145623225
75.2534632476194
69.05763622868
56.4537046156868
41.9568119740291
28.9827386639997
18.9671854745945
11.9208183213854
7.31366539551628
4.57089671732755
3.13109314036245
2.48584528431924
2.31868792026634
2.39911308591416
2.38829670604289
2.10086104883665
1.82351051259516
1.8911004043858
2.08020025639627
1.86659538722668
1.02169404018865
-0.527536279040742
-3.0864609331648
-6.82151111450601
-11.1238546485604
-14.7738636228868
-16.7071458466094
-16.5229253032719
-14.5798456973393
-11.8794278637554
-9.68568481461587
-9.04288405361882
-10.5216227755508
-14.0112546211842
-18.4157010537327
-21.8927871134707
-22.9440029097087
-21.3673114734099
-18.0912269110749
-14.1531461819398
-9.74410356571061
-4.13811266314124
3.23606974848114
11.5982333933528
19.0289437696052
23.8615964378577
25.4332780851843
23.7193450889426
19.1457706161492
12.8478320712411
6.23311085463992
-0.0447178616633692
-6.2206117265605
-12.4951374564862
-18.3910656931788
-22.9138050599589
-24.9438637295704
-23.6789947772235
-19.2698001793423
-13.1552472489966
-7.37610436300199
-3.06204940550787
0.584582227964139
5.52407410241246
12.7899025623852
21.2825187993652
28.7625548252153
33.5734920369795
35.0234812613089
32.8330842180993
27.338202618528
20.1462358328957
13.5946252907666
9.21728944310263
7.00126720137268
5.92322503253796
4.82660783110429
3.08424716417577
0.910509344113347
-0.946241093397077
-1.88943619722354
-1.86563637437612
-1.37973924339514
-1.33813070448462
-2.52196835038332
-4.92962946540027
-7.89940119514375
-10.9498006945016
-14.0904001312145
-17.2767143736851
-20.0270428125917
-21.6751315853752
-21.8009305131029
-20.6045419874602
-19.0072408834191
-17.9318797952745
-17.1999054055002
-15.5516052272727
-12.0265510976617
-7.06460859293359
-2.15443266834935
1.40580486689658
3.42938141161379
4.6713060373946
5.7100200360275
6.13454743899659
5.19179430562345
3.17544633496381
1.66301244039197
2.17405088431472
4.82012208723462
8.32547384156721
11.2317157702397
13.178693064873
15.0946611642608
17.9213518069992
21.1597558238029
23.0196293338406
21.9639841392771
17.796293924735
11.5552275673376
4.95453175961896
-0.285599063527836
-3.2667157772347
-4.2630658295775
-4.13114929056873
-3.51800736420191
-2.65332563698731
-1.53250756578089
-0.154594865114851
1.20821448082858
2.00104983847871
1.84055586371975
0.884061165584448
-0.364839210719054
-1.50294695744493
-2.57623587225037
-4.19135158710525
-6.98881483588894
-10.6875053203055
-14.079962309344
-16.3509115279436
-17.7903090544769
-18.6285151540184
-17.8434397830282
-14.1464079916603
-8.08523546430919
-2.36982407017212
0.253761917686116
-0.689942422697565
-3.26044657177683
-5.10235037014366
-5.46068526498212
-5.27590262066222
-5.73743412657919
-7.20669442311441
-9.20431924262319
-10.6303882590255
-10.0683429167139
-6.71529085655425
-1.2094260044526
4.83596987034969
9.93522789273771
13.0933530044762
13.7566574128152
12.2386572093876
9.97701019776659
8.72073717467638
9.31772692487098
11.2578318658206
13.1728462546607
13.9046048901697
13.4324959051974
12.6901600544137
12.352291814518
12.1150131496096
11.2608846200548
9.48641149896345
7.06913373595675
4.63500559588592
2.79926732333498
1.68555986375598
0.815386336965426
-0.323102407889002
-1.74274931607563
-3.08647994442701
-3.97579481854653
-4.12798936968362
-3.51457579406823
-2.53813531794563
-1.70001436018525
-1.04347835872556
-0.285095222962774
0.555306698041869
1.06034274389872
0.910866001325006
0.202882186391582
-0.623460282278582
-1.04268552810214
-0.842955314337176
-0.366044118517081
-0.23163477664526
-0.860793195655189
-2.24616767597408
-3.90199120634981
-5.09247161014166
-5.58013291281999
-6.13463325784289
-7.81253027574251
-10.7694990246663
-14.1693740202182
-17.021526600111
-18.6740694084976
-18.8500405361766
-17.7649014563824
-16.0423334404558
-14.2062725116029
-12.3984286801393
-10.5233733111315
-8.21102580156773
-4.7039473125136
0.556224569055321
6.96240490440471
12.6844651123499
15.8526843127795
15.9087908761913
13.9809444924506
12.013260166803
11.3015190219897
11.6730131656787
12.0838172060913
11.8925181495087
11.3898267340491
11.2907755867045
11.9662332660969
12.9936164731491
13.331405954737
12.2360830205869
10.0656641236651
7.81454489760766
5.92618371863387
4.04978140863148
1.88234751685524
-0.295989817017383
-1.99742498379764
-3.15420172397685
-4.34427471567538
-6.40649140398264
-9.69199860225521
-13.7564108606192
-17.8593802563604
-21.3881022266545
-23.5828318685128
-23.4721671170942
-20.6611121807975
-15.8720902794063
-10.3233222617739
-4.82987721059189
0.34172988551248
5.16669526692314
9.66763684933857
13.7473718606536
16.9558724035763
18.4534671859564
17.3787173897675
13.563913378388
8.14933719247786
3.29193768534597
0.791325985170524
0.875015945428611
2.4380386495248
4.20873845965188
5.39229036768717
5.63453427749227
5.05245229807308
4.24086253445159
3.79964582606576
3.78485450911444
3.65390166394158
2.63467000383636
0.314728706842441
-2.88503408506723
-6.03538604552719
-8.64758087113576
-10.9096980077067
-12.9306897170263
-14.4093490580874
-15.1696068591718
-15.2692455029585
-14.4636687163383
-12.4241724930808
-9.71734793572186
-7.76936456541689
-7.44674096590274
-8.00471844144845
-7.5944363835999
-4.7779725734181
0.173828990963247
5.29980326744327
8.47221317334287
8.99435102746459
7.66905375665799
5.7020257316165
3.96549603374641
3.00495118223227
3.10337363757691
4.189478449955
5.85987038810036
7.49831574603714
8.44425544563273
8.35427356745367
7.50727861990944
6.59806514769391
6.24174541394146
6.70783273733989
7.85281044186809
9.18300129666447
10.2669522218181
11.1081424464176
11.8199401510549
12.1535871377514
11.8390279433481
11.1447262288641
10.5133389479984
9.79550535084843
8.3418446830484
5.80275679935787
2.60715935556418
-0.244917102904719
-1.8543603668845
-2.10885546785976
-1.6825620606071
-1.34179587292542
-1.6421028918108
-3.3417042194615
-7.28728846054041
-13.361949782236
-20.0665294799366
-25.6615053113476
-29.5233890068431
-32.1763243317548
-34.1649309130151
-34.9749814262308
-33.0498075162801
-27.1020220183024
-17.6108552596979
-6.91593733080771
2.25319881067445
8.35026599874592
11.5438131189575
13.2482275489569
14.9340949499642
16.7412401921763
17.2794905726482
15.2350421525519
10.9418223270838
5.91035697760844
1.19956359199096
-3.08910005238379
-6.90657310024857
-9.53546813919427
-10.0555502455646
-8.37089619008011
-5.42895979188331
-2.15395702548983
1.55959095942597
6.21713058347561
11.2222450960067
14.8080726759396
15.7573925498421
14.7590693771453
13.8338291266538
14.5403553610456
16.6412557272414
18.3745321688135
18.1661425077992
16.093278043859
13.5259571367591
11.6156369105763
10.510302384532
9.67760015116544
8.3861092376834
6.03298001384447
2.52391773471009
-1.62602993373737
-5.65828446684478
-8.8111694614709
-10.2508640003357
-9.40223604586266
-6.72034095211463
-3.8106958762084
-2.49274750545754
-3.74748975339836
-7.35937328444345
-12.3220989577247
-17.7527997758813
-23.4234272161797
-29.0451608377014
-33.3658820865247
-34.9313183168079
-33.7136496758008
-31.0545646336349
-27.9501030187752
-24.1670320190437
-18.9747847108454
-11.9673438725006
-3.15848217692998
7.1095635454077
18.1660847721048
28.9741452251005
37.9408065204802
43.0233105469563
42.8430349705479
38.0832279554012
31.4188765252211
25.6652631699482
21.8356571977169
18.8956137073698
15.3824997568619
11.1976532203884
7.5369610420529
5.08843866557893
2.96385104905877
-0.141857879597121
-4.20122532689101
-7.85885455827296
-10.0108389445807
-10.9002893977575
-11.6379224620992
-12.8992831388223
-14.149333594605
-14.1542146272225
-12.3029434991146
-9.24745137781397
-6.12549360604674
