0.067681455522798
0.0742407177062729
0.147301148204637
0.243561568146025
0.244400243284782
0.13937083740314
0.022260579265622
-0.0704001661577156
-0.152047894508983
-0.188209259531862
-0.165512733910148
-0.165335050680938
-0.23099838569631
-0.271062569211782
-0.196392621929664
-0.0407789404567167
0.102748244455239
0.160008431601733
0.0973848752424724
-0.0483309982078628
-0.198739577046227
-0.315479078670642
-0.37833556295988
-0.330648985014194
-0.169673469532473
-0.0115981436180908
0.0574299938723801
0.0863788010162145
0.125563489278055
0.141793493520483
0.130804583750982
0.140939832775813
0.162346382217537
0.159321971090639
0.161432474381567
0.161553849357241
0.0544976621206347
-0.167484271570957
-0.342865678865905
-0.387502402161437
-0.392739793168866
-0.404361259780946
-0.35135753105318
-0.234634558045177
-0.144884697023753
-0.0812935821800875
0.0350120771052282
0.190771692228608
0.308049248430452
0.381781857867248
0.432612624155735
0.42505398620651
0.370422836575148
0.369429137557588
0.429929964508964
0.400019362722826
0.181135941658523
-0.129275588469673
-0.355586646869662
-0.400577505966903
-0.292925421575767
-0.1499741969016
-0.0625155213304624
-0.0120689424098038
0.0434651421355902
0.0729250625987806
0.050503983193676
0.0246711379139877
0.0200112277803624
-0.0001981080485911
-0.0237418013682979
-0.0056502946000342
0.0008906230692224
-0.0806020491383648
-0.185899692398045
-0.210429534683962
-0.174837018250647
-0.11809414729397
0.0186643578242071
0.24788162501635
0.447826697799171
0.520874741421773
0.471577805591654
0.308297184064811
0.0564918076324834
-0.15552903659293
-0.217889871880669
-0.199773750998835
-0.219914858048278
-0.24577756006248
-0.188694134783775
-0.0819717119477956
-0.0015206137551094
0.06491166893579
0.141204183404247
0.191797810660203
0.204978384539755
0.20978398006395
0.187102360590112
0.089853116420673
-0.0661335679219797
-0.217622483426721
-0.311112178767501
-0.31929396329206
-0.278002820920466
-0.278768055018878
-0.346538531405662
-0.408253578471481
-0.43697804099606
-0.476219090670955
-0.487259148026209
-0.376689911575111
-0.192717783368981
-0.0752837663171551
-0.033758849676724
0.0166895953019369
0.0795790894342945
0.12711142460282
0.192592322198449
0.26648869768055
0.27222904779268
0.23387165926605
0.266425536131916
0.363724232837837
0.409761502723597
0.39466188320195
0.40500589613584
0.433473114934495
0.402592554665956
0.324033188069741
0.254130705182032
0.173813660730622
0.0650301627182745
-0.0051777012008588
0.006096197147122
0.0467464100542722
0.0617835680577568
0.0308633482807675
-0.0621600094035519
-0.16940525573046
-0.17569280317777
-0.0715121881071451
-0.0035676445610175
-0.0642102430342861
-0.171054632647902
-0.207501741963914
-0.153414233883715
-0.0689159772352851
-0.0439823597108295
-0.120965068094613
-0.218783533094348
-0.224542813637626
-0.149859657342512
-0.0673706869027202
0.0255958887212064
0.115724800452778
0.0907909493116104
-0.0709870086530517
-0.207834182017103
-0.220588181696067
-0.197817949735727
-0.195871863068903
-0.143648760238854
-0.0337336062246284
0.0417835970590317
0.0785030649417441
0.14886718099319
0.213523178785963
0.170495813926801
0.0581084494529997
-0.0023452953824274
-0.0096241943470728
-0.0488950510904251
-0.139749325554269
-0.250666871005509
-0.353756646829688
-0.389543756529798
-0.304765483160457
-0.143828595315782
0.0118389879577507
0.148187452127689
0.269178773340389
0.33991775248994
0.345937816315162
0.305956605774755
0.221808615188882
0.122075335145926
0.0909406028283138
0.145852094841926
0.195284581149441
0.19322537345303
0.182060346053123
0.157176158471542
0.0871976709501101
0.0459778270163295
0.106999253638231
0.181026606974008
0.164313050017229
0.113006832317096
0.0920484435618135
0.0393605372268946
-0.0720690947543805
-0.148546177516265
-0.157656195765557
-0.184889371633945
-0.250777420289954
-0.273775884876591
-0.231702647771613
-0.171466583510539
-0.0810482734118151
0.0694540524992585
0.210030301911951
0.246029790855168
0.173528695747444
0.0270345450856008
-0.153038777929169
-0.252996442793653
-0.16931374795485
0.010944889477253
0.0867612448096545
-0.0036438492282864
-0.142563573185406
-0.203159678569327
-0.165078608465129
-0.113695359013199
-0.154078155198537
-0.272286766207177
-0.332354440611109
-0.269723397281082
-0.171582799881719
-0.108537311903635
-0.0481057569849412
0.0211722398296037
0.0568427614968213
0.0622758217030863
0.0590419321890585
0.0190163999115254
-0.0419758563959318
-0.0388673653641337
0.0154410819227636
0.0219305503845164
0.0273866334344781
0.174887502373064
0.393315630410487
0.440927318603704
0.284876349367546
0.139284647912473
0.111821925443082
0.0980096289461862
0.0299761965993677
-0.0356622003050286
-0.0688573184930783
-0.0798030965072247
-0.0264077502233139
0.107691135091851
0.220935529334717
0.216806163675933
0.128339599783627
0.0479336475467006
0.0226149706456399
0.0296645652197215
-0.0060523652663323
-0.122796844173549
-0.233070458629568
-0.225133881231698
-0.127828371141981
-0.0462843837591883
-0.0041621670993369
0.0185529763923109
0.0042729565240614
-0.0307834978275212
-0.0246703838984833
0.0105320435849768
0.0262663894157136
0.0727741922864802
0.183945955020126
0.221615327920803
0.0844579511334245
-0.0649163697603379
-0.0314673040319169
0.112450768173219
0.173628136538951
0.118304468167612
0.0408503889302512
0.0065956731853303
0.0317638113775963
0.0866974929942585
0.0805591364186629
-0.0324598366082036
-0.156316937760365
-0.189795895786262
-0.176719239800969
-0.182578605443887
-0.154364668470095
-0.0516841080920749
0.0341136976983762
0.0205924651797268
-0.052342590631718
-0.11875539980741
-0.154005173209099
-0.137483559653171
-0.0745131118537071
-0.019824087499118
0.0004959915679662
0.0099103775710407
-0.0013383347064671
-0.0602890068845373
-0.125669527816304
-0.141269772460488
-0.121593964497859
-0.0916064465151196
-0.0480237942244709
-0.0305963088105656
-0.0719799575170197
-0.0759314833378129
0.0544435318659233
0.216641873469959
0.251392559294391
0.185893267260251
0.132147581075389
0.0862787037773731
0.0084948448253358
-0.0572394955690867
-0.0802709420495832
-0.103445793262327
-0.129695648126656
-0.106173412358685
-0.0477931254342557
-0.01666158468614
0.007871478581476
0.0780680822099799
0.145110264194236
0.129575970755924
0.0463531679147991
-0.0575119206255311
-0.168022771518024
-0.23191985176804
-0.176106834281344
-0.0362397914318135
0.0862482730405691
0.170205500317453
0.23924956515819
0.263864495040053
0.223361179886099
0.163047013278655
0.112853574923017
0.0594937122820359
0.0133409711609615
-0.0125982782461049
-0.0514490317454793
-0.113796033908547
-0.161923566692545
-0.210307020697405
-0.302643076314798
-0.367253290047788
-0.282641725779368
-0.0763585235594967
0.119924065517937
0.244566978221562
0.283874784338301
0.214450718088926
0.101136996084206
0.0828830310051437
0.166434324328438
0.216767352162697
0.193629418230454
0.190444012649426
0.224842631569378
0.211146605398444
0.145479556242733
0.111010537590859
0.118501712630484
0.122766932183096
0.131854062922144
0.1445180958995
0.0947596594707842
-0.0149836744924491
-0.0721088181773839
-0.0297540759179611
0.0271398399550647
0.0239053658338675
-0.0292881586356987
-0.0902782045754524
-0.123222475396756
-0.135701352601584
-0.19519397341026
-0.316402536429668
-0.386764427005776
-0.333654158684323
-0.256927246342998
-0.251784546133078
-0.253533742391996
-0.196137703382443
-0.139542609284693
-0.124834580251414
-0.0985197938890496
-0.0499194996259314
-0.0357392692834769
-0.0567675116491401
-0.0725803617915292
-0.0886156432260452
-0.101979178340337
-0.0653297863010693
0.0014011387234044
0.0024392663344147
-0.0636781337569993
-0.0780811495923401
0.01076841690981
0.126584414253882
0.204980951990977
0.235378593256683
0.186750102805756
0.0658286476377608
0.0068446296887858
0.134936434023098
0.388175809080747
0.585957827568378
0.596518760741631
0.39550808459418
0.0790226059649008
-0.175241728534646
-0.270886249854214
-0.277922278808961
-0.283733623148547
-0.26743500685202
-0.186833707626879
-0.0634099679133782
0.0601096949625129
0.140157831280926
0.131215345624193
0.0561061603151746
-0.0011050492123731
-0.0363112831492176
-0.126223797453024
-0.259683957465782
-0.341949280107793
-0.35607830411984
-0.335213055972116
-0.241862950896711
-0.0630894431110308
0.0802878327298222
0.0852500087489977
0.0033752355866119
-0.079360829938017
-0.141297923259093
-0.142850837920919
-0.0338545629745687
0.113869819617678
0.170439567086169
0.157104287057126
0.197561794746155
0.282376980612887
0.28910617755941
0.198050484727335
0.100275098920258
0.0528604756956636
0.0617861474955858
0.112550882556524
0.146578586319718
0.130990040333694
0.153574045109649
0.301925547928761
0.491668369922494
0.558958114153874
0.463562051140713
0.298711474281296
0.17395141281255
0.135257198092622
0.125906435571232
0.0436262987798682
-0.100071478991176
-0.17052578760523
-0.118169192697839
-0.050003653303482
-0.054071975219145
-0.124315450725925
-0.247202388076345
-0.372498762207724
-0.373246577375536
-0.231146405689541
-0.128830513749135
-0.176088618916984
-0.230463099966464
-0.157237562204933
-0.0523188107425972
-0.0495494634836018
-0.115297521998455
-0.16731700005587
-0.207915855920833
-0.243233813300034
-0.241832136302326
-0.223669003317639
-0.241185291528922
-0.284248799733167
-0.330059944366972
-0.404422290027664
-0.48474448664074
-0.473661117789063
-0.35109742597172
-0.207999928478938
-0.0935163178953185
0.0351933062377531
0.219531170692361
0.452128578589677
0.669870409322305
0.759477859018175
0.672097253423054
0.517131561421589
0.423676152620532
0.389593155445347
0.387826940638385
0.45817122550063
0.552248415364887
0.495055436017723
0.243623701154422
-0.021597104962725
-0.15096903432096
-0.166735348545786
-0.13469292775922
-0.0970196872015945
-0.100013998926587
-0.132873491827086
-0.128611070000897
-0.118145166476805
-0.220137795436126
-0.416784431488654
-0.549161339861038
-0.576950836397857
-0.60873601604356
-0.651585854015901
-0.584351268050608
-0.394855419071012
-0.200219865879908
-0.0444109210681535
0.109620026040492
0.25055152369549
0.369732006151921
0.539089111446391
0.784215461378951
0.981827769670581
0.974655330852903
0.712295812053959
0.281296813423884
-0.134588316990919
-0.384526280875891
-0.483682609637309
-0.534162240420736
-0.550071041583409
-0.497928885449955
-0.430984456439416
-0.420462851899248
-0.44280051747174
-0.445907038429773
-0.391384155305755
-0.197491323588034
0.141910768891618
0.397636437182867
0.338783635656271
0.0773829595651818
-0.094255781744149
-0.10391140211359
-0.0702216853808854
-0.0251500228099223
0.0710872654939725
0.177075865506953
0.238142622256896
0.274503882814925
0.276122451586638
0.175378511856632
0.0080936890380399
-0.085044050976436
-0.065524692021549
-0.0113710619652318
0.0716005273917524
0.239463469625077
0.436765318584966
0.529291431079145
0.478870741941732
0.360466743902522
0.263932657809897
0.237234427575247
0.255032240305657
0.242735384086957
0.188197765641089
0.165291180528439
0.202669773836184
0.23403654998184
0.206004404035402
0.125643160571784
0.0126267181267197
-0.095143968756257
-0.143844190703657
-0.143857102649898
-0.145493589321099
-0.113684939784968
0.0106530075982827
0.146572391682901
0.17303572675401
0.125953958629624
0.0828290884787103
-0.0230293783694095
-0.245577780438723
-0.435496896768579
-0.429281726834562
-0.289576840132238
-0.184806735209472
-0.172990729600377
-0.232601558887833
-0.351417937379694
-0.47627858083721
-0.515172433990332
-0.453832871272128
-0.349440407870153
-0.224584159470802
-0.0993694360815075
-0.0491454325507846
-0.0979172101552206
-0.17215828387427
-0.24989143855231
-0.391327611530805
-0.57354317612785
-0.683010014763391
-0.687588780125164
-0.647180551232877
-0.581885863637543
-0.464388659589657
-0.286096446966601
-0.0518591394141174
0.21694792260799
0.466287801995947
0.676868115611361
0.877727804718929
1.01835026985745
0.98209802215205
0.806584837771596
0.68965191603322
0.712932061460611
0.768123510994518
0.762365299391583
0.682494774130197
0.510487890421677
0.281515788524812
0.127626376164844
0.0917143817773295
0.0391491340004644
-0.108362963445341
-0.23071103826342
-0.223796682559917
-0.163813805321657
-0.150832633028582
-0.179738944556664
-0.242729631988029
-0.366430334889028
-0.505590571519544
-0.581582562195678
-0.619213223066161
-0.683094416149316
-0.731348141904842
-0.671218762692421
-0.498971539394028
-0.305008384364923
-0.192053084685073
-0.185946331783112
-0.183029546711007
-0.0561075359117342
0.162788448323968
0.321250979518199
0.35044867573804
0.278166578973796
0.106697383686035
-0.134358369329478
-0.304621274941325
-0.299798962797693
-0.173190194200978
-0.0061617854068142
0.166664219559854
0.260038207111064
0.210836810993489
0.157931147730301
0.287674339434884
0.530099381458555
0.650295782093759
0.563140338768255
0.350196533301322
0.0897550522051917
-0.144293469824107
-0.25052771478655
-0.215245653280134
-0.128108692139517
-0.0032049199758145
0.24380119800109
0.589774350719209
0.870551161173352
0.986106381224502
0.967666434752137
0.868623327766578
0.749007591118255
0.693380915763589
0.71160914331789
0.71841613698919
0.677587642660951
0.637971117599992
0.609949964834801
0.54127652060912
0.40199427856027
0.197640226733519
-0.0489641995719484
-0.283645902687582
-0.471547617029017
-0.650449057139687
-0.839953580334307
-0.980066007812632
-1.06298387319031
-1.18117795319434
-1.3427538617199
-1.42493451736139
-1.3873092711569
-1.32199792778589
-1.26013667641264
-1.13992915841057
-0.944261079209261
-0.684398122288549
-0.341147976133745
0.0155743324653512
0.204781921155379
0.180966720052591
0.114331269662736
0.0963242216129259
-0.0155403304708107
-0.329589379064135
-0.716078148225023
-0.980729403578831
-1.03150561541919
-0.815601857721086
-0.324411691458382
0.289342248930329
0.78758717202
1.04928348758421
1.08938995097451
0.962437616295286
0.747737644371635
0.535890198456521
0.364563233756249
0.22003656115185
0.0802340450790058
-0.0812412310026657
-0.25558195284898
-0.357774727313312
-0.338629403755036
-0.295252535331955
-0.332754831124306
-0.405030254869762
-0.426880928574096
-0.396257431639386
-0.283705261255898
-0.0060835093733892
0.37937720940983
0.678982421217127
0.824497227804759
0.90948665729884
0.978148853983238
1.00789056213632
1.03320976349022
1.06879496614705
1.01346366067431
0.817110025186652
0.616630228560601
0.561205198659413
0.647242420711689
0.819740934750669
1.04734405199736
1.22092185775457
1.19786001452616
1.02341780855301
0.906127163417018
0.931442487548546
0.974528595563826
0.895988935142344
0.683380716980426
0.421817659218056
0.205739069484442
0.0562993740656179
-0.0646856044124025
-0.134726616988147
-0.0749374609036605
0.074944385886045
0.143682135467702
0.0461498618656147
-0.147144736156713
-0.371337507259988
-0.631893468110362
-0.939034880672069
-1.32620130167277
-1.84733530734782
-2.43639807960104
-2.91003409658648
-3.18598240221027
-3.31768180304987
-3.30679010582216
-3.11853016803791
-2.84855011366258
-2.61927351526998
-2.37129342094335
-1.99180328560681
-1.55819356368313
-1.23923583886653
-1.05026930387279
-0.885185281104467
-0.693232472914817
-0.483627358315915
-0.259513261531543
-0.0546323017178409
0.0637055024227507
0.0802026207271604
0.0292030383709289
-0.0572168448699701
-0.0886465082189196
0.0964841840083303
0.562688768564804
1.21300060156774
1.95556865535846
2.76683137236241
3.55273317051589
4.13101290240684
4.38689128209777
4.33459907935315
4.06161307264947
3.68496398354442
3.27779379563701
2.813096818427
2.28922416233318
1.85869920817561
1.67113406585575
1.67087148757098
1.71203176397406
1.75478416194251
1.80558668084491
1.81019373324273
1.71867415469411
1.52253970097838
1.19312076180129
0.719314274887511
0.178922032836695
-0.345855914630447
-0.842762201297333
-1.27691977500163
-1.57533759365646
-1.78805403866321
-2.07555220544339
-2.44424790790532
-2.70251534845885
-2.77126851370619
-2.82095556859127
-3.01739365137017
-3.33325450218205
-3.64807885079482
-3.84302190621067
-3.80507094773184
-3.51042909347822
-3.07995138462958
-2.65302006249486
-2.26986647130411
-1.9139523992611
-1.57746315135327
-1.27922721172
-1.07583027503573
-1.0003280670485
-0.968825018694146
-0.854509119673122
-0.635758414364417
-0.340698348396697
0.0628623663687352
0.545007816386247
0.908052721090631
0.988178627711232
0.832059206180412
0.571586264758773
0.327681994400463
0.279411559545056
0.548486873999445
0.99143932668874
1.39041688288528
1.82522056946519
2.56246197166397
3.60906527071146
4.63585854479824
5.30389290946044
5.464875844585
5.11912427112288
4.37249044315721
3.3874079895484
2.27060745932838
1.08628683947342
-0.0134675308292182
-0.847264791811344
-1.40035730640323
-1.79053534108661
-2.07204352758799
-2.22892238846287
-2.2995693412968
-2.38374225318328
-2.57001653439491
-2.86368203170094
-3.09789871014155
-2.97728706818822
-2.32967590773449
-1.25232511562791
0.0286677956519619
1.2865715189999
2.26490359658961
2.74627680103381
2.71234243733429
2.30628675929982
1.69851198280481
1.10556450713192
0.754511736012195
0.659526632215017
0.623182288719844
0.55996250030366
0.573900354399175
0.665906045476375
0.656362464439513
0.444362397746325
0.0911599092386746
-0.346294010005016
-0.834944767565827
-1.26522179971585
-1.54320140682838
-1.72946496466643
-1.92220385453463
-2.08640005409219
-2.12946079827877
-2.04016258994499
-1.86261478114341
-1.64683453489438
-1.45287366558608
-1.28556462972521
-1.06290732974986
-0.754927652492169
-0.454120259311574
-0.227301342180953
-0.0428264323020553
0.101881439764949
0.138326519423417
0.0381947737296812
-0.154259187083773
-0.371322985205839
-0.52420450757977
-0.540434536597604
-0.442435876535159
-0.288926440763064
-0.0714365578190298
0.197544273923421
0.392951400520756
0.439126451176937
0.440355652801408
0.514474597987598
0.656727854959052
0.850252426248562
1.10250254786637
1.32521448686173
1.38960910153246
1.29445789275399
1.09220844432961
0.741880754553306
0.251711366259369
-0.142425019092445
-0.166567432967744
0.197058603358747
0.754498925472222
1.31864331778733
1.75678625333377
1.9808172655413
2.02935521039035
2.03070134930226
2.00902493076191
1.85573112086027
1.51103776193195
1.06091433588215
0.680157229253754
0.534047050792765
0.637043653663452
0.780496822758427
0.723311717468741
0.445138437173455
0.102213502243145
-0.191658612337589
-0.429020676333462
-0.658719876015086
-0.957585974167333
-1.34789322686098
-1.72793041839499
-1.99728267575889
-2.18727059922402
-2.34933708345596
-2.45435682006944
-2.5147718552473
-2.59950360020747
-2.62891813269318
-2.40564232842347
-1.93910929290808
-1.51191778138836
-1.39083630485921
-1.65669142703884
-2.2379859436502
-2.87963000289165
-3.17390666095426
-2.86512075474197
-2.07008958806454
-1.05923994434281
0.0359761632825629
1.16181627544322
2.18934414427787
2.99444591633384
3.54064105282431
3.79428971912162
3.72362452317343
3.4124192659316
3.00966437461775
2.58213033416558
2.15611203254907
1.84312745954995
1.77805469118262
1.92999087595645
2.01762586759515
1.6546621613996
0.69254180728842
-0.550563189266695
-1.52414930608758
-1.911963386854
-1.74832709077821
-1.20039628910963
-0.498877244562224
0.0181562215856114
0.109890877123652
-0.13504184501082
-0.460126745969789
-0.752470784161446
-1.0760843890101
-1.53501928112532
-2.15825527825831
-2.74646072237139
-2.8525916075743
-2.14053811520567
-0.746985169585342
0.871219641262172
2.32933042242954
3.38723845120939
3.84939764689233
3.68750843706539
3.15920689673698
2.58640389479005
2.09645709144659
1.67453140456555
1.29073923340116
0.88019121854373
0.366745522322576
-0.235781142410389
-0.855445649388878
-1.45403295732577
-1.99920341108229
-2.43778239027863
-2.73658574456926
-2.82110666952787
-2.49594306088702
-1.61172545029139
-0.317142906864643
0.971373920728897
1.82838480191213
2.03978021716011
1.71059596727155
1.18682159118139
0.750858762704038
0.428866719072372
0.181885905326623
0.0956751324036792
0.20485832881154
0.334326030656917
0.306211245336528
0.130136885295933
-0.124054361877366
-0.447578483010005
-0.820695111468954
-1.19665893114026
-1.57299646791047
-1.94577749156582
-2.25668929544766
-2.51295660284894
-2.84754898738679
-3.33200554850997
-3.86585837671802
-4.36050500193512
-4.85164062414253
-5.31256541928916
-5.54011964438741
-5.32633149041927
-4.60429305631349
-3.43485339548634
-2.02438003174934
-0.698107559436995
0.330545648096878
1.11469406548885
1.7907558872761
2.34190147809079
2.63096310075418
2.58073382366689
2.27242665774094
1.9124209317242
1.69782182289951
1.70185338353387
1.90509472132168
2.24479419906934
2.54413628863213
2.55588177266264
2.2506350792959
1.91447783684789
1.816708134013
1.97037469844353
2.32089551710996
2.89951562286987
3.66421667186619
4.43543284470843
5.07932963614556
5.5661547335487
5.87143255166564
6.0374325642009
6.27304101455303
6.76982501382238
7.47512208178788
8.21049839253301
8.88929050265673
9.44634787483653
9.70990828812973
9.52021041818672
8.82888899491222
7.5666970469237
5.606864944021
2.98339099922782
0.0114811174121587
-2.87201133939826
-5.33445948848929
-7.28558346441265
-8.86945928490093
-10.2478606407665
-11.3848780363385
-12.137820965274
-12.4793847261527
-12.4930750958004
-12.2802752340551
-12.0263184234134
-11.9703359334725
-12.0835579641106
-11.8988166931253
-10.8796418749261
-8.9817415351151
-6.80513274354877
-5.15239507315969
-4.33882934064575
-3.93870998378228
-3.32750642017784
-2.385414862384
-1.46406727221263
-0.817791240102696
-0.396712795791034
-0.0997207515334896
0.102299717027071
0.253593823915582
0.38400828235395
0.451033422296117
0.458169204365118
0.502850375787715
0.608341314460796
0.717175468671191
0.944859927447462
1.58316869849313
2.7501456324044
4.26050667379254
5.85050932061727
7.27213479791844
8.20752286399924
8.39504502511492
7.88012537652647
6.99518490126717
6.11314418316129
5.45399046059407
5.01547055667142
4.65776055010264
4.33092376935405
4.17644700056242
4.34666191121445
4.81402423649524
5.37099069308911
5.69072284158565
5.45434781193901
4.62616284563954
3.54608247988673
2.58739131958429
1.84942249991314
1.30407662006319
1.00324156988373
0.971586134029803
1.10059597685936
1.26855408111111
1.39583556593041
1.35472228298866
1.01258195567959
0.378949966406813
-0.417874277847291
-1.24434272696926
-1.94507000457235
-2.35205976716215
-2.47960240715034
-2.60615407256204
-3.02670057607657
-3.80639766478596
-4.80600842331382
-5.78840509120041
-6.49301288612137
-6.78259612227789
-6.71915885689602
-6.40385099580085
-5.8536029168759
-5.12738953594766
-4.40983565355662
-3.85879320087242
-3.48088820439354
-3.18904946001792
-2.88580962533067
-2.51831365931973
-2.12023551868254
-1.72906632113637
-1.26322578700266
-0.62881519160064
0.0871692052005303
0.710406774274046
1.18468085622819
1.5085713022607
1.62819976424837
1.58678364415037
1.58952606348297
1.74111031866209
1.89629296545739
1.86719335446105
1.59183913780646
1.08858138812987
0.47152358363671
0.0004702052536666
-0.105053911318494
0.116278016794507
0.498832625758878
1.00984463679686
1.70515128802934
2.53391414966839
3.33680021854981
3.90811740964882
3.96559657587772
3.26135774011473
1.85587235245287
0.15660692561988
-1.36702754105059
-2.43513440207905
-2.99784737701173
-3.14758211498257
-2.96121623824294
-2.41199226110085
-1.50167949868964
-0.409859747672682
0.622299033684862
1.50832893140961
2.34673188570304
3.33833734066869
4.6886112373186
6.41244302501039
8.21713261062209
9.73638283892349
10.811950647506
11.3661773229015
11.1436148869861
9.82240905986975
7.30925461053719
3.84013200697013
-0.0303301141988662
-3.52910898939883
-6.08765537808897
-7.79978638150426
-9.24163132724545
-10.7802155798964
-12.2647590162471
-13.3965093122275
-14.1338809203068
-14.6484319229091
-15.0473026631314
-15.1978476169935
-14.7572448845205
-13.4134501362189
-11.1492022702654
-8.2132875290437
-4.87888938233739
-1.37663340309011
2.00766235419618
4.97911575914679
7.37416871810294
9.15584133684343
10.3266847035485
10.9023240708631
10.9215329508205
10.5101502827952
9.96112140415987
9.57166588266681
9.28668662928624
8.70597332380171
7.57902785348641
6.10677025576083
4.68971394601855
3.61153669350078
2.99592144369625
2.79196341645604
2.73401058750119
2.50228737400343
1.94374644664548
1.07944278970852
0.0421844408835648
-0.905142417009987
-1.46471086911765
-1.52205304302134
-1.19425061401418
-0.721008421802147
-0.443526984295162
-0.736780599477635
-1.69203151913492
-2.93537826446418
-3.98752252104589
-4.73011172998822
-5.35462000337345
-6.00809595785474
-6.67648841613541
-7.26604303606069
-7.62669239078738
-7.58611682869873
-7.05714792980574
-6.09738051992483
-4.90452413560413
-3.75112865607916
-2.78316509704724
-1.87243577898383
-0.823890468742415
0.299557943150843
1.23063125464377
1.82206318028394
2.1598429876594
2.42189479886013
2.73397286945645
3.08384672139276
3.34963731045281
3.51589332495364
3.77755322238549
4.26273719104513
4.80075249951664
5.16669324170587
5.37025751787932
5.50297670298366
5.50957549959327
5.29879263482252
4.89491871405314
4.34812278420369
3.65869935666635
2.86350122111709
2.06387317534806
1.36393238061965
0.89377731300069
0.802615781463942
1.06071101911142
1.3696750453682
1.45118749407772
1.34994620179155
1.3459200635053
1.66792993886322
2.30411054015434
2.9255529634637
3.02824736668903
2.34965053103446
1.11863168302858
-0.227445119234103
-1.48134687130653
-2.75434017284872
-4.26505431391809
-6.07972444354794
-7.95662435767466
-9.49819359826592
-10.5434251240825
-11.2721278483339
-11.8660990102398
-12.31245367496
-12.610323584032
-12.8666922297211
-13.0684890481802
-12.9806914719445
-12.309630847494
-10.8135566408622
-8.35413676271363
-5.03047685730489
-1.16932301889108
2.90486293886792
6.93250161920466
10.5532672044334
13.3507122741438
15.1156387936113
15.8474451720589
15.5162144331172
14.0946239117695
11.8303486636686
9.23709242820961
6.79210469825784
4.78036005509687
3.31804226631729
2.32209510605797
1.54026944617777
0.766684656879145
-0.0125355347154231
-0.686381122522605
-1.11644172475725
-1.21712314444004
-1.06488343321261
-0.856660463564893
-0.680421728436594
-0.43439305310986
-0.0064381383299547
0.586332915782996
1.20396063245994
1.59852666427065
1.51543802578496
0.932487490448128
0.117906031022988
-0.624850667929268
-1.15427029881934
-1.45430886604132
-1.61311647702589
-1.82359570966767
-2.2093587378454
-2.6917526205392
-3.14908972918002
-3.55740112205519
-3.85824963112893
-3.89150405929362
-3.58416318968622
-3.02676653312103
-2.29356200424447
-1.37013084692047
-0.293018499720171
0.815940768280505
1.85557209682145
2.72459339450361
3.24422431863141
3.27479893978481
2.86803751542797
2.20611327217449
1.48712690085892
0.90155911874295
0.54310202784671
0.304780955554845
0.0110400026608971
-0.363911237149363
-0.710320958252727
-0.913551261294045
-0.88063998577192
-0.568436140656508
-0.0498622543615862
0.560631509118947
1.23535887871363
1.97061488129145
2.66184413314853
3.15029605966675
3.31885682741343
3.11980446250428
2.6449386742611
2.12852908350272
1.70827316048226
1.2864033826472
0.790422913184545
0.354788016940715
0.0385018909692429
-0.386772866548052
-1.15890835471573
-2.26287202412188
-3.57089158636731
-4.97798936099992
-6.28339611648742
-7.19542734171883
-7.59316777844616
-7.63263771541656
-7.54123775475418
-7.42110752084155
-7.21540973900363
-6.73523663885602
-5.79711318947714
-4.45679458648267
-3.01052270931321
-1.70551839466479
-0.599255764646938
0.292511551915257
0.936986946655643
1.41304622367233
1.91746476742384
2.60816796811546
3.52294412324767
4.60786452982531
5.75862893284165
6.86166076635069
7.79023895447763
8.37144923845347
8.4959951589801
8.27558451087192
7.88276604746117
7.23982430065743
6.15149400740127
4.72534884677519
3.33168690272008
2.19163680503265
1.33066794308853
0.819543330138438
0.683674673087592
0.662754579797798
0.393691814115743
-0.210483819864424
-0.959643875654697
-1.67420132328249
-2.34141573542711
-3.0753145607411
-3.97957108920077
-4.96439416542861
-5.75008214073764
-6.20675085487218
-6.59142596695635
-7.22990156102566
-8.06313827466567
-8.72858862063345
-8.95975387360208
-8.6630050360444
-7.71509479596608
-5.96164958560364
-3.4684096873146
-0.668286868755502
1.83892257601245
3.69866743407091
4.98339472049487
5.90794903885097
6.4861780750425
6.61577064672045
6.37304891275467
6.04468252181259
5.96582004680197
6.40445191716262
7.38865671998781
8.53022044504759
9.20797194165462
8.98446283897125
7.71749846483236
5.43818915610488
2.44123135200251
-0.638361809105035
-3.18802121855469
-5.02952171717269
-6.33483622693974
-7.30992274323858
-8.07102117913313
-8.58292886452839
-8.57682722600856
-7.73266318201924
-6.03598979589276
-3.77576395207815
-1.16987945752127
1.79560081039741
5.14083659308086
8.68172760229302
12.0118089486948
14.5591103162114
15.7605553553482
15.32364248453
13.2913589613568
9.91134952698224
5.60618236756655
0.991909109585738
-3.2883898624808
-6.75714388156476
-9.14092399073969
-10.4395507649345
-11.0154352404882
-11.3826590771066
-11.8296245390262
-12.3601569300768
-12.8894641055649
-13.3061839442121
-13.5010064515853
-13.5283308943713
-13.5243649173075
-13.2590471734437
-12.0124284289011
-9.17162056805328
-4.89980514175735
-0.147874265776971
3.94800233526587
6.77450260808846
8.50209754682015
9.6354529990877
10.3501497068506
10.4513294851806
9.91296287728586
9.11332316959579
8.45224114381275
7.98965786263547
7.5407010503333
6.92733041589507
6.08897136703555
5.10031489000089
4.09628769102531
3.11524184589607
2.10905812046092
1.1410940976694
0.395116093335024
-0.0532015812191407
-0.306623233772686
-0.517842350508934
-0.873075894348847
-1.62343666379582
-2.9169618165156
-4.62162415585384
-6.41638191970711
-7.99681544162997
-9.17460230648076
-9.90614269194944
-10.2562891913954
-10.2582323700218
-9.8272096650097
-8.821431522969
-7.09752609696592
-4.57834341524032
-1.47350912993927
1.64968911961774
4.26917328876079
6.31145995309791
7.98429743285184
9.41248045256454
10.6429655275155
11.7647855888918
12.791707368553
13.6011131455267
14.102491609465
14.2539172566184
13.8693412876399
12.7037459350221
10.8249334124106
8.6569993663371
6.58673897181465
4.72601961690099
3.04543177012344
1.49450065637068
-0.0176907453353471
-1.55278507451105
-3.01812283863523
-4.20144506353958
-4.93543555846647
-5.24258933052282
-5.36879453298213
-5.62059345325761
-6.10729153907118
-6.69294235889351
-7.17940141563172
-7.41666123254317
-7.29845306036626
-6.83479433941454
-6.19241392604271
-5.53709867866626
-4.92336244259128
-4.40004444228182
-4.0413834467407
-3.8308709168663
-3.74057542047346
-3.9195368597325
-4.53951186031469
-5.4944590730373
-6.50396695879121
-7.40755978049392
-8.10310275581885
-8.338396157195
-7.83626349949903
-6.54739378034015
-4.62015735805413
-2.25078132010222
0.287357686818471
2.5841185407969
4.20088925703033
4.81864179094036
4.33935518056956
3.00835931876858
1.40389761465364
0.137999161373893
-0.427487127506361
-0.165832284934929
0.875435785287641
2.3947659468239
3.91242821112286
5.08911670867095
5.88892690857274
6.41497729566069
6.69687219071341
6.64932423647895
6.20245403994436
5.49402363496916
4.86032761547924
4.52102405327016
4.37495945459141
4.2559145689385
4.24306463694946
4.51638139316349
5.00199950125842
5.29934285815888
4.89973761733932
3.52096809780041
1.41836963156955
-0.697486466789778
-2.26310905057805
-3.29396912470254
-4.07095360114756
-4.62750944163112
-4.78090733578682
-4.46737079190813
-3.80256111592617
-2.93642222700264
-1.99862224339102
-1.06471136253554
-0.108998624502146
0.848054071071343
1.53102919073011
1.56770335356193
0.894888446223046
-0.158397507356655
-1.17258643181544
-1.89899445179158
-2.32578910596227
-2.62702677090692
-2.968944323742
-3.30016597563363
-3.40968123056938
-3.17886678875582
-2.68558537794892
-2.10361094409168
-1.56782561024232
-1.09382797305125
-0.635473878127559
-0.274961839206664
-0.251595673995933
-0.701425754138792
-1.50179842853548
-2.42601325461431
-3.20849282587474
-3.41142493632269
-2.60331523829919
-0.860665029103221
1.14093463399607
2.63547188358445
3.2336797610821
3.00877035190287
2.39046966590131
1.90256483127569
1.77969554949017
1.86960431617097
1.96574431818167
2.07239028155355
2.29126523702723
2.67213551083767
3.26893678133121
4.15874241551529
5.34764547820129
6.79633877094739
8.46528431404948
10.1173358586911
11.1852691075104
11.1360433922942
9.99100185115342
8.35449552861692
6.93250756480643
6.0025094318163
5.24091592983593
4.08801709303727
2.34658442631295
0.322967330613494
-1.63062329436312
-3.46529179242104
-5.25007387861716
-6.9118659200738
-8.30939739436625
-9.39516132375296
-10.2111525842574
-10.8415515623342
-11.4207621160908
-12.141147043555
-13.2172222051734
-14.7179660343172
-16.3124848958531
-17.3391048660421
-17.3376963861912
-16.4020203766555
-14.9033347558524
-13.140455142617
-11.4171040841174
-10.0935913611556
-9.25526436639143
-8.55984015131313
-7.63070400184092
-6.36103504016955
-4.66236016915178
-2.24362695003417
1.05803927224007
4.89402667228329
8.57004201631841
11.53529245842
13.6687209251513
15.1967757665992
16.3764088174594
17.2537834537822
17.7669585849308
17.9959782969345
18.1469075242091
18.3257654416264
18.4422152105236
18.2558502441045
17.4512160028527
15.8240484751093
13.496470464013
10.8724893469717
8.39011849853538
6.35846396780978
4.86048848648927
3.68577166981848
2.53939426292823
1.37326119588989
0.236971401872717
-1.17770369311471
-3.36642941635838
-6.24891945271191
-8.98505497406534
-10.7501630565514
-11.4561232675536
-11.6022883473993
-11.5913907307287
-11.282290698708
-10.1735332354083
-8.02367168066825
-5.2588489940839
-2.69674148666148
-0.952751200046166
-0.246327336122566
-0.590858675240334
-1.80819603445426
-3.39562413082369
-4.73236066242843
-5.48525910240751
-5.65628852571536
-5.34569806230847
-4.68662203760734
-3.90064020266879
-3.18651510690526
-2.56114414737187
-1.90762121628335
-1.17923124402808
-0.533712282618724
-0.241775079295592
-0.443309278334549
-1.08035413185213
-2.11617721891457
-3.60670493716607
-5.39176844544588
-6.9571154260096
-7.83892124442104
-7.96151060821096
-7.39065540637415
-6.0164041844809
-3.70333188342322
-0.579494663129033
2.94365845055535
6.31967914026236
9.0794493625746
11.0525060190542
12.2897767977176
12.70135629064
12.038639275981
10.3834140928723
8.36024746354961
6.65781511238054
5.55698351298141
5.04028516926631
5.04761738481415
5.41311381562813
5.77854304298926
5.77858203424748
5.24711255518425
4.24158966532411
2.98519962383336
1.74700963274058
0.691158958409761
-0.115795937898516
-0.618114351259139
-0.883090070510142
-1.22353005437306
-1.93994068792803
-2.9318887012866
-3.7348268399634
-3.94094879726095
-3.53782400513795
-2.92485540353518
-2.61259410607475
-2.79171289583351
-3.2146530355882
-3.57776263535108
-3.90062475722299
-4.42882704543048
-5.31068088042026
-6.43756342168546
-7.44264255010748
-7.88236932306435
-7.64502165152194
-7.11703552084595
-6.70683707620372
-6.31730224437301
-5.55372297215472
-4.34994188230661
-3.13602292555563
-2.42677658304838
-2.37215982793218
-2.62692998795875
-2.59266631394507
-1.90745106152177
-0.732480424279711
0.542285952431815
1.78276342767381
3.12093514105707
4.60737626188056
6.06083098686469
7.14587880502844
7.48746670603494
6.94199062550869
5.89079345792906
5.02835910144081
4.72679701671701
4.76980642809395
4.75291531729011
4.59122497424191
4.5978554600885
5.13081041347541
6.17920463859945
7.34596504859045
8.26074487457276
8.83436235063459
9.0062624862264
8.52084959432374
7.2197040698062
5.39281721131345
3.60654103719338
2.23156480144886
1.17834558033773
-0.0152993477772887
-1.78567127730165
-4.06504094133671
-6.2594479768841
-7.81582141283526
-8.66960745794758
-9.04406284186542
-9.08363827586196
-8.90228618860001
-8.76323988446449
-8.93485417452048
-9.44458509416405
-10.0837121826272
-10.5461462985759
-10.575027854282
-10.169523305798
-9.60352984306402
-9.03407950742197
-8.18789669706912
-6.64932471791683
-4.36723815755057
-1.73911761397259
0.690570726580456
2.5582225602182
3.87606946751553
4.97265003633584
6.17131887705802
7.55732823475579
9.07903614749614
10.7211224943289
12.4880697813396
14.3126829484078
16.0031922353614
17.2203530019668
17.600005355598
17.0021573500013
15.5475528477183
13.3995787926223
10.7122795240369
7.78263467452755
4.96720929546905
2.39664214934949
-0.0343245020789761
-2.43360503433077
-4.83091614662781
-7.19503814171263
-9.34606762893069
-11.0051065561162
-12.1246556904582
-13.0545008866889
-14.2517184666471
-15.9183900726119
-17.9072836243276
-19.7521744334027
-20.7741112064166
-20.4104540942315
-18.5257184066388
-15.354721749581
-11.3261859689962
-7.11034984842795
-3.577460847386
-1.32161390378767
-0.153714516605213
0.829440340793684
2.58992885720423
5.41834463381042
8.72282288558261
11.5753197084472
13.5127408872735
14.7509676521573
15.6684148515501
16.2568183461185
16.1209577603172
14.9496801093638
12.9867209891243
10.9745928234365
9.48271716298267
8.36742926373181
7.08371520876126
5.34748691414892
3.22931127447474
0.906679684448706
-1.24484624424875
-2.60029375741395
-2.86401781539645
-2.6010411696094
-2.80138643046763
-3.9567960734658
-5.72944997486606
-7.31085562057787
-7.92718594571889
-7.29308006691523
-5.85625006310426
-4.43003529834541
-3.42858117140541
-2.63758262699528
-1.76329196939493
-0.908181948311234
-0.416662495505998
-0.492968747769206
-1.07043294517384
-1.92619513660092
-2.84119854049411
-3.63438297948562
-4.06921721612901
-3.89068006653718
-3.07203468621786
-1.88205755097205
-0.587281410066184
0.754963882513108
2.1008410912348
3.19328956597032
3.66425719010541
3.31528448902415
2.33052311035719
1.26978273418795
0.686844111371982
0.634445103437583
0.726998857238148
0.751156513229137
0.911796029018974
1.3554989849463
1.76770789304042
1.65418116054133
0.88357672055606
-0.14031815063832
-0.764601990733918
-0.574841141463798
0.286439422352912
1.33185689633153
2.32838990208559
3.53430347302077
5.19776999206757
6.97665533703147
8.05162216308722
7.75812931346187
6.03995509808475
3.40859413814406
0.563713134707001
-1.9789093712649
-3.95912351129189
-5.22784225177536
-5.71733189790324
-5.53735795674189
-4.94942378239579
-4.24125765529109
-3.65755594577659
-3.32320022968592
-3.17443928279475
-3.09218609827165
-3.07744752394776
-3.11893339826518
-3.01477601502312
-2.63080473845731
-2.23045886128506
-2.21346723437685
-2.59441666391169
-2.98195899972538
-2.92417950610925
-2.07303861691057
-0.261934152282437
2.27472000813263
4.85190733452673
6.67646495754417
7.26015703141678
6.60258140993733
5.12672064058452
3.37549482984128
1.64627006781647
-0.0414115422030832
-1.66203829936483
-3.09840465085822
-4.33036092993562
-5.3968121995932
-6.1380966702593
-6.30642027452194
-5.98149150935219
-5.58033072470955
-5.40634506560197
-5.36249330048047
-5.03887145527439
-3.95571262751004
-1.90669721058131
0.741176590765042
3.18274404275468
4.71366635697015
5.11172421748005
4.57724603701368
3.47843274741713
2.16797849806848
0.945174966126259
0.103546994065679
-0.151644739601285
0.0419500740647354
0.205765850725216
0.0096048449825114
-0.337237639345045
-0.34230625018174
0.257917883411275
1.33834762660819
2.54225471094661
3.52757734617738
4.25540663711276
5.0554999544817
6.23271381667725
7.67341359055114
9.01924456510724
10.0660827726323
10.7016711562178
10.5820352734547
9.27279480604033
6.7943698348768
3.78158320408527
0.995644969091752
-1.21369546851987
-2.9339467201423
-4.29828163656681
-5.18825299004425
-5.37294305773691
-4.85914847402814
-3.96662735620599
-3.10094534979611
-2.56976568314899
-2.46987449367694
-2.54524953976616
-2.34336675334465
-1.77577080799424
-1.33037402393465
-1.45372969662653
-1.91526699071516
-2.05247130973853
-1.49361851344349
-0.419272085927385
0.802582269124358
2.10514841007591
3.79733343732634
6.01275624559845
8.09549518750444
8.8973816212828
7.85158915338918
5.43176811640611
2.44968041436098
-0.670720547933295
-3.76211749749802
-6.53308682888061
-8.68755701349295
-10.2687537343177
-11.6521402424745
-13.1761515072475
-14.7717196164541
-15.921844415068
-16.0595244571145
-15.0507428497709
-13.1923442726951
-10.7759522407217
-7.90140496087562
-4.73912925667562
-1.68295854894733
0.857032442437993
2.62542182132105
3.45639598401298
3.20448904632837
1.79492823204452
-0.640650435079721
-3.55440014983597
-5.90087306547139
-6.4842901598197
-4.63760845094686
-0.788318842210712
3.50086000475868
6.30870059416807
6.72971556875409
5.66415815048436
4.96872003462948
5.73159179829292
7.5499223268094
9.36084789589039
10.5988580578735
11.4932289714196
12.4806987460253
13.5013220184107
14.009680623069
13.7355737927885
13.1382339185577
12.7846198581344
12.4916540060115
11.5065451413983
9.48244448488758
6.95108031281054
4.82448988841741
3.59371833574827
2.93039737696949
1.93456862302708
-0.11231142656631
-3.11867586478831
-6.34844169694379
-9.11736392350932
-11.1197735486945
-12.2331602021051
-12.413104917104
-11.8090013883686
-10.6910799298572
-9.20951218793408
-7.38723877822412
-5.36022760873103
-3.50027785687957
-2.20354730560733
-1.51071922793826
-1.0174050060124
-0.312617774019034
0.571409556380354
1.35652471120706
2.02403136225469
2.78205523330359
3.63614225566209
4.38204181133504
4.96068545945511
5.45404108809605
5.77192543289174
5.65542377426166
5.00113872089182
4.02475868503949
3.11068557544506
2.51254934567787
2.15643109661057
1.83251853028405
1.62368467469142
1.87540474349515
2.54689242412177
2.86104697695355
1.90360261724919
-0.550694269981044
-3.97616269688775
-7.65920530882412
-11.1454522254334
-14.317000554132
-17.2102903266799
-19.7095293550461
-21.4520261307169
-22.1418733743077
-21.8353178572094
-20.775436924795
-19.0649409692126
-16.5877054115197
-13.1683099848241
-8.89815061551438
-4.45023947654299
-0.80445943226292
1.71624253594475
4.00338414987925
7.40111497154482
12.3724548523463
18.0200126734159
22.7851023522341
25.514589117773
25.9916249929831
24.6208458442352
21.8124638666884
17.9194807862245
13.64919347542
9.98517740074811
7.44008151205388
5.64295315395429
3.79914135190722
1.38514745882972
-1.55367780824324
-4.48297886834449
-6.71762555087603
-7.90008252795817
-8.19188062255995
-7.92684695560473
-7.17588925905706
-5.73439659688721
-3.38938000700286
-0.138460202966111
3.63345376817319
7.1082430913846
9.41968706763167
10.2717581318037
10.1208099102259
9.72823723223577
9.53974172483312
9.32531036605145
8.27435498895882
5.58077224452653
1.15880946001954
-4.14495460996131
-9.0615045303361
-12.6961695680026
-14.9912510524529
-16.4931423054023
-17.6165660032996
-18.183112701575
-17.7667953898176
-16.2703971239893
-13.8419071218076
-10.3719416812362
-5.50689995645992
0.726114612920639
7.40041506946508
12.7634568866238
14.9972287703848
13.4084188660236
9.08718513700585
4.1466670902214
0.200933467165802
-2.31511100870487
-3.61897966619805
-3.96090280445204
-3.59197430347739
-2.83932218736422
-1.90789689549192
-0.779811236601006
0.540335576097927
1.80244645675742
2.65662833596488
3.00189545430339
3.09638075557872
3.21247556616902
3.23510515299451
2.85989393399452
2.23413813974381
2.05779451022243
2.86827451968482
4.45592171887701
6.07556637490725
6.99011748543251
6.77135758844419
5.37097272092661
3.07028548204302
0.317324826988104
-2.3922414544153
-4.52452238216798
-5.6038576155465
-5.44468995510591
-4.35522877754476
-3.25323275143642
-3.49548438966589
-6.04436864689676
-10.3848028712786
-14.4703118530738
-16.0696667034766
-14.2173229058289
-9.53329385287015
-3.56719854257483
2.08025563747562
6.37876831844891
8.95548688096502
9.75419126670975
8.90215298154329
7.00706364421639
5.13884854442107
4.08780071778696
3.8013360084791
3.78500103967068
3.77432606056532
3.74893045956267
3.60894920843653
3.21160467178116
2.61990261984055
2.11772420731617
2.01907351342146
2.46774120440327
3.31830397285025
4.2239945473527
4.91009790770494
5.33970629926683
5.60891436991289
5.72275924656512
5.455981065318
4.45548990759628
2.5746502953321
0.0313554277954769
-2.91139928252238
-6.22913309606277
-9.81387616688569
-13.081356835936
-15.2829697918192
-16.0674302414211
-15.4463965738388
-13.4820726999662
-10.4275497952317
-7.03585320354208
-4.37132895849195
-3.25902941722192
-3.89720312448053
-5.78440075056043
-7.94358641087775
-9.40945764884904
-9.63400542922362
-8.46269698987689
-5.91600696364149
-2.16780977411279
2.43117629444342
7.50917856384024
12.7037624534345
17.4096754115576
20.7613982860578
22.1268257606061
21.5425561101638
19.5721283910135
16.825821914111
13.6513610936011
10.2183418448874
6.84247828809385
4.10231340909544
2.4772425815012
1.89695381959505
1.77236406089527
1.43930048879379
0.539441893860984
-0.851604360244039
-2.32323093532899
-3.44414617150071
-4.06063720337569
-4.29146957754341
-4.37836221639802
-4.63290565455757
-5.26551324631058
-6.06124449710789
-6.45895556619772
-6.10396216757762
-5.06137254484889
-3.43689192971173
-1.21422252783175
1.36411346923541
3.63243314763521
4.96579445610425
5.23243179912671
4.68064241395652
3.54597930899903
1.84799448556732
-0.526534276380957
-3.53166236486551
-6.67215885894894
-9.09887954678529
-10.1227922252287
-9.61995740022069
-8.00650863839877
-6.03817056260991
-4.59905585913574
-4.32974377281834
-5.20949831646075
-6.50684753330481
-7.24110429482612
-6.86758628512994
-5.67791844916727
-4.49180961002986
-3.86482479668562
-3.6884740937126
-3.57107470960077
-3.33974393596557
-3.10412250969217
-3.15127316218649
-3.81071598493979
-4.96829587537009
-5.59986902264535
-4.27725404076488
-0.443111277785335
4.95273639499168
10.1007626955255
13.4952516345861
14.6765779630624
14.220318646301
13.1223673842137
12.1261680651467
11.5414548706382
11.4440674075425
11.7594033747656
12.208149382116
12.4266574102287
12.1619215863863
11.2494835060451
9.52706861191144
6.93193573605227
3.60476392720627
-0.148619263468492
-3.84972894747038
-6.839730259579
-8.56821664192252
-8.98744956052139
-8.55860453564629
-7.9186216566
-7.60071664450617
-7.87690557671555
-8.68207735623329
-9.74778761487586
-10.8313067252286
-11.7202380312887
-12.1275900224087
-11.8321719475794
-10.9054274671979
-9.61886389359798
-8.13321709820551
-6.33953918945835
-3.92500514009531
-0.608151078406529
3.50362830238903
7.73933756225683
11.1459485617927
12.9718324788837
12.9769221923951
11.5571752411252
9.65440061548442
8.28987941224479
7.99388614773853
8.65923157235468
9.77636374878602
10.6292114001883
10.4825663735215
8.99157303757003
6.49473054090947
3.72217520772395
1.23767606511186
-0.730432947222184
-2.10925312713926
-2.90517527451902
-3.24197963060459
-3.29279356850614
-3.19024383911899
-3.04967959913178
-3.02488748530539
-3.32033170593704
-4.11743246364533
-5.3623496440835
-6.61933203796551
-7.29788229429766
-7.06811047105336
-5.99757321374162
-4.43917087750017
-2.984513177326
-2.34905828256703
-2.9537072148015
-4.57464102242497
-6.56020839841304
-8.43192486696211
-10.2690927558308
-12.5131759013773
-15.2653030033679
-17.6680545370548
-18.1651588288038
-15.6322147251894
-10.3324693690658
-3.84738997357887
1.83510250009592
5.41794332129852
6.9917561859609
7.83640909595397
9.34639128046381
11.9756912027797
15.1359527461505
17.914959892209
19.7308863266185
20.4491145363463
20.1784906381527
19.0914184754846
17.431156015956
15.6250358926899
14.1704053801187
13.2130413422975
12.370896775301
11.1885968498135
9.66307619433347
8.13365024902896
6.73443616184458
5.1202480857718
2.77436843003496
-0.40371794959098
-3.88126664210134
-7.02660939469695
-9.79800358659157
-12.5869716777266
-15.3972328770629
-17.6135064217093
-18.6888359693518
-18.6882801219644
-18.0669289561379
-17.2420404389728
-16.4298474866029
-15.640404784794
-14.846770296789
-14.2795697973834
-14.3168498619133
-14.9068535509777
-15.4136664959514
-15.2592444248805
-14.4230082312324
-13.1036335481344
-11.2050539662126
-8.42786366482938
-4.68384448968127
-0.258187332917774
4.25163114458936
8.05991621548702
10.4903248271973
11.3285436470111
10.8618628031848
9.63336483379925
8.23492494145569
7.16983839026064
6.67653479859491
6.64539458277932
6.77002073507123
6.83972588636582
6.96770688950562
7.53687190920381
8.83544956658745
10.7823958748914
13.1067274198064
15.6541567550074
18.301253089486
20.6756203799157
22.2069897210316
22.4430825350043
21.2415915362529
18.8071820151338
15.6624291005481
12.4622969815604
9.72691964272261
7.71045647323563
6.35558249181142
5.28140378567119
4.03525330110979
2.50371723940475
0.895514306058266
-0.730064269813936
-2.63034238543305
-4.97504637359922
-7.53689542332247
-9.89432463143319
-11.7425745247612
-12.9585830517359
-13.5831996688674
-13.8315840071911
-13.9963472708059
-14.2753698716299
-14.690710557012
-15.1272252505373
-15.4846530958223
-15.8387685706222
-16.2716426485122
-16.4095783540189
-15.4197492110332
-12.7733528985553
-8.87308436899182
-4.76813038575545
-1.49477629248009
0.163713720093233
-0.301184613914521
-2.81074170182267
-6.35358127923594
-9.27065241954296
-10.2740446059443
-9.45615077010139
-8.24961847903105
-8.14916009388137
-9.45021103027692
-11.3467381545108
-12.9790416411537
-13.9386306075548
-13.8973580327271
-12.3495292141362
-8.96374455748286
-3.9772050010916
1.90858265953
7.99495163715368
13.9284384825255
19.5803477103216
24.6437178739638
28.5401661959435
30.8546726592942
31.7257274942523
31.6534254000175
31.0409948951038
30.032982186356
28.5768597978256
26.4357473343964
23.3430839916152
19.3860004676753
15.1025952514232
11.0035028321964
7.07285732761205
2.86781992946379
-1.91716115896063
-7.04845448322604
-11.933724504717
-16.1564486610335
-19.6664068385109
-22.3830780971735
-23.9113485698023
-23.9487109238382
-22.8146332498277
-21.2915336351707
-20.0007619730779
-19.0230079248998
-17.9123737177605
-15.9721776102555
-12.7840258738435
-8.66930970073751
-4.5817818804179
-1.54660480125699
-0.146300373335307
-0.175628819937479
-0.530696776419463
0.26962470706095
3.00670906859442
7.10247562065998
11.1093542253656
13.8799218160409
15.3323326767446
16.2115469825144
17.1559896264447
18.0179414918796
18.1702962527426
17.3675241255699
15.9347509541969
14.0137255812651
11.0982058179193
6.75449106193507
1.67601534119008
-2.33266688978895
-3.60752100513616
-1.97695714633315
1.03281078415245
3.35290714064285
3.79503571610314
2.47064209177818
0.171977357320576
-2.34792363283392
-4.66651843531916
-6.68200626525636
-8.40921294315203
-9.70225781864026
-10.2738007839519
-10.0463507867286
-9.32399087425695
-8.58405953786566
-8.26375780043306
-8.6847346594082
-9.91706004111235
-11.7060634213541
-13.6910498881505
-15.631188646659
-17.3086337776565
-18.358453461801
-18.353401176587
-17.0226362445803
-14.4156468828632
-11.0043021616981
-7.58635360677939
-4.85172806192404
-2.95282751156375
-1.56739042680481
-0.318292219532013
0.984893570974597
2.40058445604408
3.97551954680894
5.86057737280691
8.32358481249358
11.4480528835799
14.8038231355315
17.6869187711624
19.7167152113476
20.9432826051509
21.4356754552935
21.1783636046552
20.4636336501332
20.0093993573774
20.3758705806938
21.277229030196
21.6171650671348
20.3272242826959
17.227526411575
13.0780083318345
8.86592168566823
5.12142515220547
1.76292596716692
-1.6542391074722
-5.47707171246031
-9.49038421821809
-12.9441131984913
-15.2096631708154
-16.333504894641
-16.8904640193097
-17.5202345748788
-18.6611670000641
-20.3725300630788
-22.1949638790987
-23.4136070201405
-23.6410049506557
-23.0032248922606
-21.7196980903687
-19.7482680936914
-16.9026166790696
-13.0135294768965
-7.81376787823639
-0.959158205830319
7.41390496030452
16.0125577650148
22.5362344657975
25.0030110335705
23.218071679198
18.8235820983445
13.8555755039537
9.47914323778176
6.03880091583186
3.67349478263873
2.43040761760034
2.06048784093512
2.11679870666454
2.24092395002594
2.20699014829159
1.74914090933615
0.514431211211759
-1.65504028787102
-4.30643123901968
-6.40644697119596
-7.08606555822905
-6.37884816893489
-5.03931765346867
-3.6769197048428
-2.21746510304997
-0.0960385603255154
3.16527213601972
7.42674144902359
11.8576743959084
15.4962980206409
17.8574693005388
18.8440045137435
18.2789130171012
15.9609579335946
12.1642099504428
7.69274148172815
3.34476696113211
-0.522389627143108
-3.99647030909019
-7.34169366070578
-10.5367063460817
-12.9395432863699
-13.6933836844891
-12.6603208637578
-10.7439982470678
-9.16891985490126
-8.5880193445921
-8.87269439981897
-9.54770147105774
-10.3450644217972
-11.3520711719725
-12.6344655651967
-13.9053723520417
-14.7633326122341
-15.0487759399103
-14.6600510913225
-13.2393597902136
-10.4790908975988
-6.66646420762624
-2.54699534684697
1.38223402121347
5.21863224116854
9.25209009114645
13.3134682061058
16.5851175931987
18.1212376786024
17.5651776721774
15.2867185192594
11.9147905836879
8.00646268892256
4.17281281340667
1.14719824453612
-0.544068210918243
-0.910916064479164
-0.446392386794737
0.156435283794862
0.324064160492282
-0.0538655095460693
-0.510199022513844
-0.403149930239025
0.505156793971863
1.89906317819764
3.17904812950242
3.73540849632801
3.1234571697372
1.26278216323059
-1.40279463412301
-3.99320301649817
-5.64995321953259
-6.14928359071996
-6.0556986110065
-6.08258502780926
-6.31013357573677
-6.16379213027144
-5.04229913643885
-2.78057281189068
0.344174187080207
3.79096335628192
6.96085668636644
9.33487793452967
10.4327255756205
9.89804850175189
8.00751747788111
5.94013898775901
4.99014628188749
5.40646161015498
6.3142689336897
6.74739280610125
6.4525909373371
5.76489484002628
5.08122048528255
4.54616609165905
4.04602424109579
3.41272347160695
2.65568791666091
1.94787876602904
1.37332404868071
0.780437521228189
-0.12807802884087
-1.67088162336922
-4.0880697398139
-7.35239230993482
-10.9727033138767
-14.0155562885937
-15.46587661392
-14.8259825959227
-12.479089405063
-9.30410216822233
-5.88837805078396
-2.35712731344186
1.04488741294016
3.67861773058121
5.06916770966245
5.47338688373187
5.68251784992738
6.36909449623532
7.62310182468019
8.9113659254792
9.44418704099271
8.73001752864335
6.85316439719996
4.27693436907017
1.47689569039322
-1.32343504327996
-4.25273246681447
-7.58477803819678
-11.2827998469332
-14.8160846356468
-17.5037484106482
-18.9251335390394
-19.0178762304077
-18.0546036106403
-16.6005113967985
-15.2266004888236
-14.104057419728
-12.9427970765993
-11.2668542594682
-8.66577018176768
-5.03986320748358
-0.856337073781996
3.07981476796746
6.34264372250318
9.07815897283137
11.3230855118739
12.6021156658068
12.496149886805
11.2021170502371
9.21449787184163
6.78609766168545
4.0771369368366
1.69921683538132
0.706747903085077
1.78443819461674
4.47588598027365
7.46490221107104
9.73023863608843
11.2402773230492
12.4859601979289
13.7207137187843
14.8681204043337
15.8030267279146
16.3822190404347
16.378125434095
15.6186217612195
14.1277782368863
12.1061662636015
9.90655688295629
7.97705101071865
6.61121930159238
5.7017035730264
4.80567898816595
3.4345881955274
1.30588865294218
-1.513921065976
-4.63911510928669
-7.66729368542619
-10.4908525560224
-13.1876381047091
-15.6625145763868
-17.6114313889303
-18.7964254908051
-19.1382999618054
-18.5745045237353
-17.0213180780966
-14.5082894879886
-11.3273330145273
-8.09030653123068
-5.55982801227351
-4.25703786159946
-4.20509075292235
-5.0447496598377
-6.27092039876678
-7.37974673890755
-8.05203725846741
-8.31652153069794
-8.40740717140652
-8.41643356020013
-8.12697650045675
-7.10120655197229
-4.9160437327634
-1.5431252844532
2.41667225636959
6.06936040264789
8.82864255295187
10.55944262549
11.3335865330586
11.3675840107916
11.0463640817103
10.6685775188774
10.2582877996968
9.83929118657773
9.70302713840777
10.1531407945895
11.1074532689829
12.092374449053
12.4777248945018
11.6892356569157
9.50981369712354
6.35345340544772
3.07416670829843
0.388876054128986
-1.48302899165684
-2.71255530267415
-3.51786710033147
-3.86491757677454
-3.49659347125427
-2.37465117137269
-1.02761003093126
-0.265140542686127
-0.553422801388929
-1.73774675339574
-3.23917088396581
-4.41412939658901
-4.84733316642801
-4.40917828695148
-3.0677349214616
-0.824150059538426
2.02541762293767
4.75136312614716
6.53258334401751
6.90187496243174
5.89369800367391
3.97742004805193
1.79956912046447
-0.276529021800059
-2.32718401358151
-4.41003308980513
-6.24496473876791
-7.68885322647591
-9.24416865625995
-11.6251454021666
-14.8698327338989
-18.1477127354392
-20.3561442127426
-20.738432999542
-19.1246418091558
-15.8854366474311
-11.6965112674758
-7.2777376065377
-3.29319729845418
-0.263369234387938
1.66241473492835
2.7476939838339
3.31056936737429
3.40463817828572
2.92885599262269
1.9602869348171
1.0091648322102
1.03807095238306
3.01741486846343
7.14311263621078
12.4743715955947
17.4509090910714
20.7923923081262
22.0809758687925
21.773216001111
20.6293261187923
18.9335072800013
16.3749516968787
12.8230211920974
8.9240885242959
5.67173688938699
3.61210989478593
2.64311720718984
2.31292490409981
2.12130540822653
1.73231800624303
1.0563747973694
0.101792963500301
-1.16372923083072
-2.69046058002571
-4.221500701661
-5.46078228566392
-6.30809061046487
-6.86595026527021
-7.33192566003121
-7.92293414587711
-8.7619672083917
-9.80252400574901
-10.942310490259
-12.1136649881091
-13.1364618510467
-13.6427293972763
-13.3244448650105
-12.1347750728722
-10.1344647002535
-7.29981482771857
-3.65035353585222
0.407309336753735
3.88264230828713
5.53797964980591
4.78615128188002
2.35377760643384
-0.199415073294191
-1.71996730617276
-2.09882050477588
-1.8175087990886
-1.21241899742293
-0.227605610713108
1.32033219746503
3.30075135196004
5.12010534575142
6.1686095925938
6.38741003606979
6.16967947466178
5.78590321238127
5.23786825929225
4.62006863879896
4.22122290442816
4.17586919940677
4.26689909703132
4.14766541234795
3.62050425652961
2.72131192052487
1.69646282361516
0.883930878469462
0.46782658778448
0.324825405200768
0.172919079169848
-0.123836656340046
-0.397152808148794
-0.32668864423856
0.178756512185941
0.771072790042372
0.96785029231029
0.633621984363463
0.002313812743353
-0.665538257237297
-1.20211932741492
-1.42557147921735
-1.23464217116776
-0.828241342417006
-0.658459305573993
-1.15337092852494
-2.48555427688281
-4.45883713312316
-6.55900183583225
-8.20644025074568
-8.9742452481837
-8.61424734105512
-7.16451812400563
-5.18417720028354
-3.56371802252826
-2.76204931854816
-2.29418140563828
-1.17754273486904
1.03392158035178
3.61248448834517
5.09813922420587
4.60223769714699
2.76712817546856
1.24287282464822
1.13096042679223
2.11050416323522
3.05888835390362
3.19111154282609
2.54191795597191
1.73984212368884
1.51406130182152
2.15106488143154
3.23218974772295
3.9974521847096
3.99102598117879
3.29760015852074
2.29929078408906
1.37572040460931
0.77214334348116
0.634282222876058
1.11032916603813
2.2824426918703
3.92832650443478
5.54205496445146
6.73290038665887
7.44455953332627
7.6773716952158
7.19283184695916
5.662751088644
3.06506799807417
-0.107805352900233
-3.04429046808037
-5.12619921329077
-6.29586624982791
-6.86630934765279
-7.12973511850005
-7.38497708171988
-8.11457029988328
-9.65484154501172
-11.6981769472334
-13.4574710699435
-14.313264134221
-14.1269404458587
-13.1164463735605
-11.6570818471811
-9.96704359246335
-7.75881168735054
-4.51896015752517
-0.426669264940381
3.33785754101931
5.56489376077471
6.09495624165117
5.72952761290535
5.36103396832225
5.4194034766351
5.90069613597337
6.60128303077394
7.30547539414075
7.86124297959144
8.14492531689603
8.01078092465393
7.33964075339995
6.21013910820793
5.04693860761473
4.46141427821568
4.78306445673698
5.82836237722836
7.2483752310024
8.87743131019539
10.5026546359306
11.5886499184866
11.6575329966623
10.8089127297537
9.54611258313417
8.23900271336689
6.98970902661473
5.7951552549559
4.57483424782646
3.18824135508255
1.60544772777618
-0.0410288252235932
-1.66184741706144
-3.39956497474399
-5.59732508329253
-8.60017070762922
-12.4623485981252
-16.6929801707084
-20.3042697218702
-22.2221216219245
-21.7573833059069
-18.8801591275598
-14.2817187306717
-9.17364563070018
-4.79920391205723
-1.96197334048394
-0.890505056385682
-1.34517790248061
-2.78746603307503
-4.63667692216123
-6.49087718068568
-8.05154185183154
-8.91575510996358
-8.67534114961322
-7.27841116022315
-5.15004903205161
-2.84348122324431
-0.551230000333819
1.9684050474663
4.82970400408247
7.40635413985865
8.59615837263357
7.88776419366946
5.95577450664468
4.0492825038481
2.98885460847761
2.81736029139717
3.10303172795383
3.37552676418045
3.39867538112833
3.14619190113373
2.6009452509385
1.79354020980013
1.07434626877251
1.01315498363049
1.82924573999775
3.14683439343922
4.46197161883974
5.62387990188292
6.73755825383245
7.83468693307326
8.76795655904869
9.2579313884104
9.01967412762802
8.02455850277553
6.61927323326883
5.26866877269121
4.29558069204395
3.93324615319012
4.35888244376209
5.49825305902653
6.98643646002062
8.45646195287834
9.76378059832584
10.9129984258724
11.8533368962861
12.2869363149789
11.6320393662392
9.3589791559927
5.50693270775745
0.77760397375118
-3.95054263887406
-8.15983124533952
-11.822643323626
-15.1207772519667
-18.0175647954679
-20.1137631857837
-21.0313601838615
-20.8519048170713
-19.9604149283336
-18.5440696597623
-16.5047717458628
-13.8044573856903
-10.6415191335835
-7.28269377242939
-3.86368776614833
-0.366354085024007
3.16630926194471
6.23807745553401
7.82328927724486
7.07740550935928
4.2549007179762
0.677183243314263
-2.27810766223401
-4.0158230133838
-4.74954853051961
-5.08204671959522
-5.53563656698998
-6.20199704637209
-6.7838092309231
-6.99421435094857
-6.77621874879043
-6.13262420163827
-5.0011998297642
-3.4148599392523
-1.621839918172
0.0819761607868682
1.60493180221426
3.08695272718789
4.67937963835929
6.37866737329162
8.14439124952056
10.0266948447439
11.9549378250052
13.5680770360296
14.6241475925406
15.4586917342588
16.6020252232378
17.9988145327682
18.988280801933
18.9621248940346
17.6888802064095
15.1498457889037
11.5029538615204
7.21708107817304
2.93932655716526
-0.840682720016767
-3.92898635466127
-6.36475700617133
-8.34964815887913
-10.102587413489
-11.6600778359088
-12.9129406537691
-13.8097050087228
-14.2727073098319
-13.9223060000273
-12.2404650500921
-9.17423797508345
-5.40511993305954
-1.92021411699918
0.581634517335485
1.83930845062478
1.81071870609564
0.621955883939039
-1.16854008803884
-2.57370572995878
-2.85728218253219
-2.18790235360866
-1.33219901418549
-0.775445251805145
-0.449731328970166
-0.191007958810383
-0.049214948682997
-0.167816071583321
-0.648265705180355
-1.47998794949442
-2.42756721074129
-3.1262884741546
-3.40039346368045
-3.29767272009682
-2.78119072498709
-1.67255133345019
0.0199723525145246
1.93890378628739
3.5962057897196
4.6222249188767
4.86583274525414
4.44061504737851
3.64535953210151
2.72276603152307
1.76229470117277
0.868926114092052
0.224251184534577
-0.109298339162606
-0.261707868611266
-0.368941414160892
-0.461028515592605
-0.538293390249743
-0.61611067928668
-0.673862394449603
-0.596339709443052
-0.174821169898019
0.702002793890594
1.73771913620691
2.27797628281565
1.87195047602914
0.680874992940555
-0.776729780170901
-2.1183654116975
-3.26067218904877
-4.26662736439674
-5.05879620944844
-5.18611623622433
-4.09328790370641
-1.9089165575284
0.252438396182681
1.1654223686515
0.621879862683812
-0.490198850572219
-1.05778521810922
-0.527735906835742
0.947675838249573
2.85368840082984
4.74865345827933
6.4116317123665
7.68020289682007
8.40958336926706
8.7332121051238
9.12342592365078
9.90686809400979
10.7823399138951
11.0039668824446
10.0224317702259
7.90075226606247
5.19606199841613
2.48186546516645
-0.0327007681943221
-2.36298779760544
-4.30877857562922
-5.44352853435533
-5.61529491011126
-5.19662832722645
-4.75240193006732
-4.65672552484071
-5.02301632651817
-5.76031413217714
-6.64911126281032
-7.46372029372947
-7.98003607964598
-7.8931186645481
-7.00424396800614
-5.59771411900736
-4.36410961440691
-3.74373874519931
-3.4381427798521
-2.70700987761538
-1.21549944300575
0.400390796762941
0.99100078847836
0.115112618100418
-1.3702616970702
-2.20454946874844
-1.97152185921965
-1.12349958057058
-0.13026917294512
0.755828398437864
1.02579628038343
-0.0524098392860462
-2.62947236762267
-5.76936491363967
-7.90104253903685
-7.78288059037805
-5.256713230961
-1.27638090943667
2.88943203386528
6.55069657669281
9.62867529455452
11.999658016055
13.212662726756
12.9113535693852
11.2492718487786
8.760601041602
5.91427517444251
2.83982399796642
-0.550201070632987
-4.23271974536472
-7.93486527841742
-11.2649096394555
-13.8176345989686
-15.1644505364753
-14.9531270818041
-13.09636397155
-9.82556664073699
-5.68560546471568
-1.5252411735731
1.84869289003434
4.27021789634963
6.24566183902891
8.21942356674603
10.0602756377574
11.3622467004327
11.9069351303613
11.6951909157858
10.8448594222062
9.63567820693603
8.45782428905147
7.58264431156761
7.04506506855097
6.70706606560178
6.32972045034115
5.69362754503623
4.80974491325871
3.92469887647083
3.19348556666845
2.43990966291048
1.3314779780398
-0.278600722637292
-2.21623337558398
-4.1447706127029
-5.85561316668928
-7.36632652342174
-8.66300010703304
-9.45849315905482
-9.39375988659179
-8.42524658996613
-6.87295602816553
-5.17090536846977
-3.66430604865928
-2.49800344512171
-1.58320646494793
-0.775921917474801
-0.11221382992218
0.247992998386876
0.247014709446806
-0.0454151430904713
-0.523030392130806
-1.02799352572285
-1.41160881858573
-1.73716682263579
-2.24324508947652
-3.01622064505205
-3.88922900295502
-4.71957487390348
-5.5623442914347
-6.49282298439991
-7.38179035599982
-7.88051407015001
-7.59132451771553
-6.36702424019655
-4.55230843323306
-2.80458051986827
-1.55762843508084
-0.774485690990351
-0.250684233493495
0.0867568236289777
0.271057327219233
0.448188082648318
0.808278759226414
1.47367474377065
2.47464077817489
3.74753088178348
5.17801498155855
6.68544875477308
8.19967632692424
9.54643870022685
10.455446724712
10.7257723368772
10.3787876974202
9.68017281858981
8.97661908764451
8.40734058612529
7.80218078455936
6.95276322508791
5.89549822187789
4.82473782987089
3.87446392391948
3.12658123688195
2.69401540595569
2.65725255453306
2.99471082250537
3.60107594809195
4.29101800620243
4.8704248800491
5.35813811569598
6.02182890658883
6.98834520187935
7.91712773690919
8.27483606680529
7.83927310018095
6.70940349396081
4.92292186986574
2.34933928844434
-1.02131592504991
-4.8579562740308
-8.6158143918986
-11.8903185579443
-14.6810506778912
-17.2703664988634
-19.8359780596293
-22.2985794171291
-24.5119803635416
-26.3602264306269
-27.6363856431115
-28.0206928651153
-27.1670698730632
-24.7136137345405
-20.4556479058744
-14.799152769543
-8.87341409307441
-3.90048970272155
-0.470791392002632
1.5803975589614
2.88346605970365
4.19692448477163
6.01404864493423
8.28868189940533
10.6127299586188
12.6082544610099
14.0340318315879
14.6862362090897
14.4339927023527
13.304028269978
11.4320729160333
9.03231865091898
6.47251299590949
4.23736388169664
2.71247457397441
2.03509592145859
2.14940240952282
2.95060501839656
4.37990743784128
6.34994324986392
8.50091314116416
10.1715222876871
10.8871305353762
10.8212555432161
10.5116038093333
10.2266168721067
9.90416451674426
9.56770765480974
9.43444248603096
9.62435160618865
9.97922231171449
10.1635831354412
9.87153074899
8.98868205367658
7.57038593934265
5.65941640688716
3.24575408323332
0.437155710779407
-2.51388459714777
-5.39915117545981
-8.10224401407972
-10.4996042897871
-12.5451586766388
-14.3915392248067
-16.1716515490984
-17.69164982744
-18.5267021595325
-18.3876203061047
-17.3055720351009
-15.5272352986782
-13.2800670749906
-10.6403620960285
-7.7378525210706
-5.08924690483242
-3.39495677946351
-2.76142653391416
-2.40101626343017
-1.4517759218648
0.0693546836615702
1.4243856341756
2.06465221046277
2.04969306727006
1.72569103055511
1.37683201036747
1.21725912793864
1.46505885721917
2.23273973361581
3.3096350887847
4.17803552569667
4.43359588097158
4.18232974762595
3.87655534374346
3.81640209941836
3.96417976411832
4.12099931646661
4.06871563903282
3.6302527006059
2.78701179068092
1.71399173562868
0.656634647247313
-0.156671405768178
-0.569418173521483
-0.652803731697856
-0.711479704336636
-0.933673872307177
-1.14572712428793
-1.07235236682077
-0.685609825466205
-0.17662785559632
0.231340067682263
0.36426400733193
0.208720608068879
0.0095001587791252
0.0667493964247585
0.419995318389142
0.922933571324671
1.59023600651404
2.61217726871333
4.00295108956131
5.43577018871149
6.46191301485199
6.81290077846003
6.55954447355174
6.05389695573005
5.65691999536331
5.53741053537326
5.78872427627281
6.53641536443411
7.67886956762942
8.63898208245364
8.6407996107391
7.26976926332063
4.73489481412129
1.68018032579324
-1.24036115566217
-3.70919613934902
-5.71231281131097
-7.21380464828857
-8.0457488460531
-8.18612777661068
-7.97644017281738
-7.95125252716977
-8.45723131333036
-9.35521959802333
-10.0815660444186
-10.2225157983739
-10.0685888579391
-10.2777822830967
-10.8998273160421
-11.0958674886139
-9.97646539821769
-7.4320248625942
-4.05659844298002
-0.608162037660845
2.24281156721875
3.84470593864724
3.54089353602934
0.920599501276452
-3.67263386501297
-8.81919545901387
-12.5311793176701
-13.4277752976951
-11.4568348063762
-7.5283392315035
-2.70523066227691
2.21472579699816
6.65421087728075
10.0806707707196
12.0045457803259
12.2945824088784
11.4622402919445
10.335756896917
9.31328943139008
8.12292385451092
6.42308462073722
4.50343301388001
3.28372990221064
3.57858508253842
5.29004544778827
7.37920101225886
8.79055975442193
9.32774171493013
9.45664291351587
9.49617032856867
9.3893688222336
9.10843563861112
8.82538832563944
8.65516521279405
8.49135328530861
8.10079572289936
7.25800997898713
5.86469470548953
4.04232368613858
2.04579319955589
0.0266124585489322
-2.0938234416256
-4.53709053511485
-7.4580343605518
-10.6863375279222
-13.6241649177829
-15.584256909311
-16.3068111614682
-15.9782477339278
-14.81208394049
-12.9776619029541
-10.9182253508317
-9.24547879147861
-8.14223498429586
-7.17671286207834
-5.84488663443976
-4.12480135177849
-2.47025382331087
-1.39874746610257
-1.08254522370613
-1.24867517577574
-1.45521684428467
-1.44437999338058
-1.22673952881099
-0.939280658995703
-0.685109698884053
-0.401747175319281
0.148321379045493
1.13652929939499
2.41764555423078
3.61928289023213
4.41753518225904
4.65486437790605
4.34756000374777
3.69677578717933
2.96806769124088
2.298511472847
1.71943871813711
1.3029765280564
1.10438886237642
1.0522779384971
1.13522664785254
1.60872268073137
2.7315760811249
4.34066773624911
5.94870145803378
7.22058093645609
8.13028486001477
8.72992272032021
8.99928833505828
8.89655143203971
8.42222780720713
7.66036820154876
6.79321224610422
6.0145997829043
5.41256500591985
4.9454988763767
4.48941174444589
3.92559106448548
3.23728095756197
2.45386132025213
1.47730143154246
0.159991139527937
-1.37545486310033
-2.75544660601885
-3.79976468506548
-4.67468681000043
-5.51713594191492
-6.20829903439946
-6.62955555236143
-6.90570980662288
-7.30577869781597
-7.98920103731368
-8.77301283979322
-9.10663866328938
-8.50032502104403
-7.07599711373384
-5.48470798542373
-4.24071517116322
-3.37538402589952
-2.72679152518441
-2.2315434950054
-1.86365030334413
-1.57459318515857
-1.39406490426391
-1.42905170217205
-1.76794737066888
-2.49874137534778
-3.70203486522667
-5.27783961652586
-6.88765020957906
-8.17540692051467
-9.00287796481934
-9.52248321703338
-10.1014250577035
-11.0264629895009
-12.158268183904
-13.0100240688532
-13.1869006624531
-12.5213251927197
-10.8062408902628
-7.75858955561458
-3.37141918653185
1.8901435148586
7.29629349856249
12.1836255864822
16.1768081817919
19.1821272004828
21.1126721244537
21.7013238349292
20.7896397294169
18.7391795568565
16.3364111310262
14.3103255198149
13.0087851507047
12.3422768233404
11.8744118503483
11.1258356831515
9.98032695766068
8.79055192656736
8.08568167266757
8.21255497004324
9.13099401392837
10.3680796993642
11.20944986064
11.084124154746
9.77970731086816
7.34310952169914
3.99445050245275
0.156117883341307
-3.71277215871833
-7.39894001783308
-10.8654202538116
-13.9026256261679
-16.0400401250476
-16.7960180453197
-15.9168518660618
-13.4777944998963
-9.87615890266756
-5.69621907859795
-1.59917819070121
1.63408920322066
3.21714765061993
2.83037315749304
0.929626406295223
-1.58074886355857
-3.90441781092028
-5.57846538911371
-6.45560464823185
-6.65691243853368
-6.41529086513887
-5.90624361080234
-5.29415316102865
-4.80869389607574
-4.61042660393396
-4.6963657613869
-5.03349372733499
-5.60431219438876
-6.25808080092029
-6.77328326627091
-7.16270568499659
-7.64728787787413
-8.20362581346054
-8.39545777479324
-7.81440087999569
-6.51283970346772
-4.9035663477311
-3.39736528163325
-2.23084657872263
-1.53438722054695
-1.42732336573802
-1.93641230599761
-2.79317277469325
-3.46968721389979
-3.5566863236515
-3.02091960688994
-2.04315760602127
-0.777704979386294
0.684612437886355
2.31779325477975
4.1507103244682
6.08245381470562
7.79239024476883
9.0757665402135
10.157215275573
11.3691127963186
12.5526813739563
13.0198094104866
12.1724536744496
10.153242875365
7.92356024702016
6.59646323799086
6.54653015722519
7.23050220257613
7.88154348395418
8.13225601287345
7.93358084722241
7.27680596821159
6.24609742094414
5.10823940073827
4.12864010743624
3.39118062292839
2.84508232695759
2.3804540557048
1.85614031798946
1.23114423275927
0.677087285394542
0.447440506510903
0.694283165647486
1.4697876903405
2.72757810292645
4.20728157308626
5.4685524572731
6.1380291312941
6.06323762421887
5.26973409619925
3.87717056592192
2.02028607254385
-0.187922097105249
-2.55545861289524
-4.73825937180737
-6.41836183961735
-7.51014731997128
-8.11370279318273
-8.43156668023988
-8.8139601052286
-9.60730654577468
-10.782734036387
-11.9197600625788
-12.6444690219642
-12.8806156064456
-12.6951788512136
-12.1710705620164
-11.403954219705
-10.3933590125851
-9.02733990891928
-7.38387888010731
-5.90071103898047
-5.0114719197875
-4.70628001067724
-4.59781052707238
-4.3013352203087
-3.65883456102402
-2.758226478315
-1.84816094296015
-1.15070120594802
-0.765451493612502
-0.836286101322188
-1.64725853040193
-3.31376445716871
-5.4176925042149
-7.08760056111207
-7.45554997509081
-6.12820076397702
-3.39956242685777
-0.0083425829598767
3.41261156583959
6.60363295443962
9.39469579585058
11.3732606247599
12.0150933511842
11.1321345171637
9.15499221348785
6.92647639011553
5.10733309232123
3.82574160249279
3.05196118771127
3.09948695982486
4.33141836170376
6.48217950596821
8.76723759765189
10.6481088024497
12.0747733151398
13.0638115121572
13.5181559906939
13.496089888642
13.3038901558139
13.2029388398839
13.1069668290974
12.5589506070023
11.0608657986906
8.6046070744808
5.85234616685428
3.59434387738501
2.08927889409411
1.14553117197063
0.670776975388514
0.761511741087931
1.32760450530997
1.99051091976282
2.35228376896786
2.15240861623669
1.25135487285862
-0.316399230512193
-2.2970725948434
-4.3538388721406
-6.28309343400222
-8.1088704365881
-9.93098944948371
-11.5988504258117
-12.6399113090324
-12.7518307600857
-12.3371085888191
-12.2945133830566
-13.2317695311719
-14.9764587585799
-16.7522973537092
-17.7107334351263
-17.4438144820582
-16.1611129137107
-14.3803869164548
-12.5132701827183
-10.8191284057553
-9.5360618703546
-8.79954347328261
-8.52729605444192
-8.50264714975335
-8.3920377318074
-7.63070689694005
-5.64580287484735
-2.44425260703255
1.18758962567405
4.23319954665929
6.12345066812293
6.91715964163357
7.05986513267416
7.03748653288882
7.13714908222271
7.4881481058596
8.24518780599057
9.50294471314822
11.016828651709
12.2579988264418
12.7841515680151
12.4060476564633
11.1247477143428
9.17661649876023
7.062535658844
5.29409357516761
4.09721392127688
3.38623818040135
2.91239520001036
2.44865801828133
1.97245348997173
1.62815278524476
1.41272636581685
1.04377666349661
0.271528184546132
-0.821296437370606
-1.90979791826055
-2.66308012651
-2.89353979436368
-2.67033028754373
-2.28182220494917
-1.96264341570041
-1.73813128468993
-1.58171846944426
-1.49258395501109
-1.31927235352212
-0.775455958781616
0.225256912434962
1.48633891211608
2.91169624299806
4.74236918749741
7.24886730815097
10.3140070388054
13.3828964363102
15.7123427050967
16.6917724752681
16.091318030015
14.0938468805401
11.1649351493954
7.96194006600276
5.19013779912866
3.25254777505811
2.03156188447499
1.14550406236794
0.337323586685828
-0.464910374704308
-1.28450840680725
-2.15084409015575
-3.08978379689371
-4.05119335378264
-4.77996330571068
-4.92787523120775
-4.46136360651993
-3.80234595097427
-3.45446222637972
-3.68727950274046
-4.58713901076484
-6.06025652953295
-7.73046919064205
-9.18512693729524
-10.3792691412543
-11.5334048838287
-12.6968510137024
-13.7213719693425
-14.6147101619198
-15.6265190829625
-16.965377950589
-18.5840398460734
-20.214701525066
-21.5406586965371
-22.4151436054865
-22.9244602770146
-23.0957512298594
-22.5966042421727
-20.9661585267844
-18.1144822451437
-14.3578608613977
-10.0287577974151
-5.31201799877406
-0.416384921488641
4.35221937690612
8.74557119260736
12.6877405746217
16.1684039859376
19.0417465780176
21.0493921584283
22.1502316192776
22.693698049145
23.048223730112
23.1511955301145
22.6489469893837
21.3726261741191
19.4746534735575
17.2716405608736
15.1767343258604
13.5878571617922
12.5957492777024
11.9197326639438
11.2436273536517
10.474724056105
9.66579753185669
8.8789353536006
8.12231906663052
7.27210181747463
6.12576571301087
4.66786101617869
3.18119414471777
1.97212482008079
1.08495286315572
0.351263390501021
-0.436081584229936
-1.46286416887331
-2.81924014222104
-4.38146938732039
-5.86235066222903
-6.98866513835036
-7.58348108054806
-7.61917469348647
-7.31835919400892
-7.06766891219892
-7.12098899648183
-7.47648502348159
-8.02553466895632
-8.65775773762533
-9.2466687350082
-9.68819411587296
-9.93670453349815
-9.94559418230923
-9.66849489489495
-9.15322944216599
-8.51734897552331
-7.82674038224841
-7.09247783444529
-6.32366730810664
-5.50125953227033
-4.6118893350575
-3.74646256765871
-2.99371455272136
-2.23917461759063
-1.29503664652942
-0.211698575195616
0.769182675307044
1.53657161450291
2.19194074746065
2.8851918528535
3.72787276129903
4.74389107316076
5.74077245037474
6.36330492128656
6.44772483148921
6.22880744326187
6.08479791901441
6.17924441833926
6.40741594681935
6.56401190992671
6.51997234612468
6.30753766382384
5.9976305724973
5.48545281600049
4.56921531953562
3.28624600816615
1.98260837467928
1.01210045994697
0.497328439947899
0.296871356846005
0.0072222817203184
-0.909236740851003
-2.76702003052812
-5.38941045039357
-8.20552717787468
-10.5531019604364
-11.9774463311327
-12.4305744890716
-12.1759436081437
-11.4133806789076
-10.096397639124
-8.185251455261
-5.91932616744214
-3.74969107812261
-2.08928130587718
-1.08289794382755
-0.486587661610454
0.14293257109812
1.01191598933518
1.94767072452844
2.7566835058849
3.53539242959152
4.54195041532135
5.95058415041101
7.77828576814945
9.81513962594588
11.5706381269047
12.5378780351398
12.590513584375
11.9726737332113
10.9756866393125
9.82114835179269
8.69526988242366
7.60722568480848
6.30431978576665
4.53356872837802
2.30997639150234
-0.144925606945656
-2.55331089148448
-4.58264836866508
-5.87769139585403
-6.27911463355355
-6.06738194831926
-5.93302439476194
-6.50616609770006
-7.75605246812362
-8.97029884242413
-9.45942670046918
-9.13556262471061
-8.33040601679018
-7.33647231322524
-6.26967667668255
-5.09135173150871
-3.62051385324276
-1.76446722219207
0.195874856306394
1.76172635616559
2.6506359435463
2.91996039544041
2.7859279769968
2.50890453156138
2.30445745419595
2.1691808700452
1.92110560218206
1.54471132910009
1.32779881379213
1.54584892893706
2.19311781042208
3.08248323227515
3.9632140527615
4.46573917138902
4.19986876888313
3.09000217804206
1.55017595811874
0.258271470439554
-0.289972145264321
-0.0974947608396829
0.424350312404325
0.852610974195188
0.980161835909151
0.719140922145305
0.0925974944453707
-0.568462588140271
-0.706263412208159
-0.0004911259349603
1.36443048348165
2.89321598413203
4.07462821819732
4.55833123999073
4.25492256170275
3.25496695903158
1.62524116094426
-0.540554664918598
-2.87383840840264
-4.8161068974808
-5.99761736986227
-6.32330299266854
-5.75690132034007
-4.30640975398715
-2.21516273748792
0.0160425753910017
1.77683796367274
2.51294755522237
2.00607032647716
0.638046381597635
-0.838416243732929
-1.93896521122866
-2.7106616290705
-3.36492326760498
-3.93615975140103
-4.3474496819346
-4.52421881166591
-4.34512393127171
-3.65700436953078
-2.4202031876943
-0.821985538386993
0.732738250861433
1.83461093789595
2.42064244247511
2.81406857014505
3.25292194227307
3.53547611647856
3.33949826594947
2.72664778888568
2.07799590997296
1.59498858330376
1.04123317343277
0.0104231808024342
-1.55840226634902
-3.1787490329149
-4.26543031045232
-4.75725316556921
-5.08420354462845
-5.59165545806586
-6.3064653886092
-7.17515173121961
-8.1331051495542
-8.97252412459297
-9.48119277685069
-9.64805995001078
-9.44582058968652
-8.53913815838752
-6.52480258985494
-3.40262244283656
0.392023509381335
4.31765796097321
7.94790995951515
11.0323090556552
13.5008829207378
15.330850434269
16.4007475579365
16.5987931239652
16.0023109072577
14.8161350850128
13.2856971802058
11.8088103189695
10.8904427997821
10.7436692600792
11.0620387047197
11.3561914674373
11.4428383430306
11.500592002977
11.6620084190951
11.6275899726875
10.8447853849504
9.19315313188589
7.29825931459481
5.86477480256066
4.79164628374719
3.25211765959751
0.604079239302671
-3.00428533723173
-6.8342441016261
-10.1359029519134
-12.5827110626493
-14.2864560985283
-15.4553339349651
-16.1769155488256
-16.6153534481845
-17.1731397890604
-18.1839181796009
-19.5367371151922
-20.7858051744239
-21.5550588348604
-21.7605698965583
-21.6074030646487
-21.4576779652925
-21.5006030267667
-21.4342521340234
-20.6133060700658
-18.5511601412782
-15.1708351961756
-10.6943198041262
-5.56161960442723
-0.42242865912567
4.04641981076234
7.40221062222875
9.51081056525301
10.4564062567761
10.4528523025118
9.84251467725297
9.17829342570868
9.17879432309655
10.3276061291033
12.417419011249
14.6332331778322
16.1348694370145
16.5335646356526
16.0140196429963
15.2163069041009
14.8228872607789
15.0034800196626
15.333404685488
15.2964594532298
14.6487061294154
13.324319140607
11.3848474707044
9.16622643003282
7.16494651141049
5.65440000785689
4.55039264399093
3.60283934184289
2.55127158505781
1.20883834112158
-0.364427339027867
-1.80640282445059
-2.73403030133716
-3.06375479486737
-3.02939151223699
-3.01121197450826
-3.34923142426623
-4.13354173697539
-5.14084121762402
-6.09910511290534
-6.98438231714773
-7.95657704894562
-9.05961997735957
-10.0494110944602
-10.4914144374707
-10.0970544868128
-9.05948666167612
-7.95306625168634
-7.19222461248105
-6.69933566303985
-6.14732261574963
-5.33458652359064
-4.26557932297341
-3.0599194047333
-1.84391103732799
-0.648568703172022
0.48679487958077
1.24858410063816
1.176302362546
0.247526141792
-0.930288898180656
-1.695501401911
-1.86868374606829
-1.62520812449032
-1.13151411844472
-0.454874599314689
0.367317803846587
1.29339942737462
2.2417694583617
3.09845936577
3.8128139909985
4.38484589661889
4.70376107282948
4.58468236325837
4.06465519955057
3.46388917506841
3.04149629080943
2.75476504620722
2.42119401887038
1.96428872923512
1.4591548055699
1.0339738202899
0.737109370194715
0.492050375447441
0.237246983420821
0.062506866213314
0.101521265031711
0.351249728222496
0.689790724150341
0.983993694523848
1.13538193577743
1.16235453884425
1.24286983964384
1.49144333143803
1.72672983486524
1.67256298721004
1.33066079657065
0.951031208565553
0.718146977902729
0.624341961161073
0.532951035647119
0.259235051623787
-0.278958542368116
-0.949199336297768
-1.55500969003927
-2.03237415396993
-2.37228464931365
-2.5107484604129
-2.48617641554944
-2.53931113717957
-2.83917943919996
-3.23990612830344
-3.49023421689767
-3.55651836297039
-3.59553957793459
-3.73345409475642
-3.96844322599996
-4.1828966585839
-4.22070599213436
-4.03624778016073
-3.72467997495634
-3.35545464155185
-2.89526950350963
-2.32935749133713
-1.70513487589793
-1.05076736213462
-0.416352851583642
0.0254895345266886
0.0818794291366535
-0.263899900060655
-0.81909024834968
-1.26553710695748
-1.2685099950094
-0.660947424879502
0.430614350867139
1.72294109631603
2.99565397045935
4.13475945566079
5.13149814660939
6.1258460398919
7.25885892958312
8.40788787898893
9.24669819537108
9.56843243019684
9.35729724002364
8.61469620391407
7.37682242680657
5.88429770506462
4.51703488810443
3.54595162736486
3.03675794741782
2.89473533801725
2.88671453231157
2.74410487942433
2.37419495378091
1.88589739770952
1.37443856196576
0.813009892331221
0.146936927630174
-0.65482997473149
-1.60910347539722
-2.66216371754021
-3.6848574951062
-4.58116151378343
-5.30984367166756
-5.80502750808346
-6.00010608957116
-5.89846636709405
-5.5303733829897
-4.94246122692479
-4.31040399697522
-3.91204873305997
-3.89834091958488
-4.18983807830659
-4.57841914105686
-4.81224482676391
-4.70203104375403
-4.31486132291344
-3.91994922590519
-3.60476901981574
-3.13942177334113
-2.325186486447
-1.25077647539586
-0.142609936083865
0.794940984868632
1.37083206964189
1.49969129364247
1.33160850047997
1.08855191538796
0.783037121200514
0.259284202328043
-0.548191607108342
-1.53514669718697
-2.50401577226515
-3.20837295241694
-3.45666259071546
-3.2593483892801
-2.76156440663687
-2.04910097231546
-1.15221056913928
-0.115304931385004
1.12465223746384
2.76136816145127
4.7833858044441
6.71560843321557
7.87734044507199
7.88262217907275
6.8815877712424
5.40483661626608
3.97541081669494
2.81961209978193
1.94794439062421
1.3954223615765
1.18531167987624
1.1385868243594
0.990649772681464
0.691894144666643
0.406331404061538
0.271898541983585
0.302829646278026
0.420152771146786
0.481891902833857
0.412524523007657
0.330148312396808
0.403650351162868
0.636603303678693
0.952127508034887
1.36123368130927
1.83024526341578
2.11698555540546
1.98575278959487
1.49832011974389
0.910046625222162
0.390354173490399
-0.0217628339216524
-0.350665468023006
-0.69815433504007
-1.16695307871246
-1.69601906084947
-2.11484922265061
-2.37331969208511
-2.593670035907
-2.92266251286369
-3.40066258062353
-3.90234721269616
-4.19389057294541
-4.15669183755842
-3.92295122032683
-3.68160787005522
-3.43489375998943
-3.05265397045741
-2.45485269683788
-1.6635933891516
-0.801965740780499
-0.0631717774072546
0.46278395387167
0.899146400615545
1.38545751631066
1.87742209430938
2.26875482706731
2.53849423239583
2.65696686152517
2.5572921078239
2.31373503551591
2.14343612571302
2.14382560236176
2.19322157016723
2.13305519173752
1.89570430958206
1.48453046164478
0.986267660894255
0.550834858005855
0.221405509742665
-0.133314306405873
-0.614389544623241
-1.14701990002406
-1.61041930181978
-1.9487980069928
-2.11051494756973
-2.05238980148726
-1.82325191429858
-1.51152804987047
-1.15516715599718
-0.795634532925979
-0.509754462076832
-0.307067356838325
-0.108328928724031
0.142936010982074
0.442414691947383
0.747522173529328
0.936239032878806
0.843466936474949
0.440862884846676
-0.107997678716849
-0.591977990953167
-0.837966749842119
-0.724433556749981
-0.291861036323434
0.229294876676505
0.638422648622207
0.90193657915267
1.01042485787821
0.910774564476969
0.651667769717514
0.382126611677994
0.163310958655138
-0.0267972880910265
-0.128058115707142
-0.0523693282135757
0.137468826154575
0.307615187569693
0.456172652657213
0.659718872002985
0.908807017971017
1.15183520404052
1.37706429399755
1.52423277209153
1.4653054408147
1.16692490292272
0.733090612616304
0.264157147199446
-0.19221426384676
-0.590745554707617
-0.918326989055635
-1.21228119591676
-1.46760353511958
-1.60603823824762
-1.56846692845876
-1.36561859925426
-1.07123512075865
-0.819917537797932
-0.707709651184257
-0.652755715587978
-0.500244254572167
-0.267765359449858
-0.102087631435572
-0.0318627112284593
0.0313982382798412
0.119543957392976
0.220189083877294
0.343246496658789
0.429139665426833
0.359941389270342
0.176168492937714
0.0895788942985818
0.197450021720146
0.371794040844308
0.470287885667648
0.470817513892137
0.393443689367686
0.274727842354056
0.204645387169526
0.227626854641761
0.260377248530181
0.241712478148441
0.250055883153647
0.33835194706168
0.390694010526161
0.268160638336487
-0.0169933997464873
-0.345498088163109
-0.623887701011182
-0.852109122318472
-1.09292031412074
-1.34506028714924
-1.48397671602485
-1.42612662046689
-1.27691085784041
-1.18003725432254
-1.11604005156307
-0.98315660475551
-0.75810623312032
-0.465360158705949
-0.12173485341428
0.21860385863868
0.499364730060131
0.743678849198819
0.967588401638447
1.09699409088557
1.12033201496221
1.18730043989749
1.40451986532479
1.67718396913126
1.85609937574522
1.88746262677563
1.77569720720255
1.57288951164414
1.41278055869312
1.38226042461667
1.37824153595638
1.24751016862826
1.01033799593436
0.794521815391103
0.63731432937923
0.50029222164602
0.378995947636919
0.280855780436801
0.199203867665871
0.157480754982502
0.153761874398073
0.07858101016388
-0.167869462377878
-0.528039450597339
-0.872616467109078
-1.13807956791335
-1.29087775451563
-1.2744078544562
-1.06406671628445
-0.704108639459604
-0.3059674978655
-0.0558191284871455
-0.105911827067493
-0.394771994592176
-0.720005050216201
-1.00549343870394
-1.3132188744313
-1.64122264268395
-1.95090586030382
-2.31693721980118
-2.79856981354781
-3.25112453358188
-3.46594173048149
-3.38158192014516
-3.03880565773397
-2.50618168328958
-1.9350340004426
-1.48878297906109
-1.15284760557836
-0.781353407432485
-0.33275223631951
0.109839290864941
0.504888881627047
0.853565127327553
1.1020339382606
1.22763361517351
1.35226725898163
1.61640656574536
2.00572019639173
2.38320649641979
2.61086867894874
2.62565426498658
2.48937015198562
2.34062714819073
2.23696070005952
2.11086384475988
1.89727033077743
1.60159444033936
1.2666112082127
0.985675821880618
0.878893803538412
0.943921721673829
1.02946598183503
1.03269300085198
0.980711070652625
0.881057041257165
0.685197709687165
0.432306625972329
0.251668408874293
0.220180838160638
0.327247278815406
0.487535241625246
0.513508296772387
0.25575089921488
-0.159436309432261
-0.436894439809536
-0.488914343687281
-0.482878880779694
-0.520145999297859
-0.520818463127455
-0.432621818645686
-0.313983616843842
-0.197057651637882
-0.0652695012653357
0.0442069774695808
0.0686996125302085
0.0005178079965526
-0.159909617251106
-0.422581096216077
-0.715196299425978
-0.911488181269609
-0.986137309494663
-1.0227404918032
-1.09489747720827
-1.22983968713127
-1.40631499556378
-1.5334105086815
-1.549919760149
-1.55096687277596
-1.67732044220639
-1.91710502412175
-2.1462527841146
-2.2764974379159
-2.25840612800242
-2.07137836100866
-1.77939826278278
-1.44585377009317
-1.00890168572901
-0.433713173037186
0.10687040131264
0.447952906401983
0.706754288818664
1.0998845830813
1.61926244668683
2.08281495137347
2.35701753634833
2.38962265059146
2.18593460577677
1.85639097206063
1.54316008910689
1.25612888839207
0.925672858894444
0.604208212324127
0.441488084028963
0.478464154638294
0.613427432449517
0.722389316433523
0.711782721226309
0.561159255105645
0.382997555792554
0.301581325835477
0.259782766617978
0.108313468473388
-0.151103453391951
-0.380652357547479
-0.500490388306452
-0.529168987086049
-0.506848823999643
-0.46428501258938
-0.398585693946539
-0.276447167408246
-0.129124152815548
-0.0571957217794835
-0.0608270577338218
-0.0144685307137214
0.110870979973719
0.187537627951115
0.150305281748931
0.0729449769017104
0.0101466923629965
-0.0381920068084955
-0.0410118501394151
0.0057231292297335
0.0173003698930211
-0.042358430881872
-0.0843526687108294
-0.0515066420738277
0.0029481721729812
0.0501958055163023
0.123948895071561
0.194039622669743
0.184050185152704
0.117937737087087
0.0697361718763756
0.0074116706646279
-0.124118412805661
-0.239978846034817
-0.231439473067241
-0.1625555018346
-0.186439436575675
-0.343568404206892
-0.542296449857212
-0.663077062640569
-0.650502402194482
-0.564447975067144
-0.512350935254699
-0.505278939022628
-0.471220120253262
-0.40412816196041
-0.364771831953858
-0.358643283745012
-0.344437762486919
-0.303633225981689
-0.203058074799672
-0.0059303366274341
0.214509855107035
0.339987283961827
0.408527841319725
0.54609194022117
0.721525631263832
0.793604171099504
0.741302990433063
0.645676561807331
0.544940228275867
0.460864730892717
0.424575558579707
0.376168291826577
0.216607785557282
0.0137980611741456
-0.0441969133592041
0.0705114861043773
0.196654720634521
0.238677644236918
0.245909351775295
0.25103203318149
0.220469282159391
0.136746607462515
-0.0076496590733958
-0.216663661600908
-0.403545368238117
-0.440003905343598
-0.352186676729929
-0.311292328167465
-0.409142797177225
-0.580142381872853
-0.714732912793511
-0.74186917508519
-0.66183473426327
-0.55429929091753
-0.474145003425688
-0.356890009658161
-0.135906929972974
0.116373431451522
0.282503104626817
0.334898911785727
0.289530427918145
0.166517744037628
0.050964883129225
0.0329333010889514
0.0854454640495112
0.154990696375507
0.280750306548863
0.451887758045976
0.507006403454853
0.367631584356623
0.198939783190314
0.173741727649644
0.254074938655867
0.32622404359523
0.363133645048402
0.362072158596578
0.303666507631255
0.229348981595731
0.194279739449742
0.14870097280867
0.037424795700209
-0.0455920566770856
0.0115526270091798
0.141148864026823
0.193603758115732
0.126906995382412
-0.0171111779199493
-0.203513959677658
-0.39298247596402
-0.534764224880743
-0.597253162033736
-0.566317309694547
-0.463017091851914
-0.369589649500665
-0.344940210168904
-0.344174362504528
-0.322619684371431
-0.327548891631447
-0.371988533100855
-0.352589991107405
-0.206912313123268
-0.0075383749138363
0.163157084319199
0.271062150676184
0.272121997299879
0.177757879893102
0.111171524597623
0.127819951496755
0.11369915882115
0.0152573337285705
-0.0225808744775651
0.102196111804358
0.274859864117414
0.36111072123124
0.37984634443335
0.380611846684311
0.341534379401562
0.264028686148576
0.195090650960554
0.123448251065992
0.0159136794987228
-0.0625209491513454
-0.0260216006549692
0.0783691305743106
0.117561645236492
0.0134717973275137
-0.208952225573969
-0.420860370079907
-0.455578341392194
-0.290705556791303
-0.103872491085064
-0.0510396480416016
-0.0968320461209362
-0.13512919412888
-0.134728666605137
-0.112433301805466
-0.0937989378729765
-0.109833432544853
-0.13667674564415
-0.104131044590072
-0.0308356472950949
-0.0130501747854449
-0.0397101911881119
-0.0076903297132063
0.0763328897917637
0.126447680495592
0.167983349814312
0.273298063316647
0.385398363729237
0.41096059515122
0.385617019233276
0.380522148390062
0.369004013216476
0.314779658253501
0.260596378469797
0.235362664902385
0.20170696328015
0.146837460691291
0.0954637745036018
0.0282001155572881
-0.079057248897559
-0.180461413750077
-0.253310190646418
-0.362867856104024
-0.515341356603238
-0.591629252175447
-0.528544442146278
-0.412298242173636
-0.334185167004772
-0.297675070117914
-0.276282654196599
-0.242481113634834
-0.166851643361602
-0.0585481684530755
0.0519827272650834
0.172394874067545
0.297735485048744
0.356558276866997
0.31895744674815
0.259703761155369
0.219328494323275
0.149912990171005
0.0600052627810715
0.0186410201944604
-0.0102325257631508
-0.121080928989547
-0.271374607842414
-0.335421745341849
-0.285269612831105
-0.156062583461545
0.0372043893105533
0.219183236374959
0.264963424088416
0.193656695882108
0.165598905515107
0.224815955377282
0.248065329312954
0.186269948520495
0.136942450608215
0.146565384281348
0.144401781520894
0.0811997462981722
-0.0277084909685871
-0.15680933969724
-0.253150436652137
-0.256011409762013
-0.197219772745481
-0.160660577005558
-0.143954640725589
-0.103507647936532
-0.0809856583284376
-0.135185863830685
-0.227047987939418
-0.288991664652745
-0.3133263547721
-0.307162900036051
-0.26586963857119
-0.207126578355423
-0.140222554529221
-0.0441107675952746
0.0644515325823642
0.145686033966333
0.236913377830405
0.377745891981588
0.468586200477143
0.408352544907499
0.297424561670822
0.286103369781782
0.335460262317793
0.330105889639969
0.282743519298483
0.254449008640715
0.226020903725718
0.176479518882707
0.141761009094852
0.124725668233726
0.0934918283995189
0.0812404789222126
0.124917821046028
0.140386906111092
0.0454249803845961
-0.0623714291936527
-0.0492116372752389
0.0278574239017784
0.0244729201358216
-0.0704354373950938
-0.16847705862225
-0.226247245377573
-0.26028622527225
-0.306067170926343
-0.384558082171622
-0.452033477149411
-0.436528837569804
-0.355770522784025
-0.294228786788161
-0.26302967411915
-0.210971295139664
-0.135531509555669
-0.0580777935384963
0.024328242185069
0.06563545863609
-0.0028685815446555
-0.1108172084243
-0.112347084402579
-0.0269578812001066
0.0165882722253182
0.0313752029490762
0.106170846586421
0.180068158940704
0.146997105350027
0.0706442549307973
0.0664608007485403
0.103920510999025
0.10706214859498
0.0973962372154509
0.095598123774263
0.0482637640460522
-0.0396544310796504
-0.0719368857957472
-0.0310268299424962
-0.0105966443074721
-0.0556163383339823
-0.12699018997674
-0.189300008422678
-0.199467556054692
-0.101485654938454
0.0618939683743508
0.15541957713716
0.129577276462609
0.0667725602274556
0.0454240176121791
0.0707957597480607
0.102272901847166
0.0759503388267001
-0.0266246189419855
-0.116859969820741
-0.108786014050337
-0.043315877921599
0.0171974440298567
0.106632430135673
0.232615995331237
0.295216704528243
0.262336853521161
0.247772285202783
0.311032969594474
0.362388396657262
0.323905062647738
0.223094292390785
0.129693927250133
0.116004003734369
0.201963416403304
0.265437239651018
0.152782876605158
-0.0754973489985685
-0.198735178813428
-0.157665395119412
-0.0988573142602206
-0.0869248660595837
-0.0251865959349645
0.111751108704159
0.207541815699681
0.18552295065738
0.0676058419465521
-0.111214490798404
-0.287752901165067
-0.35942601133477
-0.311052815550838
-0.240337960364209
-0.203203362607327
-0.173251762266143
-0.150791724955985
-0.163726614277826
-0.197866506773895
-0.237903015869059
-0.298093549845676
-0.352113464436526
-0.35579871933781
-0.356457055593593
-0.432574873240572
-0.543156003602565
-0.572496618577712
-0.466651242252369
-0.234629683398152
0.0681743195194017
0.307523311869049
0.378525021541801
0.34756166175997
0.324072487435436
0.272065855760936
0.135463671475664
0.018826046480109
0.0403841928833371
0.137649489054379
0.192037700832073
0.211310070231254
0.250444926491783
0.289651243190626
0.300806685559933
0.3064272967435
0.305366990050459
0.260791095182189
0.17488421908924
0.0674716911478564
-0.0622893413009799
-0.15617946276189
-0.102344877623953
0.0895884698416286
0.26185340181302
0.306175615617809
0.250170962350963
0.163598766036964
0.10944309523088
0.121843756812531
0.136493168631659
0.0526724362381224
-0.094234573388584
-0.176536152053122
-0.180426085358598
-0.184247670088022
-0.186091790592537
-0.149186546894883
-0.132022693810223
-0.19586931279087
-0.291639545917549
-0.354214669009751
-0.361682058104581
-0.257521532654993
-0.0137519848191086
0.220533167339304
0.245814049837477
0.0795909606490989
-0.0749741375440881
-0.0864446635760508
0.0134622506257127
0.126557398824101
0.163983848832663
0.0935069444860274
-0.0195401598429809
-0.0913215189571363
-0.140473489317839
-0.206553326621075
-0.189862835935357
0.0386458982049558
0.392889245980076
0.615316340331065
0.548515523642537
0.259705697870998
-0.048668437249779
-0.20321382716219
-0.206083158191237
-0.206694036164982
-0.274780234433512
-0.307361781806806
-0.226552202424548
-0.10904010049039
-0.0458085056139048
-0.034718971585673
-0.0471355218201282
-0.0482545971540782
0.0212964698569991
0.136796728109251
0.14818455250735
-0.0184220193228946
-0.241638203226194
-0.380217220258504
-0.411159895199103
-0.351507796573144
-0.220468946776427
-0.0819134380709986
0.02986140384676
0.170507213485102
0.349329463601529
0.453261848984155
0.421414128982551
0.348915854810647
0.317546368150865
0.281289538589506
0.201643734174427
0.130380897968968
0.0933940231593912
0.0508005456541052
-0.0038626637331883
-0.0537505485123555
-0.132415931177329
-0.247188527093977
-0.315867155886906
-0.292442409707542
-0.229314460846389
-0.151615660118616
-0.0330551886181047
0.0801473732301901
0.0923520621931501
0.0028970442306708
-0.100390221213344
-0.145695295536478
-0.101189214292849
0.013921046458908
0.11288457430736
0.13974638547762
0.147336613805009
0.16874464376314
0.124918059790813
-0.0136223823739768
-0.125926338902521
-0.116098288281648
-0.0289098275069391
0.0661353251556932
0.13608488543026
0.141171326223905
0.0995417986340884
0.124449092632203
0.247251675844642
0.329497459221227
0.281824134622502
0.204747345385693
0.19221231707549
0.178956955879885
0.0954731093461066
-0.0060759000570708
-0.0709359467119752
-0.116461397107138
-0.141694032762505
-0.125621734641776
-0.110745148318841
-0.141173595997738
-0.173891782951096
-0.167769955339342
-0.161342363368853
-0.186517505289441
-0.222290275537619
-0.257856950930885
-0.291405139695341
-0.298586397286756
-0.285879217607641
-0.291543697359558
-0.290539467911071
-0.225414347929854
-0.13287065073794
-0.0921006655501488
-0.0908611117199466
-0.0771899322160048
-0.0347046918531508
0.0958974999477782
0.370891387692827
0.634759404960056
0.623493902158121
0.343172298377453
0.0637472242858348
-0.0732913066688618
-0.145298709155999
-0.189334321161041
-0.154818758839062
-0.0714898395995534
-0.0220827221809296
-0.0095816332845037
-0.0143670548949455
-0.0660326303153024
-0.13543986868989
-0.111495688922055
0.022442544294519
0.16208607237464
0.269336002562281
0.386464997230318
0.471809204093273
0.430085342666794
0.272596568319352
0.0856865830849827
-0.0766722015441609
-0.16278590660099
-0.119365546551697
0.0104347295067979
0.113113455878346
0.141706929764896
0.120328259350555
0.0646795324198193
-0.0124277646639308
-0.0950198452270449
-0.196491788405603
-0.298793461853463
-0.308694487670309
-0.208163368494041
-0.133620055254692
-0.160773869196546
-0.18306247815806
-0.135104521547975
-0.110996958810304
-0.147158052397021
-0.130434864762259
-0.0020528552455249
0.160790719367428
0.276624858118289
0.29605025319214
0.179711510243143
-0.000545139841175
-0.0653259370031533
0.0276188716097085
0.105219947696261
0.0595516942876053
0.0016085855499121
0.0284973288115027
0.0641205501885203
0.0327104398433977
-0.0185312275199554
-0.0300662176401336
0.0121441414846494
0.121569498714234
0.268607597092039
0.350901069176914
0.307151998497626
0.183459355059406
0.0587083715889602
-0.0051398935091523
0.0187587342630209
0.0629781201763351
0.0194633332449259
-0.0892189860648122
-0.138975693302701
-0.120623734967508
-0.13310796892363
-0.180927375013684
-0.197399019608321
-0.216606479142365
-0.309512129036076
-0.433462083052807
-0.511494400257214
-0.535097394162049
-0.493997285314544
-0.382932105420205
-0.306153063641831
-0.357778082561548
-0.421862898337403
-0.319078307937699
-0.0864116473691771
0.11012006174719
0.242672200628693
0.386628927080159
0.526422457028082
0.592656246103084
0.593776378438563
0.567439197471521
0.510553833452924
0.437072378424165
0.377049133916068
0.303410295634157
0.192348901364891
0.103263350392484
0.0743911721629705
0.0451806284267337
-0.0203138986433568
-0.068263665438578
-0.0682255596393827
-0.0541572480972841
-0.0464460264725655
-0.0447213190524084
-0.051886944984953
-0.0369049468612554
0.030084449562941
0.0884223702178908
0.067618114634835
0.0209278702710357
0.0227760578450417
0.0210457190447622
-0.0544627378301054
-0.168536868800501
-0.282445368425914
-0.397199127371634
-0.433201435703972
-0.302031047742699
-0.119140816762413
-0.0898401096305665
-0.201035672444297
-0.267812423930813
-0.223214683650207
