0.0757774530225672
-0.0841661838536377
-0.181852372670555
-0.202412314600796
-0.201621399514772
-0.192261291065246
-0.173714818836642
-0.166406495241181
-0.151973355100025
-0.102398339335892
-0.0704621664095764
-0.101452399114301
-0.111444366697349
-0.0190769390377474
0.0985060402112994
0.129264898306595
0.0812780333406671
0.0160305302334451
-0.0288246874554811
-0.0111966099081802
0.0759962623910216
0.160197985701684
0.203912384272784
0.26618679781908
0.351801307831935
0.361378113413441
0.278186442526355
0.214904203850026
0.209513295408637
0.161192037955698
0.0026921540366381
-0.213912039687431
-0.387133772899026
-0.424088314513092
-0.303968159505004
-0.134964619257088
-0.0423734532122956
-0.0110893035221418
0.0330259416845945
0.0593763281037786
0.0112867010011745
-0.0447582397178349
-0.0167213966131323
0.0550679280052826
0.0789833546291578
0.0514497524368378
0.0087685580376035
-0.0350874555154686
-0.0323490630389954
0.0616370699975417
0.16373653795757
0.145263322102548
0.0215412706542883
-0.0988415304264705
-0.167090840663142
-0.156931283194598
-0.027891846333594
0.149219361271604
0.20854638821135
0.115166245924667
-0.0046211593968149
-0.0776727092729723
-0.13863144742542
-0.190470294440349
-0.188366790396002
-0.132283774617635
-0.0623299453385841
-0.0178190036443577
-0.0307969223078582
-0.0656939991857691
-0.01142487599656
0.143081627601699
0.236329634855515
0.169188471479816
0.0520730246464385
-0.0032720001350579
-0.0467922558695544
-0.139161422921971
-0.223338686964969
-0.225919647618463
-0.143539159464386
-0.0077429656498525
0.122052228989673
0.168213264571706
0.137872054991331
0.13317900418463
0.174047439527272
0.143918437597767
-0.0045051679698356
-0.149270644058867
-0.176796596337842
-0.107580422261256
-0.0196099000958896
0.0172294560325043
-0.0388077647971194
-0.13475146232573
-0.14757012955621
-0.0395217826608088
0.110010824877854
0.22670196537383
0.27261985084693
0.213680966214721
0.0845969043425944
-0.0103142101567053
-0.0549206058195178
-0.131234018252641
-0.222463723280896
-0.210643385252835
-0.091495644692246
0.0288574189011568
0.124271143624714
0.218741113384272
0.249670866321314
0.165170540266834
0.0464240472845836
-0.0179577400707926
-0.0435188659547432
-0.0530247748517451
-0.0255752910192098
0.0233589471221791
0.0578511833377359
0.101461838523723
0.173602474577127
0.21007672360151
0.166030529747353
0.104614399140791
0.0807106801771979
0.0566152540566438
0.0118437190540632
-0.0071440249742721
0.0050810308879331
0.0025018578780174
-0.0184079345325565
-0.053245919808199
-0.156781410760338
-0.351283169341752
-0.557525566105031
-0.686127185036407
-0.684210106637813
-0.503843759936871
-0.182208060262691
0.101506101163391
0.209336303015917
0.19435992694063
0.149984899866279
0.0731348061876343
-0.0141355905516967
-0.0102613006368529
0.092894804745311
0.168299564891759
0.1443433586797
0.079936861504771
0.0528529799957983
0.0993679322279716
0.208498100617582
0.292420561822136
0.256226554314036
0.132306646448902
0.0362481066263967
0.0075202436826098
0.0095628141514553
0.0252932475803278
0.0342427188079572
-0.0159803749609079
-0.107917811372975
-0.137766239121335
-0.085407028610147
-0.0514597096566044
-0.0650736377799759
-0.0457223749048384
0.0049676846479205
-0.013324141247824
-0.109891645729277
-0.190260651576058
-0.198903512099433
-0.124244277936591
0.0365174394841688
0.200152011984899
0.22883906525037
0.11654947695471
-0.0055219090083508
-0.0589059682151864
-0.0540949833730039
0.0134257030246891
0.135512023770628
0.224265567183876
0.20025120546177
0.0796383651099296
-0.0639236392301331
-0.126445273462742
-0.0173582916835112
0.186625815627659
0.2483790414114
0.0783554293047097
-0.124697441698131
-0.166304471699542
-0.0913463867032299
-0.0228546840544419
0.0243303760773752
0.0724701382001156
0.0938195727621879
0.0646481202419376
-0.0035194285531206
-0.0958373052361596
-0.173374836322681
-0.166451945856825
-0.072148225202614
0.014466746368986
0.0296712468577151
0.0040541425434429
-0.0252178899096129
-0.0400830363285874
-0.0042046731199372
0.0682201365993025
0.0825774745421145
0.0164893209104068
-0.0276922770886917
-0.0050357286941237
0.0080735623993778
-0.0227212819234718
-0.0465964639128724
-0.0492517164371594
-0.0492502393685531
-0.0275083147526924
-0.0009078813851039
-0.0502582642930451
-0.160168766850604
-0.194255092896819
-0.11821734621369
-0.0597564315689259
-0.0861081907700521
-0.10653147480891
-0.0320064037317175
0.107397146560941
0.207335517345502
0.188405249360758
0.0930248025085885
0.0650323240886448
0.144764209902914
0.173328915921215
0.0368578219632644
-0.118676092859584
-0.0893407083036349
0.0912821205486602
0.233576841788833
0.255193217347851
0.206097638786092
0.142175128529739
0.0957643994545176
0.066029619099552
-0.0089342050406727
-0.149053308524268
-0.242291843596717
-0.207175105291801
-0.137260476433241
-0.131217254219008
-0.139701495342773
-0.113195230304493
-0.107064207768643
-0.140923486103799
-0.15146903028321
-0.132078147331225
-0.136549565929189
-0.153180470620608
-0.130945802089527
-0.0786396974020041
-0.0307793258003506
-0.0026603389355158
-0.0218177757126469
-0.0850708736660884
-0.104505079796913
-0.0250999690441968
0.0866936712672986
0.183989111960384
0.314207342321853
0.451929425543603
0.458805884103347
0.309463699491442
0.164128637789489
0.142796621013053
0.188988341101098
0.188356786224987
0.0878752363989977
-0.0930333866410053
-0.257675603699462
-0.28368960819605
-0.167802630100317
-0.0408387831578801
0.0087983057270164
-0.0006270785766307
-0.060277560818677
-0.170881439514804
-0.245423488896601
-0.200215279927059
-0.0966371785300579
-0.0398330795726073
-0.0310371354692263
-0.0295383618746829
-0.0310301266180175
-0.0244649479507814
-0.0070570631457781
-0.0328835751997662
-0.112940300595194
-0.144166904938094
-0.0635724696461046
0.0500095255791363
0.12106399391371
0.166802975123763
0.197617260466201
0.205637477161822
0.237858869794508
0.304883730542786
0.301046831840989
0.178156484729292
0.0565264188137027
0.030603118238138
0.0432686639960276
0.0392405322084316
0.0433488888049108
0.043118081555304
-0.0088979413413147
-0.0702234491536343
-0.0640949338199375
-0.0273143310880483
-0.046105124950241
-0.114826981285642
-0.191792995665244
-0.280082852871555
-0.338243035718238
-0.265736913596727
-0.0723792840051972
0.0991946798847648
0.161161637840785
0.136114109580578
0.058416570367474
-0.0307764072398708
-0.0691913405091841
-0.061462961616913
-0.0657289981357869
-0.0533634503699943
0.0547543184568647
0.213266100895116
0.287012477182777
0.229673134869023
0.0916432411740187
-0.0645315802555982
-0.154988396221038
-0.114362994448175
-0.0154927310309821
-0.0012425088776485
-0.0815493740213115
-0.151642885025919
-0.16511759443319
-0.137109974035006
-0.0687464069339882
0.0010554191498339
-0.0127113863077026
-0.108545572902525
-0.182569422915189
-0.180691135552756
-0.142720775404032
-0.105360367843744
-0.0783944570602619
-0.0773817700055782
-0.0861799282810229
-0.0600706760608089
-0.027037457845452
-0.0600690798093797
-0.109675630560099
-0.0426043808866565
0.124916012477293
0.232035560381212
0.211274708664041
0.131911340804916
0.0515581429278902
-0.0114070196854415
-0.0395873190823427
-0.0590428433922428
-0.104504593357721
-0.10826659242034
0.0202949704962226
0.219812355081812
0.345836210279692
0.35906937127654
0.306827742079679
0.223912889800886
0.164580188184968
0.191854780595216
0.256731473676063
0.239848331498646
0.136764507972084
0.0476142117147212
0.0141273611227286
0.0106522538544614
0.0312035729776309
0.0827887165545122
0.170783211011892
0.307523862791432
0.428427526526677
0.371966126851626
0.102537454028211
-0.156547863815622
-0.197188913283933
-0.108117204976433
-0.098057191255809
-0.186384382577498
-0.264264332455696
-0.313681620115824
-0.382875621441984
-0.476551821011962
-0.585859074316302
-0.689386498087212
-0.697164234771296
-0.554756116627961
-0.363000592584908
-0.236272535689002
-0.139902923769771
-0.0060522391346498
0.124708577982434
0.185135053596771
0.17262153062076
0.116802170035359
0.0769649197713143
0.135940951960919
0.276186596161575
0.348922790547764
0.270092687802673
0.131053364748131
0.0517092925634072
0.0592714061728341
0.12574854674009
0.186350631056589
0.158171016519494
0.0570216906493661
0.0013217651685739
0.0208543422736498
0.0146318711039865
-0.0461156438627139
-0.055007417073369
0.0468655391852018
0.188158123560163
0.279213156638992
0.275332361083271
0.162271062726895
-0.0016339408438985
-0.0916081655413751
-0.0640659336757842
-0.0100619196823196
-0.007213678459468
-0.0531966420124093
-0.151865337484572
-0.280190073784941
-0.307553275840637
-0.157824665575878
0.0275757143844012
0.0804228393982008
0.02703451984809
-0.0354128421029361
-0.101132037562534
-0.171463797041015
-0.198111567592448
-0.182450589071289
-0.164880557729777
-0.117964950364322
0.0032726750506816
0.165996150623616
0.321283529870663
0.448601228930856
0.487568730801577
0.390282682751221
0.252178779180293
0.209398690525361
0.242067759364448
0.247744286116705
0.217374447205029
0.185885601134245
0.130943094570525
0.040410136569631
-0.0435651414820653
-0.109157408998427
-0.180471875123041
-0.23612254508587
-0.247850499982785
-0.259195498809109
-0.303408504798148
-0.325442145056568
-0.303136933032053
-0.321015306614596
-0.411041695194068
-0.475696839892447
-0.457318792464371
-0.407504219179909
-0.345272919491441
-0.232365546652836
-0.0848166000380115
0.0555120343772127
0.198426235988124
0.327775166954844
0.362096153538054
0.283078749927937
0.171850218468237
0.0881202298599574
0.0474998609484777
0.0766886882177602
0.152733147198521
0.178280991111027
0.133746074021301
0.124474455368306
0.204528764092319
0.317484789704796
0.431475688524467
0.54555938952068
0.588609991168369
0.494733849333425
0.319061300520805
0.147815505976248
0.0038312787635864
-0.0847439249838471
-0.0828684347209058
-0.0577563208813498
-0.117305677470474
-0.231352867718586
-0.281295088125836
-0.259781637465152
-0.255218811823379
-0.290688890268266
-0.335876033199432
-0.402777406610836
-0.491015817043907
-0.534652719156274
-0.50286401881896
-0.443392473163814
-0.391221909623411
-0.356056032361306
-0.367107217169366
-0.411275493969636
-0.413652414378095
-0.359675627742248
-0.29685810868109
-0.191627276183969
0.0210146607047654
0.260636413111761
0.387205162546358
0.411339080582737
0.424096076192085
0.41996200287923
0.363408435378394
0.300387795288136
0.277837817255553
0.296178223042953
0.382091581625132
0.533859104444327
0.625104333498171
0.553837236654963
0.411582003066383
0.340209125977449
0.341659623138368
0.356121981085557
0.375658629198828
0.381925400048755
0.320074003770422
0.197473462885037
0.084688579949322
0.0074159398625527
-0.052750306651552
-0.0882109713303595
-0.0981018986219908
-0.110985879461797
-0.0952752898421307
0.0192698030673954
0.172887249528382
0.204476509382318
0.079393088724037
-0.0941252522696728
-0.249056432314695
-0.374088109880161
-0.41838542216937
-0.356016198841546
-0.262118323742798
-0.216835017417842
-0.233883036129142
-0.31231311639242
-0.429911785065728
-0.506766771677952
-0.49870020635979
-0.461246615270036
-0.433497386262747
-0.381855870260454
-0.319614548121496
-0.323974887670567
-0.40031490471886
-0.478324057099418
-0.516928685908606
-0.484620868527741
-0.336542458757886
-0.131114863593093
-0.0275909213332524
-0.0728474905679773
-0.141423026133503
-0.127445506188152
-0.0315587052129033
0.135966015835729
0.358026679615757
0.540787859303831
0.606392317668784
0.605222545097811
0.600133719223114
0.547064324443225
0.425445895823015
0.341909171162348
0.375955170042041
0.467177401805468
0.528638343750832
0.527173150030045
0.450442701589159
0.335977116792512
0.273562373229696
0.268667020796026
0.220569191843686
0.0999601118149896
-0.0192627644366962
-0.122300758746799
-0.246690372034976
-0.334826687619219
-0.301006692878752
-0.197134465720444
-0.134737534260066
-0.124108024549804
-0.116469121627867
-0.0874043684007663
-0.0093340214085847
0.118525995640718
0.20532308824909
0.176550629543371
0.0952143407838927
0.0525655282056682
0.0444701332856198
0.0513333753818364
0.0942527563158252
0.137379673351207
0.0892912393257184
-0.048388148252272
-0.175040384211851
-0.245188871736832
-0.293087672543081
-0.32561618439016
-0.323755245518157
-0.308866564225402
-0.305563904168276
-0.313224652003611
-0.359357252254762
-0.451717163211791
-0.485848921410306
-0.373087601867504
-0.207939629498792
-0.133179567653221
-0.141311059296524
-0.158820582932011
-0.174902321820483
-0.169249289850645
-0.0843790216633056
0.0579449103757126
0.169750251336617
0.226159702755914
0.24731908419261
0.230995963571322
0.220716897587632
0.29988059759568
0.42262411300321
0.431694838669575
0.311479259346862
0.229211442151074
0.294491585552794
0.455198904973356
0.611218797927241
0.677422450222258
0.591908012097447
0.383621369432172
0.16900504511847
0.026645669344258
-0.0462713982788961
-0.0633428351246482
-0.0500722587260208
-0.0824256289988636
-0.196303141123098
-0.305577050117097
-0.327510280973684
-0.309535681692175
-0.32852089897112
-0.384152859297123
-0.470727948278619
-0.598815007002505
-0.702500350613117
-0.694609112706325
-0.607371048677712
-0.524398013445666
-0.447955257552503
-0.368720320654997
-0.342172769958957
-0.386681975056245
-0.437444434413923
-0.445903924069467
-0.392877425388659
-0.236114225128271
0.0160797018200783
0.261181102928262
0.445578231341329
0.619858389671423
0.777687791872163
0.824045948849726
0.758420800333567
0.697931444455798
0.700880316247844
0.736711431325902
0.786567822874091
0.820008805632335
0.759122620878504
0.594036731410805
0.429758835511247
0.33544438085853
0.268160293306589
0.191391913833272
0.134321015510154
0.105949386337245
0.078482570590769
0.0611272542287219
0.0803380704892115
0.117223126520447
0.147480834734552
0.16544580494866
0.125064879041905
-0.0093004234358973
-0.150501711476119
-0.197696744241201
-0.215154937777683
-0.321943242515782
-0.49161174637123
-0.626876625802184
-0.708824789952668
-0.743533267667466
-0.711427465909568
-0.654124752429474
-0.656012156050665
-0.706660017752359
-0.722019064502926
-0.675722820130667
-0.59044662306318
-0.476631565354222
-0.369634560730343
-0.320873018470744
-0.309541450565108
-0.27749460772343
-0.225536739048664
-0.160506332789002
-0.0387893597799927
0.13286709516183
0.272052491658365
0.362546768311697
0.460485949460912
0.536610739228493
0.494093639199459
0.342469216623834
0.186041467550768
0.0749643434991708
0.0149936595928337
0.0374864174136184
0.111001602587503
0.11116199241961
0.0236831178725917
0.0120770837423491
0.149152629178585
0.270872068682169
0.210959281790704
0.0053084674779248
-0.193077555606509
-0.254925740698029
-0.145296820889364
0.0347798906360523
0.143319363449644
0.175602596366921
0.223208308696763
0.283222856785919
0.289951949954745
0.272991667530379
0.28966368757524
0.295563985876878
0.255748127679891
0.253965587145257
0.348000693504433
0.460521320788498
0.503186301394895
0.467677169853033
0.377498346011017
0.282373526797461
0.25140321215971
0.272179931249875
0.265245740147975
0.245001376650195
0.293651443689317
0.364596421896422
0.326110676678313
0.193973066598903
0.0958591354842917
0.0283217118913867
-0.123433420061381
-0.354800110052669
-0.543215046412127
-0.642195348243378
-0.703747775007019
-0.768594370125802
-0.846298650716775
-0.913697294105525
-0.895067726917202
-0.765881569126289
-0.639898373074839
-0.613195269779863
-0.618889577711694
-0.568003654882297
-0.488443359622041
-0.416038271826588
-0.31589666353354
-0.181888300587106
-0.0538460807079066
0.0752449658793189
0.227513507660622
0.364777947365279
0.457403761657528
0.533836046988583
0.601517526316167
0.655071353842115
0.755948443630943
0.92387509624426
1.01213010635903
0.895060775618197
0.680807228685591
0.54560362429317
0.484016705214401
0.388526533166454
0.241563197094329
0.0939094018682923
-0.0398679553179264
-0.179379629492661
-0.338112311379444
-0.497420893732977
-0.580088578609159
-0.519336729804939
-0.399512665704267
-0.395142405836432
-0.519356821008516
-0.614040873086172
-0.624340375695963
-0.651316922824949
-0.714241783808528
-0.715400009315211
-0.636328977119252
-0.537059912380048
-0.416212228706768
-0.267718660862857
-0.167932261384825
-0.15277228567264
-0.146596455030297
-0.100904207839793
-0.0404468344594653
0.0499210402749696
0.206214290660144
0.378377179666871
0.494816274143965
0.560266244144496
0.592229874439629
0.594159096216159
0.636441248053133
0.784415629352786
0.94606302818256
0.97834454165176
0.895356830753025
0.804028109077656
0.729429744523352
0.640180558811644
0.53017517858368
0.3860741953015
0.192785330317647
0.0021193155114245
-0.12169506463231
-0.199315482156432
-0.263080554879569
-0.271868054044248
-0.230345185695256
-0.265575510561553
-0.441906546090395
-0.645630099058424
-0.76723581255106
-0.825730377613862
-0.84766297609303
-0.818870545761299
-0.772253001749416
-0.739751211217284
-0.664170717609462
-0.506929172997841
-0.328942456074747
-0.159291172815758
0.0492477773211903
0.273885768223677
0.424079219298059
0.502436147445782
0.577943149946271
0.648219691558282
0.698839386119319
0.791859684531836
0.937653300650721
1.01020805321481
0.910959423838455
0.692620559408161
0.478130192811132
0.381928431106476
0.470649062361853
0.658600614083719
0.715197728430044
0.502913338109312
0.128315365873075
-0.218528328062931
-0.471623776011942
-0.683804774288868
-0.914685619012413
-1.16338106324606
-1.35018137585978
-1.38068716429181
-1.2817482845056
-1.19698214225316
-1.18177552629138
-1.12697703604051
-0.960922227135802
-0.777650488990329
-0.699507016000322
-0.754968702920287
-0.905969453155178
-1.06009761019228
-1.09191296030333
-0.959716950922199
-0.724447006658375
-0.414564861231122
-0.0218689577502552
0.371444811895786
0.664813106920692
0.921544738806239
1.27629150688702
1.70089117638288
2.03558067293601
2.18275109687462
2.14796198356384
1.99844505925034
1.85140681191501
1.77095615660509
1.66202514410645
1.39692307577671
1.00004666997685
0.594631827243009
0.259899053531822
0.0134468214997583
-0.188183952474911
-0.448505652039189
-0.786189302351696
-1.02809411880548
-1.00948316498001
-0.809489924571429
-0.619019127464626
-0.475829911650346
-0.30621017061258
-0.113838277349273
0.0351292246952104
0.0932433050103359
0.0014304808777406
-0.252914677950293
-0.510078702407983
-0.581345626183093
-0.504212603597557
-0.440986732819772
-0.409209248414491
-0.330494749899841
-0.220625376167314
-0.138020020011114
-0.0789063021653508
-0.0470757762382007
-0.080331853586439
-0.160637462636323
-0.246088146377189
-0.360328272956948
-0.510454114993581
-0.621843202504018
-0.684157219219899
-0.80769988253409
-1.02386287654865
-1.19077177417784
-1.16460568615454
-0.938325182507971
-0.627830706913974
-0.412561158412938
-0.388660397577009
-0.418188888487686
-0.271824187668887
0.0660188979186786
0.413623981272213
0.6668771310761
0.83654195347859
0.882258654575679
0.763809521922361
0.604778975631812
0.575761902464309
0.67575334557195
0.804668456895143
0.932403799383175
1.0442637474477
1.07491664102348
1.01428002914916
0.927519176343115
0.833576119723518
0.711975256717679
0.583804708047225
0.453578600994925
0.282940556612812
0.116724062605928
0.0720945522975226
0.151129865450797
0.241401818749941
0.285375868712213
0.266931190686134
0.119202504268954
-0.164730008031692
-0.446980593470152
-0.604834330690832
-0.621977287270702
-0.48558073392613
-0.22802011341093
-0.0492815465712819
-0.112528817703479
-0.266773984526447
-0.243613244064093
-0.042741439221351
0.116462518883815
0.121367825448574
0.0506202431290497
0.0250691852815651
0.0980247272993254
0.214995087736711
0.232542355352771
0.059536304315866
-0.224763301644795
-0.471386937826803
-0.612917610836658
-0.635090892845521
-0.52538075725642
-0.33122386931979
-0.118599406921092
0.15049702748155
0.507972630097381
0.792489792468294
0.805631531610214
0.578915753622014
0.274167985319294
-0.0571747590260769
-0.430951555179547
-0.790268466608341
-1.0496517967816
-1.16774028936471
-1.14420152589583
-1.05552322384347
-1.02936625971961
-1.07167859394296
-1.05265414460951
-0.946350231312588
-0.879622669214371
-0.885104136806765
-0.848093294589767
-0.729043974474487
-0.606885754392628
-0.51883207368178
-0.446465765807485
-0.385717373947621
-0.301864760217551
-0.147372628708409
0.0085706908517081
0.0531296442422806
0.0601231676777785
0.231688294710449
0.598174356070643
0.988132684678013
1.27819255276148
1.46273056026464
1.53210100979587
1.50032976377463
1.48189585942033
1.55213619124731
1.62462250717996
1.59300271106063
1.4645893880276
1.288712672134
1.10246044507966
0.959353481317336
0.877795372215202
0.797548326962402
0.670278762464072
0.502060834077077
0.28266157609789
0.0163063576003628
-0.195326807005433
-0.26075186219473
-0.232118753225522
-0.195820800454086
-0.147956797994615
-0.0916146573930404
-0.0969856634515173
-0.184851477724082
-0.317987200754328
-0.510878769694431
-0.766990073150104
-0.977018651687344
-1.05710401650219
-1.06413952921895
-1.03866286826599
-0.925496833517021
-0.758993309250518
-0.691341825713183
-0.741012641478975
-0.754818121862466
-0.689662565129333
-0.68060368209108
-0.76839102567588
-0.801302324701098
-0.65932750392889
-0.379733791128587
-0.0609092131775334
0.198199415074679
0.316626730950327
0.31088049778662
0.280140063620429
0.269169990799242
0.247640524625823
0.198663424775096
0.122771327307903
0.0336069092581561
0.0185478681151916
0.165100374268774
0.391562450349185
0.517731804130638
0.495824376664489
0.403932081974472
0.279750898010892
0.133679128794261
0.0308496933397135
0.0223345866913732
0.096366610442779
0.22948064092401
0.328286367388881
0.180656470207061
-0.305101527994063
-0.893811395504061
-1.26673254902643
-1.34307123727294
-1.19656428928933
-0.859917022075797
-0.391252887420572
0.0589855113541316
0.398892921137257
0.662858027759128
0.867536814291359
0.971462086318235
0.994681170280706
0.995980559257264
0.946156309729589
0.793817329338911
0.598545609601397
0.453770005950494
0.373056549093754
0.341362802704978
0.342644375006425
0.314045005381677
0.232856584965189
0.200386902597662
0.274234930402797
0.330118692509996
0.247603669254105
0.083783185108951
-0.0613541334495469
-0.184069564887498
-0.302034604790283
-0.398724550334232
-0.461090584261179
-0.449170888084832
-0.303587319020084
-0.100071036198343
-0.0569083825580667
-0.275362202443633
-0.613019035449124
-0.862845369340904
-0.911578879010652
-0.749127959665342
-0.480475049352246
-0.267454163472365
-0.143602193811894
0.0068172023415304
0.225519337821446
0.399904406746085
0.445717114775612
0.38429485786167
0.217830302946257
-0.0773802264176963
-0.433111320838915
-0.75348846851955
-1.05639951212522
-1.3672872725592
-1.56780176490672
-1.53779017963926
-1.3231134300296
-1.00923829956
-0.58214405869273
-0.0225873363207553
0.616633407950041
1.270895700475
1.86710525316486
2.29947056280745
2.51467392323096
2.54498217647977
2.40178682991784
2.06551876650119
1.59761417688425
1.11762305835352
0.688588329505357
0.331559442191664
0.0528232692356802
-0.22687615048517
-0.599793546356195
-0.968865590530559
-1.12838844475048
-1.06513235598841
-0.953385986078743
-0.884761561242515
-0.829080312389885
-0.786706884428781
-0.767782351629664
-0.703046980202484
-0.529321147326123
-0.275490069708492
0.0152546897767371
0.334184961123175
0.642946147527762
0.886419526707422
1.07213904288379
1.21683266551651
1.25575828229368
1.12017842385583
0.824642418358238
0.400911456075166
-0.111521698458401
-0.575956061112245
-0.863323330606856
-1.04575557043925
-1.27305939825282
-1.52283043225723
-1.68517699955274
-1.77099979319354
-1.8380975860217
-1.85930505234046
-1.81081874977147
-1.73301070547986
-1.63352901055491
-1.49800851637006
-1.39151765619837
-1.37590680777733
-1.38289186191086
-1.31376264597554
-1.15508173003419
-0.890643726863488
-0.457242536506915
0.129371607955818
0.749653970744778
1.30218189476673
1.73719235758292
2.03600823995347
2.26662614310118
2.54694119886362
2.85585349414693
3.00551540509218
2.87155307812357
2.5278825594703
2.11786752115071
1.7267405837586
1.40522764390925
1.18907445159747
1.07950952223514
1.08511084898815
1.22269136638358
1.4084205084983
1.47579267198271
1.36693054918377
1.16404615690507
0.926845205001678
0.665967662032236
0.427778503968038
0.234718498511452
0.0251443909181843
-0.221519951311465
-0.429575029219737
-0.574471071139724
-0.725251697176854
-0.911162280854901
-1.11362617785091
-1.36884813027862
-1.71685620383796
-2.10204363842728
-2.4333377089781
-2.64279333781939
-2.65467533783377
-2.47688852591246
-2.31069571587095
-2.34780184135332
-2.50149391947883
-2.54406361675647
-2.41369624412566
-2.20703895084006
-2.00322122855771
-1.83343889618957
-1.67595664043154
-1.40219001028549
-0.887782901261982
-0.201063464870315
0.481882691438213
1.10644872273812
1.69478903516003
2.16809900537372
2.44154076937833
2.59237745223711
2.72441953187066
2.79305389919874
2.72406655753547
2.53860415339281
2.24488122473952
1.78312696367332
1.15186862019057
0.460255822279554
-0.141161461429274
-0.510615704963154
-0.591680865042226
-0.488546435684806
-0.351266016188919
-0.211800340102694
-0.0648470591518873
0.0126056241395428
0.0094943670270393
0.091066495018895
0.360820523626533
0.667543989869168
0.801786391282229
0.724461298213025
0.523555446755259
0.313226211978153
0.182307644302803
0.0873318574937368
-0.142150744249504
-0.568079669813908
-1.03300647365633
-1.36989294243768
-1.55950627774576
-1.62294401202281
-1.55302115082491
-1.41104928904676
-1.30972425722782
-1.25271235079111
-1.13920971473236
-0.929028338717192
-0.673183174165711
-0.42592759938845
-0.228223717278799
-0.0850758557161431
0.0975612314838445
0.416745937684456
0.812214654624124
1.15831049508151
1.44800281819071
1.71886775489049
1.91167273618957
1.94982114007926
1.82412998583688
1.52340919006988
1.05763146623597
0.570088662514233
0.232335785503713
0.0504149853268967
-0.0640845832349154
-0.137466005090956
-0.199374339809075
-0.338199306992263
-0.543979099828601
-0.657598634048504
-0.562976042791474
-0.282704327144476
0.108989385371288
0.511905432413741
0.802524404279995
0.946512971412279
1.01685792189819
1.03247842839562
0.933749215166453
0.764732380017758
0.688279425741122
0.758309458027736
0.842227547735256
0.804578136263617
0.617415460002632
0.299353228440313
-0.0912826779098253
-0.434874737933318
-0.66905477409068
-0.871980044977742
-1.13245621665203
-1.43795014303562
-1.73693511357184
-1.98637924728659
-2.14230763072047
-2.22146767724921
-2.30928880058925
-2.41537937180988
-2.43691894809356
-2.31879649328839
-2.10223332168951
-1.81826844725945
-1.50797541310642
-1.29385047334027
-1.24522719593568
-1.25412279316528
-1.1865071182236
-1.02629335465854
-0.787204973805543
-0.477270475353252
-0.197894271339779
-0.0579021168264271
0.022162994665881
0.218958608386005
0.564272839936146
0.969932287026143
1.40262377748702
1.86665300350969
2.29532772515704
2.58805732100884
2.70281336471575
2.66524635151748
2.55583545753845
2.47470592222212
2.41615971504135
2.23055195876819
1.8383790434587
1.39282476759038
1.09145785422388
0.946138676783996
0.85854331367968
0.774376308925603
0.677847693624171
0.588448613778287
0.591255349958193
0.725552719191775
0.88019470356144
0.92521357296175
0.8619893713573
0.76067751849306
0.680045673434379
0.687311265229507
0.800276909502159
0.913088916406749
0.918805689007744
0.828175352783262
0.648853367870286
0.31046501426615
-0.170157637898081
-0.644412871096155
-1.04028396118067
-1.42126900178049
-1.81967900699478
-2.20569434900562
-2.58272558699085
-2.9381495516559
-3.17716888231212
-3.24130073658995
-3.19306528688124
-3.10318296516621
-2.9811799486616
-2.8588975666478
-2.78871541619386
-2.72829794969251
-2.57343644581262
-2.30086878965088
-1.9413509006344
-1.47306429106729
-0.883829915689122
-0.237099136350253
0.442179611337549
1.2071575525039
2.03323343620124
2.77290041264958
3.29116967387945
3.51889156827971
3.43543472166683
3.11904885578492
2.7023675267553
2.20499705632134
1.56974770806773
0.88121343271981
0.343235941063413
0.0439232256574108
-0.0805824388927798
-0.11802404358615
-0.16220469113839
-0.291286070075675
-0.452001614058642
-0.525098692984371
-0.536493802824811
-0.59580880027082
-0.657025376678403
-0.576489118487416
-0.347740824437743
-0.0697839900034922
0.223840495463746
0.538179890455608
0.835252729208439
1.09943937393474
1.36146399743201
1.58067603438801
1.62828637450876
1.43086722072
1.02353144726745
0.482938827861815
-0.0719866451520419
-0.485252439483493
-0.703770283511218
-0.82847548586778
-0.94834624131809
-1.05273655055635
-1.12709252782239
-1.16391534577598
-1.10527470886676
-0.949024866145676
-0.833147892827328
-0.858217188518187
-0.947237180583474
-0.994942540339856
-0.996116526103429
-0.960164254205737
-0.879371064671493
-0.796185132123848
-0.722368340178867
-0.53570609626341
-0.128661574614278
0.414833869901162
0.902380677280713
1.17378693446666
1.12641808823543
0.782137006961964
0.333027866091242
-0.0432370308047436
-0.351310166672365
-0.628897372535392
-0.774388803525569
-0.672297645142912
-0.351935004995316
0.0909330940462873
0.604632806152827
1.15808168538087
1.72934739223767
2.3135914221417
2.81531799986802
3.01239046452379
2.80145248870644
2.38159720581216
2.04037941840537
1.9050793680055
2.01136457628501
2.37042583877804
2.83668347016037
3.14490314740452
3.17158649422379
2.97670116028159
2.60401905754979
2.02443820238366
1.20890937667046
0.117593320031647
-1.26492513067301
-2.79554018793274
-4.22809056029766
-5.44424779917312
-6.47788036956228
-7.34056486728428
-7.97873105504561
-8.32982200366213
-8.29657923148964
-7.77548875114451
-6.78349577383449
-5.4424305255179
-3.87142281120433
-2.24728358157131
-0.85909827995461
0.0996213873726016
0.699800747780033
1.10352446215298
1.35603946742964
1.44476049319154
1.39974318095068
1.2568586195877
1.09198459263234
1.1443087728291
1.70807569355062
2.81961794779074
4.17713918597616
5.37559258172699
6.11846381946476
6.28743137488352
5.95508623067099
5.28696725124899
4.38837883971518
3.32018691814596
2.19827601823484
1.13378998897908
0.168597978513804
-0.601862150753883
-0.991005676453044
-0.930347614433494
-0.564815913598918
-0.0747329940158889
0.433212349180762
0.860977104759304
1.13035909647581
1.22637587634055
1.09814506255875
0.649194928457742
-0.0375554731178486
-0.645039409705553
-0.927895084394628
-0.919640779199837
-0.784588846487424
-0.640751404839503
-0.547016889616239
-0.509763268306267
-0.495176440177257
-0.499055034129504
-0.535873914296645
-0.535820741682569
-0.386268498881874
-0.112436713739299
0.109351822064222
0.133543929850518
-0.0702976217984291
-0.465165148632633
-0.929512811281397
-1.25721901400508
-1.3205429468739
-1.16693578746321
-0.89523711622493
-0.588068597276287
-0.38960082343038
-0.440308396009638
-0.709433417322193
-1.05240184810592
-1.38358370930075
-1.6669699767671
-1.86334515186111
-1.99680126035391
-2.12761233690877
-2.21552929984399
-2.18539853700007
-2.10647840400952
-2.10210407553789
-2.14107600335118
-2.11493673319094
-2.02865694702168
-1.95455507202931
-1.91730521412454
-1.9197398719387
-1.93054167847059
-1.81060324860006
-1.41604634211068
-0.770669879079356
-0.0149973741486585
0.741399839745469
1.42210504930007
1.96624881237686
2.40057869450484
2.8058495545954
3.15427422244253
3.30679767127615
3.20196094351249
2.9315223728603
2.64654946500426
2.50072523216645
2.60440230547647
2.90603177798901
3.22232313579076
3.45704402660942
3.62371240293357
3.64612327135812
3.39565069835363
2.94471560919021
2.54454585267148
2.36313717536845
2.41469579062373
2.64503320238213
2.92656670134176
3.08721610623582
3.05138818631337
2.85307705737184
2.52615330317292
2.12352418616919
1.75725409651551
1.45932173139088
1.11751045957807
0.649734727027452
0.0600519104365883
-0.721534246464987
-1.8018330294355
-3.09654983731895
-4.37997778876421
-5.5486896191441
-6.63707490616986
-7.64463092138018
-8.51208185600946
-9.1629263749407
-9.45526934855708
-9.22318588166089
-8.4296670690377
-7.13688319025177
-5.34349250545821
-3.07852227048456
-0.655284132852331
1.39775666224787
2.65796058615329
2.91080153524465
2.08261651535981
0.331322136064877
-1.85678173280036
-3.82633759452977
-5.00763573149404
-5.09693509397436
-4.18834522402856
-2.70775487077136
-1.07534428401302
0.50931611830577
1.9328880684326
3.06989125882903
3.91788638796876
4.60733217039117
5.21003280651501
5.71888473791289
6.18489049844923
6.67819204038401
7.17888587546949
7.64052269500846
8.02010290772437
8.15549751685689
7.81527090560953
6.95401835542834
5.76919121337409
4.5250221347528
3.45298607678208
2.7000004512778
2.18743055063143
1.61384249206442
0.73686174556754
-0.410366262245722
-1.61355480687214
-2.66258500356968
-3.43879268895857
-3.98184982950105
-4.48201523730978
-5.0614370367993
-5.58926926114791
-5.84035344283062
-5.76145921381922
-5.48416301913104
-5.20095445250785
-5.08185067492769
-5.14877155236644
-5.22495653790764
-5.16859675732674
-5.07968109818216
-5.10127042939848
-5.14231664030983
-4.97158097261627
-4.45805624954195
-3.59763611303286
-2.44371505756766
-1.09515650281118
0.352271753739595
1.8462099405632
3.29203118548955
4.51078332254333
5.36510066528756
5.83729969911436
5.98359504479435
5.94918539912364
5.96045670633101
6.11840370291103
6.28194934746934
6.29987583108659
6.22186843665116
6.17101234829857
6.19570683106397
6.34264146605781
6.65917602101719
7.01504419378202
7.11102180250726
6.75609670860675
5.99968271468574
4.99159874903173
3.87289658940838
2.74302690483148
1.5505961419839
0.115562461762633
-1.57252148534531
-3.22009781928496
-4.5308077088835
-5.4844433907414
-6.23766241969816
-6.91248664833154
-7.51729563711615
-7.95409528482491
-8.1355147521319
-8.16500654935435
-8.30057682350179
-8.7005901197759
-9.30784201209536
-9.92437321277623
-10.2532877723799
-9.9916355848482
-9.0716442866019
-7.70617096309969
-6.10706136217793
-4.34920798686559
-2.55066145548712
-0.921452633940719
0.414316396959155
1.4373627196869
2.12510803590215
2.52366714580532
2.82032952970873
3.16905605405276
3.56418485194082
3.97725811911935
4.42192628579113
4.79650459236434
4.87717927435541
4.55725962266496
3.91819988994751
3.05410296284786
2.04235675970213
1.07474924514498
0.391061253206908
0.0929864403186684
0.164946344682161
0.572780105155002
1.21331650795743
1.89904257088566
2.48680318301584
2.92987273922024
3.23397350152262
3.478333119827
3.78228343174974
4.13382822196387
4.36892109255595
4.37718632258191
4.17474270463452
3.77870955726613
3.20151945624537
2.54508660400521
1.94278776785083
1.47829319154906
1.2482761056753
1.338549186454
1.66302694126872
2.00123004966783
2.19404886960739
2.12566294168147
1.63096777777944
0.672167154301481
-0.498072548332173
-1.55285579137881
-2.35780875426297
-2.92582865084838
-3.32038448594316
-3.70614056827063
-4.24928607025644
-4.84380132692737
-5.14900954158866
-4.98655174265084
-4.51068743918231
-3.95343476464305
-3.37732066306499
-2.66857015851005
-1.64956343897443
-0.28320865238329
1.1401579112669
2.14642312765025
2.4823605833091
2.29740987314751
1.96054852253471
1.78755047671092
1.85128783260033
1.97117113627969
1.96521647128573
1.86759026595443
1.74522652884655
1.4488622128259
0.820812873883413
0.0139102532866338
-0.68202125664441
-1.1958231989843
-1.62169645736539
-1.98573646842253
-2.26785065973491
-2.4846411269372
-2.61334390325294
-2.57947827845761
-2.36535215875596
-2.01570884256151
-1.60175959295981
-1.31110035183843
-1.45574310020143
-2.22222677087503
-3.45878041208521
-4.77340112790443
-5.77458965306207
-6.2358451640098
-6.17394104281558
-5.77277853010246
-5.12656205156761
-4.13538573716111
-2.75735968347285
-1.18939912533862
0.345678750837958
1.8002794477298
3.19077769697453
4.5167129210343
5.84320523726063
7.20185057566753
8.37633548300723
9.01431323784376
8.95645335450121
8.3325910954755
7.45436545004314
6.71984660891723
6.4227369642537
6.4972902269738
6.55431912688236
6.20637342179429
5.29155514755409
3.91067319259692
2.39221830023197
1.05629192193075
-0.137987773220342
-1.54797822573076
-3.36357333319917
-5.33944543959087
-7.03192401061911
-8.13931835930979
-8.65035365591064
-8.80616656374723
-8.8440897609835
-8.69279520295371
-8.05939558701394
-6.86983753246942
-5.41410686146265
-3.99724993711557
-2.70344168955536
-1.60134837681222
-0.923756924433238
-0.878262806527048
-1.38277692635468
-2.03156696427436
-2.28016375689614
-1.75646239750521
-0.481972501416818
1.22934431829432
2.99304530781274
4.38353271783265
5.01222102850315
4.8914200005656
4.56713868505258
4.61125909492794
5.08159286860917
5.62007958341991
5.88001409498889
5.71478302043634
5.15291913527925
4.34541581616206
3.45164009627504
2.54292126124968
1.6548495154538
0.843650905685735
0.147605612460681
-0.380005684885289
-0.610181353107278
-0.482341365016154
-0.153069063441085
0.19840648569531
0.623447523715236
1.23732499224101
1.87395704952814
2.13024995228923
1.75273583263019
0.869641575750889
-0.124850668129604
-0.854938970223129
-1.19110944159805
-1.2311557504695
-1.04362620749969
-0.54210882378604
0.301136860429224
1.28868657865152
2.15287631130783
2.66158966146766
2.50319204570139
1.40392261407641
-0.474740471995515
-2.50871596588158
-4.10515794376649
-5.07100141291323
-5.51696035226404
-5.60707282478376
-5.4189336767698
-4.93945456731282
-4.19010202173447
-3.32146613537269
-2.4956313987469
-1.76543917029744
-1.20131402270354
-0.991331060558988
-1.2341339775322
-1.74282160461756
-2.15423861235709
-2.10942691137116
-1.37314849878385
-0.058103020588629
1.25251952808238
1.85436546479556
1.43565682909064
0.164957448257535
-1.57775837950194
-3.40599078457066
-5.03005114545309
-6.34622088467979
-7.36074270984804
-7.98378728189745
-8.03459411278739
-7.45085897433117
-6.31762426599753
-4.73376135607761
-2.86717715600288
-1.06530880511809
0.361727219890057
1.4753805167027
2.68652906118967
4.42364099271089
6.81579726534799
9.53330494061255
11.901637746836
13.307788295868
13.5420567602918
12.7731514072007
11.3512329333584
9.668544699881
8.02120813799387
6.53909305568442
5.31635580307827
4.46917145766624
3.90672056158435
3.26174527345338
2.29182264435744
1.18580288302915
0.298727120779766
-0.239645600206524
-0.556157738308675
-0.882154091523671
-1.41680781541697
-2.13451751948474
-2.70192411477075
-2.73567455538899
-2.13224941521365
-1.08343786621214
0.111793472679624
1.16156406691976
1.83759889689652
2.01424706800076
1.59894478715697
0.496802191844184
-1.17121990496593
-2.90401429707122
-4.15092655622576
-4.80217670462557
-5.17496841718856
-5.59470191682284
-6.14698080771516
-6.72896738738593
-7.18814440900999
-7.4339678421302
-7.42641737477859
-7.06764852652922
-6.28335283561694
-5.27755271129891
-4.45619242463926
-3.97673377744934
-3.61022238629244
-3.14159053919934
-2.66787601574153
-2.42906367897772
-2.5338878707201
-2.86090308791012
-3.09457780472974
-2.93028651196223
-2.33286903715863
-1.46788724024762
-0.372416787270424
1.0889301074069
2.94351952845036
4.99672413102141
6.95391595831207
8.48765742245581
9.31971788657364
9.44523481774539
9.15768581034351
8.68321554367406
7.93115904590987
6.76881483534897
5.40114559945175
4.29800596193517
3.79161515452192
3.80466340159029
3.91998724548759
3.73252548052306
3.18534273146988
2.51127709784426
1.87935102640851
1.2542372142999
0.531861909556953
-0.416268062131693
-1.74185544525743
-3.39275821651608
-4.95434113631499
-5.9361624979399
-6.15945215000837
-5.77787685537804
-5.08484337925433
-4.36787172808993
-3.75881162942481
-3.17308267736487
-2.51605436043665
-1.87001166969306
-1.35223751601019
-0.965952172649119
-0.738070201421677
-0.780919311421851
-1.0510336010914
-1.23848557407006
-1.04198775541834
-0.464088663052833
0.185945156180983
0.518610347022541
0.380551962393773
0.0427337685897523
-0.0200379770300135
0.390664197187702
1.03778902978846
1.57924929163571
1.88345576654386
2.00565776984875
2.06944350172777
2.20810270502457
2.43967476368199
2.59601102270396
2.49478810767822
2.09700909951572
1.42174656059766
0.493078381523777
-0.534446688631879
-1.37858732743822
-1.83908973246329
-1.92710364844076
-1.84415405672827
-1.89051610908469
-2.22917527867188
-2.66961891908606
-2.87099402418717
-2.76720168836236
-2.55258212094572
-2.2909100997026
-1.84762998125243
-1.19688917350365
-0.523901224296197
-0.0326404969572094
0.172618967783113
0.0786104313765462
-0.255496743992192
-0.781881075166078
-1.51046785051788
-2.32042756055634
-2.79854775784198
-2.50090705882444
-1.39203038022729
0.111179414082974
1.52105502834394
2.62593955134991
3.50959923163833
4.30749316431939
4.93110038815638
5.03763308749294
4.33163517084881
2.88728324578748
1.15695354600455
-0.257794250558731
-0.893531403094597
-0.743914223888549
-0.329440099468894
-0.170590167373899
-0.140678512530616
0.406331654804725
1.86730352130502
3.98651532932523
6.15262982100806
7.83772197950521
8.77407711896438
8.90007565561195
8.18702176341763
6.56395583868572
4.11059073033789
1.227516307943
-1.55404310601305
-3.8449308035008
-5.39673812910301
-6.08560273472212
-6.10670711898074
-5.98926396772648
-6.20765695265792
-6.82313243028025
-7.49916484037641
-7.75304840063579
-7.27425384945141
-6.1713133777107
-4.89247994279568
-3.85310355665781
-3.19751355630826
-2.84728467666101
-2.55037296832665
-1.89449042826006
-0.554659118115421
1.3845800085233
3.50384130975067
5.39842280504862
6.78261761223424
7.41512711321271
7.23389344514854
6.50806693872494
5.63675934871568
4.81654108267883
3.94762310805233
2.76766825820647
1.12958757060971
-0.711078249218308
-2.20716538374995
-3.0788269944367
-3.60644448978074
-4.2359799542125
-5.08938885437005
-5.96415017071652
-6.58824415470799
-6.78795874580368
-6.60292461313503
-6.27106441653974
-5.94308880882247
-5.45341404855959
-4.50250945086171
-2.97238501455069
-0.985413294360468
1.1820390675621
3.14207335780296
4.46953130743256
4.83199040676568
4.1181476108801
2.60452228922147
1.02194352361666
0.195019953385567
0.40871929742485
1.19481871466591
1.7963480956157
1.75232221927449
1.08880636501981
0.188091779739642
-0.475807998023208
-0.650215161185792
-0.409073059362867
0.0688658596209629
0.670294938272861
1.24866020670284
1.62783882560731
1.8333429224799
2.08172509784355
2.42929645509321
2.62468491679163
2.37753153119767
1.65531847502926
0.749089827443891
0.154986556437371
0.306601718776099
1.29704444454184
2.86727508087324
4.64786216703874
6.35879359953273
7.84696271810008
9.00735647719561
9.63960136479091
9.48832473616801
8.62767235857698
7.66638353552625
7.22751356606638
7.27295723935756
7.22993548343634
6.70907519253443
5.83616914257519
4.93776309902045
4.08155180557221
2.88294796306583
0.754365870438069
-2.46369985136991
-6.10633376425184
-9.15899622174448
-11.1392118982369
-12.261199924171
-12.8140159816925
-12.7957487856952
-12.2149440542379
-11.3732616461467
-10.6753473286969
-10.3121754387887
-10.2234878959051
-10.3406906759451
-10.8019295517071
-11.7689014665354
-12.9676192241547
-13.656613065098
-13.2395156314373
-11.7248405847771
-9.46828938114095
-6.74500148277926
-3.74759622942707
-0.746445316789992
1.95320187828391
4.10032782940118
5.49930783025105
6.04988114538359
5.79460545814398
4.88198875862762
3.56795187703608
2.24354621092528
1.28641313662081
0.880152875166802
1.08997276152821
1.96563244324236
3.36745825983717
4.86300994573846
6.06183908903772
6.97222531483779
7.86111660558796
8.87456807078794
9.92792407480158
10.8387134650589
11.447392677692
11.6995721959999
11.6466927729612
11.2930990587792
10.5417089646675
9.42529656972744
8.23736510937227
7.27268935235743
6.58070728366051
6.05188338154973
5.54250983702925
4.86632496274149
3.8935980835372
2.73305462918468
1.68617055640308
0.995094996143126
0.640158161355172
0.284820670882232
-0.555035530524247
-2.12014811719957
-4.19854561683539
-6.3989934092113
-8.47637502512867
-10.2560040918454
-11.4863367593817
-11.994816678396
-11.8504303622147
-11.2932760633817
-10.6758824447918
-10.4239680536414
-10.7672180915428
-11.5029126867318
-12.216933398943
-12.6655893265321
-12.7913345672196
-12.5282307609469
-11.8039326921695
-10.6298024845276
-9.02876841870908
-6.9528632314657
-4.36146326355157
-1.31645520560524
1.98054216253717
5.16122802654699
7.85490565315523
10.0471218811429
12.0555352596597
13.9376646422554
15.2031455371105
15.4035923240539
14.778583242554
14.0111853389945
13.4434182098455
12.7471373739216
11.384772453199
9.33476465289805
7.29887948875593
6.11378232869047
6.00295050897535
6.51299985970415
7.05435443009548
7.2829343872488
7.0788585660991
6.47030195774648
5.59868100752602
4.58385959917209
3.40994940797345
1.96894184516764
0.149381453182276
-2.05037413568889
-4.34774625849688
-6.2140238221364
-7.27695879278801
-7.60990914078788
-7.49208570904881
-7.0283363685272
-6.17608146876379
-5.03552003025496
-3.96573246733723
-3.48481963620193
-4.08387217827932
-5.95073235883736
-8.79632412218622
-12.1001482282464
-15.5392022404688
-19.0147620189825
-22.2907362309695
-24.7908743335944
-25.7906211064638
-24.8089469770662
-21.8991612267398
-17.5308458179936
-12.1249083645594
-5.8911341757161
0.709194384421209
6.58408525198292
10.4192242230981
11.5016001826307
10.1954492174752
7.83151959489062
6.05576078912894
5.86431757557979
7.08268355490945
8.86108826936411
10.5476081978172
11.925954561448
12.9055427128607
13.4008302010867
13.4926643977415
13.4474859989925
13.4642817465586
13.3923772913924
12.7537957783592
11.1999239304531
8.98645689212578
6.83877104185488
5.30141522312297
4.361462101331
3.68232447542268
2.96007399434589
2.02687044404759
0.893591223296917
-0.176466054790903
-0.796017671024553
-0.739191976522517
-0.070713148771344
0.893317910335095
1.66511580044238
1.79106224994987
1.11114708431661
-0.229041175616826
-1.93649219904852
-3.59414519601258
-4.71537792210129
-5.067732260163
-4.86264883454586
-4.43565066490527
-3.86692926499116
-3.06296200274095
-2.03953513035609
-0.956909289299825
0.0371458344559572
0.920256188396237
1.76765778250031
2.5434202814672
2.91789321004117
2.49292113812061
1.24854388727118
-0.456590936205088
-2.31202269631008
-4.18656007744632
-5.87345938417393
-7.10020363072258
-7.88256751866763
-8.57390213506992
-9.44683343479816
-10.3899561796317
-11.0437186420853
-11.0860637687827
-10.3960078522672
-9.08725411811228
-7.40637468295059
-5.55800820093781
-3.64810933718803
-1.73308315155689
0.191531152628494
2.19076394440732
4.29314885452999
6.49788564398932
8.88552896008053
11.4700847876768
13.8431325739377
15.1745740026573
14.7067168794371
12.2561000144825
8.35824116552123
4.01111461655992
0.0981936070614952
-3.09344120894494
-5.73244422593575
-7.88425198700591
-9.27783779285685
-9.54091496178702
-8.45903059115511
-6.13681738697158
-3.10775348057856
-0.111295955644123
2.4123429339839
4.43205728632701
5.90996010357244
6.64720739063626
6.69161184821141
6.55501479970415
6.74665324264472
7.17686383988511
7.14765306408235
5.92398590260123
3.35396611523402
0.0230891693062784
-3.20804146034553
-5.86081934806049
-8.02353908129658
-9.98092592056099
-11.8714182858694
-13.6967535122701
-15.4098997442136
-16.8809335896831
-17.8731599026638
-18.1130396576814
-17.4332504227589
-15.9440081995482
-14.021882684072
-11.9994514258863
-9.89371138689775
-7.46836485362357
-4.39183244351169
-0.305654600478645
4.95636615451127
11.0521862326863
17.2003549672393
22.5840041340791
26.5181551595163
28.3969546022985
27.9304292956049
25.5438404032906
22.3176817613382
19.4006262192697
17.3936883233857
16.1331982433588
15.0338179285169
13.7274068156537
12.3244628389012
11.0569671678941
9.93156001467401
8.86414960379005
7.8805499999405
6.99234520277309
6.09777486100789
5.16903415349911
4.3151419269955
3.51129453510319
2.48083636823759
0.97568244597873
-0.979775431688498
-3.13702707272521
-5.1543806047035
-6.76012197661609
-7.98274766560417
-9.17891499314553
-10.7813573692729
-13.1146379799072
-16.3215247397359
-20.1454828379201
-23.8478104975968
-26.6818019764603
-28.4573481368036
-29.4498824005737
-29.8790668644352
-29.6873106490997
-28.7025697676336
-26.8204324618297
-24.0732500495335
-20.5948417145237
-16.5205187557685
-12.0386243729826
-7.59323632521944
-3.78243933838761
-0.856023297748337
1.52021154322159
3.84518566868463
6.2534924296247
8.48839362886597
10.2898050632241
11.7492064450117
13.305774243389
15.3317238387832
17.6536719486926
19.5448341319009
20.2564695136625
19.547715414044
17.7735530087907
15.6160549632658
13.6930850460552
12.21785509037
10.9753397870005
9.65061468874129
8.05872660064527
6.07768461168228
3.72612566207861
1.47253314197242
0.116631200281479
0.0932327829559916
1.04920950310472
2.21546944923073
3.04872670433374
3.50458588997284
3.87817533726047
4.43037999857398
5.09004410084528
5.50273245169665
5.32610029387913
4.43170223679692
2.99570630081948
1.57681610552122
0.90562941096237
1.31340536622323
2.45431318195841
3.71895062965561
4.72309255131909
5.28064988800975
5.17882545696733
4.19989932067971
2.25397279936622
-0.584693132322692
-4.04303637031083
-7.58638237375826
-10.4797417007029
-12.0170018263214
-11.8310284822351
-10.1609263251443
-7.82126286218934
-5.72170106867124
-4.33506230040096
-3.63399006505343
-3.30812210329576
-2.80559060748444
-1.43573188120302
1.08315281333509
4.11186100866896
6.32734056309052
6.57085086220541
4.63309365076707
1.46890899093105
-1.39546456273096
-2.94412575803542
-3.27647200773927
-3.20829989151138
-3.52521099176213
-4.65840645257355
-6.68386013916327
-9.36027393384603
-12.3056606824296
-15.2153937827425
-17.8052924416385
-19.6806062883277
-20.5289441153976
-20.3792804436953
-19.4868572281491
-18.0411466225474
-16.0656371965355
-13.4696069029461
-10.1746504755133
-6.33205960934696
-2.36673902732371
1.34743837070049
4.74145716500859
7.79131017827586
10.1538278453346
11.3390799558747
11.2259455698927
10.269027586423
9.27335529372694
9.02001263778165
9.88364472217129
11.607725428984
13.4927049284581
14.8645992706291
15.3981628954503
15.1740425233931
14.5992688789889
14.2146833151559
14.4387300532115
15.3807591303374
16.7331733715801
17.8094465413178
17.9444002863648
17.0363661129666
15.551326406391
13.9414716139597
12.3055825018725
10.6664414238579
9.22639829805383
8.12096710015848
7.07483178407833
5.49365905996864
2.96906857391093
-0.251553019385632
-3.34904735747967
-5.61695845155568
-7.01317285721458
-7.95266340544962
-8.79320153452942
-9.75045790398486
-11.0477057047846
-12.7763087415235
-14.711173500123
-16.5168668828102
-18.0209265805523
-19.1008200098743
-19.5003278723165
-19.025197447422
-17.8305262504776
-16.344340900067
-14.983272131037
-14.0092123960244
-13.5326559645257
-13.5493757101703
-13.9293393939525
-14.2761098056268
-13.8685652508265
-12.0565253202253
-8.86756654810209
-5.08256672256199
-1.64410345438546
0.948383164617387
2.75343662457843
4.08499192897136
5.14048473234181
5.93600505939753
6.58755299461274
7.4069042970903
8.50908917502405
9.58824183365634
10.4196986937549
11.3598597099733
12.9491436511371
15.1245948118794
17.111259414153
18.0066124987391
17.3348187687069
15.2390599507684
12.3682059996458
9.50748225068106
7.14249344961999
5.28924273004667
3.68042756757161
2.09029263968846
0.549729556878835
-0.704844924307013
-1.52387036324199
-2.026261859133
-2.35425951592148
-2.34738230134417
-1.73732114966788
-0.641555764609013
0.422700750883493
1.01725640737945
1.04894397854265
0.623208212519657
-0.120798713309313
-1.05496143522438
-2.10804834704004
-3.24431802740972
-4.33175342586923
-5.10903080595349
-5.35984437909095
-5.12438793480416
-4.74377135511368
-4.64347906897838
-4.97547113320992
-5.50934024603789
-5.95786418570822
-6.30649726672517
-6.74154167028037
-7.44616412836306
-8.56422592248638
-10.0901464596435
-11.6415753838237
-12.5878030026389
-12.5112169093161
-11.3279236601262
-8.99718903206093
-5.49856437164266
-1.194566830308
3.07960509894776
6.45288620799621
8.49864035778091
9.38129690153422
9.71912465098934
10.2369517159552
11.310012480085
12.7459209512251
14.016652075859
14.6774633355204
14.6328765420265
14.1555254686142
13.6527953151334
13.3316450067992
13.1138066582591
12.8488326230016
12.4689378909953
11.9806715928945
11.4555234287374
10.8866907942121
9.87031894273345
7.69913223342474
4.1246744611758
-0.120799504770544
-3.83762994974613
-6.28683109451265
-7.50632380771412
-7.992391255517
-8.31907732558443
-8.96002443081045
-10.2945842150923
-12.644427227253
-16.0801455449177
-20.113646088879
-23.8160793097632
-26.4128445008613
-27.7027351523042
-27.951305901713
-27.5585689493446
-26.7354781570651
-25.233781024637
-22.4275395676971
-17.9063696167445
-11.983841149458
-5.45490063066434
1.06619335116803
7.36300343609449
13.2493573091954
18.230268289164
21.6355032181081
23.114564010778
23.0082548362901
22.12354579759
21.0911643797085
20.0995586374471
19.2174935995626
18.5448872390085
17.8453628784448
16.4091807074677
13.6426287997129
9.72780923296621
5.56558818701059
2.09483636573378
-0.347850943232263
-2.08250755534579
-3.55231108174927
-4.83293346158889
-5.75885506517143
-6.35220094205346
-6.84837113269483
-7.35488824105213
-7.71804345808524
-7.7137325326914
-7.25441739646965
-6.46696126778889
-5.6168582259241
-4.88165871337233
-4.20663450189989
-3.43000931675839
-2.44694777932252
-1.20111458815395
0.299783808637805
1.85777716644702
3.13556310389841
3.89141355424921
3.99039847626695
3.23732235715793
1.57118044926244
-0.503545132527618
-2.07183747945373
-2.57939324293442
-2.21863144461276
-1.49634948483368
-0.711365800537791
0.0070729487151791
0.339413187578685
-0.279512349378574
-2.14687259431516
-4.69671318752869
-6.69057917048896
-7.22096000562775
-6.3667648938872
-4.75270146780971
-2.80251165330547
-0.674922927218332
1.38363981098093
3.00774191984277
3.99553817240077
4.49042637136802
4.91489788110708
5.67889432592086
6.82529275580002
7.99455956442006
8.78951158880561
9.08486720435527
9.02153442350958
8.92660229309054
9.24247666947404
10.2616159184957
11.7852912047826
13.0928903725178
13.2629978084453
11.576855673517
7.84550703292224
2.54745262370376
-3.39843604877956
-9.09665695018831
-13.931150818659
-17.5203755603845
-19.7098418660527
-20.6338712633395
-20.5665208304351
-19.6882687137467
-18.0977516075019
-15.9172615543203
-13.2547860461043
-10.2366777178355
-7.18121119293389
-4.50991328788067
-2.35165962956202
-0.394048738029671
1.80171828792857
4.43771610951109
7.38147500701628
10.2751215446125
12.7332901495608
14.4881157784956
15.3671510684905
15.2627513686317
14.2415521554616
12.544909015123
10.3415710928558
7.63387471406281
4.52209246376221
1.37788671919948
-1.34787240909067
-3.36754442260615
-4.65697605982417
-5.52057193678897
-6.48430930876738
-7.8775236356611
-9.523494828435
-10.9542719046227
-11.8091688583588
-11.8999679348462
-11.090931911802
-9.36576888150309
-6.95094835493228
-4.2295273914922
-1.56800673131588
0.760703527782948
2.5691560372826
3.64230149143228
3.63739241889849
2.36187543412413
0.294097288810126
-1.450325074392
-1.90852673124139
-0.942884046846371
0.865249569292339
2.78067756780862
4.36649906023392
5.54834773389759
6.27612853946524
6.22292331184296
5.10719809784581
3.3022385629756
1.6872622491961
0.728928436643631
0.0589321244158401
-0.863714627035276
-1.94341231731486
-2.45497363612845
-1.70019088392703
0.387143626447407
3.10691462298299
5.35964889597268
6.26720264721047
5.681147853503
4.32114780115542
3.44160043663605
4.09620020892376
6.40449148470165
9.41182688405656
11.7122136928555
12.3222498088896
11.1558699072426
8.87734783115364
6.31678251267739
3.88636545247824
1.52937462192835
-0.766538497321675
-2.61867034768479
-3.57350871459625
-3.62646684017924
-3.28804233045935
-3.25403355993344
-4.00062383870207
-5.46920351550262
-7.1144979091287
-8.40648413051197
-9.21974827510037
-9.64328180478008
-9.64444675025375
-9.1286944173488
-8.16581383659614
-6.99050997590466
-5.8527122318151
-4.85519921508842
-3.82546004916472
-2.45164703460971
-0.654722548811571
1.35705061089875
3.4529024671262
5.65392063914911
7.71521211556536
8.99777533143813
8.97218313388054
7.63813818289372
5.33392025217857
2.35038048345218
-1.0873853871438
-4.51189483060799
-7.05195433804635
-7.81339826975675
-6.66183469904418
-4.61839632035707
-3.22099627398145
-3.36826114939987
-4.85328947706778
-6.89747714197675
-8.87048623176849
-10.557479863209
-12.0227184174558
-13.2723613904278
-13.9936281901102
-13.7157413637253
-12.2064967625572
-9.53649954663689
-5.8813525549985
-1.59269298387502
2.60194006419973
5.81651836421495
7.49749778337551
7.66569739243792
6.87538053859544
6.01520116687468
5.86438062582072
6.67345001848085
8.27752096231681
10.5047594013919
13.1898573487566
15.876413696709
17.8409139143904
18.5013581155278
17.7791737555513
16.145684929148
14.2678378649641
12.4387535124022
10.4213002705353
7.99603607794725
5.47785350124016
3.45168525995862
2.16338430493872
1.42660288945704
0.987908804729295
0.737585042130614
0.6561254197638
0.717507747807582
0.765646067182073
0.472703808885313
-0.389220199300113
-1.63714258810114
-2.84004343077886
-3.7682990252526
-4.51694381405084
-5.24879300607918
-5.97433457268023
-6.59883325701453
-7.18258215375233
-8.12403997927932
-9.87233811437114
-12.3370939411417
-14.8068928520095
-16.6060025253049
-17.6207478489572
-18.0751720409427
-18.0542065735458
-17.3844932041667
-15.7988444460413
-13.169728410723
-9.7401150706844
-6.10920766722489
-2.87583185273832
-0.335947628780174
1.51101548178635
2.89082056141732
4.19241373651428
5.69630199189305
7.29145105101426
8.62850069968816
9.53465670023916
10.1266159261236
10.5932035944452
11.0130781387507
11.2738246909034
11.0724611755428
10.2130316148014
9.03904014947231
8.32853743979342
8.59888487734771
9.66828887666829
10.9167934966623
11.7704891430354
11.9545506255841
11.4946455196348
10.51811773893
9.04117416527378
7.03930403126152
4.65574461321274
2.14132791236354
-0.344416216970955
-2.69310099558616
-4.75395208613204
-6.48830565923028
-8.07011328100665
-9.65548961969319
-11.1830392074501
-12.4820744172458
-13.4151614458402
-13.9172470351017
-14.1131142821192
-14.3714587037552
-14.996125697796
-15.8202717361192
-16.2201043134917
-15.5213068125975
-13.3641469019099
-9.77622056044723
-5.01390673521371
0.570145127412089
6.39117112728829
11.4019397635627
14.3134574633828
14.382340309868
12.0489953302071
8.7108874739104
5.80692440429272
3.98003886301486
2.89700816971008
1.82675893768835
0.490267265103031
-0.696434644263984
-1.22365694929545
-1.04802377443565
-0.431676338969844
0.398608797465912
1.18343612094837
1.57379859878395
1.4821158568718
1.31339215760074
1.60381863713243
2.51043878292035
3.75936318304635
4.98060593302239
5.9600804884137
6.58578216881717
6.7074018576377
6.23131551780353
5.32919833020105
4.3180333765185
3.30905799114855
2.24278878086212
1.25103680786263
0.579013511101428
0.107709279733988
-0.595284388963728
-1.64568410654205
-2.66791579166296
-3.35669660005508
-3.86499153631284
-4.52903750414678
-5.47171190196179
-6.53478809834718
-7.38362920052263
-7.65604033426626
-7.19634892996502
-6.17334860170787
-4.89997949508102
-3.6022634238272
-2.36732000355118
-1.14578036306647
0.204422243035008
1.69515266216261
3.04936955080657
3.9321849912529
4.29952562646016
4.40610670281577
4.53642194258253
4.77056370438339
4.9144145057075
4.65642669577876
3.87550979258145
2.75562050040853
1.5926118212671
0.63917197230773
0.101164603610546
-0.0024007715310636
0.0010566446495494
-0.294626753703679
-0.926336149485777
-1.61281037576217
-2.17261880964811
-2.62345670172578
-2.9651654018867
-3.15035827631241
-3.24764986492779
-3.45509672606799
-3.93646103288672
-4.65139249367545
-5.27160861420452
-5.29608455844893
-4.36726964989798
-2.47090257189474
0.180868451999646
3.26387243334154
6.2112601008626
8.23604151806357
8.8171653403015
8.12370299371318
6.79049105291324
5.35265619250285
4.00958844126981
2.8194659188112
1.92978356249999
1.50160975017819
1.37766984806082
0.979241371152466
-0.230231518560569
-2.17779904969087
-4.20831637515108
-5.59117058491903
-5.90364376604621
-5.16135345077694
-3.81031373143537
-2.41420845147006
-1.15498777923716
0.192626883538204
1.68628238754965
2.86273368418321
3.12248877098188
2.32617876568817
0.912375591309956
-0.522400365352141
-1.75866912282703
-3.05283524865911
-4.60860091665252
-6.04080087357521
-6.61479486476089
-6.01747116529189
-4.67350175787747
-3.31665259089946
-2.47094604093635
-2.32253163363349
-2.81301360636585
-3.73441002317307
-4.82307504081533
-5.78968960954567
-6.27663057660751
-5.96332165221192
-4.83092132227164
-3.24712163506052
-1.78768434019691
-1.02778648415628
-1.2904611252444
-2.31247971945934
-3.24416860988046
-3.22013446867835
-1.94653944818534
0.255648505744214
2.78085684096783
5.07480882117557
6.88376638772887
8.30852033837539
9.5849329430115
10.8531546718278
12.1205007428135
13.2430360056866
13.9212956418633
13.9734913248484
13.6394375084441
13.3463948525655
13.1738147683671
12.8074693634952
11.9842648784655
10.7211772672885
9.13311741062769
7.27462419571109
5.22114819513053
3.16328827131641
1.3020216778759
-0.359824081272877
-2.03955598185902
-3.89065182896721
-5.72196461849181
-7.12637415614066
-7.89381736721726
-8.16152367892151
-8.16968325154916
-8.05106474377977
-7.83823867927094
-7.46261564954899
-6.78023611437329
-5.79652572673496
-4.77583086790477
-3.96220111337004
-3.35964350276402
-2.91859649853405
-2.6745695862794
-2.55957371971108
-2.37241623113234
-2.08027786748765
-1.88065745806136
-1.8829319544287
-2.03297160279604
-2.45876628921705
-3.60168789359612
-5.7892116914973
-8.74233605515856
-11.6303715700997
-13.6740561093372
-14.6820296733653
-14.9219485826326
-14.5215366964092
-13.2225080468503
-10.7751350771189
-7.37038712524517
-3.63022158433223
-0.337662359567127
1.85652382270953
2.73681469572263
2.67237076523958
2.38731141675083
2.5032096316654
3.24023776920095
4.45095482370553
5.91372929164257
7.66054571602253
9.94825736122218
12.7512872148872
15.4131466088924
17.1023190153763
17.5666221797129
17.1721381816649
16.2751839190792
14.8097497766704
12.4232739986065
8.85150014433632
4.26433291210335
-0.66899481910436
-5.17063000548331
-8.78664981305063
-11.2968747341982
-12.3700625494288
-11.626592116463
-9.02996074956724
-5.08085445089402
-0.741675604291827
2.79509873385147
4.61696594108227
4.66623496255469
3.72947111503032
2.76018998166594
2.25952249971033
2.23592111572101
2.54897377924631
3.16768914490063
4.06769585352612
4.95846113764471
5.36449143660695
5.10862656064274
4.48917237141762
3.80240183134117
2.93259286187794
1.64589012472068
0.0565361903901873
-1.49286308026762
-2.87043195372488
-4.22579889176215
-5.71567373722104
-7.3103556876313
-8.78041251659799
-9.80834965625651
-10.1873050286686
-9.86660999794951
-8.75438231856485
-6.69465926468459
-3.81916072134202
-0.750048642079514
1.71869106510721
3.07215668034214
3.24152406454464
2.54253989386892
1.47398927627526
0.41473638715286
-0.495061674558956
-1.14809425017098
-1.31813330283824
-0.829635600837823
0.239829770980916
1.57105343700737
2.72276678246999
3.33177196679677
3.37773835405093
3.18073307372655
3.01273979064595
2.82751004280657
2.44879008915312
1.83293214911698
1.02773986131095
0.0481331999444236
-1.026456269604
-1.87198329198951
-1.98336315701016
-1.05168957770141
0.632868060127165
2.2108679296757
2.87139114412829
2.50179900260612
1.61493888167988
0.668164611541454
-0.351495743488962
-1.71500035437982
-3.58551318494859
-5.87544225669783
-8.27129375978011
-10.3763124972643
-11.8837113051229
-12.5329011822791
-11.9328899213
-9.69491628911173
-5.87521400611401
-1.20779391204343
3.1019521077487
5.83719446963364
6.349930275648
5.00817411448357
3.00188670145141
1.51170893304609
1.0197811223572
1.30431900360002
1.87167945059177
2.40440103624057
2.97222025391192
3.81509743933283
4.89288082876507
5.79370328737859
6.12480567189095
5.81981214187514
5.05190455891882
4.05323914881896
3.04467242037315
2.14971436688497
1.32852753568925
0.509522738429678
-0.235234443213899
-0.763694803748945
-1.06595703460119
-1.27324041931884
-1.48726704237487
-1.62534452222912
-1.37450526060483
-0.39974263979268
1.20618302004468
2.78063234361683
3.64192186202933
3.72052793676612
3.48002582757897
3.34078713289102
3.32837113185421
3.15224708146466
2.51897567415549
1.47754951322017
0.493487327421099
0.0868063768680768
0.405480592009259
1.17212485489929
1.91477630016429
2.23357285510662
2.05908634937395
1.71410188068035
1.55484129000616
1.54057111918112
1.26980975667888
0.346511307629093
-1.38824482577361
-3.79009469439929
-6.4038193177649
-8.64855290655294
-10.1243955520733
-10.6891069898187
-10.3162129187619
-9.06203479011
-7.09854946762302
-4.57669693092527
-1.55909842544024
1.69916912729483
4.5714772819325
6.4564604496208
7.24912118338721
7.21715456751399
6.612735042256
5.6328821041856
4.54456249118267
3.56767405551213
2.6882256102171
1.70279656729608
0.418806627242408
-1.1829901099461
-2.9324601802416
-4.62797443423954
-6.18096551416589
-7.52932567248332
-8.48268272347032
-8.78837878525672
-8.30770205818688
-7.05658833297302
-5.18434702545599
-2.99640996028821
-0.893435341830719
0.78820339245198
1.8715167735258
2.37503419383861
2.51733112747023
2.53160817788005
2.41366768560035
2.04303957437524
1.55985360675641
1.33378439734299
1.50284597567113
1.80155636556999
1.88345986629223
1.57200019661248
0.784120334854451
-0.509481466701085
-2.13163526444258
-3.65031974565434
-4.57359628525899
-4.61663601084334
-3.89725411067704
-2.91535116218831
-2.17706479600808
-1.7348435335779
-1.15823266758017
0.0459454655062299
2.01270277420521
4.38775326362582
6.54010201249252
8.01839255260595
8.81776744035682
9.11749921340414
8.90523992861952
8.06924787473704
6.71847190186717
5.17490440581153
3.74381480975452
2.62048738755123
1.8514339447953
1.27679732179836
0.69084518153059
0.106161143423246
-0.332769617043634
-0.656367548188641
-1.03417556130525
-1.46805584150562
-1.76825941848805
-1.83977540873479
-1.84410899497949
-2.0681812958361
-2.64000079614931
-3.30397691272254
-3.54627971912828
-3.11388625490253
-2.37568215376782
-2.00617822573938
-2.34386465449531
-3.16536452565653
-3.95955206473799
-4.27818978273547
-3.97168687212519
-3.23873011485651
-2.34510273901168
-1.28930972107683
0.0649583345251305
1.61328376935279
3.07923905617512
4.39478661938782
5.67119047348449
6.79743474520664
7.37372679707625
7.13853316611087
6.3178463824538
5.45106281486277
4.86498014138692
4.36568539182308
3.51141081782729
2.12720322040223
0.414514048617019
-1.35125473354083
-2.96583801966841
-4.15823025955886
-4.58964662376394
-4.06791833603198
-2.65082797677382
-0.594753816373133
1.68866310106511
3.73548085777661
5.20037756580142
5.84761258761914
5.39915849779729
3.63243308615299
0.72008793452714
-2.70476885396332
-5.93594982952032
-8.5876660948049
-10.6369593708354
-12.2479923845655
-13.602470153917
-14.7959741588593
-15.8294945612901
-16.6550967859143
-17.1674281383936
-17.2214404609486
-16.7758276077036
-15.9098923394204
-14.5491377031042
-12.3203039743197
-8.87341716427671
-4.28047551031303
0.940846512184931
6.05521539829411
10.3507709575349
13.3626268155102
14.9548057143878
15.1894338153787
14.2656540396062
12.6348687790803
10.9021952721096
9.43804828812688
8.25116435645613
7.29428520798322
6.65902971636688
6.41243112274577
6.44334602830451
6.51162518718817
6.35108933027286
5.81227270775202
5.04700231610694
4.49824071280777
4.60743931974483
5.51999571497797
7.0161748863516
8.63183048735222
9.89205035048862
10.5381600874023
10.5200710444677
9.79052702256573
8.32533967841469
6.44737250421242
4.84747089393496
4.01406408775619
3.76681239601796
3.53999820819124
3.0182563357673
2.3327298091095
1.66657853480869
0.804474326154099
-0.756076949522309
-3.13579978640614
-5.68188316252195
-7.50448735340192
-8.32010573209805
-8.53808773823097
-8.69285998918454
-9.11512238942557
-9.97959953773185
-11.2184367758683
-12.3372292411704
-12.6045588809469
-11.6000075325003
-9.64937506319374
-7.76258968737534
-6.99052830810808
-7.63926182126598
-9.13534694528324
-10.6674979702284
-11.7563170353268
-12.2073233530218
-11.9009772609561
-10.8355119407402
-9.16019179874762
-7.03985480810938
-4.63320923787382
-2.18699186049607
0.0945571778798024
2.28682631818078
4.60982453014122
7.01539478882757
9.07384222795936
10.2841664013483
10.4393410497447
9.77860734959442
8.80827998224876
7.85214274793858
6.82494294122579
5.57497738900346
4.26957016566275
3.22094770446603
2.52070725816156
2.08982073079155
1.92607643804875
2.08383632196551
2.51913145690839
3.08514823858687
3.58660093719982
3.77796898015267
3.39234024366182
2.23478601094335
0.326318959420026
-1.9146154720284
-3.70665416325926
-4.38689219287682
-3.92736832332901
-2.85828700374281
-1.73587426844627
-0.787858811128646
0.082984441069847
1.13342575150353
2.52381299728401
4.08709232735415
5.36762004057696
5.89810526397055
5.45345024045426
4.2116384458017
2.7923305750991
1.93708447788077
1.8978380973772
2.2002336009417
2.15199881713998
1.49278481275927
0.488481224208421
-0.399089425674567
-0.82719232489683
-0.761935158124632
-0.472952821486994
-0.243190223941008
-0.0842241266388243
0.201488272115703
0.786118234776586
1.70514182786779
2.81617299629522
3.80458623344914
4.37922326954407
4.49383480522479
4.29326919706764
3.93886187123925
3.57801691641444
3.27977304920312
2.8378549068379
1.83683977942829
0.0936113027610025
-2.07557066001131
-4.07449797242886
-5.39453427800084
-5.84770762952763
-5.68182975105831
-5.47836628373903
-5.76930077004334
-6.69766116672707
-8.03864091580169
-9.45649774586012
-10.7194628515597
-11.7806353580097
-12.7308031765728
-13.6593920003118
-14.5226395256792
-15.0471268128421
-14.6482144175314
-12.5794413000819
-8.51455081116208
-3.08141174186957
2.39605687927914
6.73439442677516
9.38808066895013
10.4128511516122
10.3512498325396
9.99681277675614
9.826142626399
9.65111176369914
9.01281625825569
7.77143912008858
6.17187489702314
4.57408542564282
3.30209790701609
2.55707517225074
2.28810987745454
2.2091980393887
2.00904665743604
1.53782725905332
0.830230867488956
-0.0290173211638614
-1.05318182109676
-2.24206597722551
-3.26645145683401
-3.4928557396816
-2.51068952285359
-0.524721348298776
1.80961338177101
3.75008419793216
4.74001760400759
4.71485020179362
4.25390403844769
4.16062641188956
4.79043868843371
5.9309703287043
7.24346284132518
8.51309472717486
9.49527488155079
9.8675878404735
9.44370135489825
8.25942131701762
6.426816093778
4.0499861220988
1.29607401950252
-1.55171009423702
-4.18064246984155
-6.45865182082869
-8.58018045108276
-10.897098726324
-13.5375653117875
-16.2390444768471
-18.503514103961
-19.7786224839977
-19.5687008672735
-17.622623523557
-14.1081006480743
-9.5697232309376
-4.75180270514774
-0.408898492378961
2.95598403022645
5.30150238734436
6.92580064523857
8.14646877573285
9.15273587876414
9.98250428204459
10.4554997929712
10.2956989188088
9.50904117669185
8.48248558692409
7.55304511941045
6.63802364533097
5.42391400427659
3.78017611072737
1.89102474811352
0.10476549751787
-1.28093011456932
-2.1666323344495
-2.58685904312302
-2.48795382664372
-1.74471627515056
-0.48057352851556
0.85565295225054
1.83591041365853
2.25825937218464
1.98950679900071
0.912636542792923
-0.874114420384902
-2.97150937717044
-4.78946405816788
-5.70772596398507
-5.37604838238299
-4.04820190449369
-2.46164720211432
-1.24853254054965
-0.524023755898495
0.0214432565575
0.786833768847609
1.89259830271733
2.95235724874787
3.3469796454152
2.88321267468443
2.01277976900192
1.28607487589067
0.802098318487659
0.324426936549169
-0.249568038643064
-0.711960194549467
-0.817261351627575
-0.6534576074589
-0.653129568547505
-1.1798000587023
-2.17696008400235
-3.2998097359818
-4.27352055118335
-4.99209703198675
-5.41964514402131
-5.65102257316005
-6.02222814495074
-6.89680950767913
-8.25820972974037
-9.58676684178726
-10.12586870524
-9.28062203492211
-6.93322692685761
-3.50932890571855
0.259727979547037
3.64535570010514
6.08929900839443
7.30825923043165
7.34361558913501
6.42675074020208
4.84212610015751
3.01983737659032
1.530475957234
0.686688805048714
0.289667902035251
0.0384663993153857
0.0563990871716158
0.812630444450195
2.68862717056378
5.72844721798419
9.53850739503198
13.2860079614637
16.0409831234449
17.2701749547915
16.929448909005
15.2148186812001
12.4933427261229
9.39922381528278
6.65231464392794
4.60271036092513
2.98529572344914
1.18839006660294
-1.15507489117827
-3.7729966963679
-5.97006434845549
-7.25500467962957
-7.67360958059165
-7.5530543310608
-7.15257774391077
-6.61487377730053
-5.97999873342219
-5.14272922879812
-4.04043719381453
-2.94379831018901
-2.31774161017807
-2.33663455258606
-2.68570169567193
-2.81356048026314
-2.30576546846573
-1.17363646213368
0.0771242785119482
0.755925157818596
0.451448266819009
-0.79277534008472
-2.59276053089784
-4.36776449248539
-5.55665859224782
-5.93979346610038
-5.74387960602006
-5.42492199136579
-5.45301427759013
-6.17151632053821
-7.55462663407195
-9.10427139802742
-10.1831448678642
-10.4199041619529
-9.7601862538125
-8.37256671679652
-6.60236385675268
-4.73402572339249
-2.69791243551708
-0.304215927505682
2.16583764234069
3.9633731529136
4.62210393846326
4.44039350453142
4.09530219410561
3.97568740962368
3.94155964392783
3.56160328760308
2.56453647147302
1.1603150797629
-0.0810103249562117
-0.62218256735597
-0.133880565885572
1.53915984462638
4.2512988044304
7.40205974716398
10.1737826004274
12.0159176721639
12.8788072743893
13.0670202006807
12.9085236035119
12.477863251778
11.6340105439584
10.3518149671128
8.86471081468621
7.39416835975046
5.94899948130503
4.51860723232283
3.24257800886331
2.24172189159186
1.44506880582146
0.679473604052278
-0.17078649091403
-1.10130928057042
-2.02414118507371
-2.92051905589204
-3.93151515882009
-5.10874971029894
-6.07927029086907
-6.2244437927565
-5.29204099130436
-3.67511275576874
-2.08257602293656
-1.12510781072238
-1.15917413193479
-2.19842689867043
-3.87378506662897
-5.6813526875894
-7.35203132936586
-8.89589950145101
-10.3115470223742
-11.3462661298528
-11.561788453884
-10.6689148979301
-8.83481898173422
-6.61106581264113
-4.562096556502
-3.03943574671047
-2.17867577423962
-1.83891530409657
-1.59602537299433
-1.07964260730913
-0.302979617254678
0.53210072546935
1.43568369913818
2.59997369233003
4.04553518189302
5.44714684201947
6.2617699720389
6.05141462675253
4.8309794644793
3.05621882876951
1.17988042088079
-0.595638143018933
-2.039198136316
-2.72261782872397
-2.40356766337953
-1.35276779725308
-0.0753008080131802
1.12817263259775
2.17558792420311
2.96659103604054
3.31975792943869
3.10119297587316
2.36314644901203
1.38028885980542
0.498646217994686
-0.0840890719623439
-0.30648245815838
-0.0785084720450976
0.645382625187115
1.67426464685423
2.72805832843906
3.73983600060135
4.78090579106444
5.78986671318559
6.63861500476341
7.38110948526072
8.18913919097632
9.0614234435858
9.74736237078093
9.9675022604939
9.64577648850299
8.86311061042182
7.53802116027915
5.29949548237482
1.94017573130781
-2.05641409920684
-5.75127968498969
-8.50373373223299
-10.2357939955103
-11.0798588527912
-11.1530330072461
-10.6369219369241
-9.71809777459826
-8.41298493671393
-6.68787119838562
-4.76471953762355
-3.12379054659889
-2.15746199336673
-1.88815323058005
-2.0194801282597
-2.23539646734012
-2.46098210207306
-2.78800706587958
-3.12877036033348
-3.12103638237402
-2.51455381728128
-1.48571578467842
-0.421368986062245
0.424902742589259
0.916190241781652
0.883120403242039
0.215253918679384
-0.928758063358141
-2.09530847415568
-2.78492672640606
-2.82054863838752
-2.45760507595255
-2.02596169966413
-1.54682171009706
-0.879811858877178
-0.12586522297984
0.378112070054272
0.420161535803089
0.103009527521269
-0.237522755847619
-0.212620807390369
0.36366418003074
1.32772203791979
2.40207932636328
3.51636353130068
4.69268118395846
5.70899831718418
6.14250852482964
5.76040916471717
4.7530177752162
3.61505110822756
2.825652554559
2.53918748280307
2.55747100505742
2.67706563589362
2.99635711684228
3.73938183283279
4.867919394224
6.05202623167891
6.9367984785621
7.27488948126807
6.93032633399954
5.93990791155096
4.49778053263723
2.81411820522577
1.08510511251862
-0.460545685649364
-1.68533327015984
-2.6747227561794
-3.5935705291589
-4.47601808698676
-5.2336725714311
-5.74385829064058
-5.89307573930458
-5.69102444151621
-5.34544667594804
-5.0727515129872
-4.86896365553203
-4.58505808453805
-4.14775445135003
-3.63036740032788
-3.21250100560065
-3.07081327676982
-3.16487711870194
-3.18887325692189
-2.89393710219772
-2.35625328686758
-1.79073120270086
-1.26020661281803
-0.7073754395468
-0.11718243975329
0.451945069798291
0.847845138366214
0.803784101808
0.141554847464319
-0.951103572049516
-2.01907423701219
-2.7371371588962
-3.062630081643
-3.05299666577205
-2.73525308411588
-2.12534321207562
-1.22550599738313
-0.045569588792055
1.29161010659556
2.53049054717368
3.39548953300888
3.70526860292576
3.50515898007844
3.17245525268064
3.19770873350448
3.69307635673542
4.21569747295507
4.1437857532732
3.14315639440834
1.34367802158992
-0.735330129928367
-2.45942211032606
-3.43114626727976
-3.55694034734134
-2.80708791236596
-1.17337240629899
1.05706699005743
3.24654621335693
4.771251013173
5.36605503625823
5.17864847066505
4.64135317985843
4.20056832744381
4.00244957999162
3.88458208231514
3.71326379051707
3.57417116007538
3.58067553194107
3.68418873165803
3.74526522313441
3.62878299527149
3.20738988527885
2.4603102532747
1.58469686170955
0.839912007854021
0.274827820326516
-0.294729928528827
-1.09061660344329
-2.20507066661859
-3.53547169925099
-4.84584623528772
-5.92414917304585
-6.6260984402193
-6.79332401791711
-6.35049884560963
-5.5333029316416
-4.76971356675569
-4.23934009156141
-3.73247658228142
-2.96433668912415
-1.85174418426159
-0.539049978666531
0.61968478225192
1.14181802796914
0.704382548502757
-0.573587841994251
-2.14503610518477
-3.32593564702406
-3.70409319392638
-3.41928061974306
-2.97973497280266
-2.71662472388227
-2.52386568110865
-2.15075629868606
-1.54378662049108
-0.846769616190123
-0.263698640968214
0.0230345350562823
-0.0374408227492497
-0.299664364094363
-0.565823455450692
-0.748209555296745
-0.812904124517306
-0.699693900198069
-0.388930266166146
0.119449275323994
0.926360481999507
2.08945767897469
3.35149053980706
4.28995134745784
4.71938770977742
4.69414985610205
4.2231945594396
3.29025802888824
2.08754487523725
0.977572094706976
0.238488156723713
-0.0749348935797678
-0.117727033299146
-0.120525765530875
-0.141858120101411
0.0235250758072305
0.60067431042649
1.60502578093165
2.91120868973501
4.33947257947152
5.59499488035853
6.37549526841963
6.67624114639058
6.83191843774513
7.17225541075088
7.69274541751075
8.02536886057509
7.68924955320962
6.47750176504219
4.6621416481121
2.74482393300992
1.02018451545817
-0.51195746897493
-1.89556116013907
-3.1014725064977
-4.13420861855859
-5.04483071123401
-5.84178720308105
-6.53605199905112
-7.21042691199281
-7.90314758316568
-8.49296411018692
-8.79451707002805
-8.71775967172127
-8.34964517381331
-7.96680116514866
-7.89702429674211
-8.25888136519743
-8.87854810990232
-9.44723726566217
-9.62710504741955
-9.07402160269531
-7.59226641501142
-5.27761454142257
-2.41401723115265
0.618716362171658
3.23480329978936
4.76207362678919
4.97373805446332
4.35761804335233
3.67972219949694
3.39153426612058
3.47783052889521
3.65804732867106
3.6763838031415
3.52776034531165
3.40296630799611
3.39898353099609
3.44582287530766
3.5564485022997
3.91316303478845
4.61635440603758
5.56246785535772
6.64472336199957
7.84803060705094
9.05825994328758
9.97760986693032
10.3283264017164
10.0599878696802
9.38276944760928
8.65157848279725
8.09272316122852
7.57453438447541
6.76801707886931
5.53016452677666
3.98019767932456
2.25466748930541
0.36185959408637
-1.75420650648318
-4.08004235390829
-6.37719044512199
-8.18346577878049
-9.16292607403209
-9.44702278891616
-9.46382030315192
-9.51090619820583
-9.65439948621604
-9.87418236198489
-10.0900485921731
-10.1846133032958
-10.1611375831454
-10.1439887513004
-10.1481800593964
-10.0024496361592
-9.51696578366711
-8.58140981359137
-7.15015622059991
-5.30948331394246
-3.32197963646157
-1.43213788431894
0.399301747372677
2.47793173708849
5.03761282759712
7.89880342146541
10.470582840304
12.14329834259
12.6705661550251
12.0861595221861
10.3567753025805
7.42469588784502
3.63391077937287
-0.190923507250622
-3.1975632455885
-4.87752169541975
-5.08632014385451
-4.0083421256157
-2.09294167790522
0.189056321059007
2.50738144131522
4.55404647320953
5.97997829847378
6.55475993579161
6.21516404212525
4.95332917643217
2.90516502709391
0.564682256870672
-1.33552569284332
-2.26187646755836
-2.19942849140078
-1.63831285662722
-1.23443201433198
-1.2984401543113
-1.60130670943803
-1.78480508748518
-1.80906743160623
-1.80758074811385
-1.71332494291596
-1.32048294856284
-0.611705833487205
0.188808025459376
0.804299554225357
1.01533135199093
0.694699900438611
-0.129481360179437
-1.26532318586756
-2.4013411130472
-3.11528095582027
-2.99978102033593
-1.98724226456272
-0.477014467189591
0.991424015984371
2.09108802299702
2.71756381630848
2.89883614160519
2.77566051107455
2.46286099707173
1.89124372591402
0.947017531182201
-0.273753292713872
-1.49411886290062
-2.45889262535178
-3.00893037565118
-3.07875751247415
-2.71357749529846
-2.00366187100545
-0.990777160483858
0.278359058387204
1.65917036106185
2.9559121442107
4.00045145925159
4.67286194951971
4.96958846844887
5.04458553947769
5.05190837685759
4.98476957794006
4.76454655146944
4.37394022132481
3.79198574580857
2.92564186117834
1.7090936753531
0.173358440275489
-1.60275293127905
-3.46109642850763
-5.08631517661629
-6.16187708055752
-6.64073823319927
-6.70060940916858
-6.44659074015313
-5.83691906309506
-4.87286069712553
-3.68579797212116
-2.44218208884655
-1.25655515908481
-0.179498368833316
0.738975784861439
1.36001370047756
1.54371829312486
1.38676512550607
1.1922550426729
1.11154694537093
1.007583948488
0.736326715620365
0.347349057000696
-0.0420447515635816
-0.383335294317463
-0.721186287492141
-1.23253954126238
-2.11961032993515
-3.2844521313684
-4.26369212680582
-4.66164578879483
-4.51469538347845
-4.13934152741547
-3.79243237064497
-3.54716780962886
-3.36117672626549
-3.21393625361041
-3.19018535346079
-3.33573666807708
-3.43543198830792
-3.13597545924326
-2.33800379919621
-1.26043510065696
-0.0780114474413539
1.26129105169814
2.79519260421457
4.36603632874414
5.7712538254705
6.9354463888741
7.90612819200336
8.77301248097031
9.52131466077132
9.90468772880666
9.62159381256611
8.70123427274696
7.5954330910069
6.87067439615101
6.8714796184946
7.54009310127245
8.39279094908319
8.77273073391538
8.2832227905663
6.97906295697143
5.19101171455753
3.2782470283912
1.46472279366903
-0.237898536852773
-1.89602876255215
-3.4139518744355
-4.59686185676362
-5.45932979933698
-6.23558141308231
-7.08424164324568
-8.01611946742911
-9.0599596307145
-10.2428899201699
-11.4455853193197
-12.4647039965163
-13.1450399554306
-13.3248372066461
-12.7998879841669
-11.5142540562777
-9.71232108482305
-7.81849935010715
-6.23093806944882
-5.16507356972791
-4.45749583660136
-3.52224680745552
-1.78124884734562
0.749671554330422
3.40862996263699
5.41898266380682
6.44016973008016
6.73315101717808
6.88378312581305
7.28210910713044
7.83203565708802
8.18505355532665
8.14973330965247
7.81861953847458
7.45859238590788
7.34374084230765
7.51960859148018
7.67998309021629
7.43289149230646
6.70304363918537
5.76776059117447
4.96433135723882
4.44141081842475
4.06791975341968
3.52617631308028
2.63052281583863
1.52981897124498
0.428379529481796
-0.777473200747004
-2.33213541384215
-4.17475833609881
-5.89471175962937
-7.08933471505286
-7.63093088394576
-7.66505743616125
-7.45880700492613
-7.18312131296641
-6.79177245114737
-6.1821020542065
-5.44752647461953
-4.85589123229098
-4.62547758790304
-4.80149982363802
-5.19217465516173
-5.31252956325575
-4.63106099366508
-3.06626720537941
-1.09409948928949
0.695241659063359
1.9640802517393
2.61013366926337
2.70825260042025
2.53171138287262
2.41626122597189
2.51958500698937
2.74613212237759
2.86264241517912
2.70322913943687
2.36480184190669
2.15112076320811
2.22421010808789
2.43842261398535
2.62625702914355
2.84470483084779
3.19491376716636
3.59976948793199
3.89249653049224
3.97161022057161
3.81993402817211
3.50917591378598
3.16928565105374
2.84638510922389
2.46780953449007
2.01431061217984
1.57697621387333
1.1778206956156
0.722456267408718
0.204636049816291
-0.238997400404362
-0.549845916787982
-0.847577515073147
-1.27829574413469
-1.91140733213659
-2.74311836935991
-3.64940555910368
-4.41453959478379
-4.92774857397249
-5.26102186351678
-5.51309627256991
-5.70553414927336
-5.82225874783062
-5.82373253575173
-5.66895097349957
-5.39543907872494
-5.06213139039777
-4.5856580932011
-3.80981647210227
-2.75057493480313
-1.60141149045864
-0.53773161020523
0.323101534586982
0.879521575165777
1.14699947678111
1.30257299411455
1.51581858510459
1.85488258642853
2.39300923542798
3.24058031149744
4.43810047951184
5.90801179464252
7.45065515842793
8.73279690702046
9.44911044014875
9.60512761198177
9.49609637024615
9.3311396437374
9.03860645288188
8.5045531020317
7.82789939816791
7.25373953080442
6.95141511073495
6.8382512620045
6.51362531185615
5.4801807330932
3.59896813749522
1.23404228567168
-1.13448371142874
-3.27184863214772
-5.14078668998923
-6.76201887489801
-8.20097936125956
-9.48890609723856
-10.5148619154054
-11.1220160623314
-11.2727651220725
-11.0424699124741
-10.5600762364591
-10.0091051096627
-9.54631601373578
-9.17368693785926
-8.79227371493011
-8.36613253870982
-7.95742410451363
-7.65778446028703
-7.49888929624153
-7.3142650072182
-6.73938386181107
-5.54232709640052
-3.90876320682418
-2.21846791404082
-0.621684775752679
0.986354632777592
2.66323376994677
4.25621086380809
5.49054734284123
6.15760211593374
6.30205644077219
6.22361230157582
6.15922727871065
6.00942012565894
5.57834620202481
5.02727320990166
4.83188358841447
5.2810394727875
6.18521060536661
7.04740247272678
7.42719137232252
7.23125822092302
6.72066336969899
6.1910915369292
5.71564052244749
5.25936365739909
4.83484431922086
4.38874736773963
3.74202281443049
2.80807282807844
1.71611275565174
0.64868620683187
-0.280205219078311
-0.99728913749616
-1.50646275681737
-1.90843228026408
-2.23158213938577
-2.33493674041023
-2.09429564582217
-1.56784797294283
-0.920785723888085
-0.320522838212118
0.0944657187962205
0.285401887005912
0.325672820912374
0.240227215507651
-0.0880912466810328
-0.75907719920275
-1.68510267313126
-2.63153376610945
-3.32644320279609
-3.5257316915928
-3.14311480849557
-2.38529135677914
-1.65090415445128
-1.26303648444149
-1.32269972138016
-1.68603563630773
-1.98868235721933
-1.87951384214239
-1.3683821639942
-0.803247663423121
-0.467723384771703
-0.380017901116427
-0.455005843489175
-0.633540618360287
-0.866912743898392
-1.13981624568546
-1.46498139899146
-1.78009677504313
-1.96886482415062
-2.026821200007
-2.07396141235243
-2.20564614483776
-2.43395282000919
-2.68802119623702
-2.78391592853366
-2.55774291736877
-2.11145729690444
-1.73892936460551
-1.56893511705824
-1.47417431971058
-1.30272378838266
-0.989874976774465
-0.510045680077296
0.0829251287312946
0.652051199003795
1.16649924996131
1.78092808356638
2.59947179348454
3.47489067518007
4.12838093902399
4.36092751987292
4.13853814164984
3.62750407504195
3.12304397795377
2.76584194624988
2.37882158325002
1.73363622162517
0.873553846764246
0.0654687112074353
-0.399078285465349
-0.288010916371529
0.455366223165723
1.58441848252559
2.67529444293729
3.3830997803676
3.50877092660012
2.98557499800749
1.96780824228077
0.813607897257609
-0.1315873534698
-0.665696916544348
-0.717507979753227
-0.410619453085906
-0.0815199275857274
-0.0193188882634941
-0.221842953022996
-0.521445324215974
-0.828941350640918
-1.15513868498321
-1.52874226983411
-1.96092738225794
-2.38507186040441
-2.63067565571659
-2.55143226883808
-2.15615116976682
-1.5816331109087
-1.03053981819935
-0.756300073579821
-0.951025081790493
-1.55686487080045
-2.27216936049413
-2.7793289983036
-2.90581529909062
-2.63315760724532
-2.09355470706318
-1.49856528199388
-0.948011243459796
-0.39104333719313
0.172775601697313
0.624314103536185
0.898857952138882
1.04304939877431
1.09190462851094
1.06379069501545
1.04091655824546
1.12099031513438
1.37665412922281
1.91949287923594
2.79999664988052
3.77426046492092
4.41199050428901
4.52253252300957
4.28493501098705
3.95047213232411
3.6135868021887
3.25408033166396
2.83298377284294
2.3577708380536
1.91369317434354
1.56989407826511
1.27545088312739
0.951667323174677
0.615962264046235
0.296317472143413
-0.0759045790575789
-0.577174955230892
-1.20962185182424
-1.98230153716649
-2.9215291930433
-3.92558446630967
-4.77144056350104
-5.33108804635441
-5.63583454504525
-5.72937107269265
-5.63632723846713
-5.43691336760203
-5.18797292965363
-4.84111746303355
-4.39457612736671
-4.01200286522176
-3.85122572129114
-3.86660597326061
-3.83691532276889
-3.50082114145099
-2.69267160275196
-1.45351592736084
0.0158742301981002
1.52804479703414
2.94676373781176
4.11610842235671
4.93675401317183
5.46072862969851
5.74976642448002
5.75878054677612
5.51188045965249
5.20126299944455
4.9443721203251
4.64473619589502
4.214737313985
3.71791787406945
3.21906238693699
2.71160285237265
2.2209855899411
1.78781204502493
1.36715571515734
0.906141093205313
0.46733193679255
0.14299361874456
-0.0770782001108179
-0.25552937889461
-0.428014423205788
-0.63762179070066
-0.914859903048473
-1.17971848845372
-1.30830469187336
-1.31886249190012
-1.37133005892465
-1.60135364788542
-2.0254377684436
-2.52746239525603
-2.90422322204909
-3.04172422154895
-3.03678458251436
-3.02719285852119
-2.98504301703001
-2.80674219734467
-2.47782206081942
-2.02664452276109
-1.46230100197641
-0.844744472350126
-0.270558896437163
0.234055451216434
0.67054056935698
0.981588027404661
1.15344899777621
1.29416017723081
1.48187102527826
1.66349105122502
1.76725603629466
1.76429512003516
1.62557139059458
1.38424639318218
1.1755128454314
1.05092484267871
0.862930372613372
0.489596865224037
0.0492774920171376
-0.237627678071609
-0.269656927317379
-0.0649184791597943
0.286147877224968
0.585918686603228
0.620630960871506
0.361958713771709
-0.034666649372371
-0.401303890078393
-0.608880949773588
-0.568987989772627
-0.338733471909886
-0.109471245887419
-0.0058724980462303
-0.0322973803827952
-0.19865163735481
-0.478157400149815
-0.678396677958827
-0.602466171731029
-0.32318316088364
-0.119483071420279
-0.182879090562041
-0.483939358202912
-0.831848171420972
-1.00772299032674
-0.938419233241664
-0.742075673831266
-0.545334148590014
-0.366995459457016
-0.238605256938186
-0.236369775319381
-0.305496821715797
-0.259063749189604
-0.0206407142629897
0.304813595609173
0.606329698237407
0.855596089109688
1.05840690115733
1.24478404012025
1.43821427372969
1.54939403441729
1.41514658119606
1.01766851643851
0.536976023547636
0.141903358332882
-0.123820533113372
-0.250443842273443
-0.250987731930285
-0.235528862168744
-0.315706699563565
-0.458022763038668
-0.556043278885654
-0.568518002547328
-0.501412994385456
-0.368408664902791
-0.218974823394272
-0.10331118404202
-0.0286071342897877
-0.0285596020890956
-0.164406533972674
-0.372610977208822
-0.475397873366202
-0.421119033837263
-0.33600335727659
-0.297522606383763
-0.24195223942442
-0.0971495625990982
0.150718907009312
0.461537818430227
0.69959277493318
0.724311674401236
0.596952192688674
0.511788146491739
0.500150261201928
0.427209742717703
0.267366599321525
0.140020202431012
0.0894466366269919
0.0425157105771985
-0.0342617082656535
-0.0968561102452071
-0.110058754473237
-0.0667237805724955
0.0184722936132736
0.0795648322310182
0.0609835691930861
0.0175879129442749
0.0235534310279386
0.0247216854764043
-0.0586705647264939
-0.16421793581333
-0.188532785784912
-0.153934661109204
-0.136560583431752
-0.13980104216155
-0.128059044116085
-0.0826484872532194
-0.0020787130703326
0.0629388322828496
0.0210494630093373
-0.134360045828268
-0.299561997860517
-0.404136663323647
-0.457784395327856
-0.455467535934351
-0.388466002372537
-0.316812680167082
-0.284719924713574
-0.23724982948086
-0.136076401562367
-0.0376370631399418
0.0242309424087318
0.0879398095732972
0.161355998282743
0.212234687576703
0.238973957582973
0.223259053206449
0.0933361373345539
-0.142595664045224
-0.334971995778744
-0.370985658165202
-0.291396708054611
-0.156053949851701
0.0458755779235795
0.280652560018913
0.440983400076784
0.491459585999169
0.481569213749363
0.413423170158739
0.26268642022657
0.0820830737971163
-0.0659448194855378
-0.18699980660748
-0.257760200488461
-0.194737851924298
-0.0053296374763751
0.170928166664651
0.212856383859799
0.100488331520303
-0.116320434847834
-0.331177360170518
-0.438014329784601
-0.440958029194932
-0.411808185319426
-0.345398702071236
-0.204249250392372
-0.0571952584894273
0.0035614955391901
0.0206539531343172
0.096949544968086
0.247479094695828
0.418340427126148
0.542160782676659
0.544577170304135
0.420310558599902
0.278793491379579
0.207187952208266
0.176062524648182
0.167942152258347
0.244653164895983
0.38784676089305
0.453226753342127
0.391652441743224
0.332083484188122
0.347015490807711
0.331916307175989
0.209159160217112
0.0582372913366487
-0.032334812284786
-0.0803160763438417
-0.141502767371324
-0.238661227416587
-0.342416963356923
-0.375633367285811
-0.309612184874696
-0.240395982260853
-0.250865135690851
-0.264666646052156
-0.18191740417372
-0.0592410380689085
-0.0128789885958099
-0.0581730635966023
-0.148142114286406
-0.241309019772308
-0.278416808176891
-0.222100844477441
-0.114948425708046
0.0027965646310825
0.139503175462695
0.234161049659308
0.16886308675047
-0.0192794067862681
-0.142485084874424
-0.13056113087586
-0.089984181676183
-0.0911305682568431
-0.101610294776754
-0.108996542213357
-0.126413666057014
-0.115584012378387
-0.052279887788163
-0.0095286768177747
-0.0617466594088178
-0.181464130025694
-0.30314378755033
-0.387935095208403
-0.394457156119305
-0.309248716034231
-0.197755096361588
-0.112056932956674
-0.0241729130915557
0.0535359218481306
0.0344136787856655
-0.066164829178151
-0.109824273657421
-0.0572493573266414
-0.0167334607854431
-0.0433078518846526
-0.0699051727174523
-0.0292651312728649
0.0941909870418169
0.277339375913028
0.431655118250514
0.4642273624264
0.412266316949955
0.388763266278644
0.396248595430384
0.345402451413859
0.230457688740524
0.144352132926326
0.155445029233842
0.249383054764288
0.334074124035845
0.298553327263224
0.155906024300661
0.0653917814565931
0.105610832208205
0.142729809050381
0.0457215601698713
-0.114382641447412
-0.207598414991889
-0.229825643345151
-0.223462138770692
-0.176891801883111
-0.109421753361934
-0.0875011344802006
-0.0816055360574362
0.0117111221306416
0.167026108574254
0.234386659587652
0.152778699090691
0.0068014279701403
-0.0927949273325861
-0.0833635940919355
0.0155638249594421
0.0948548587596407
0.076415884432665
0.0149470952814065
-0.0210039417242275
-0.0649303325489907
-0.136560458355376
-0.161993315327213
-0.119100420945911
-0.0970478506346656
-0.13549572330455
-0.170325041584796
-0.164068746641075
-0.138804471050532
-0.112284494986875
-0.118518206229347
-0.193190214424879
-0.263095639405769
-0.210327517798778
-0.0882602684826858
-0.0786747484232402
-0.21781496342299
-0.358472140524841
-0.391509785679049
-0.328708267282614
-0.203069420289144
-0.0440580259271441
0.0917893122799103
0.180404180242777
0.256919256600094
0.32049663881572
0.318810918762334
0.253037201637161
0.166668233565293
0.0598382085235416
-0.0343411178557611
0.0131203001731296
0.234693760804245
0.437670046163383
0.433317260581091
0.264392429228652
0.100743069351539
0.054290428160676
0.143314600419277
0.290550542230528
0.348835290169117
0.240768785085741
0.0361673950203079
-0.155423491829514
-0.264604030363182
-0.240079597739752
-0.107755690512723
-0.0145860678852532
-0.0469307717625518
-0.0987204606377347
-0.0747668130438196
-0.0604507140800448
-0.13303335458719
-0.197964675532936
-0.152460112048857
-0.0361251102791043
0.0617465940803542
0.0921667503388175
0.0314296807899279
-0.0894670697116774
-0.174920385236259
-0.184728518929219
-0.180444818358085
-0.181482228174826
-0.11621545086909
0.0151997465674758
0.101114232741698
0.0991101966818303
0.0770502608542468
0.0549496398095255
-0.0079911275156894
-0.0871877283708001
-0.118604894998236
-0.0920753644733516
-0.0069929587302185
0.148044958795648
0.298718813883751
0.317171055442042
0.19187319846846
0.0322601392852902
-0.0798849445774784
-0.13011751471367
-0.130128782635135
-0.126230065231768
-0.159231177499508
-0.185080876770554
-0.148008360155935
-0.0904024598408455
-0.0514057353461086
0.0354454847053684
0.189292029245561
0.282278644401338
0.237077121122379
0.142406299479781
0.0693178651152217
-0.0205949511919589
-0.118939009069281
-0.133947894407084
-0.0512138042393289
0.0444068367675224
0.106155707335296
0.139907061611303
0.125075129743766
0.0528033278074622
-0.0171540438464064
-0.0383776673091591
-0.0389356975106857
-0.0505080019019461
-0.0811789094056528
-0.152121351802408
-0.236022887206101
-0.22528708565693
-0.0906255336096899
0.045525023651263
0.0979499551951596
0.121246578499486
0.158136601536145
0.167153550860495
0.128113485414653
0.0570738838738161
-0.0480822537209478
-0.143026272152615
-0.121611694502117
0.0202554884283215
0.143762203957568
0.162754160842661
0.120284641991336
0.0569437056153788
-0.0126189818248174
-0.0203257172376822
0.0760426455688529
0.187876400636645
0.204488498459136
0.122013612734759
-0.0035839418969847
-0.112740932258039
-0.138962908300022
-0.0808948755033153
-0.0464904680798552
-0.106650335002898
-0.183020105996203
-0.191099322116839
-0.179013934262375
-0.212907208297905
-0.257725291869567
-0.274320926341596
-0.289977813842559
-0.29438195359446
-0.223355390517844
-0.0925395106017404
0.0057674537883572
0.0384177413669375
0.0330647860615046
0.0005948453571865
-0.041048711017875
-0.0548158615342816
-0.0449935402428274
-0.0198911169092296
0.0798007914752362
0.275951627713506
0.451556667960244
0.497464017022337
0.452215805487639
0.383902547632877
0.287050758264013
0.18515954888533
0.155687785779887
0.185122683493154
0.161043580758042
0.027360377030602
-0.17530945149244
-0.365995940548664
-0.42579605230621
-0.268118889613231
0.0163925719957314
0.225572960411801
0.284497253664158
0.271755616516283
0.239340908398489
0.17706747235398
0.10932676195344
0.0654784314962712
0.0070811917662153
-0.0903004725257959
-0.16435754121696
-0.172318457120157
-0.162945780808529
-0.177467162448541
-0.199683088835985
-0.216899234595532
-0.201755620704916
-0.0893982760209658
0.0952725893262115
0.203495004519058
0.171149227624489
0.101821327120289
0.0664659085672512
0.0149594391701881
-0.073286344792606
-0.147258537998538
-0.194267471016633
-0.230372375343912
-0.234537788953193
-0.212603225978485
-0.222230114133061
-0.255228545872601
-0.231894815593933
-0.145221366553786
-0.0645740006940566
-0.01617469139947
0.0059039997160947
-0.0125583779838913
-0.0391464663108984
-0.0026944231613846
0.0624177990156911
0.0446729270972209
-0.0377213364107694
-0.0415292180820471
0.0771111951717781
0.212510650914461
0.272674736397416
0.249418698460148
0.165815017813779
0.0750044719368959
0.0452698479565717
0.0566961027183154
0.0204370677634538
-0.0390357681125412
0.0182507428061037
0.212097174210268
0.373603177901075
0.350347624099457
0.148010421238796
-0.114511644998303
-0.293026234398225
-0.320260926631569
-0.266523690120207
-0.221056873346669
-0.15767254776756
-0.0415575987188186
0.0372127824688655
-0.0007681067744975
-0.0749291163670681
-0.0757533528062258
-0.0152604428879848
0.0467161531261007
0.0796039957839141
0.0525746052180787
-0.0162451407394305
-0.0143511007188552
0.108725858411225
0.237097710977181
0.27686860694714
0.295317532052267
0.353268268539074
0.37892970554168
0.30755152864716
0.180150629777947
0.0481712032447772
-0.0705710204051039
-0.130311883507207
-0.0939705015689853
-0.0217310282670082
-0.0049756560733069
-0.0444090285273739
-0.0802635139122123
-0.0792041828702363
-0.0399855504725834
-0.0052973837021009
-0.0649174794201069
-0.223294113339122
-0.323570320223735
-0.246290968067109
-0.080262120276028
0.0327537523701876
0.0774181186535846
0.0881032223139501
0.0604933860883376
0.0079440555620039
-0.0384196361776339
-0.086777852250334
-0.127281221918543
-0.0988562788960135
-0.0127573167129121
0.0260296969633363
-0.0087435766638365
-0.0424574320678754
-0.0765974739285365
-0.182255497428839
-0.313647393101969
-0.32950704013233
-0.190936795687393
0.0032570231509657
0.130202896896423
0.120342903393176
0.0117156941713138
-0.0581031121018503
-0.01597781424681
0.0424734244286974
0.0213722614102759
-0.0171753329560277
0.0051947513915277
0.0271484042776976
-0.0200919416569612
-0.0749960075335006
-0.0772725764263825
-0.0774913931135461
-0.106614361910338
-0.11232941669163
-0.0958420021890081
-0.126937262921232
-0.199674492249614
-0.245655025196147
-0.255307200089565
-0.241448536053297
-0.17559128177832
-0.0733058738201493
-0.0175434568665197
-0.0255967438078587
-0.0195115045180952
0.0554763825422971
0.192239809843984
0.355752524692949
0.47410510206248
0.492169247051682
0.475240797927761
0.528100844568131
0.630779737139657
0.713854986543558
0.806193313548637
0.918339482899475
0.915851497015536
0.705831716106316
0.403731192854582
0.165953362770559
0.0166329929099687
-0.0755736578615693
-0.130409780969443
-0.211417703643798
-0.375942059236875
-0.55595134963542
-0.631572887111893
-0.597034717361183
-0.530636099914202
-0.461707642318135
-0.381051246191139
-0.308337258335179
-0.268642301581402
-0.283341907731948
-0.387622152336338
-0.536562029674773
-0.557993346022934
-0.359989388121091
-0.0926128850813163
0.0438848703530962
0.0292646187499556
-0.0397599270346012
-0.083839330944385
-0.0461330830249255
0.0770507075868447
0.186824555852604
0.189360801430568
0.111784057577544
0.019766075390306
-0.0702745372448886
-0.128221601267244
-0.109671485034304
-0.0558344933422685
-0.0360190535819074
-0.0115296159982741
0.0793736578445651
0.177832951186945
0.20371526468067
0.18761513715523
0.182924205001829
0.182067001320167
0.189647289058933
0.226761928045078
0.239545301328272
0.157586417069093
0.0301398498475787
-0.0376758745205812
-0.035985507409126
-0.011651956219225
0.0282353292122706
0.0499186154641953
-0.0371230908647732
-0.210715328622927
-0.281019519749629
-0.125676256395315
0.146293317753664
0.327010954720262
0.296253014598141
0.0891144200357737
-0.122265901641919
-0.171952899865183
-0.0802572281281872
0.0013905298457172
0.0064441604955273
-0.0283008929410065
-0.0911484674067853
-0.169819888851317
-0.187657672809094
-0.118908643981801
-0.0524170750121184
-0.0356555421696611
-0.0096025869926033
0.0375175897593596
0.0269312350639972
-0.068507977503267
-0.185841521507516
-0.250285913374823
-0.192899073652764
0.0074897818616237
0.229984596322235
0.306015848137796
0.244220069791182
0.199921481187848
0.228833170784129
0.247205016410028
0.2089935854011
0.14972160159569
0.0873335357683121
0.0258390437947686
0.0042498133285672
0.0248924466552133
0.0222063322626703
-0.0089171750428108
0.0119385352245945
0.0859088872121126
0.111703957610502
0.057663698666344
-0.0111000656798681
-0.0588214278276246
-0.0826239974319083
-0.0597184271726294
-0.0061415977514006
0.016918107864121
0.0128179988876853
0.0315174381390598
0.0471026159703549
0.0066111358544869
-0.0510507413653583
-0.0683113310907632
-0.0662881577332625
-0.0616472983483046
-0.026941357274572
-0.0013814924300944
-0.0686405830437794
-0.196197267560117
-0.268522929792938
-0.255649120032827
-0.199455362615306
-0.117690882094961
-0.0486801049017127
-0.0691249694292113
-0.168136468094362
-0.228104699948339
-0.183072695551402
-0.0781909002830285
0.0278782686657834
0.0973783464113647
0.0855397634540327
0.0043714295281242
-0.0388917626710106
0.022478544790223
0.118888020136122
0.159778522595159
0.124490380352149
0.0055900714117225
-0.170720714642608
-0.270899372176738
-0.188751376369254
-0.0170841840730088
0.0790365934472705
0.0733453009662451
0.037089125590452
0.0189734755014407
0.0520936952905772
0.136442723679881
0.189306985581602
0.153288227567625
0.106198673476896
0.128217834455955
0.166409970085162
0.153025693555946
0.120524194309544
0.115209119574565
0.141108754085844
0.203372102063877
0.261793217016604
0.206943439482056
0.0267545542878461
-0.12506492097493
-0.143210316316946
-0.0925999529415088
-0.0481101915354923
-0.0071380165641092
0.0036942370519065
-0.0604570013953344
-0.130652531144385
-0.0920720920391267
0.0257763600703301
0.0949067410789333
0.0847696614774047
0.0574931726985386
0.0348479263746208
0.0091576622344813
0.0037410160080342
0.0220405332335406
0.028468286826516
0.0166380393065836
-2.80120645159958e-05
-0.0313727768208656
-0.0556072467885922
-0.0225654838702009
0.0193809610320782
-0.0489962490182158
-0.220021652785877
-0.359232820494411
-0.406282414318295
-0.406470859262105
-0.38298858659015
-0.332767368881809
-0.278518996136768
-0.216329062237606
-0.115111803871195
-0.0098258540863977
0.0483179788301682
0.111235650803329
0.230032761234669
0.311050925005641
0.260959671988966
0.159753862367192
0.120429558725607
0.114872948360818
0.0777538548416568
0.0420022885211517
0.0653214120094444
0.139144944168601
0.226811648738546
0.294613650145376
0.29915028914268
0.237586854396779
0.178381509729729
0.156285955103055
0.117369380822402
0.0528748584152713
0.057150375233671
0.158856185604119
0.236705137786233
0.175841640146983
-0.013865207716423
-0.240637934544117
-0.381833230236877
-0.351462429128725
-0.211203696104338
-0.122589510886533
-0.144459599957337
-0.19907146337368
-0.224448040934574
-0.210366933133174
-0.135302847984455
-0.0158666578361306
0.0591292125121303
0.0535505771746062
0.0325603816248352
0.0314991496108622
0.0204526391935589
0.0062751685628821
0.0164539450454079
0.0221165842063501
0.0071095970886332
0.0192527272771988
0.0629086747123895
0.0792303048231483
0.0725741275170036
0.0878992252926281
0.0742076194815885
-0.0380380573196047
-0.163882243195525
-0.163706748812698
-0.063444839056918
0.0037401507289431
0.0046347232885915
-0.0069750244034832
-0.0190593044247659
-0.0386147911861548
-0.0474744425322315
-0.0687414577219815
-0.140913286035709
-0.195938866088061
-0.128460316464504
0.027058578140398
0.146211406975478
0.181666868081216
0.155871541370633
0.0914846707150024
0.036473514496184
0.0391058748387029
0.0650896185432444
0.0518647471123222
0.005849893887742
-0.0563720970547862
-0.155837001452667
-0.252122975187766
-0.250682491382192
-0.164470684721052
-0.0883521794388059
-0.0176216741994588
0.0998032405565629
0.190128173577065
0.155659992103595
0.0633723937825854
0.0389645439170892
0.0815080916690532
0.123757809424542
0.15099291147761
0.168024514527692
0.168596752200532
0.178107656687752
0.218940279210648
0.243896094732937
0.206535421468176
0.145384022224604
0.0999223343624609
0.0331318755678364
-0.0695555716886135
-0.139381948578052
-0.129178209146493
-0.0560174752074103
0.061104980105432
0.163358448655932
0.118112839982605
-0.116426231382294
-0.383754497145643
-0.506150741817361
-0.450948927629336
-0.272758771784686
-0.0549893109253808
0.0833669968727685
0.088350268909116
0.044850692655734
0.0309039039775653
0.0117899845061944
-0.0311980637000742
-0.043641818067609
-0.0310752873962572
-0.0454783226469046
-0.0347140050228835
0.0710446405316677
0.175369296348607
0.143442322551943
0.0201458218326916
-0.0700288516665594
-0.106024463873501
-0.10625120263049
-0.0429052419434807
0.0698822904865257
0.153824597830601
0.186678639381644
0.202734147494389
0.180525045137791
0.0872594440344327
-0.0029716151114097
0.0035817886745328
0.0706700102141947
0.100708832189684
0.0606527586580721
-0.0487354404566135
-0.210000665920238
-0.323935158630291
-0.285495200405696
-0.13490272031055
0.0001605328245744
0.0549377582694254
0.0184031022583014
-0.101695907390124
-0.223513382762857
-0.24317260824905
-0.174189336012548
-0.098750132307169
-0.0259723249721683
0.0566034303943706
0.0921777259469237
0.0578507400406432
0.0330726606631275
0.0624039446144755
0.0934305750291566
0.0964918181452923
0.0922558500058631
0.0739417456843985
0.0451488282986204
0.0599568098106196
0.10620136809828
0.077370921882479
-0.0425212738572953
-0.120321930275085
-0.0743906942882277
0.0157791340859835
0.047229335365244
0.0078799530396855
-0.0637951051709478
-0.117634759458014
-0.101287783012492
-0.0217942016633134
0.0535839404142096
0.11369987176237
0.201848395672221
0.266997827333608
0.203432483343526
0.060604848228137
0.0036764244331243
0.0713345162970514
0.169504732983221
0.246975227584996
0.297921718381913
0.282377364240169
0.186000106031799
0.0617665977166687
-0.0510195799627716
-0.139031193794325
-0.163891723369524
-0.124409190999514
-0.0985852384773812
-0.115976754773524
-0.113239944733593
-0.0930461765262059
-0.152580623055924
-0.298521021190852
-0.412548279727005
-0.416551118673141
-0.322944550961153
-0.167217407283865
-0.0075193436460931
0.0954808375590396
0.157863890384222
0.216207716928497
0.210946584107767
0.0893694774694198
-0.0350043782636689
-0.0211804656082259
0.0725532035435767
0.094594351713149
0.0415211653743755
0.0027484667753004
-0.0238838663118703
-0.0751470290376808
-0.102401188309881
-0.0638116386675147
-0.0109950355157685
0.0119446449893416
0.0249030151440632
0.0381649952221468
0.0437439823769935
0.0496404119496711
0.0403205028804069
-0.0072706626954663
-0.0386604248139748
0.0063823743380375
0.0572443558226507
0.0165986038777557
-0.0630582752407573
-0.0783243321782774
-0.0487866506731768
-0.0406231435852199
-0.0461607719436416
-0.054499267978379
-0.0998480923758184
-0.175472984774898
-0.230912695898378
-0.244985259893116
-0.190594791084097
-0.0238249536962347
0.187282445748635
0.275679828305972
0.209950562662091
0.147735476852932
0.194374387583562
0.280697708768622
0.31392530492689
0.286930008207007
0.224733429668092
0.159427545643638
0.14040285383605
0.161094262718453
0.137454598678191
0.043205902899622
-0.0409399212710573
-0.0653412865507311
-0.052424652031154
0.0049383771507388
0.10732298492384
0.155176493204797
0.0811543195815323
-0.0108691558629397
-0.0111564300389457
0.0173783499006698
-0.0311158878537846
-0.138915076109905
-0.228033680654975
-0.258674010974595
-0.226077166978757
-0.171070588395439
-0.167871918718239
-0.217221277503091
-0.236134524562814
-0.200908371277185
-0.16579217866196
-0.134013063710934
-0.0779826900532987
-0.0528739852567834
-0.115904947923454
-0.201467554005533
-0.219715940697175
-0.173828029355068
-0.0894025273298938
0.025554480144135
0.103582653112051
0.0692744347848797
-0.0210012589293479
-0.0564896228375832
-0.053646090656362
-0.0867287964103302
-0.111153465072595
-0.0490641891405099
0.0397369197087394
0.0650202483789832
0.0765691816372877
0.154038403784699
0.246865444738289
0.258354831950217
0.173223559950174
0.0389653894564963
-0.0642703368620405
-0.0452670541881861
0.0961498813572659
0.245670302807123
0.325580329622906
0.36541111237067
0.390964371598891
0.381215321085857
0.341880844077958
0.296436469355369
0.236238854244112
0.16553426413309
0.115769319128203
0.0803899477040612
0.0547757806738191
0.103246282806992
0.222005860622506
0.236599912995466
0.0344063023743665
-0.233919301626074
-0.371110182811485
-0.389724136581209
-0.398786685470353
-0.412747587337814
-0.400102809724022
-0.368340402414697
-0.321437794846499
-0.252343106701897
-0.192503921467791
-0.164910868692507
-0.12984901351576
-0.0737972279528106
-0.0557493195245962
-0.0742394491975053
-0.0394696131791928
0.0403703353576691
0.0427366059198775
-0.0352621174234905
-0.048947856820017
0.0486721507109804
0.143347910038045
0.142358834481229
0.0587181694844691
-0.0359696978481466
-0.0418366205004279
0.0822877148198376
0.21957863534506
0.219237518788561
0.104716279135315
0.0085363546222322
-0.0302169027490099
-0.0486493191831721
-0.0442796055951994
-0.0167194281336108
-0.0168618596695045
-0.0662549231675331
-0.131696209590691
-0.191648299957016
-0.224609505023327
-0.189509103526159
-0.106658945397195
-0.0493191696318808
-0.0087175906321956
0.0714068449649069
0.121789552849274
0.0210031676146729
-0.162644378564601
-0.227444976797785
-0.1295806712245
-0.0071959914698211
0.0602523956688419
0.1147975182492
0.1834068593206
0.253110173432319
0.319677196961455
0.345995819953057
0.287494984577371
0.217889431222917
0.261407465902904
0.382589500089156
0.427317874237054
0.346833857440119
0.214635567726242
0.090065965759756
-0.0033480859210881
-0.0551627829685338
-0.0945837680953538
-0.141569406509768
-0.144120519513536
-0.0756834728008813
-0.0142773746785743
-0.0145805072451587
-0.0291196036348897
-0.0350266293290625
-0.0692316016595442
-0.103314363065326
-0.0777336357707614
-0.0433439127917654
-0.0771830363597846
-0.135358848110782
-0.162859498762506
-0.216390714945307
-0.324762374348062
-0.382939605174983
-0.307461819061294
-0.152558415969995
-0.0069254634774508
0.0814956642899202
0.0652376826135244
-0.0605316890422612
-0.18513259366355
-0.200662907013508
-0.15206560637706
-0.137372328310167
-0.146212310851379
-0.119013146041268
-0.0536545979652022
0.0296303629605858
0.105340021754251
0.114601605498491
0.0604762105616071
0.070008261657493
0.209132909154412
0.344242859288788
0.332306743781607
0.219487404146712
0.138459391422784
0.140655921855471
0.195769315074679
0.237544197634557
0.200171354579226
0.102711486925658
0.0404252800430322
0.0228322899817278
-0.0609954154572401
-0.255709445644793
-0.452199565399634
-0.517665278759286
-0.4046520896841
-0.167978994593718
0.0385687780687761
0.0788781890840594
0.0058384449622513
-0.0198169971010548
0.0145137706754752
-0.0096506660788179
-0.0890155854708397
-0.0953271592141055
-0.013713531586269
0.0460665725713249
0.0595924932350975
0.0931095843253102
0.138935837475819
0.147095739934499
0.155413301972112
0.212686309384596
0.261199140140882
0.227591792083583
0.131496352264718
0.0379453457111906
0.0023198799703673
0.0550414921466393
0.145905428373226
0.167408197461406
0.100548104936916
0.0305363568437573
-0.0051433515298048
-0.0425230811404516
-0.0819069843154192
-0.100847446038902
-0.120830855591222
-0.142570787033057
-0.124519779000923
-0.0974457580476924
-0.126713215209959
-0.138457085446505
-0.0148200760248085
0.155159401036401
0.175785148400723
0.0442599944838045
-0.0847813756680244
-0.139910966909708
-0.140485089243839
-0.0878803646487635
-0.0042139113196111
0.0418234393241596
0.0355328259543991
0.0218894266059061
-0.0031078611776448
-0.0631218499806069
-0.0970716043358954
-0.0497910271545605
-0.0026936757225754
-0.0417922342356063
-0.0909807098063011
-0.0433631765730137
0.0563805224040994
0.0957558617052964
0.0425721715031434
-0.0603933064615189
-0.133421855614008
-0.0982897499536881
0.0167494399557168
0.0806912224073673
0.0426833598720646
-0.0142346966464044
-0.0363704409518554
-0.0489745183461862
-0.0442179843537979
0.0004081172561483
0.0298991529010119
-0.0014398918179362
-0.0371917571249435
-0.0394917187510444
-0.0664176993862594
-0.135583990042653
-0.169149302303361
-0.121339605734117
-0.0128082772576873
0.132310370843104
0.248502596241523
0.231142107581091
0.0996272958722521
0.0145575851947993
0.0419082521525347
0.0742680613108224
0.045996839633992
0.0290135677960845
0.0653330061883677
0.0969198559331912
0.096036815783319
0.0961467674455216
0.0959215603511217
0.075354571117669
0.0545434072884004
0.0299769769415214
-0.0325924276016405
-0.0751478834492171
0.0086205106717681
0.168260880428289
0.227230811615208
0.123262961793711
-0.0473266583656845
-0.177385566027284
-0.210495122631197
-0.143115092742282
-0.0517358160165357
-0.019282603584683
-0.020819265301845
0.0060961674037834
0.0338154743024268
0.0100002374090747
-0.0459238498026736
-0.104936845615393
-0.151469481595504
-0.112077216545921
0.0476978595641779
0.176253121772538
0.116354013941516
-0.0344002277553051
-0.085462787896544
-0.0658243329278111
-0.131520304890001
-0.278920617576041
-0.366169299587321
-0.321908101627727
-0.183410646705795
-0.0237182298850554
0.0723892292071204
0.0633667619962311
0.0158822571483859
0.0084863671304596
0.0053243059986071
-0.039879690026225
-0.0426812665180199
0.0817256699623191
0.246752839599128
0.304104928901107
0.224728457466775
0.0804488391550406
-0.0398096316709954
-0.0621073708937264
0.0136972038960511
0.102108759859057
0.147284347006701
0.168864779407874
0.163311350584935
0.0998568373441433
0.0231514053864103
0.006012080667778
0.0290349266566083
0.0473483315865284
0.0881943189245804
0.151864263812197
0.150875900211225
0.0591981949218629
-0.0336854618630073
-0.0839571607831876
-0.139932031793143
-0.20460942784656
-0.208829701515952
-0.112331469315376
0.0677437815354906
0.263018988399583
0.341816402314311
0.217056468416291
-0.0044983588969129
-0.121952964616824
-0.0913024471323718
-0.0321311865556815
-0.0189060236690609
-0.0299343332173461
-0.0558358858792177
-0.100078396581368
-0.133903091370322
-0.163625519661337
-0.233789031558918
-0.303950506542765
-0.288388516034956
-0.232418402133638
-0.249278863006699
-0.310673825707852
-0.302143952403121
-0.217771236700322
-0.125275007514266
-0.0421308356041257
0.0237278135788934
0.0379165966676411
0.019960347805378
0.0282513992805312
0.0554384392485099
0.0642159455983542
0.0748258227837892
0.111577288067578
0.161647975585759
0.242979523695382
0.366182905703304
0.429896632846589
0.338043642039968
0.176315110069495
0.0919368920376077
0.0919991924359012
0.114910043080597
0.159694000518334
0.212453486058943
0.203494781080292
0.137695349180037
0.110485832663062
0.13554170107417
0.116370437749771
0.0171613111753427
-0.0926320825325426
-0.157046329397451
-0.156303296674548
-0.0694136500969314
0.0539609616010616
0.084626490523891
-0.0138349104990135
-0.126084454850021
-0.155516814431955
-0.116852485932753
-0.0591062370104195
-0.0290437692318883
-0.060881048520175
-0.105177641540879
-0.0712104605259871
0.0111030230055702
0.0230759054747692
-0.0444122479663331
-0.099827871479316
-0.116842705833138
-0.113660068442524
-0.0555505104664565
0.0532284035829242
0.0998033142586768
0.0223521793805221
-0.0913343174246761
-0.139256499933462
-0.10113393114688
0.0001963694635202
0.0888981724523034
0.0488936622518973
-0.116844554079896
-0.240625289234511
-0.214632781653168
-0.129183228769097
-0.0979121207352034
-0.0978360152555257
-0.0682181154621588
-0.0219834223434932
0.0153657097740321
0.0508610149949098
0.0637667452383505
0.0077529567526237
-0.118512044388047
-0.270193919072944
-0.375231303817541
-0.335939519999682
-0.135233538626094
0.066677467552593
0.09543824212973
-0.0202215074630741
-0.133937571115675
-0.178272733975458
-0.147248337717265
-0.0325322397348104
0.111277155841156
0.18784306435581
0.198137584390017
0.213142693087323
0.235134425698506
0.240553912988857
0.277578320262775
0.374403208514421
0.465150824254482
0.506490624964172
0.520536384332968
0.488584996979497
0.386642242741172
0.305665111745625
0.334935355394052
0.38285922601523
0.301860150678247
0.111604409732626
-0.0548049282080676
-0.132430098074846
-0.140401097280787
-0.117719511900107
-0.118201768936237
-0.172351414226111
-0.224421173715184
-0.206191676961627
-0.153794289801925
-0.145344773368342
-0.186659161474302
-0.255766175172434
-0.3486758349842
-0.407987072640469
-0.357820931550234
-0.244324328654496
-0.174507958706066
-0.141341716316935
-0.0813987589540393
-0.0233943029747168
-0.0168229697712733
-0.0276687255044267
-0.0231298879634299
-0.0208722412659249
-0.0030007234655824
0.05317767115831
0.0701452489885204
-0.025539986663895
-0.156615900068734
-0.21514564628369
-0.215383961087747
-0.198224092068143
-0.144077033987059
-0.0752133374231004
-0.066011223633443
-0.101899904345823
-0.0969455581936089
-0.0457871251082959
-0.0082362972957525
0.0104462805276427
0.0438385730534353
0.0935167637374169
0.145341698020508
0.179880782864714
0.15296082550405
0.0682690772134591
0.036142822959439
0.123593240044949
0.210965590754015
0.162706439931827
0.0534261965168993
0.0481911187285239
0.154857363246041
0.247255313260552
0.235469117275481
0.123275203310051
-0.0003051840672832
-0.0155327485431437
0.0775611686868992
0.128648201359588
0.0512518955582751
-0.0632389318857703
-0.118825662420897
-0.123526288585848
-0.0799869495009422
0.0284714612201349
0.130400010884365
0.142906210245339
0.115960568485146
0.118789270792269
0.0821676675177031
-0.0710636536410219
-0.258705334799214
-0.340866464825448
-0.276854198542373
-0.121547516125713
0.0232429502323479
0.0682038893787831
0.0458934123164312
0.0845746314343891
0.201109489240778
0.256433793102043
0.18347274324275
0.093436572211416
0.0859846790001499
0.116736823784765
0.111937774297327
0.0655642123688307
-0.0048580964520352
-0.0630761066490722
-0.0356869403651507
0.0865485897313741
0.194906019517528
0.20152193028263
0.121316452713818
-0.0192750264493643
-0.190125520872334
-0.280205396141803
-0.20505966668142
-0.063267315556016
-0.0189647487817195
-0.0917270843756195
-0.185642259230724
-0.229028448552473
-0.207200085800522
-0.161228704543492
-0.16954129478466
-0.237830399498974
-0.273123728973358
-0.246867047396667
-0.239015804231512
-0.255883626714943
-0.210160316910157
-0.126856453391807
-0.132472694993705
