-0.188359796763088
-0.268995919779171
-0.374394201061502
-0.441608429314261
-0.357625874398235
-0.129449531950969
0.0829435082065868
0.176524370445878
0.194137172969514
0.18992787623172
0.17462738849823
0.170469846320381
0.178071591220149
0.148942045041343
0.0754280905787139
0.0022167413609944
-0.0758085441988323
-0.183201194416746
-0.259719793150129
-0.241115557298866
-0.165819773920035
-0.0735562101555168
0.0537459707282444
0.155901497496857
0.117866713121666
0.0003973459699861
0.000834205346346
0.147650792822879
0.276366911742979
0.299625413033109
0.274075368499313
0.240668847079355
0.198388801194969
0.18076294335915
0.201500308688333
0.19560646340986
0.126741243575563
0.057020811721829
0.0343146042867638
0.0245345698268506
-0.0124828927645175
-0.0994592513663349
-0.256302312636931
-0.410399913500531
-0.396950965871539
-0.181076140892187
0.0537454993272168
0.132671529276763
0.058484571082619
-0.0716034881671112
-0.156426231628716
-0.12126799176526
0.0005746304179201
0.0805188536887999
0.0735609490075003
0.0623583905866174
0.0867239403632723
0.0971204474184545
0.0806866108902704
0.0618893458026993
0.0248388860577664
-0.0130417161261757
0.0355674165439613
0.156517652441167
0.189551988610874
0.0598501660664812
-0.128293795094643
-0.277743468031622
-0.377841667251413
-0.392403924438218
-0.274225187660477
-0.0899864195646599
0.0304672234657177
0.0483079141520799
0.0133987969788535
-0.0282368719868142
-0.0449657056704442
-0.0271915065847114
-0.0303569922268369
-0.0950163846622116
-0.127915532119508
-0.0195945841885111
0.156579357324858
0.232680065635284
0.16530889835378
0.0246352383579643
-0.121616012141908
-0.205115604760392
-0.176417836997821
-0.0916138234111471
-0.0502823678759463
-0.0529686024287317
-0.0401544707783728
-0.0059595590036222
0.0313985594946925
0.0708824430551777
0.0775992522922046
0.0184854779169572
-0.0417093600536627
-0.0271612227859367
0.0078292705658467
-0.0273550461517908
-0.10967077220916
-0.169555605024667
-0.18593579312769
-0.138324919230974
-0.0128638012102473
0.12474774034446
0.210930898405323
0.281702925957476
0.344607500231021
0.290151816388027
0.0964441397496382
-0.0462218411268858
0.0095554474274103
0.1576054399671
0.238065866976444
0.263855202282971
0.302438692405995
0.316731282274073
0.250721677202678
0.121679432829299
-0.0274938182110387
-0.138507680535119
-0.136117546523315
-0.036216085057143
0.0394019660726189
0.0390763910398118
0.0351150958609872
0.0706345220565689
0.111762403450648
0.134472817654488
0.11145906188543
-0.0115778202236187
-0.199700929365429
-0.307770220589489
-0.270199861271851
-0.176372996410968
-0.11826291952602
-0.105033233041133
-0.108434221988029
-0.0665777654320101
0.0716396893638793
0.215944817035873
0.206669549172485
0.0708297297293887
-0.0063953716133418
0.0150328943174829
-0.0023094466982733
-0.104987418680558
-0.186417943611004
-0.185084098767535
-0.152084609102317
-0.142491865730995
-0.172836088725126
-0.23360820146047
-0.257679103618116
-0.166975505722258
-0.0016799317188198
0.116694186371551
0.155029714243675
0.152855671951608
0.0887025690123579
-0.0576052553044233
-0.189160549388855
-0.20953596503811
-0.163395643580039
-0.147194887330387
-0.1923232299149
-0.280486937933641
-0.351483451155092
-0.314259250755208
-0.16068048234671
0.0051284374271291
0.119794643916257
0.208479367177326
0.254910706535815
0.213768523750652
0.149861512570776
0.158025559020328
0.18748434748773
0.147329803649571
0.0925856137440961
0.113394756253488
0.162524487531196
0.151291116234241
0.0868240506576906
0.0196035664585952
-0.0153886507608193
0.0174550305238742
0.102432587303797
0.137916845961
0.0670003953296181
-0.0300204542099527
-0.0667392606144364
-0.0671344707308512
-0.0716641138431745
-0.0639551310687809
-0.0622966461188932
-0.121133488820091
-0.179350125600686
-0.0880873767676877
0.155988890535248
0.368900805870607
0.396678927864182
0.25799079727044
0.0946175337666902
0.0474222249729318
0.12192412779478
0.172870888762592
0.101344494864631
-0.0051145013042701
-0.0287928431146969
0.0111813328752179
0.0543624373512458
0.100968308666201
0.130096270159434
0.09015029711336
0.0206897619394481
0.0125802237489166
0.055831970745054
0.090163591542947
0.135177939326773
0.21902206396355
0.289136637202012
0.304834910416647
0.27964778339252
0.182596215816301
-0.0351112688192746
-0.305315151140334
-0.492674930530214
-0.552834234858414
-0.520749343817308
-0.4208263573662
-0.30068148887852
-0.254894431797359
-0.310848999350029
-0.381887007681623
-0.397541860795031
-0.378125983059546
-0.358729907629085
-0.352530693445072
-0.364105295822055
-0.33420269347846
-0.165921113961658
0.096546009249047
0.269228691683091
0.28786234082401
0.275738250144633
0.305738678215219
0.304424376152647
0.216985562379805
0.0815677510738903
-0.0530262745085189
-0.150994083961993
-0.182733583672644
-0.168783124565572
-0.146113889459407
-0.0906481094914746
0.0071977693225826
0.0604526390643031
0.0282264104027907
0.0207338626926099
0.112776774567807
0.207685461127049
0.209075035506522
0.155277437827362
0.11271924482331
0.107503287607045
0.164675567231823
0.252542172770307
0.249966560957502
0.119723535672529
0.0086314570014394
0.0408469791405323
0.142733244244248
0.186638133031576
0.15756125524094
0.0873836702276798
-0.0014318202643161
-0.0187291906257164
0.132496694907034
0.367993742392427
0.475725812766932
0.371806641975841
0.160561365638983
-0.0197692545123732
-0.101195585664804
-0.103250248872528
-0.103587166439665
-0.128948429071488
-0.11053686590262
-0.0225496463875043
0.0486144980440431
0.0612440463218483
0.0874763679458678
0.150674829365857
0.175365210093261
0.144777658467796
0.120888124079248
0.103319046070935
0.037980799136051
-0.0803416464644818
-0.23990607095392
-0.434880519367426
-0.578989306823884
-0.563464814557362
-0.435741368630984
-0.335289374291886
-0.275501635978322
-0.183216590246497
-0.0841226713537102
-0.0523075493049612
-0.0600585753014989
-0.0470564722343916
-0.0407007834429431
-0.0724410375992522
-0.0906477432035019
-0.0619995431088069
-0.0345201519329015
-0.0417023815797094
-0.0787931034275608
-0.166998304624084
-0.290288517988424
-0.336383670565362
-0.252302746064693
-0.141578622757019
-0.0814493509139211
-0.0045173807501402
0.143076574388323
0.301229567934114
0.40800460503191
0.45588219888233
0.439334267989968
0.37431214572319
0.317239414571548
0.281857616456523
0.230419467150396
0.168362947566815
0.118648992052329
0.0454605006332628
-0.0499350343667117
-0.0685434799655328
0.0063620253021958
0.0431898638964821
0.0006895573718409
0.0065153503500936
0.097699305228602
0.131328024499242
0.03093090798359
-0.105219229182666
-0.1812836548135
-0.20034578693952
-0.186680122804323
-0.164522724137019
-0.176315177555558
-0.206315675432525
-0.166513578799069
-0.04661426245121
0.047008693089642
0.0682312414324821
0.089163142529452
0.143336055515355
0.182007804385476
0.18961765611876
0.187309403932473
0.163060019346632
0.117739654362425
0.0980139745990577
0.111012820572074
0.110828032391677
0.0842206411273769
0.041190153433623
-0.0334502236338613
-0.120401127442614
-0.153468883736175
-0.134440642145676
-0.12422983806082
-0.100953873008293
-0.0047177143895343
0.0985876296164549
0.09539581604111
0.0115418536829917
-0.0538791833239352
-0.0843958054879406
-0.101839016452915
-0.0998376722317182
-0.103993223246175
-0.149027617752167
-0.176962257472627
-0.116584686724109
-0.0318484113539158
-0.0304213166585129
-0.0851651019606536
-0.0970993677558717
-0.0568856837682006
-0.0068142145721173
0.0616328179677132
0.148167775601667
0.189785589511725
0.163282563653953
0.125095163675494
0.10253445571895
0.0755994328353331
0.0619344017133214
0.0893293336256965
0.124410281904321
0.118277523231274
0.0476198838896439
-0.10725377262476
-0.302901713552268
-0.393420532146937
-0.30238740139803
-0.151570190528708
-0.0776587722895151
-0.0543420032386577
-0.0215897680687393
-0.0197447372333628
-0.0823317693102148
-0.156336356914361
-0.18490882387474
-0.134012783917502
0.0213934137967869
0.204534372362159
0.251939266665791
0.144811533578056
0.0536273373215991
0.0651869646469684
0.078729382396352
0.0321142691964951
0.0052691537999195
0.0524471271712109
0.123405847474055
0.171279770110061
0.191356368367396
0.170074132278181
0.112404598181725
0.0704275932557547
0.0595333423015566
0.0369623158656676
0.0189345174638045
0.0799645849090971
0.195936089613596
0.244022539687063
0.173493546620816
0.0430023611521077
-0.0740025414624321
-0.118263233845669
-0.0662409495637277
0.0115228588670227
0.0209910644900481
-0.0198185687911466
-0.0334780534992778
-0.0167303170692195
-0.0028380592729446
0.009733219790366
-0.0065935114607207
-0.107440086039293
-0.248146077719755
-0.313493232653061
-0.290673958813327
-0.251865084807851
-0.213770430553111
-0.17464977313006
-0.186041615553628
-0.245021564358668
-0.255038334870065
-0.187438579729463
-0.113559944867033
-0.0426217283270806
0.0778873018827536
0.204507603606338
0.235356693385061
0.179025378174382
0.119581812742556
0.0730585422071321
0.0245451613552934
0.0176700362737556
0.0756059188194286
0.135144946295038
0.147305657329377
0.123705246396117
0.0621678590922796
-0.0253124884815265
-0.0533769544889454
0.0094569746311982
0.0551834188538131
0.0178421310058307
-0.0125891241949667
0.0342736078765567
0.100381141296165
0.127958442942414
0.118745862296721
0.0635908351079673
-0.0267546349698152
-0.0767759315811109
-0.0533144992777753
-0.0066507461734034
0.0593161007896136
0.183335887130448
0.289081769204368
0.24385636742375
0.0755904140846353
-0.063439497434102
-0.103896939527052
-0.0745645556707219
-0.008338981943656
0.0480374287136256
0.0436656548989498
-0.0004964036368638
-0.0360767262390714
-0.0822137733536499
-0.151827429708282
-0.165169211433496
-0.0776786944550881
0.0088451459017349
9.46892363734211e-05
-0.0421327442365428
-0.0262380326553723
0.0230238679254968
0.0348178475946095
-0.0254530165730532
-0.16932383910358
-0.331063845587589
-0.351893663179604
-0.18544663140176
-0.0094846222292886
0.0193311463515039
-0.0392899111148576
-0.0770414064535521
-0.0987896416797365
-0.124058660778079
-0.116994720598354
-0.0651602522359127
0.0111814596918636
0.104829516824323
0.185853095715926
0.216089242887834
0.242469700218631
0.324003239151182
0.377445402113082
0.294064608655319
0.157498636444891
0.133402519475685
0.223510464464385
0.307752856631142
0.315035004222198
0.228784865543834
0.0652493401593917
-0.0899593995769964
-0.165034178464612
-0.208653264424153
-0.274721245728704
-0.288785153188211
-0.187295827453409
-0.0681889236081742
-0.0392824996168919
-0.0545885149994044
-0.0509150484857028
-0.0826958934727516
-0.177726771305452
-0.230802760697741
-0.164923335405989
-0.0493341518865815
0.0094581804193431
-0.0275596639965668
-0.132922251738167
-0.226718390125849
-0.243733005847378
-0.223105008020488
-0.232367540082327
-0.231405953968838
-0.156258501808325
-0.0678407300381484
-0.0567532885990698
-0.0934009948835647
-0.109755490450484
-0.112300332619461
-0.117659497523809
-0.107233604362459
-0.0827157657711663
-0.0365667870747942
0.0868580249530511
0.266847886006709
0.361478312431076
0.313348258604123
0.235525784068635
0.204276355848499
0.170425016766676
0.128134076342478
0.150057131186378
0.224277157948035
0.254162078663658
0.223583977277725
0.202843125308817
0.221002204110961
0.259775415642059
0.310978562903025
0.342094405945901
0.306084591770932
0.254740124029168
0.298400674094339
0.408199308057817
0.428370593032559
0.301147441963338
0.113658779987498
-0.0514511940198627
-0.166673109490341
-0.222311979602801
-0.240289473318781
-0.251550405427397
-0.239596401814853
-0.20386175720432
-0.220195500002984
-0.312948936443016
-0.371656869949838
-0.318325746298461
-0.22641572972803
-0.18618293651676
-0.20499751510035
-0.273329028265947
-0.360201229731354
-0.372920399497034
-0.290768523908813
-0.242872988369699
-0.297787538777998
-0.331245280407314
-0.23821917641463
-0.089741969135369
0.0198478571107393
0.0876378135427906
0.114221684399432
0.092614533700275
0.0921507574135864
0.174442713912075
0.258576305582026
0.237999473157282
0.163635578016858
0.152359479659924
0.205175670660583
0.245523436810469
0.222354616013486
0.098848801337185
-0.113973754463627
-0.289385884523478
-0.307617404114139
-0.21343797033973
-0.116793290732522
-0.0385110509968108
0.0278649903452397
0.0420491075031273
0.0005035566410494
-0.0342517870629013
-0.021829528556119
0.0422661323471338
0.153516962645029
0.248705827246576
0.24009192575123
0.167123045850281
0.158062308356942
0.206671118434038
0.175531132357522
0.0278378818535281
-0.124958979970587
-0.173525721367628
-0.0696787146230292
0.168871159625169
0.405429896398246
0.467464934958267
0.352974637403061
0.221341600558102
0.169635893112079
0.160944506096547
0.143336075913521
0.0910154725952131
-0.0277579520228355
-0.195939236195692
-0.329445679669422
-0.40829465715423
-0.505174625110274
-0.602780118248321
-0.556503265048894
-0.325004908968348
-0.0619151945352108
0.0738274450140302
0.0445739607929556
-0.103596852461252
-0.253204060606561
-0.262941170412558
-0.124642975111795
0.0239297743035273
0.0926776000367806
0.108412640579693
0.097758506990112
0.0628059222719621
0.0385237971547561
0.041174275440684
0.0356097398651774
0.0336513392536684
0.091291707686819
0.169761940740683
0.167139163535065
0.0861344347917866
0.0074083323066079
-0.0437982643654322
-0.0622418734630696
-0.0077711620835322
0.107937798698576
0.220008726926063
0.331334746338361
0.462946476363078
0.51430894968338
0.382036738700535
0.16403095335967
0.0372770599500781
0.0060240843028158
-0.0356609796670167
-0.0915817318219749
-0.101651043066756
-0.0872811804182316
-0.10662863105834
-0.173009310496912
-0.291287767319179
-0.432488528982368
-0.472914229263077
-0.333743138195145
-0.127119971863427
0.0034381132888578
0.0769679862015921
0.166428078555722
0.24619141827179
0.261078329611855
0.205523362064388
0.090702450763587
-0.0359487941107792
-0.0734749314065078
0.0039409067244493
0.085157167734468
0.0810789384776699
0.020890757775188
-0.0481839994183975
-0.0949430589236795
-0.05562418688049
0.0670057835740447
0.12342736878647
0.0079639156621494
-0.182500013638857
-0.313556991357225
-0.377344689646624
-0.391353276795905
-0.317507865341158
-0.166857785077036
-0.0294173741126017
0.0433587037337025
0.0662497626006256
0.0508652290006443
0.022745929368272
0.0429293551331546
0.102434509371361
0.0971676808189242
0.0038265325983087
-0.0593779301930516
-0.0231841566926652
0.0431258090011845
0.0722141322746946
0.0675081115816842
0.0361502316613317
-0.0135644909947002
-0.056654386517219
-0.106985879860003
-0.185182226618905
-0.219540526053829
-0.133019198376417
-0.0009524547124968
0.0450377478346474
0.0055334638051993
-0.0386346154899095
-0.0529138407597614
-0.0102755245271592
0.12081791774264
0.276126546910671
0.350035383437804
0.356900021306413
0.366235078740673
0.348348328421393
0.261365237997365
0.167193776054326
0.106954583758856
0.0227872124113564
-0.0853303666881838
-0.112935105534572
-0.0351265239529124
0.048825000533829
0.0881684595831524
0.122561491173843
0.155069025259084
0.148296830729957
0.117672236462683
0.0906998975170615
0.0417416934095317
-0.0301756385813525
-0.0778378202259136
-0.120288780157247
-0.209683673235869
-0.26778206373055
-0.165812343569315
0.0440336826365315
0.177578709418732
0.155168167536288
0.0359775990723768
-0.0956313603438192
-0.167772637074667
-0.145530930235284
-0.0692981152064602
0.013369779573316
0.110927149305694
0.19677534715246
0.170899051193153
0.0072145307858613
-0.192724894825178
-0.339776660496379
-0.403454088969702
-0.348828687090684
-0.205668274597741
-0.120086105896639
-0.167755959501459
-0.242716539339013
-0.256461050627366
-0.261042529043139
-0.285264079649717
-0.267446587869882
-0.209385067989703
-0.181601117124586
-0.159723660992739
-0.0638426214504
0.0610309905463432
0.107880216002942
0.104733097592375
0.156822126959174
0.2591447634663
0.333898522024133
0.366590945481517
0.381384591341619
0.386037529856055
0.399937815058931
0.423283287160545
0.397097392962038
0.305654094034738
0.22917070451338
0.199198171019097
0.142398873877622
0.0343768013267204
-0.0558620371104767
-0.102766074396508
-0.146613839218117
-0.200365104943801
-0.262588368183806
-0.342570437198849
-0.384303762723718
-0.308323745702454
-0.181144616316518
-0.15780503635511
-0.24246414407691
-0.3018042347661
-0.275966054659157
-0.188441363443442
-0.0414879238824402
0.128717880111433
0.214275410295188
0.174400881578382
0.0841038574576071
0.0018218498465463
-0.0601941287420057
-0.0510401225334689
0.0559178844864437
0.15708987053724
0.149240213363538
0.0946317460639592
0.0941531496683033
0.115033043081385
0.112223222951648
0.164826196508903
0.316230250103159
0.436896318859519
0.397431896238696
0.242618784456329
0.10555324905669
0.0625276127955777
0.0978746867070299
0.134455959929312
0.121897176207444
0.106076188374181
0.131475583634133
0.128017319695596
0.0304028764149984
-0.0784037248631069
-0.0956802265339036
-0.0585751855973801
-0.0455891964717959
-0.0576750116705537
-0.081096108567287
-0.108136575201271
-0.0790281605603727
0.0170255546893962
0.0390346637740031
-0.117065470561726
-0.338651692861642
-0.477949638981121
-0.551774918298021
-0.61141630934308
-0.60295755351321
-0.490845887144332
-0.353020622545916
-0.264658390057431
-0.229611193509561
-0.2541385104697
-0.340793781304425
-0.413821496588574
-0.392203193653566
-0.304729817223362
-0.218626270855779
-0.132701244788677
-0.0283690786781188
0.0889020903034674
0.24337359725863
0.445272196282197
0.602539135070978
0.621673367513399
0.543162506437918
0.458265740645135
0.388268540960819
0.32411689503684
0.262436017179757
0.175266032564274
0.0683816694106197
0.0276301857590209
0.0860671640726031
0.146785272908645
0.141501067303914
0.121823542556681
0.133785234469682
0.181297492307475
0.31136789894041
0.525677262378872
0.668785616064773
0.619891705247819
0.483131166574689
0.401033516021334
0.349810576641031
0.274901457398033
0.216969798910418
0.168313909839243
0.0207395181514912
-0.231730202844753
-0.431649224414455
-0.474610923783785
-0.419328839899107
-0.354868605315449
-0.316688760784239
-0.326704348679076
-0.380148630859592
-0.431188139990309
-0.470786195365922
-0.525019414921524
-0.555320893764587
-0.505109211311708
-0.418967210368379
-0.359537605515689
-0.290001299777283
-0.185878725196457
-0.128132292690633
-0.155473052410312
-0.177917298402026
-0.126267319132563
-0.0398550467364051
0.02164889499987
0.0225865789092133
-0.052027689835793
-0.137228979993269
-0.126412795225137
-0.0419212765158409
-0.0189642423752495
-0.0876258468022275
-0.146587348247916
-0.138904293762807
-0.073960416129484
0.0664397936201122
0.283942211544947
0.510656135683224
0.695711443418234
0.822221085231403
0.815014140814284
0.611094354614209
0.323418265451555
0.144724518648357
0.108173823252007
0.116847592731647
0.141592274630379
0.202991477028143
0.248243958713697
0.224732866972744
0.169231882520016
0.0954655089792719
-0.0499117661161283
-0.2278615684959
-0.294263086735332
-0.209886428759573
-0.0911035962830783
-0.042105812295432
-0.0742552532639094
-0.147042265737355
-0.192263718317341
-0.170306783886365
-0.132002960376387
-0.130871766323564
-0.121080774516512
-0.0586692585463816
-0.0002286852360365
0.015702739822721
0.0389694427609212
0.0680605507887022
0.0225020081066803
-0.0861485254108889
-0.145907436348251
-0.115791639032409
-0.0341380270568292
0.0814809676153086
0.187808377171108
0.186196464349608
0.070029614798335
-0.0334248792496182
-0.0455747365728721
-0.0102265382869769
0.0346213082070842
0.0852135954396843
0.087212696300852
0.0052031879754133
-0.0667262253682453
-0.044113507000689
-0.0157400724650252
-0.0809652543436889
-0.142498783858202
-0.0538329941573154
0.13887988288669
0.24823667778127
0.144757793458408
-0.142723940151887
-0.424321263195644
-0.485640617750621
-0.328176505405831
-0.173717921588128
-0.161386137564078
-0.205949708254954
-0.203147446279845
-0.172013517351549
-0.155197212958709
-0.157333398893952
-0.179015942378595
-0.181737352520057
-0.0966930920876364
0.0362552871637703
0.0787149922339102
0.0065809793124275
-0.0575079947948848
-0.0421603860190434
0.0181433604543021
0.090080886957703
0.139628309595377
0.104135350724746
-0.0012046556700474
-0.0583797083102785
-0.0133598957159481
0.0641945358658923
0.128926713947351
0.212783989217474
0.309172063411012
0.361766324039768
0.373620549568739
0.385842578998114
0.382938025053025
0.350857719663687
0.345197931207187
0.381176038196305
0.379653091365144
0.312023531250104
0.244863204213759
0.197579985997183
0.123194390226712
0.0282059399872797
-0.0352848863889474
-0.0467606907622287
0.0103789225403808
0.147395346815946
0.287748884863683
0.321215377180416
0.247034679552396
0.132344823536794
-0.0091712481068504
-0.165997002858803
-0.272107471331297
-0.320625359994896
-0.392710027174513
-0.500909520245777
-0.567374934263367
-0.570610088732598
-0.538891159326926
-0.445929090066082
-0.28558901533434
-0.157425399821931
-0.130939304348548
-0.14512748814504
-0.141943200479175
-0.149740179602208
-0.169233130483681
-0.142550750503642
-0.083966478074563
-0.0816895940148354
-0.141351477885569
-0.173770666109951
-0.140686258554412
-0.0906955537438681
-0.0844437993204096
-0.161826863718034
-0.291817257705199
-0.325847671688774
-0.152630252509567
0.111074132133557
0.26179696472413
0.284459566708701
0.30809680793782
0.382703113766627
0.457873573813081
0.4774415018889
0.40199294519501
0.255070689060109
0.157446819408165
0.179519347007149
0.222651891443043
0.189644663719886
0.143303655732511
0.150921204324222
0.143136227758802
0.0613211814125877
-0.0298166671393772
-0.0631893214870125
-0.0442302758233373
0.0075330380280928
0.0541562878983443
0.034425110608018
-0.0285336384401809
-0.0281648547760514
0.0429990383981087
0.0656695752961747
-0.0007734670719609
-0.0573962840590861
-0.0473247037592828
-0.0304436556789195
-0.0565195807366305
-0.111707861821154
-0.176223661773751
-0.210911564134319
-0.157831462513129
-0.0608020657882724
-0.0572471816344613
-0.161455654647266
-0.22050463950192
-0.147911427473901
-0.0323541967934796
0.0091539582150769
-0.0554213675775613
-0.180596392457814
-0.268450721942266
-0.255280526445474
-0.205026070073105
-0.207883365374794
-0.22106666604218
-0.156532609069669
-0.0490847522392024
0.01700084165928
0.045530512280694
0.0761414782561616
0.131839030741551
0.270759679686837
0.503046155042268
0.659231570044451
0.565552797503991
0.311972630325889
0.131097281913819
0.0930382824481386
0.110237028714503
0.128942942440642
0.150114059859175
0.166214824902835
0.182415558471251
0.204630137435343
0.181825069628604
0.0794783057376287
-0.018781149354344
-0.0268389170573576
-0.0047997420729696
-0.0334124852462471
-0.0442913473998916
0.0578823831830499
0.216699877129574
0.297770308180411
0.228579126444629
0.0170918621069558
-0.236878620454717
-0.370476474225255
-0.330179930882298
-0.240737030074451
-0.2094861590297
-0.204964782933687
-0.195494548459822
-0.221347744371485
-0.278014012542418
-0.303986772845526
-0.295971139386997
-0.294704748109836
-0.302079746141737
-0.312859428365841
-0.332253676860109
-0.318161760915589
-0.244771356129784
-0.199198147182755
-0.244948917372041
-0.280247507578754
-0.214319121230018
-0.137124795810764
-0.135100719617669
-0.120489985308768
-0.0087731281065573
0.12136468379011
0.1803295148743
0.202855900892913
0.237724177271082
0.273333572481845
0.327377391050141
0.441509984498236
0.56282307649148
0.580032294050431
0.462465453575883
0.259905382298279
0.0479549875337847
-0.061622740917316
0.0028673404806573
0.154445508543491
0.252673842160117
0.289754910577434
0.322173649927225
0.321954128309923
0.250670462488276
0.15867757348492
0.0942570530639725
0.036872336651036
-0.0325583385933142
-0.117131714949513
-0.230066015018413
-0.319515886136424
-0.271404717608462
-0.0992906420740725
0.0182184094850442
-0.0214921161513903
-0.133075501645954
-0.206177182698307
-0.204644590249379
-0.125506998946435
-0.0223153433892355
0.0004129254023019
-0.0649208088102913
-0.106837629561046
-0.0872007748459051
-0.0863109764288094
-0.121440070547264
-0.116484289608181
-0.0684082654009579
-0.0469970462880465
-0.0387607277455837
0.0181763230144926
0.0875733139102965
0.100776119368621
0.0807828888352842
0.0505859005289486
-0.0374196584194431
-0.158573297786108
-0.187511542393196
-0.0961110789192502
0.0094599502465797
0.0679764226297262
0.0976207416422979
0.0940958427881785
0.0534888349801945
0.0189750491204258
0.004782851208897
-0.0142458817884325
-0.0080265247281331
0.0651973569410456
0.141388539982372
0.1319545611334
0.0611991243439224
-0.0020782514851285
-0.0389663923299549
-0.0263518857409045
0.0527954060109855
0.11176630435891
0.0543811784042736
-0.0550116760548592
-0.0976160354761103
-0.0972113804252403
-0.138896294596513
-0.203121543330129
-0.226090965419366
-0.205028741759625
-0.145624913690305
-0.034558583749432
0.0797144599503092
0.114719746453343
0.0827195049805361
0.0576147563084032
0.0433179343887769
0.0234647854063234
0.0691742668849383
0.232354174162039
0.415656820123053
0.482824173610303
0.405337877126114
0.234429501894437
0.0457169895743548
-0.078540152012721
-0.124784630876795
-0.162459509448277
-0.212724687877116
-0.218991677751046
-0.187514258721418
-0.191104895945329
-0.220718839344217
-0.210235147020069
-0.175926709141099
-0.162050043056073
-0.133716476675334
-0.0763152107051624
-0.0728529923360108
-0.162122943614136
-0.269846227742451
-0.33891423781748
-0.362101749843058
-0.29974459907962
-0.142570390773284
0.0093898563609448
0.0847734907232458
0.14298603239388
0.225375311547332
0.270504216103003
0.269227765732739
0.314645987277686
0.420748109774877
0.476812351571546
0.433197708882864
0.359011638958767
0.301007464553553
0.242821408438459
0.177338696415971
0.0979063833437304
-0.0018615291630723
-0.0529063669749757
0.0190215273582137
0.131625296216303
0.142562233641616
0.0759158269425588
0.0542349298478481
0.0811542649640385
0.0769015769084824
0.0314707371003599
-0.0158022427164394
-0.0416725949253642
-0.0211152827610017
0.0374679832349979
0.0524052547463807
-0.0152796120086596
-0.0881230562257079
-0.120762684449706
-0.174994094194055
-0.260284276589725
-0.291831050396946
-0.266021630216623
-0.27336661974731
-0.321938237895143
-0.334955214124676
-0.286885382637458
-0.197109795897179
-0.0816572099038798
-0.0090145162212706
-0.0645145536324823
-0.20018936348335
-0.280463117257018
-0.291132301993737
-0.320801123437571
-0.36023463735522
-0.333392414980152
-0.282527241780838
-0.293487856959038
-0.300341834197716
-0.186449187871637
0.0049774439196168
0.148776033702681
0.217006524506436
0.249839024681546
0.275535733215346
0.326745993604092
0.411190934823842
0.46565113843728
0.441673600390169
0.37373480889298
0.294546725830293
0.195982504824576
0.101291354246968
0.0390603438705293
-0.0299909467039544
-0.122735246337125
-0.157963624800567
-0.0972048160481115
-0.0182210700021242
0.0460040288946301
0.14806327024203
0.254770922472306
0.264239273082044
0.205231848513894
0.19309768381718
0.228149100824536
0.241786524005095
0.251675671993031
0.294037116922695
0.317568476280474
0.279417691416132
0.220194698162965
0.163107805614257
0.0832043960150916
0.0120517252616529
0.0098174417781671
0.0365527226730867
0.0197641608839972
-0.0052132834659198
0.0078689572442026
-0.0090315016629575
-0.0984274641255368
-0.158122663266762
-0.107719119544223
-0.02557563240726
-0.0253423663811739
-0.125601903112749
-0.265776241662163
-0.350202876274684
-0.320393278084649
-0.246873206654173
-0.250708985893272
-0.315373292620247
-0.315610188768631
-0.215295998561755
-0.0903800293443746
-0.0107751035342122
-0.0182214891651443
-0.113469477396866
-0.186031856225551
-0.115462135887244
0.0225256409558137
0.0385255123806593
-0.103558102443299
-0.293470222678247
-0.458858957860936
-0.551985892077948
-0.489767827539993
-0.285711034330561
-0.0951163725030943
-0.0022150660930689
0.0707063385469085
0.164346871178372
0.193186691481152
0.119514300552808
0.0167671366270548
-0.0758198297126446
-0.166711517570287
-0.190611974037957
-0.0731966080683754
0.114904428853928
0.230951168292337
0.227010086890545
0.151011695048412
0.0823719809502424
0.0992153766439151
0.192645747458075
0.241473842107461
0.180418166648937
0.106399471699243
0.128370273616646
0.23654515417057
0.373929227956171
0.490036539146518
0.511116690615214
0.404491745853427
0.244766195350592
0.108666151157779
0.0003747444798777
-0.0553742396638092
-0.0195156568650416
0.0269475480511017
-0.0314733427171473
-0.128637714228043
-0.110111892558957
0.0074155908122745
0.0856286464708677
0.0893784779027137
0.0724854739862025
0.0403769907029052
-0.0204949591655897
-0.0804676581745075
-0.138245100961401
-0.239647663778326
-0.364993014389773
-0.435771956148526
-0.462274420298994
-0.525417275407702
-0.607116232926269
-0.601507763414122
-0.476399090971105
-0.289028867978023
-0.0924349014952522
0.0839591672915326
0.233371835502744
0.379537461356379
0.509654059863614
0.551097952951793
0.495797475972514
0.437083560687623
0.415619367935108
0.376903151988068
0.312262499220142
0.267932925227851
0.227843233878879
0.169090333613133
0.171243294856069
0.294751279047724
0.451833471766529
0.544643188321848
0.602549871418768
0.686450144444378
0.799661397538995
0.919463098831876
0.970097526668817
0.817329474034519
0.447434756523087
0.0543924195404889
-0.1929563364229
-0.342338660379268
-0.505103381450605
-0.677544602951973
-0.824400187387343
-0.967671022313361
-1.08743689061221
-1.0938063491062
-0.971262227281265
-0.806872051895489
-0.665498831773325
-0.580244002583644
-0.604309282251106
-0.723814530608101
-0.827058970319007
-0.878356457445323
-0.971326673043803
-1.12838564296518
-1.2181305154287
-1.1245702527956
-0.863015164177072
-0.531313577547488
-0.236684399650702
-0.0155107947944458
0.214406551351513
0.535279839233915
0.88962171566286
1.16792023769458
1.34351929681173
1.40296355106404
1.29185471263637
1.03919917226021
0.753685378052982
0.440577748214938
0.0441412707201756
-0.338369945583723
-0.553191029666769
-0.655723416728495
-0.808722002824977
-0.984681949440988
-1.01701641256917
-0.864308807606931
-0.613088380770402
-0.302764135481702
0.0856755910117454
0.54340712519673
1.03570998411685
1.49527758200238
1.78014583081015
1.77851288462547
1.56434684140837
1.31248106838273
1.09962780158591
0.906712843929199
0.720697431140395
0.533825101511811
0.352024459178164
0.240697695251272
0.244882639370701
0.302288150994525
0.350517530782032
0.413938340322356
0.480078895984413
0.443460459501644
0.259695094856515
0.0009735251913463
-0.267176898788666
-0.507588986907267
-0.660285561177686
-0.736982043050363
-0.86360961534101
-1.07542027861646
-1.21946875590487
-1.18841554252806
-1.07428157913936
-0.997322721765617
-0.954562610832532
-0.884449937543782
-0.747992213858937
-0.564653882556924
-0.45229108177442
-0.531605588223017
-0.723693408477503
-0.793272117513202
-0.658386419577439
-0.488632796768115
-0.436879052962512
-0.447211075873883
-0.38246787503772
-0.193575971709466
0.0526019501088538
0.208410794592212
0.181710126288109
0.118851274193068
0.288936328056315
0.715543177686157
1.13424993398429
1.34941956809406
1.39586022569911
1.355196110564
1.25420161289979
1.12154285517052
0.963874128137116
0.74629366489764
0.493630762497425
0.290985604235029
0.147240846834565
0.0127104802094523
-0.0839043056436092
-0.0767371034914346
0.0212660230265465
0.171640610387061
0.362260683504853
0.523655357785117
0.559326311568122
0.493415761280407
0.404857304607941
0.251236159504234
-0.0372918268080639
-0.368936641281568
-0.598794347914505
-0.7333382056194
-0.862630026036035
-1.00179204446467
-1.1276109291824
-1.24285560048963
-1.30747272900112
-1.2489743299788
-1.10442039357587
-0.996343300364449
-0.941847906921363
-0.844201456220019
-0.657100700958851
-0.415666070804165
-0.166850858292368
0.0257096551308573
0.106082856250309
0.107589037855651
0.10044375512287
0.0855653697975864
0.0636373464548781
0.115220069585061
0.281209288458668
0.482308477660197
0.645870848769608
0.767681825165469
0.819993255934416
0.776971616829124
0.716952973955934
0.717161037741781
0.704488002222895
0.572722974621431
0.347393575238573
0.110370152539262
-0.102044337732961
-0.249978077623432
-0.297960281442555
-0.301853585502505
-0.340460388347161
-0.386600590303004
-0.371452166185749
-0.298579042681179
-0.189760176961057
-0.0347999259697279
0.119153773632421
0.176368211350681
0.164075710761423
0.226557772663523
0.391287358039119
0.527487479406504
0.569746573298318
0.579941325721374
0.569238117253178
0.446412729186802
0.157378667043877
-0.227564522586087
-0.530154031968638
-0.552318780139401
-0.260815814435009
0.125146117830451
0.343137375281655
0.332956511604613
0.197904997573489
0.0460147274836546
-0.0591451615518147
-0.130229833654151
-0.267335536528738
-0.497598223465283
-0.654423198428759
-0.581427148569886
-0.354200202855828
-0.130301193883699
0.0829225107622875
0.361135740067269
0.714721195251391
1.10328375746988
1.45107887141577
1.63712997562933
1.62176225885561
1.52366995760541
1.43247878518565
1.27408101286353
1.00491800588288
0.773746728667207
0.727555416920833
0.793628274973407
0.783466258391582
0.596737170495197
0.253979449180427
-0.148061560461046
-0.49383663092424
-0.773373358299452
-1.09151676489647
-1.45395881795382
-1.6948029212715
-1.73289028858695
-1.71641869636508
-1.81370087861996
-2.03344387332153
-2.28467606906417
-2.44770953472489
-2.41534844026425
-2.20969691444725
-1.98516640335951
-1.82596765537396
-1.66898445197474
-1.46998393302078
-1.27973854018635
-1.14204784152468
-1.06309888544557
-1.03448672779904
-0.981409826440894
-0.820950441275792
-0.640904376495185
-0.610830873115319
-0.67379890595599
-0.578980241663962
-0.238666438010308
0.195011090032559
0.589040253328381
0.933749003952567
1.22864005319977
1.46521007565531
1.69273297065819
1.96729176288205
2.27426954573586
2.55789647012903
2.74431830708519
2.73517896545443
2.52477346366364
2.30195660180912
2.25502301130548
2.3151421324066
2.26840367999899
2.04749361769928
1.76038303328835
1.53138461897648
1.42218264685318
1.40133552779726
1.34463400915192
1.15940815466811
0.877735045377951
0.558193187357017
0.214556348175597
-0.0950785188369302
-0.277485605811561
-0.35193421748887
-0.415918475225522
-0.471849738404307
-0.473137015683144
-0.481208907623741
-0.581672441349787
-0.723964518865084
-0.79772302451069
-0.766923868625174
-0.64703298474289
-0.489104555010718
-0.412985341067677
-0.499450025550233
-0.658398483001675
-0.735391880616103
-0.695818948033614
-0.608940132262357
-0.556976298448921
-0.64400527852245
-0.954042055045421
-1.40901087139953
-1.8006926703376
-2.02470871718787
-2.1477202996381
-2.2314636296842
-2.25596827536938
-2.21597326802747
-2.14967965022513
-2.09886143772722
-2.11818750831904
-2.2335546269035
-2.35977754575549
-2.38182064534502
-2.28865842681299
-2.09143066091764
-1.70474268565324
-1.05910203306893
-0.214032497213636
0.744550422768506
1.7613708092891
2.70836309777766
3.4113386626016
3.80538079910775
3.91027463135177
3.72322875887116
3.29399923086585
2.7720469135595
2.24013164743456
1.67404602811693
1.14678226850488
0.843811866163058
0.818656022110513
0.948389303408888
1.13061003819889
1.3217294136704
1.42859293078154
1.36398344932085
1.17048537562704
0.947380380673109
0.7203967493508
0.480002493114673
0.241854824191331
-0.0096479621306962
-0.318067111588687
-0.657884042833099
-0.968708536260741
-1.2587647434336
-1.53147663383746
-1.69464178230179
-1.69149649137459
-1.6119948322216
-1.56366644891876
-1.55595958402855
-1.55545141100015
-1.51869042417327
-1.38942616585193
-1.19376936214977
-1.0689120823243
-1.09976815270252
-1.23574124397689
-1.40541463032113
-1.55171118538028
-1.55855521215
-1.32950999664191
-0.909555588143498
-0.385779822794899
0.222170800841185
0.849286171421919
1.33423201053107
1.59384562121636
1.68842132061234
1.68320346870623
1.62082901089896
1.59429183241708
1.65781876803378
1.72475133285819
1.70186793884452
1.61759948303091
1.49835511107975
1.28083479800611
0.978018839873869
0.755596841774029
0.708801988255514
0.722449520232974
0.648675243865666
0.474324945717372
0.268570839873436
0.0974254417817575
-0.0162591238518103
-0.129232491562316
-0.297895105225651
-0.434628844859038
-0.389496592882143
-0.175795056625149
0.0435788095793897
0.15021001866767
0.107641262936762
-0.090424139355445
-0.369688006717117
-0.589850757650369
-0.702422577838617
-0.782733382897939
-0.907818547918695
-1.13579840958809
-1.51744186292884
-1.96967305659191
-2.27150300673782
-2.31733393186766
-2.19969014461471
-1.97816039912386
-1.61064855045419
-1.1467228400619
-0.728561802369733
-0.393684494660568
-0.100761692741228
0.0974028175177186
0.107431495974293
-0.0493357892387244
-0.284390667331277
-0.538774919319521
-0.718760665956474
-0.672578897712795
-0.333222978418262
0.23262226732486
0.938291206742951
1.69229110126929
2.34327627631801
2.78720809283754
3.06004236680218
3.18419407109727
3.05914982809781
2.63368003384031
2.03817677994834
1.45750808275775
0.996799615288855
0.676863866455276
0.438634254194845
0.192404562859793
-0.0606004630201382
-0.249877750310727
-0.392633138667944
-0.563881728363467
-0.724028436132521
-0.772409180743434
-0.733022618805913
-0.69857326866691
-0.666592725683287
-0.593408243424137
-0.504201576491969
-0.437311104640224
-0.405360846632242
-0.45249527865947
-0.607833564927829
-0.808699809347175
-1.01271768025807
-1.29323045442407
-1.67333276234533
-1.99624347229893
-2.11924005290319
-2.10597207214969
-2.09115205507632
-2.09195783614311
-2.05783403498406
-1.96044497825463
-1.76955070096621
-1.48073667902932
-1.15513976903338
-0.785499948490567
-0.222087113741863
0.602065674694926
1.5148603207285
2.31288122681887
2.94301989270605
3.38093619843899
3.54685885684525
3.4278482501817
3.10677856124808
2.64239471674522
2.05776426086692
1.42057353771152
0.837301492676841
0.412202248413956
0.22354385021807
0.258313443430661
0.421556792317875
0.682120198821336
1.06112005184011
1.41219177134115
1.46665939551435
1.19538741537055
0.857706344212103
0.615167145238582
0.363639757435566
-0.0094661640334415
-0.452031156692304
-0.858276332059442
-1.1682195774609
-1.36876542674974
-1.51422848737936
-1.67725839224212
-1.80614096082927
-1.76357200915894
-1.56209931403367
-1.37336489117365
-1.25344951881646
-1.07951388028889
-0.804997191822171
-0.559467608257401
-0.460260832561138
-0.493388744916847
-0.57748647777422
-0.639581791682762
-0.666315197064282
-0.711652531753082
-0.788510845726805
-0.798558922580003
-0.656966897835127
-0.389127589696442
-0.0275109145557198
0.438106867160823
0.948021523728112
1.38514944455484
1.71908871886485
1.94923352632711
1.94636275184563
1.56973807782349
0.885865956773448
0.0904591956615728
-0.689501460829191
-1.38464885651896
-1.91218732770424
-2.21242375743672
-2.25198189979716
-2.01176449729446
-1.5969528071966
-1.25366592203182
-1.11204789209793
-1.02369155375219
-0.784982446756506
-0.376220611853312
0.12045038977615
0.635592298761189
1.02950509011232
1.11473666631126
0.884857637199274
0.543755869157349
0.265607307665793
0.113645339101008
0.169745225746437
0.526101707867917
1.15827526666832
1.93866879411299
2.72715598524956
3.399237273457
3.87818789575161
4.14580740223771
4.15882144472218
3.85275635311304
3.3045023332573
2.73284910305223
2.25206333631336
1.78177074010604
1.23271796613738
0.609522336059788
-0.0516469699105539
-0.680997441967874
-1.18916806235925
-1.626960744869
-2.19189701968238
-2.9585980974695
-3.7733347378941
-4.47778338726814
-5.03564069327801
-5.41691416053305
-5.55860443269224
-5.43070484952042
-4.98675681939492
-4.14040397761674
-2.96471974418044
-1.80253351986732
-0.995320677712155
-0.590415630403476
-0.428536630161078
-0.361352413819229
-0.26013934101185
0.0115148640787378
0.484422013506596
1.02498005523301
1.42736009465541
1.52733613809766
1.32068294798129
1.02895538202843
0.912592954416523
0.987798089755638
1.07632213515223
1.09685622598445
1.12592793249242
1.23471495425705
1.42656128697999
1.64612724791984
1.74936759485989
1.6030202182342
1.26962570390133
0.940292958754283
0.699423955565187
0.525074845744939
0.44225059427343
0.497778973910525
0.684735522677146
1.00629000118844
1.45658892398253
1.88368649106292
2.09348142111313
2.13371944218973
2.25574988264175
2.5747911462268
2.9558813883462
3.20699860274031
3.19995077550147
2.85087165495603
2.17449754412795
1.34918220504377
0.619704714294943
0.162488057980669
0.0432035284664808
0.173703650281969
0.328024273384789
0.360401888055496
0.358581682679353
0.447337740280178
0.564983195095043
0.563274413527727
0.37061882543512
-0.0332446907238635
-0.624853940523204
-1.26663854627483
-1.78559030456302
-2.1254099744975
-2.33600468824426
-2.5185664127599
-2.84068363405699
-3.41648923829574
-4.10974651020418
-4.64768964985538
-4.9358732688525
-5.06876482335216
-5.09829426353328
-4.99967743975571
-4.77319426599336
-4.41984092554344
-3.93957073880165
-3.43352842024033
-3.0340892151943
-2.71267116238145
-2.36856267161974
-2.09834992982537
-2.13944089427401
-2.51703870308387
-2.90788436855058
-2.86407064623385
-2.10372124796013
-0.679989777372112
1.02807995087671
2.56841758592468
3.71219958516587
4.43548869180748
4.71210303891946
4.54576707923808
4.13127922493758
3.7313107555532
3.41786503043702
3.09099140968136
2.68248548701192
2.23943534078935
1.88524556992305
1.72603682193447
1.72119335103786
1.70010862205006
1.5802836060811
1.46226989280464
1.46301570898061
1.60440884193886
1.87125989407044
2.20115845292089
2.46167175977342
2.63261450442694
2.92474287324849
3.53476306894701
4.39664400962772
5.28431061778816
5.96116080089726
6.15096528880503
5.63010475136196
4.46823609548332
2.99333343046384
1.49101589676445
0.104396934988162
-1.03460355558146
-1.80882093862468
-2.23636896881363
-2.4279401797436
-2.48483052122112
-2.5556205904641
-2.83686557157479
-3.34156539843558
-3.79896366646539
-3.93184908139769
-3.72928404335691
-3.38442648635756
-3.09039814996419
-2.9260276485082
-2.84035698423403
-2.7319460950393
-2.54643774111043
-2.25116596660155
-1.79826257345633
-1.24754364386169
-0.831852409666982
-0.749432000207251
-0.977528718181208
-1.37092130461328
-1.79172240906112
-2.0942750394375
-2.18267926151455
-2.12676088619535
-2.06328993733414
-2.03796074820691
-2.1054915040856
-2.43465478257097
-3.09742247503536
-3.86856919969076
-4.37795375302701
-4.35959568747755
-3.73444982917156
-2.61653141317783
-1.23684337367574
0.257904030065124
1.83600932052519
3.30525779325839
4.21869025488482
4.26841247409985
3.62930722770541
2.75595635250089
2.00622662427255
1.5686344068836
1.51123137712762
1.73271095380827
2.01794985230692
2.22219657722415
2.31516621195322
2.32820469335349
2.39328495743313
2.69436677431154
3.22389071779839
3.71091220032522
3.89276830038679
3.73939359610014
3.37561851853939
2.91993330605759
2.42901914913194
1.92563318854939
1.48374071058436
1.25067843840282
1.26295684861329
1.29261479035934
1.056575712244
0.537397134298019
-0.0397411790022605
-0.448477432414273
-0.591886317344956
-0.57095540271617
-0.681317289229036
-1.12447558553545
-1.7113802122693
-2.09027371239381
-2.22423060589263
-2.38041518180539
-2.71108592679917
-3.11047834153541
-3.4260217467746
-3.57342652194734
-3.49797689855248
-3.21479945834389
-2.84669748376239
-2.52648376808277
-2.32918067828552
-2.28382023225744
-2.30941208346179
-2.20582986304843
-1.87075978053122
-1.41553388569266
-0.937745868760983
-0.366699089678735
0.34282329264335
1.07496033550667
1.71374479654662
2.26413507889347
2.7865755512396
3.35904120062566
4.04261691039059
4.7383025503586
5.1761715707469
5.16100483354404
4.72819587614134
4.03816736029282
3.26356889647217
2.53369695385992
1.81471194124215
0.931728874132975
-0.127147308157164
-1.05034763926469
-1.48319763569865
-1.36365386327584
-0.944121637129788
-0.619522813531501
-0.700696441321974
-1.17714126697661
-1.73092465818787
-2.11263509210016
-2.41628756555676
-2.87847758283604
-3.56991550927685
-4.41636603983549
-5.32033038953945
-6.09357885959799
-6.44895778129302
-6.20311384747029
-5.36523840109304
-4.02772540534137
-2.37002242068409
-0.74333893423947
0.466479325556351
1.08180646083431
1.1798828978211
0.996309125397703
0.816146853295166
0.823048956325329
1.01723893411563
1.32625599302961
1.69699220464785
2.03009724461185
2.21638805763334
2.32085592324759
2.53959245830113
2.93118295772567
3.37239147712149
3.74149907645915
3.95361230370493
3.92845559629062
3.73503839836832
3.62783670507
3.74334692211209
3.88421490319917
3.71464118625935
3.0372951987786
1.86921784415751
0.454680213016158
-0.770948752600216
-1.42921145027344
-1.46661478690837
-1.09048844699395
-0.499822188037377
0.20829610900052
0.952151607776109
1.59096044272967
1.86767359135243
1.44812084153086
0.211149351198078
-1.50503853778263
-3.13110288840421
-4.30254037623627
-4.94922981590656
-5.12789095387955
-4.96577394827483
-4.65019927252365
-4.33538577066083
-4.1193921461601
-4.07150468089279
-4.12168657609928
-3.98592670753911
-3.37437215501435
-2.22020554904437
-0.616727320055634
1.33378059703566
3.51643438197744
5.76236837937838
7.83803461253568
9.41433401801392
10.1783473784796
10.1101883283139
9.49823467460101
8.57202836550569
7.30953298975194
5.68563213857759
3.88167470113782
2.13578776314918
0.524795370698232
-1.06390096049583
-2.82140465457338
-4.79654280547765
-6.67245289721855
-7.90365524676666
-8.23777812542681
-7.97324869116174
-7.58441285408851
-7.29690142852946
-7.16381840916854
-7.29493278115586
-7.77557027947241
-8.48194816727685
-9.1411078062013
-9.56185461664518
-9.76198188780641
-9.81728578980258
-9.55084743686218
-8.51354954958907
-6.42610939540756
-3.50327827466971
-0.185828069715562
3.23807731379911
6.53164687431195
9.24690083260001
10.8423057506454
11.0194277933041
9.89259826311386
7.97454786701981
6.00703242871242
4.61667782951559
4.05704846075846
4.24499076778113
4.86539541210932
5.44301275742506
5.64217545523845
5.63296995654554
5.92332846951026
6.73759811155768
7.75422423028255
8.46813676415032
8.59687807387852
8.14506797609087
7.31758368734825
6.40688110995796
5.58248216851037
4.75077859148319
3.69908689264388
2.33902924910677
0.785657711965397
-0.70368357741546
-1.88842766399
-2.76183211595666
-3.53743061092437
-4.32303945085141
-4.96630834122081
-5.32314378424961
-5.4758106372752
-5.58000554358373
-5.67768900889276
-5.73619391472837
-5.75289171542142
-5.81556941616681
-6.09507487232094
-6.65105787410532
-7.21758572680117
-7.38158016392452
-6.99759713923506
-6.2361337555238
-5.30783883172372
-4.40514437190358
-3.7907426762612
-3.6206656156526
-3.73933097712344
-3.85362730858997
-3.8001291627503
-3.5315453676376
-3.04369800186335
-2.44226630492616
-1.90354314950697
-1.46659169124304
-0.985197576077979
-0.319582043459814
0.518212519306422
1.37454577459381
2.02366655619749
2.32944849150475
2.44680465990153
2.75807616961515
3.54136728805296
4.80209012325027
6.38235799700501
8.04301955265258
9.49696621510876
10.5594886618717
11.2107017184996
11.4105531819507
11.0075879394328
9.92457754352179
8.27414378776302
6.24539875310457
4.01952436191569
1.77465010426795
-0.350822524059849
-2.24063308981297
-3.72159902285407
-4.69288012233407
-5.3468727915292
-5.99707052863985
-6.66700053981707
-7.1077938749361
-7.19670421577591
-7.06419644288226
-6.87762941427344
-6.70987444861915
-6.54923167178905
-6.28799958811992
-5.76838458708381
-4.8958165454939
-3.64527275504048
-2.03649908440154
-0.255745653777823
1.29520713167945
2.25797291739504
2.5626023466118
2.32898254725864
1.7260992660963
1.07129329632068
0.817896958077967
1.21515577518528
2.10457823340248
3.1408180763769
4.07253540792571
4.80959972734511
5.37724472756928
5.77831130571703
5.82665783289558
5.25896730604407
4.0853004309283
2.66756406075426
1.41939185340055
0.573481643421027
0.175359080149245
0.0988547210119584
0.107383628452338
0.0355843366303207
-0.143529351299674
-0.437432562696733
-0.844893050957365
-1.24693055190953
-1.47905158390814
-1.50053815726386
-1.36515487109878
-1.13160477851384
-0.917909257781188
-0.888284715778887
-1.09033961135862
-1.44724533427213
-1.9074928891174
-2.40570180094641
-2.71964298373404
-2.62295929955898
-2.18744572924422
-1.72755082958493
-1.44926619555216
-1.31869498058441
-1.23272495637298
-1.1515682402838
-1.08279271018475
-1.02164304735506
-0.8740393313927
-0.466221312666964
0.261309091902305
1.14008849256076
1.9781760908974
2.77563865049585
3.6350667996953
4.56935399336539
5.4104088277623
5.75521199653413
5.10075855578904
3.31777891578653
0.958711559618947
-1.13301988226733
-2.47658492685252
-3.10973644225408
-3.30413289194307
-3.33695078173513
-3.41100157797796
-3.61774240149836
-3.96436332325231
-4.38928678339099
-4.72735939086944
-4.84249953045782
-4.85882558167197
-4.99794150967478
-5.09505398430688
-4.58521394859431
-3.12858087630145
-1.03672157588521
1.00461529760885
2.44976708382472
3.14006435322029
3.30016802120825
3.35077269430884
3.55594548344867
3.82223360341313
3.89120475509937
3.59973534844627
2.88840102516717
1.77714880930708
0.459668426244521
-0.744572269502956
-1.60236736056379
-2.03012998706204
-2.02356175452254
-1.68344734315426
-1.22531354077235
-0.820119163846263
-0.47182158410032
-0.0810899868196016
0.444452577656522
1.10015789577259
1.73335390249558
2.1900369778399
2.53517761875
2.91117915329634
3.17666241407475
3.01616723542217
2.45092066792115
1.88458791380632
1.58232902638797
1.44241867910653
1.34442709054984
1.4190347882524
1.85968710832698
2.60653872291338
3.26791536374451
3.3520543643045
2.6746933961506
1.58222142097283
0.6928757071076
0.403573900067485
0.691045123027209
1.28656280738723
1.89695957145853
2.32835159989575
2.52940343895789
2.46482962956541
1.94456586620125
0.772008016001284
-0.925393393865106
-2.74950354811399
-4.41843815053239
-5.88134487248443
-7.10409876281599
-7.97782839596652
-8.41111622930019
-8.36618804698367
-7.85279894477722
-6.9377426583359
-5.67215407214134
-4.01525177114802
-1.92764211726806
0.493995081625317
3.01959528845703
5.33347327192819
7.10141323685156
8.15491872087203
8.56254833129604
8.35975885669806
7.36687641621348
5.509624952066
3.15265602146318
0.882635609617738
-0.902435414082687
-2.08763621400279
-2.77602628331541
-3.24775856800801
-3.75298453978546
-4.2434091918913
-4.46602078041782
-4.32233728792176
-3.96406800069542
-3.57534436431284
-3.23203440961233
-2.90775710146637
-2.46937804766549
-1.78122987368325
-0.961533158675371
-0.428208352434408
-0.60672139472408
-1.68154021595578
-3.56195170984531
-5.87648850920989
-8.04587255936726
-9.55053183109718
-10.1041969830831
-9.55179662560579
-7.83346266545994
-5.17435700152567
-2.13628192690833
0.611305209629008
2.51795902985933
3.32062507584107
3.26190956903232
3.07732357307379
3.50838430516028
4.77213563297317
6.52551663800887
8.25035822334126
9.6815246463014
10.9943153187332
12.5468923742442
14.3516700391589
15.8960849837213
16.5311690345193
15.8980290145335
14.021340852775
11.2665679427551
8.2351655360892
5.44722585139635
3.06520664465674
1.05146287842421
-0.510046784672333
-1.45586572160949
-1.78652193410645
-1.64853002159665
-1.20273438200748
-0.705280831184888
-0.546950444067978
-0.990527955997514
-1.96604000324422
-3.23248080053565
-4.62231744370659
-6.0569310478448
-7.4065456757757
-8.40324848832288
-8.77512339834637
-8.57057140110229
-8.27375811732542
-8.4529706250493
-9.36324755743114
-10.9430346534602
-12.9430094460902
-14.9123706697087
-16.3449098225313
-17.0347002152687
-17.0952813354593
-16.5847124171036
-15.365133949819
-13.3101875960556
-10.3809822386182
-6.57870860694534
-2.09669553479368
2.57011743465983
6.87932736075788
10.5213026242933
13.3901247039243
15.4925197910373
16.9487478216692
17.8409689602359
18.0003810623396
17.1848313003956
15.5145271752133
13.5017218919917
11.6163633415578
10.0127234609558
8.6494748152839
7.46546805058536
6.4464336275455
5.65034492486432
5.13905472544983
4.84170619471632
4.53417559542694
3.92702019351932
2.76511675693776
1.00877068820546
-1.0198891581564
-2.84176260861702
-4.17653671737722
-4.90967965047933
-4.85135968642346
-3.91447568918792
-2.5023931929007
-1.35342164015165
-0.930498435830695
-1.1339586682199
-1.58241983525494
-2.07073226199076
-2.80674814082451
-4.19468470559337
-6.31225753921366
-8.72719397074938
-10.9216329311249
-12.644978861093
-13.6972637336988
-13.7003108105829
-12.3957085932104
-10.0261953964571
-7.20876219015355
-4.46829186055375
-1.92331203424272
0.688784980504392
3.69373232992587
7.06507329383326
10.2965815931456
12.722461121553
13.9129175096683
13.7946731468422
12.5981434494948
10.7301896666823
8.51589460895279
6.06116975234123
3.48838457228212
1.14047858546776
-0.673605847086688
-1.99757072171069
-3.11221892614726
-4.23374078710948
-5.41218136217103
-6.56473562772378
-7.57429818421846
-8.48372397508295
-9.51588079858129
-10.7680310068344
-12.0323810328506
-13.0059761966825
-13.4082875340121
-12.7915231266062
-10.6271786966292
-6.87924336048832
-2.35178188126672
1.68716321538112
4.24659347887613
5.15587482463781
5.08488784434757
4.98037270485818
5.37008189208877
6.21670888718986
7.30287177907905
8.46292284135786
9.43608806354423
9.80702283238451
9.23704707615243
7.66600873723177
5.34758740522189
2.83838877042037
0.834892099498071
-0.191138516100843
-0.169420224799892
0.767827729367331
2.45310773086754
4.59650224469726
6.75403645768035
8.48646134436689
9.49086141323428
9.65316512227909
9.07564309977643
7.97041055056108
6.47555079962423
4.67197518952911
2.75684648730945
1.06952868781589
-0.0213881279300425
-0.215325730571471
0.552355479585817
1.92929407073837
3.28536495502359
4.08213298768406
3.99594009086553
2.84711058682894
0.740690092428115
-1.79204354805596
-4.1068065110136
-5.92231670505809
-7.3833499452434
-8.79434979317725
-10.4059461864952
-12.2792367542661
-14.1864163778065
-15.7036419850035
-16.447901489998
-16.1784814442603
-14.7883996838672
-12.4311144196983
-9.63449007480361
-7.06302663373664
-5.10041094192498
-3.69799143077499
-2.542822131698
-1.36827013190142
-0.261408974377338
0.385387957837848
0.435199336658767
0.355109916844262
0.651137059779396
1.08451600199512
0.874595816360158
-0.313988426774565
-1.90811712561399
-3.00149469599303
-3.17717159631652
-2.6555186064264
-1.74751344389884
-0.415074923541507
1.45888924438143
3.5603922431843
5.26124570577845
6.20475742010614
6.47383291698824
6.28428353372255
5.879582369086
5.64414284958326
5.9498819330289
6.87919304269915
8.24135415148278
9.7125927491467
10.8767424457233
11.4197849889158
11.4490959184071
11.3769844933554
11.3535469414229
11.0287666766832
9.96243468587101
8.0725215399927
5.66473830028686
3.26162642299136
1.41516918312802
0.424934449951906
0.132648726616558
0.0812609569231074
-0.0894006860452629
-0.39312984602654
-0.598737832833638
-0.593560035817099
-0.606680878084114
-0.946101972935479
-1.61625666294257
-2.46196655934637
-3.57321315298969
-5.14608416395471
-6.98489537693013
-8.55873839458949
-9.57975680583476
-10.2105607684903
-10.7121329328108
-11.1328118842611
-11.2865139088575
-10.8602396863579
-9.64422192635442
-7.77227533262132
-5.64057283279684
-3.60957765815472
-1.94350301403568
-0.922218003620348
-0.707452559436182
-1.07651694326358
-1.47960761523136
-1.41457112638209
-0.723023631854085
0.401810671545746
1.61917152522611
2.66874248990004
3.43306950268329
3.84878524124819
3.90301126922506
3.72426494248445
3.46150924367839
3.0252102822216
2.22013081146071
1.20515866984974
0.496650345312955
0.385135527354517
0.597582175742151
0.608807723886138
0.103043349575948
-0.821755907246664
-1.69618418848483
-1.98258251522541
-1.48885421008793
-0.435352035661048
0.870620057547258
2.23738670461387
3.49722891525704
4.46229397241903
5.01105795386737
5.10182460199001
4.74351219236783
3.98623461405187
2.8172770320848
1.12156812792117
-1.01916934643605
-3.05505962420031
-4.29117132646311
-4.49529500722073
-4.0322692771378
-3.47815683701782
-3.21191218447026
-3.23753710104513
-3.27345287371528
-3.09124272675455
-2.77419399204588
-2.53930913806468
-2.40953750592641
-2.26772529584327
-2.10525589585542
-1.93829075301225
-1.58797234106715
-0.828060289884832
0.341717791998371
1.77817893676759
3.39378174524265
5.08131698679971
6.6023062738785
7.73742010300309
8.49304217958076
9.09393748840466
9.76427555181452
10.4456140329405
10.7436864188
10.2957667923669
9.19084984933301
7.92436406101435
7.02040869171774
6.7573596359903
7.00392172106631
7.15287752821602
6.49885626554537
4.92657797136782
3.05947110455656
1.61312473158792
0.772862845038508
0.215272557859339
-0.478041083398714
-1.43339389061983
-2.35311918497269
-2.82203190572558
-2.85753750166307
-3.07847281011665
-4.27516759090354
-6.87793394861188
-10.7417538730329
-15.2059730788249
-19.397937996861
-22.7512068502524
-25.2779517809125
-27.2090013827229
-28.4721142112919
-28.6918909424521
-27.5574036099369
-25.025808676947
-21.3053845605563
-16.7193227907164
-11.4391518098153
-5.41732817847492
1.17698508917957
7.57841588317843
12.7919120495152
16.2849666716264
18.1503669592772
18.7638137342205
18.465953184589
17.4117174522932
15.5874658426014
13.0998289177916
10.4763193044679
8.51149953761885
7.76149156052781
8.21808150184145
9.37782937528549
10.57766372477
11.3857859876741
11.713598162062
11.5318004858264
10.6731617973374
9.10201708765891
7.19608043145675
5.51457906847943
4.36451950227187
3.71067437434905
3.36526859376049
3.15038431810683
3.00577240663841
3.02077351333996
3.26770595261511
3.61402551554473
3.79770084865666
3.59036105537366
2.78567014402543
1.24260413584082
-0.884052646118901
-3.16680679988377
-5.31242262389883
-7.35002429510708
-9.33633905747805
-11.0966165865875
-12.329756419619
-12.8264765505934
-12.5975130632907
-11.8972220943891
-11.0603749324369
-10.2465776569716
-9.41767489607738
-8.55729438846698
-7.79446484145244
-7.31858832421543
-7.21314455451187
-7.26491492407411
-6.91453516649768
-5.5880813149196
-3.1725891697775
-0.1110265797898
2.89860245857899
5.25133185469222
6.7183353413336
7.53060246163669
7.99874312258659
8.03323146328029
7.34306728686038
6.08473402852568
4.86011068333484
3.97879225023181
3.16636818868322
2.16430671082481
1.22446835417127
0.804661690859307
1.06817957208244
1.84784585436743
2.86159148488121
3.81087551260766
4.41621667857037
4.49777707516679
4.05197664771799
3.25409674229492
2.31517660361347
1.2847897420298
0.11077085632425
-1.07627066646024
-1.97146243291543
-2.47461870058548
-2.81841578027401
-3.2461106002239
-3.78482959969133
-4.31432959597946
-4.5840688845515
-4.24116719000371
-3.18524397843462
-1.8672797216549
-0.962870842845046
-0.775272539109691
-1.10099319148298
-1.54306360227796
-1.80760857563052
-1.81732873364902
-1.65729499310336
-1.38449487455313
-0.933370404178569
-0.28013226405193
0.417195759638482
0.994344392577961
1.53156537580113
2.2989775048443
3.48126443100139
5.01648636803422
6.63847681322038
8.01080926897024
8.83675680639244
8.84561209143565
7.76622478755665
5.58325501467482
2.89637275732707
0.709183052950445
-0.354432909445829
-0.479884446995504
-0.284844973741567
-0.256565514767853
-0.577007829911418
-1.21616049010318
-2.05223561608405
-2.94602763137646
-3.71428718103546
-4.13237246710752
-4.1675226858917
-4.16366246929208
-4.53906623195509
-5.29439396400876
-6.00238021570259
-6.25560167723131
-6.04292989403884
-5.80828571685841
-6.14406456579677
-7.20287213176728
-8.43996243272447
-9.1884054606352
-9.38736704714638
-9.45609835189989
-9.60831864402521
-9.64072664100354
-9.29048072216934
-8.47618738268722
-7.22412141438219
-5.58312091170609
-3.60507142341513
-1.33233290873515
1.1143779888231
3.47390952757344
5.62978389885325
7.97873012916027
11.1848402472499
15.3999135091557
19.8605129725741
23.2992556077042
24.7053366044828
23.8422487019087
21.2574822196785
17.8301149431163
14.257977426671
10.9237886943544
8.07838465474129
5.95664567958578
4.69420358556238
4.1829838672743
4.03777629600551
3.82649271415628
3.44150501351793
3.12846821134192
3.05819688715349
3.06031829262074
2.8719141178366
2.39006452785543
1.5680891575403
0.338146355185674
-1.24763776743374
-3.0221191827863
-4.89325897408072
-6.82659890001404
-8.64066289839662
-10.0137805795072
-10.7423149545231
-10.9542020068025
-11.1104232394298
-11.7751350320985
-13.2461809385871
-15.3737942591895
-17.7914260458137
-20.2175511767328
-22.410539352427
-24.033706511438
-24.854113063261
-24.985146533771
-24.695697581567
-24.0135612524074
-22.5994268932886
-19.9173138267283
-15.5735796791919
-9.7269299018991
-3.18155582967434
3.10847504354295
8.62876459854413
13.3445892386638
17.3423057479385
20.6232628722921
23.1685217149501
25.0538157386053
26.4441733328971
27.4046311500242
27.7212980763738
27.0983147613025
25.5811417573403
23.5499778830434
21.2461777785204
18.58838146403
15.5190232549552
12.2615137974241
9.17752787400622
6.55607759521864
4.49457839850618
2.79730310684294
1.0656106824428
-0.951055018980868
-3.1545875064686
-5.27980135930343
-7.09392667485423
-8.3801136725275
-8.98451976575624
-9.01354987504794
-8.83894289713434
-8.85985964720933
-9.34388443550362
-10.3740517650618
-11.7520389518879
-13.0497522068526
-13.9256873398359
-14.3159774685164
-14.2424272903738
-13.5495269499021
-11.9029902455538
-9.05918787668413
-5.25693290139531
-1.36478266538944
1.59391597887387
3.1951463491395
3.78148502091217
3.89826413330745
3.75452969700124
3.2014759191201
2.03059574286379
0.302558351204786
-1.50105809300542
-2.70841337074899
-2.88179073228788
-1.9513537423601
-0.0680581974085757
2.43504946245772
5.03562909069442
7.21977176827589
8.63969618715736
9.05548138539365
8.46127600163127
7.42623719873314
6.90524898996989
7.38097512226804
8.38875571116534
9.05114662571907
8.83555990060687
7.69173784723664
5.81158927840912
3.51654731115281
1.23693874322601
-0.554000360567313
-1.44376193258776
-1.30922243044187
-0.564420804400025
-0.0095923461788142
-0.29711907069852
-1.6033349324691
-3.74271342726317
-6.38639177545274
-9.17669304214891
-11.7728426186583
-13.8099809098376
-14.9098761935644
-14.96439048362
-14.3731164805524
-13.7011493207171
-13.0664571638441
-12.0842859960691
-10.391968396162
-8.04692795868424
-5.48820419966263
-3.25869832960574
-1.66621014405978
-0.619175447492653
0.151287314077941
0.816501577829307
1.58238166909013
2.89411122784255
5.10890220347561
7.96061675821984
10.6420977904739
12.480630895492
13.4029146675018
13.7956264179564
14.0864920874809
14.4489697872475
14.791454245266
14.9928207921006
15.0967715026244
15.1987260695702
15.2246480889776
14.9521534185139
14.1934815040068
12.8949138126776
11.1526509435094
9.13260912234511
6.85348879821979
4.13780254469662
0.954168335237848
-2.32992992716771
-5.26381660326084
-7.77047266126953
-10.094403490513
-12.3917971100386
-14.5268705395555
-16.2431741980537
-17.5064485646594
-18.6713137733755
-20.1389223515293
-21.7392973544628
-22.6661238300424
-22.2031103078777
-20.3569983099426
-17.6690586540648
-14.6127882632071
-11.3204657315722
-7.77660497817772
-4.1513961400781
-0.887020225778909
1.62810985214216
3.44234980361536
4.94292208332143
6.40699407967247
7.86967820149429
9.4025631875003
11.200539067877
13.3095254129723
15.5097213615677
17.5085704104125
19.029187552492
19.7331452470759
19.306864808167
17.6440906610506
14.8446975987213
11.1574219539659
7.01601867643193
2.94274958568288
-0.713337242758386
-3.83447365755841
-6.31043851123892
-7.90151900963226
-8.38901530736001
-7.85595435767364
-6.83853623099256
-6.11117047264732
-6.15458389227094
-6.83337408291407
-7.66135281281912
-8.28301095822873
-8.65124694571201
-8.9270284467437
-9.25825164931269
-9.44376020609686
-8.84406608251658
-6.96584709037963
-4.1989555555233
-1.70441737785817
-0.499257197042973
-0.76360425240427
-1.92007114643684
-3.14541935249645
-3.84346146813536
-3.83685994257316
-3.18860678168069
-1.90441626909683
0.0199381119249516
2.27957100593393
4.29355812713646
5.67335356033192
6.44564944411999
6.78439012918388
6.80581501806596
6.68897667952259
6.72623876027396
7.10663923275851
7.73950316516011
8.37134083238649
8.88135877827658
9.41479568643478
10.1466976273017
10.9834471436904
11.6833644691067
12.1901002586112
12.5519770735743
12.5747111148823
11.9226412494176
10.5705703643254
8.8554480098193
7.11881828963914
5.53879326302525
4.1727632833349
2.8783293643057
1.27841971941552
-0.991041679117724
-4.00914242518199
-7.50395622646088
-10.9082293704369
-13.5653172130513
-15.082930074826
-15.4584836158429
-14.8346465186013
-13.3810361598629
-11.5279910383239
-9.97876325492604
-9.17325080770782
-8.85288993304573
-8.36211727952616
-7.33712756105113
-6.03443201962216
-5.06701398603279
-4.83647060678233
-5.15594058183048
-5.45958308604029
-5.38490709015217
-5.02506648791325
-4.65886437624891
-4.48910640721886
-4.65558465559483
-5.23447027507441
-6.13285717842764
-7.08343397345515
-7.7078543891667
-7.5385388193045
-6.14290263799927
-3.35638900649227
0.649856321371257
5.4597174888963
10.4055436638527
14.5768662707157
17.096796391021
17.4698767129846
15.7325713126791
12.4673202191768
8.59717344846213
4.79701842008493
1.06398662694938
-2.84023893285965
-6.58196510508056
-9.26539782799577
-10.2597583842452
-9.71308587678784
-8.25021236688586
-6.44890239171332
-4.64948057625877
-3.04451408199688
-1.80343671314946
-1.03637832459258
-0.542720050773883
0.29745607724489
2.09543585971157
4.86235302316635
7.98795061007433
10.7604325990599
12.8147253450477
14.2295940372322
15.2985460619385
16.0781070625113
16.1967659341671
15.3292499193625
13.7513082165095
12.1052651126487
10.6709591722245
9.14359459017438
7.09476123796701
4.46884203518899
1.68209473875661
-0.656960621872043
-2.17784240728134
-2.93985072888498
-3.21959654457673
-3.27227559640797
-3.35172255478915
-3.69507824029243
-4.29975092294022
-4.85034942433579
-4.96401963465379
-4.47447543157257
-3.59844636961309
-2.94388908999227
-3.14952789240632
-4.29643270368889
-5.80078018726492
-7.02092905065524
-7.79784343975044
-8.29877843903289
-8.59506219636819
-8.59369902418265
-8.1948541776477
-7.34534058840048
-6.07589119421919
-4.58571470887856
-3.2032281297311
-2.29627832881448
-2.2929658658772
-3.55530656150914
-5.93509160508411
-8.5237992523517
-10.0898754120234
-9.8747073641169
-8.025621568337
-5.33776204210422
-2.57171158372736
0.0132885952906233
2.48214986103306
4.73548911369258
6.3605810893054
6.87632412755416
5.99850744187466
3.86255675492052
1.20024882120537
-0.907636267440648
-1.73958601900064
-1.36816473415404
-0.386639503577904
0.595475186244051
1.25899680247618
1.7644719054406
2.6984942386499
4.52721949173776
7.02103896192244
9.38660204396583
10.9401653797742
11.5152107257253
11.339441594088
10.7533133823304
10.0225757420631
9.22404206958752
8.19564887344558
6.5442354786278
3.75710778493734
-0.403826296839079
-5.4112215842602
-10.0792267449835
-13.3698068760852
-14.9391090666284
-14.8439680188315
-13.0946072532876
-9.75256071186073
-5.28375596785206
-0.630427748540183
3.08876604890322
5.10563878603227
5.41919080522034
4.64450702888901
3.40392661246756
1.97836354997438
0.467557538696996
-1.03255243616659
-2.46585997371516
-3.79034393570324
-4.87395427129875
-5.52987207332796
-5.56737003906462
-4.72406011715042
-2.75864037715008
0.204571078761382
3.53293650868963
6.41301826172393
8.31152935431818
9.16045419867913
9.19490191368095
8.63198698396616
7.52303119369038
5.9610347153086
4.30670539026485
2.97156337024726
2.00074733718422
1.12662195903695
0.241384918210149
-0.441637306673346
-0.704079683828983
-0.556363363193697
-0.15789526753279
0.298988322335959
0.648822043549275
0.826973030112005
0.840344644198077
0.638206266326151
0.137465424211994
-0.600104010888619
-1.32352458953513
-1.7354751921094
-1.67851265644615
-1.31316169354217
-1.14124908098029
-1.66141642101898
-2.89824179169761
-4.34047566939574
-5.31217838564029
-5.33723025764992
-4.31988722125673
-2.59991451364586
-0.789868656813839
0.570358449228628
1.22578404095656
1.19947493582636
0.734735998841066
0.120190918287829
-0.625767220221118
-1.76252574013229
-3.33873494414934
-4.89308139148234
-5.88019534833997
-6.22807147846532
-6.24635770007601
-6.15583802325635
-5.94998693715087
-5.56796270795977
-4.96216829433034
-4.09351761319084
-3.03575559849104
-2.00649186937999
-1.18427205585504
-0.551837116379281
0.0186368481629152
0.543580186308928
0.832030799624925
0.694449859346977
0.28156852264427
0.0685205377756551
0.384829079682388
1.08673101227422
1.80826747788869
2.42990283902931
3.23713755887934
4.69649225579968
7.0144690610531
9.78482069871884
12.192253564141
13.7089255280066
14.4071545423939
14.4737480645603
13.7483868277385
11.9766086332318
9.25346139234148
6.01994742176627
2.83789621095815
0.247344699666077
-1.45499812815423
-2.44377487267711
-3.18301333402576
-3.94663728048585
-4.6807100274612
-5.33596696411192
-6.09943080599161
-7.19710792191604
-8.58360036834508
-9.89228652111928
-10.6697961119171
-10.6782876768473
-9.96770785799683
-8.63111609995538
-6.58452509997074
-3.67950249879626
0.0379500331255966
4.19268323139809
8.06360918053817
10.7551918860489
11.6630427948592
10.8531785209589
8.88236725572728
6.31789539357386
3.52204643004227
0.695916645248633
-2.07418890867173
-4.7040809743307
-6.95511194245854
-8.54150014038284
-9.43229384544737
-9.88759750777766
-10.1912333516472
-10.4473125189834
-10.5447517124661
-10.2297822247498
-9.35286519410027
-8.10483242217517
-6.8480380268548
-5.68537820413168
-4.35110616986943
-2.54263682722685
-0.272253963700568
2.06920574959355
3.97095947917867
5.25119743843209
6.27025586465457
7.52670732829874
9.04328952033468
10.3738102394381
11.1767304270536
11.4673502244779
11.3309203132303
10.7759127663102
9.93271590721302
9.06820890086495
8.30054157497106
7.49396405348378
6.492160581948
5.34831252753637
4.28355753283586
3.42244112310856
2.5984630320136
1.52876700486739
0.196201920637869
-1.09117047960699
-2.01973522504898
-2.45889203351218
-2.3856946720686
-1.90431886284558
-1.31620331431498
-0.892944538442128
-0.601452679063627
-0.267332983989585
0.0811116531223404
0.228543922916417
0.0113260602984828
-0.645733948651137
-1.85689251914706
-3.79094298649117
-6.4726429325467
-9.46720916254825
-11.8159440921837
-12.6032604364632
-11.7807244463165
-10.2519849560159
-8.99994061474409
-8.30288380570933
-7.88006188619432
-7.47600398438067
-7.02199104883025
-6.38816835302117
-5.2857140636632
-3.54489657445613
-1.49127522523989
0.106765544504521
0.726012330674758
0.705347725025801
0.879063171967532
1.59905310317585
2.4409223910172
2.8583834541457
2.76590823532405
2.44358113636599
2.19710387384709
2.2331951018292
2.70170717509606
3.71753674248687
5.27195471399848
7.11891883850268
8.89750512307958
10.4471259854268
11.8190746658993
12.9265860197026
13.4878957573374
13.3927586327435
12.7580531952452
11.5537192219867
9.62346519573234
7.19630737845525
4.91010500012665
3.10007845805045
1.41107393516152
-0.629277327060411
-2.87084041957392
-4.62582759913326
-5.42339252947472
-5.51253383562017
-5.61075969439572
-6.25183286366285
-7.43217973291403
-8.81605099420946
-10.0786992260667
-10.9560768787506
-11.1770732550533
-10.5929575824064
-9.33848437276161
-7.7713783199968
-6.29647228341593
-5.18961788132388
-4.41567232393006
-3.65281089983426
-2.64661817952402
-1.46581602556559
-0.325164154291631
0.639204516405979
1.30699721198599
1.56009105913438
1.49720291245488
1.43215827605353
1.54270401198538
1.69631249016612
1.67862980273019
1.44765500177757
1.17692280253444
1.1667180818943
1.66175410757847
2.67463238818672
4.0011433659525
5.33965090017688
6.33413515582198
6.68906161366164
6.42168971715196
5.8609511863562
5.26411023515421
4.60280352969119
3.79940288410225
2.89272096678863
1.84788050550551
0.517079166976086
-1.05401341432045
-2.5730860157798
-3.87301697429553
-5.0473761474765
-6.13868348832388
-6.97332870150445
-7.36651251811368
-7.27004858643666
-6.68266260806497
-5.56170742355309
-3.87568921550588
-1.75386206794418
0.425768387031565
2.25261356028243
3.67203624866245
4.96378659593221
6.23729061828147
7.19375795476921
7.50321818262504
7.16969869967965
6.41951497111508
5.44794826265784
4.35833988857648
3.21704648662293
2.16445049826636
1.51232377183689
1.58638573950343
2.39124314968194
3.55844678263537
4.64172287120013
5.33562804685267
5.47116881249279
4.98423558765973
3.8594273597039
2.00157994423981
-0.709428773059606
-4.08183906558518
-7.44905567814323
-10.0161277643881
-11.3343363342775
-11.424023345841
-10.6100682054247
-9.29846959192297
-7.77552064825996
-6.2116659251261
-4.89138560040377
-4.19755534362468
-4.18847155159363
-4.45023622478269
-4.58968604302697
-4.64503291285412
-4.83078804667037
-5.10256918942494
-5.14310537819107
-4.65108695995124
-3.58737523070308
-2.22360981232286
-0.917561929574964
0.203904000001704
1.24054217094483
2.22466679981721
3.04624840060316
3.6781103240959
4.246938061011
4.82901019192743
5.30313233158824
5.41784028503762
4.98700863755679
4.10989251948313
3.18849622797271
2.59801034211203
2.36847740873696
2.30748675210159
2.34288181817408
2.58016378243971
3.09018325818643
3.78346500778133
4.44617162099882
4.83597279271522
4.85149496074147
4.64517345512827
4.4229548350685
4.14552178206406
3.6371701877096
2.96109117371106
2.44091098088715
2.31049830605099
2.51684470727117
2.83043885371215
3.04025902744955
3.1151823230848
3.21608019175571
3.44707047866427
3.61964169283894
3.38893972202434
2.56294454847487
1.17218178371766
-0.642988524110935
-2.68070073339727
-4.68863462206353
-6.38479586024814
-7.44822501517383
-7.63641727175385
-7.07694014327902
-6.30293444956498
-5.81693393930739
-5.72327168824367
-5.86449027566106
-6.11505857646883
-6.42815110182056
-6.74952673399547
-6.96586372486415
-6.86774000611694
-6.21849255286421
-4.97468866344536
-3.36176284269001
-1.6332530743925
0.114193223996204
1.7824017611012
3.12332646723226
3.92964367114485
4.24976047175522
4.28588504345947
4.17246554800535
3.90855981320093
3.44173732222618
2.83931674778261
2.38160323154728
2.33787117690304
2.63634768645011
2.94580929577756
3.0685156007028
3.04355702969859
2.92991590247203
2.7416635312193
2.55543961473451
2.47185988925998
2.48397043761877
2.44803545469856
2.0928509661682
1.099677699211
-0.611979488970332
-2.69691004688651
-4.65883957641149
-6.22047987395622
-7.27758077952673
-7.69470332657519
-7.35688191496366
-6.26761113354869
-4.47853985517214
-2.11663017493451
0.444748831964752
2.67779683891286
4.28978496710649
5.38749415847844
6.19833725588768
6.75235475829243
6.8884389685682
6.49510434036085
5.70496773644639
4.82898201740587
4.04167189260726
3.20016631319213
2.1208429732359
0.941635333819387
-0.01893393729571
-0.717483747626488
-1.50558690647674
-2.81799469934383
-4.81224517922743
-7.19200582816146
-9.3134664307079
-10.5869630182063
-10.837664960948
-10.2711295490406
-9.21478825963312
-7.9477730231856
-6.56007448464418
-4.84042807978351
-2.49347920434579
0.407724837449531
3.32763990102087
5.67101641896847
7.15858294259852
7.8563214970385
8.01323969153708
7.88021003075362
7.62113963263188
7.3841351364671
7.31901527847504
7.3577087174864
7.1154624050191
6.24927786235428
4.82951597778116
3.17945503211204
1.50713273074435
-0.088125396385016
-1.42470641029678
-2.32860035310507
-2.81238545787366
-2.97563105654343
-2.86033105313215
-2.5527010999461
-2.26645596439211
-2.17583796604427
-2.24151878798008
-2.22955748534052
-1.86101338520246
-1.05849553609748
-0.144821738205766
0.32877196282386
0.0486341713004494
-0.825016243225873
-1.82723458503688
-2.45200559402574
-2.35463424481964
-1.52576448769725
-0.288618282761757
0.947329115716481
1.91325033097767
2.53165561904889
2.88558374415879
3.07459852952852
2.97974782917063
2.3228867343569
1.09989710965936
-0.251034169896125
-1.26515879824716
-1.83579575098501
-2.10858761717821
-2.27283658308086
-2.57261559512549
-3.25311780455539
-4.30703325890025
-5.38189093155322
-6.01954835477907
-5.93884592357674
-5.1472005062819
-3.9162835385463
-2.61202150115181
-1.43741166333042
-0.373016859861851
0.636924300015519
1.59861430486317
2.55623652350177
3.52957366275069
4.32003052664239
4.58463456182841
4.20563077373243
3.53261719094558
3.20240231834294
3.6249977966887
4.56146622595951
5.28536000295512
5.22761590973241
4.34259253395843
2.8547016905484
0.973029440213819
-1.00642232842007
-2.63389191781425
-3.58034097559721
-3.85597380931114
-3.70552654570879
-3.43344664347696
-3.28156163788475
-3.28315544426598
-3.27985882615673
-3.19504900838666
-3.16066766434725
-3.26572812035128
-3.32856353437412
-3.03580764271488
-2.25545458067593
-1.23204074212716
-0.531784451958296
-0.648474076867848
-1.49073490708326
-2.37153005947297
-2.65775199599379
-2.28581909080612
-1.5161344744817
-0.445499119257842
0.98263305461144
2.64759839556679
4.16378333550321
5.11780580518696
5.40683486245469
5.42106239580492
5.77363230206415
6.69899127909715
7.82175191640951
8.60324792129401
8.83084361512087
8.57274450597406
7.87149016975157
6.66300370201943
4.94273861608275
2.93162779311263
1.01777561638201
-0.568761415339833
-1.98042217435105
-3.46508873867221
-4.8953491895888
-5.83149673628918
-6.04906340826011
-5.78683390890388
-5.48362458730473
-5.42605665301034
-5.6008838341684
-5.7631340831784
-5.67541057735963
-5.2991286920439
-4.69431982560994
-3.82348300799605
-2.63542529775887
-1.29402437296201
-0.11415783133212
0.745897472215155
1.38361957603913
1.94486566077321
2.42105399584334
2.64025547207576
2.43144351885553
1.86189323642611
1.27675675006413
0.972358344127526
0.872782804486611
0.64680696605053
0.0568177326544017
-0.900467813527664
-2.04657292397077
-3.09243749102529
-3.76793232651398
-3.95731218429051
-3.6783418598562
-3.02097301856064
-2.1926061294551
-1.45467736946406
-0.859757676393113
-0.181928372616024
0.775461688650991
1.89914131039005
2.82567694338436
3.21823043857223
3.06615922118117
2.76952410679938
2.76194184357775
3.01077790785083
3.11828474786304
2.9163304865628
2.65807271556288
2.60966590083242
2.76886922858801
3.00902702742384
3.19725186308817
3.13678452021036
2.67050774341147
1.90062264054387
1.11162601590775
0.467405276072661
-0.0691294968732946
-0.580075235176933
-1.10774440168179
-1.66036275078306
-2.19906428866082
-2.67285222802069
-3.08770117957393
-3.48761042662529
-3.91236882795893
-4.40631705678395
-4.96064942083504
-5.43073792412004
-5.64490915962554
-5.58408060194512
-5.33017846782753
-4.90457501484475
-4.28194657769612
-3.481703347428
-2.58391380787508
-1.76548980113914
-1.26115568536269
-1.05511353374419
-0.693353602288108
0.304952949391294
1.91536379619349
3.7067251794706
5.29263639829338
6.44863441319899
7.0122330363827
6.95697079084713
6.44716095209029
5.67656305514407
4.80149866176386
4.08502865129412
3.86688729593659
4.25898725774832
4.99812657211429
5.64902556458509
5.86667149980285
5.52867282838392
4.76804188179277
3.84068993624821
2.88571086429199
1.90203292718318
0.940682287249473
0.10848637579161
-0.62307967238534
-1.3891363440866
-2.18474563585977
-2.79253054597793
-2.96672143558489
-2.67757669507781
-2.26619077944973
-2.29688211588734
-3.05079279160096
-4.18920900765329
-5.08979140748456
-5.45060545270643
-5.43277002462744
-5.36038661611071
-5.43668800145028
-5.61055681440399
-5.60794100051836
-5.21933013864103
-4.56724090782779
-3.9429752332708
-3.46249087744606
-3.0837204881866
-2.84718185580703
-2.84405141169441
-2.97715600526291
-2.93079504867168
-2.40287787736689
-1.34783388178185
-0.048043767489246
1.06039667854554
1.71713295910541
1.98990509236515
2.06695002188042
2.01422515200018
1.84434684365318
1.70262606050201
1.84468320518777
2.48080944840027
3.65013888655907
5.11632067091132
6.40024194662601
7.05806029826994
6.91478180601129
5.99725814580193
4.42479803780738
2.47124455211712
0.539937441598984
-1.06426864509479
-2.25127119821439
-3.03608596955953
-3.43596949807726
-3.42655523923154
-2.88849645205788
-1.70200562355993
-0.0027053772536452
1.77014660435044
3.14966149818127
3.88238000953146
3.9558616440307
3.54201710999222
2.85257133254128
1.96485957050153
0.928750137039778
0.0557063927580372
-0.192655558655912
0.305894037742757
1.231599604474
2.29434705270122
3.54561822400543
5.13166379919007
6.95361287155411
8.64067072494817
9.70264299790635
9.72647924525577
8.61362380587124
6.63505003752682
4.15440517316743
1.34124219965183
-1.81946547953937
-5.33734893401351
-8.99364836574107
-12.1705023764888
-14.046940363243
-14.24138070315
-13.2479648438882
-12.0830851976218
-11.5087219234808
-11.5913006731122
-11.8522706189707
-11.7843307564067
-11.3151460989046
-10.796809660214
-10.5662753162961
-10.633003002424
-10.7282386809471
-10.3942239612409
-9.06975987020864
-6.4452492042605
-2.78694748096118
1.31984237326071
5.47686444427884
9.47717446846582
12.9321264549865
15.2164838283949
15.8514736321948
14.886223062144
12.9421000000516
10.8643786234106
9.21705357892255
8.09008287055076
7.36888789202481
6.98966845055535
6.82481183488337
6.57972031882825
6.06568890185077
5.43332219394389
4.93457656409896
4.60462956707579
4.35099851430291
4.19723199533848
4.25245312306654
4.48734209676507
4.61792488389001
4.24788244271624
3.22608738914637
1.87299563241903
0.705105088871435
-0.0817280850650177
-0.727570087560926
-1.57776405897003
-2.80406474371145
-4.33674309321794
-5.85871194838727
-6.95151229733056
-7.4165136550825
-7.39865819784822
-7.16534069707308
-6.90550694163984
-6.73004946549489
-6.67401005414007
-6.67980326139215
-6.66446597561099
-6.52288173816713
-6.0451910123727
-5.0606919791723
-3.75261052515787
-2.60290728774481
-1.92415346431542
-1.62627998387787
-1.47682560121524
-1.36527542757188
-1.24920773913208
-1.03146804717694
-0.578781591608902
0.188800261808138
1.18779626112811
2.15100529949421
2.89208758205683
3.6094404741141
4.68863204791231
6.15943437825537
7.57641454956967
8.47428576583773
8.76490809388807
8.68596257248657
8.49792711732993
8.24846636577725
7.81580434715703
7.19023752579265
6.57322159835022
6.05324684597447
5.34005297282373
4.04598581084348
2.14833911507821
0.0212459580107724
-1.89629868718819
-3.39291574377947
-4.59360589660049
-5.83103395579928
-7.30535648287755
-8.90563026717041
-10.427627894675
-11.7879046703981
-12.8956619334977
-13.5201622992819
-13.4693803142314
-12.804055478037
-11.8103994801959
-10.8589042121653
-10.2487755026259
-9.99873005937773
-9.77340814889942
-9.13530483412099
-7.84628176089777
-5.91094225527801
-3.54975826395098
-1.23224205542587
0.539186671759508
1.65296636578325
2.4364653396925
3.27782786767154
4.40577842696622
5.91685544620614
7.69144151279038
9.36432650761697
10.6629981300486
11.6962254245352
12.7172419658009
13.7382451911597
14.5449775257487
14.9719948948108
15.0488240331172
14.9447052720353
14.7853537973632
14.4663561503334
13.7013338564944
12.3080796920406
10.3823661655537
8.20076863108419
6.05832629191025
4.15714995185673
2.52305414066323
1.0362491975829
-0.440751687260369
-2.03274769650523
-3.85484013814208
-5.82904819130024
-7.54999075289122
-8.58175001282177
-8.86782960893607
-8.63763926807149
-8.00511839687686
-6.96086854339827
-5.71380902342045
-4.72112277463918
-4.32792395390118
-4.54276836311844
-5.13804783566258
-5.84993216028514
-6.53353550352862
-7.18062857921911
-7.7474510350544
-8.03714695987227
-7.85218234179174
-7.16431815626827
-6.05824022016359
-4.66152715644387
-3.20451044296129
-1.98456213439571
-1.19450523240812
-0.861889208011841
-0.896480451107071
-1.09467614335733
-1.22809310551509
-1.26689328827461
-1.41535196013024
-1.87968825184328
-2.72869863986002
-3.90424503675231
-5.10657475834901
-5.70790893451087
-5.033560745302
-2.75659352442663
1.0016966640811
5.71214228948005
10.4349984213675
14.0535521291573
15.8065382326474
15.6234622227297
13.99421271546
11.6588672181887
9.31881603901394
7.34823959484649
5.7224395898922
4.3193138626034
3.1580679777096
2.20774093832494
1.18593856740629
-0.231801374172916
-2.1438235841167
-4.46712600328135
-7.05212414872341
-9.64686897313556
-11.8857801129666
-13.3879654839643
-13.8644189767948
-13.2261879253222
-11.6209304373932
-9.25335463212209
-6.20376046188066
-2.59454204333629
1.1095309756072
4.16485508935104
5.94656766376995
6.28757808064143
5.58198179356187
4.59061288434654
3.95409589598543
3.8221197971589
4.00557939492557
4.33144329890207
4.68347765657647
4.90328608857096
4.90812022102724
4.79714230456253
4.68749138130844
4.57339659991103
4.429972683727
4.2692151848463
3.99653775856192
3.39250976938523
2.34162054347466
0.958285730958477
-0.5338244834536
-1.90731844520334
-2.95565327142714
-3.59242521564671
-3.90478744023203
-4.00725420314072
-3.93411763091083
-3.73632027156927
-3.53463697793458
-3.41909788265123
-3.41390285716107
-3.52397438097288
-3.67690327719374
-3.63644602435685
-3.08939935878066
-1.87310537406794
-0.178270574700437
1.46504002640038
2.56602443177288
3.10656836943045
3.41267430232702
3.59945175506046
3.48294138849698
3.07476878202928
2.73373805989469
2.70476927785241
2.86632902728029
3.01204489187434
3.06789055447251
3.01387708263149
2.88178880983227
2.83783842517429
3.05326069447726
3.49442238000423
3.91900205098043
3.97366328786893
3.28714728528043
1.73370386379991
-0.282827330674164
-2.05238175587542
-3.19678809354353
-3.90855286018628
-4.53485809461502
-5.18160128052969
-5.79077147692292
-6.37922031916767
-7.05270320334572
-7.8008414891211
-8.33535520822372
-8.26010201176132
-7.49477560545744
-6.41093614061581
-5.45072210286503
-4.76913190107362
-4.34226216810892
-4.20248170402588
-4.39034987922373
-4.79009188429281
-5.12844727197657
-5.12053572161695
-4.66016431490645
-3.89858498276458
-3.01790690192336
-1.91075579836214
-0.266158060928196
2.01427736215074
4.65438690278038
7.1917617184884
9.15982317736545
10.2395375582528
10.4506090090407
10.0767693620091
9.29226715277923
8.06538068723444
6.52563784162042
5.15831940416389
4.43929984487181
4.38358755857813
4.51644911486814
4.19798999728046
3.05498588798129
1.30574355171519
-0.379794982370523
-1.50861174369191
-2.16272735565998
-2.66309969719996
-3.06340967325761
-3.15587154559922
-2.75709724828006
-1.78306014542479
-0.184264274050423
2.0037888708619
4.51746716755769
6.79284821913366
8.15068416732731
8.27325224772944
7.5473109413593
6.78530333056365
6.57273268163092
6.93692397017537
7.49873405912383
7.75929293740693
7.33626776129925
6.09746131812867
4.08085175747566
1.3572110343265
-1.88362116627489
-5.23244010794205
-8.29046286158127
-10.9339046586666
-13.1825273829688
-14.930387917773
-15.9617130261649
-16.1157637136224
-15.3598276048187
-13.8715679395772
-12.1034906960764
-10.5448679181441
-9.3223396841607
-8.18960389603618
-6.89915077498642
-5.34513610645058
-3.37105992385736
-0.778769824502314
2.35572503056498
5.54646423124628
8.12188374125265
9.53583061048244
9.59746366471463
8.58771667262378
7.15802429382933
5.9975181518196
5.43905085835016
5.24985176893744
4.85179692352161
3.89419971401111
2.55930817454777
1.19225008326514
-0.16635154416687
-1.61845641369415
-2.95966892095153
-3.72802098646278
-3.66688789624095
-2.97927202671208
-2.21566895684124
-1.95274843201943
-2.36754518627872
-3.06783242111167
-3.52383745863498
-3.63911494606468
-3.69761766627994
-3.85010999723907
-3.93122513322233
-3.74649992312541
-3.27992627119456
-2.58167555154673
-1.63780468407908
-0.430536033673233
0.96598606638532
2.42526386075111
3.87434106918204
5.2722690585884
6.4255657985571
6.94506753882636
6.63000560382269
5.89506450020922
5.51292438834608
5.8028620465334
6.26283029281029
6.07498480464894
4.84090824218289
2.85960828307661
0.861883117516805
-0.55094858374207
-1.32446216406372
-1.80693997846732
-2.25344262773113
-2.64893004804854
-2.94842317710711
-3.1864650939649
-3.29435919179508
-3.03502782495437
-2.21599624726271
-0.902508301520854
0.601095575926128
2.02390103368137
3.4380061932237
5.17824001457583
7.36038715079964
9.67171353383787
11.7339534519457
13.3795162019073
14.4395418508339
14.6288948497985
13.8728132441065
12.4519993530881
10.5945323187205
8.15577190009285
4.89874557161103
0.899975538746395
-3.48043420335343
-7.85918300473677
-11.9181503533741
-15.3591703750061
-17.9215207680082
-19.4895454293303
-20.1666307775148
-20.0973279204661
-19.1181049990814
-16.8613510377497
-13.5174533275219
-10.2513097421627
-8.41199223050122
-8.34779781514391
-9.21339968564337
-9.79000145257178
-9.26036194481342
-7.32329698038487
-3.89042004306626
1.04480437770317
7.03972375886665
12.8317927288965
16.8539029366225
18.4324756854075
18.2528381613506
17.4795219553514
16.6556465522786
15.5280596727879
13.5888498472935
10.5718363544234
6.58342816204526
1.91942527831207
-3.16382355116667
-8.37929304525505
-13.1614207661474
-16.778868423744
-18.8153098441588
-19.3641119180656
-18.7415001420377
-17.2710535369443
-15.3396428341655
-13.3004209132005
-11.213689865775
-8.8977242728407
-6.19401582260708
-2.96208050051538
1.0050482500666
5.66431621998771
10.3195118019423
13.8035457606313
15.189546940133
14.3975495719501
12.2746472428366
10.1460237583596
9.10806532819138
9.46098515808594
10.5818925473685
11.332759111725
10.8525763679397
9.1819552354539
7.09056154732583
5.3029818875937
4.07624156464594
3.43729239071645
3.36206184275598
3.57574509681371
3.57454510917552
3.06433449272168
2.17717569367907
1.22745799553735
0.487835085416836
0.162753515431706
0.296386912385495
0.661706511078154
0.885883872385306
0.694598217334026
0.0179535308693849
-1.0085930874688
-2.08946886041191
-2.96032785430438
-3.59337903401218
-4.10777770210122
-4.52343571756705
-4.77634405268254
-4.91128652589587
-5.06792331567238
-5.32616161665229
-5.68029093344029
-6.06603367151477
-6.33513987808251
-6.30652178362539
-5.88408234151683
-5.09933358574494
-4.13447607814225
-3.32200119166075
-2.91400226037753
-2.79256882071347
-2.62104976482621
-2.30058920355659
-2.03283802556835
-1.93541106912825
-1.8612424556756
-1.62357015788581
-1.21033247335185
-0.771510257826837
-0.48380774938066
-0.375194947589514
-0.267905774656726
0.0218586778939959
0.495871158260467
1.09347478477829
1.84970365175667
2.7644662534512
3.64965128622063
4.26982945432825
4.52905144167911
4.42754283586238
3.99890456000015
3.40102811949308
2.90359096505783
2.65420076793583
2.55440478428611
2.42457549200191
2.21937612980282
2.10736725126536
2.39053979070493
3.22527762567772
4.36247802923607
5.31599027890459
5.81786886965539
5.95244081416554
5.88695182520636
5.65979831361561
5.17249194444119
4.23626475896777
2.73031012786809
0.832903749953468
-1.03718719900921
-2.59971402060032
-3.92157936191364
-5.23126980523272
-6.63499757047587
-7.98550120495649
-8.9623357290885
-9.37301831844799
-9.39555038554907
-9.37872162108516
-9.44628914344543
-9.50925330229035
-9.58850440263891
-9.84671596246869
-10.314207898863
-10.7681824565286
-10.8347499304756
-10.1041824243728
-8.28838828417439
-5.43023850390118
-1.91045740844632
1.79265960040447
5.28669639070661
8.31433161244583
10.8419777943828
13.032859514767
14.888154763068
15.9834563568736
15.8124725874814
14.3627074363797
12.1968603566179
10.0228501738846
8.24940897804004
6.85984150490598
5.65827676666732
4.61815039438075
3.86115005791153
3.30390919157463
2.59092901388221
1.44384228414384
-0.156874728164747
-2.11171286608749
-4.20684600001922
-6.00867565729325
-7.09683131547792
-7.42763291268286
-7.26815183288793
-6.87262124394632
-6.39638962901468
-5.94466654499399
-5.51545370517084
-5.04372763454849
-4.60549081143762
-4.40512726662815
-4.49187147646033
-4.65763689336912
-4.68387952119238
-4.55786345341074
-4.34457437028289
-3.87617757096753
-2.68396398133927
-0.403198756479028
2.67845479311736
5.62502961742425
7.57145655213466
8.35945640487008
8.37333182111176
7.96626517728626
7.23350127635086
6.14131681141177
4.67887569870281
3.02752938098979
1.65466007214839
1.03701356106791
1.23942800392062
1.92506357517475
2.73531167860412
3.49067788541917
4.10807893355015
4.50680273413998
4.57536291085613
4.1945264123109
3.37916753669084
2.35673941799397
1.36097662454439
0.411678133455847
-0.569244390777694
-1.54262549193192
-2.38208090493144
-2.98503807891664
-3.27707417341918
-3.26808404560095
-3.14221180291686
-3.13512215939534
-3.33176556504101
-3.70832064387431
-4.26656401356951
-4.95319891609039
-5.56064906023539
-5.90366015665731
-6.00647495625423
-5.94671587473358
-5.6311926559465
-4.94147198872064
-4.05086333840444
-3.41363099620977
-3.41091303524804
-4.05869285232451
-5.05530889540091
-6.07231839924941
-6.92883555020563
-7.47188522511868
-7.49362843292621
-6.96901217069157
-6.2262876269766
-5.64557996836969
-5.2805118628289
-4.9179046293697
-4.33750051728142
-3.37668153579863
-1.9446922457222
-0.126683939389094
1.86161617648406
3.87521984665167
5.86169662003036
7.71555308257992
9.27736320126184
10.4381335207615
11.1250254420038
11.2585318799236
10.8110249683105
9.86228894460408
8.63147679022271
7.52579007508673
7.01327620655943
7.29111896194334
8.18216060157251
9.41358512800628
10.7771153076841
11.9461076180985
12.4557118377928
12.0803605528709
11.059138474608
9.83662258392797
8.74748681534059
7.96087074492789
7.48048398431231
7.15898009002975
6.8745539241959
6.61254525171086
6.22310527334944
5.29967162347365
3.54692954126402
1.1720865345002
-1.23986530874418
-3.19002071573538
-4.60819178871265
-5.85244584183925
-7.3736174423019
-9.33736819901396
-11.6164577749916
-14.085988785012
-16.7480185070103
-19.6052079336069
-22.5827444121612
-25.4905345658593
-27.9069588840613
-29.2602057662608
-29.2171756309423
-27.8864972337255
-25.5924312562234
-22.6543304725431
-19.3780222041106
-15.9562984203525
-12.3113187638864
-8.25747545909737
-3.85998549154473
0.493400163048876
4.3178911043906
7.22696608844866
9.0637353144824
10.0322432616633
10.6212211855066
11.2837533264068
12.2579438304307
13.6528207641544
15.4501062859077
17.3738089477983
18.9682168855016
19.8430115141911
19.7680684625647
18.6995220892669
16.8981727993073
14.8780292354034
13.0533017284601
11.4867672124883
10.0243246143549
8.5806848823465
7.27563220108254
6.35228912776874
5.95790451785116
6.00960682964195
6.30000175156441
6.63686261907699
6.81805049897621
6.65906334035213
6.17011492437841
5.50681279071091
4.65922146528687
3.45055813949018
1.91260345420466
0.3674568119895
-0.932024785503631
-2.00776128224238
-3.02626940960469
-4.18059274950786
-5.60946836338625
-7.22735161665278
-8.74834199747781
-10.024495124344
-11.1920105896334
-12.3780776934912
-13.4994803435718
-14.4606722415033
-15.2899584757045
-15.9635887435349
-16.3272141774398
-16.2684901660301
-15.77593878785
-14.816526459604
-13.3280858797163
-11.3451216524471
-9.07462699158522
-6.8738518417264
-5.05751983110053
-3.56809667435013
-1.95558706652086
0.114091641147672
2.44524091646797
4.5463284872221
6.07928888197376
6.94014459765209
7.1592487455555
6.93912328925847
6.6352797261591
6.53775191586565
6.70324053435774
6.98085642672577
7.14893215125618
7.12531977394084
7.09673332094059
7.32180763716335
7.80043649202658
8.26390508401703
8.42886568614886
8.12040731616373
7.27156432516448
6.00361525263196
4.63546559251596
3.46295766008418
2.57593575637164
1.93158966375907
1.46143930999278
1.05245680867182
0.586762659355657
0.0502892597560457
-0.518539632649123
-1.13451554006343
-1.77555836079086
-2.31219404548455
-2.68572564582012
-2.99653828146614
-3.28751206778366
-3.43989559325536
-3.39150405880765
-3.26546571333883
-3.21246477904561
-3.27109909526419
-3.37849932924028
-3.39751781320541
-3.18509411498101
-2.71791288871392
-2.08837954233448
-1.38750421812575
-0.709240571330855
-0.196054264415553
0.0879951069440753
0.24773803357361
0.388983251224901
0.487683965076358
0.517851938355551
0.542272548562383
0.613311086077489
0.730676536595125
0.873237581841428
0.921946666905558
0.657122868585065
0.0211005573842227
-0.722202705682381
-1.24742996286099
-1.46236850774462
-1.4334278367726
-1.21280468460899
-0.883819943292124
-0.600879392762498
-0.456480919057713
-0.433935432129907
-0.511799357775694
-0.665141379880933
-0.801274943652243
-0.838816568082915
-0.776298227011753
-0.5950714650336
-0.238406419727477
0.242586646137244
0.679540679251956
0.96335284761739
1.10121406145076
1.12503365233545
1.07376019929269
1.02352231990124
1.04618028792523
1.18334129028306
1.45017239125673
1.75317038066679
1.86068478175152
1.61110493104359
1.10318841135799
0.587140791020543
0.274867964011813
0.289369948820628
0.595286884324205
0.928833916150818
1.00055375751594
0.80282519017711
0.565884657927362
0.45527829308062
0.460263581313254
0.484870796010839
0.392170471593579
0.0659533592150306
-0.424057757799389
-0.821302327360456
-0.944046183700327
-0.819366502869879
-0.522659058002335
-0.0928021914743355
0.345665373588282
0.5891752317631
0.541134677334616
0.268385625801842
-0.0921586632253484
-0.393090599831577
-0.543533102416714
-0.594394149580158
-0.669092802356867
-0.812413089879377
-1.00763652908553
-1.26958415214393
-1.59500370399545
-1.90266074112931
-2.10511631796224
-2.12900742017908
-1.83983473425648
-1.11645631326974
-0.0353728439629802
1.14129462886128
2.13057616688821
2.70001100524618
2.7091932522794
2.20686800642629
1.39993509719527
0.50253182303816
-0.281472604178902
-0.728350230421124
-0.762614804743078
-0.589156688209848
-0.478624849520991
-0.514616992389216
-0.688604644294011
-1.06877259670336
-1.69110734121138
-2.44575838956685
-3.23831052780578
-4.10110032871731
-5.01378248480587
-5.77679103569995
-6.14014607317653
-5.91244183945559
-4.97384033491659
-3.38496405916142
-1.45833523575714
0.429592296199976
2.05788154490149
3.34944546904503
4.28113615348493
4.87882193961363
5.22498157864709
5.45564546429552
5.73270532906053
6.08151262767594
6.25204087168858
5.92949247865825
5.07544800390277
3.88099497805806
2.49470798952487
1.04988145400421
-0.186779315419048
-1.00034564354696
-1.47311814545956
-1.84698685786343
-2.26716965480621
-2.75608292770737
-3.22006003709777
-3.39023534705968
-2.97961674783431
-1.98049039767628
-0.64542548530245
0.819737347827548
2.36312349190936
3.91676324209962
5.30997488796552
6.36809576342923
7.02245931815711
7.38175399586746
7.69325176244948
8.05395527733719
8.1534271297732
7.52709969169265
6.08080732094983
4.17713847131256
2.24223514542716
0.458965446226327
-1.21734595117901
-2.89085930239258
-4.56085115419532
-6.10685478983207
-7.45819322525583
-8.67033273480001
-9.76435289509745
-10.649419019735
-11.2773480378052
-11.6925044551873
-11.8829371179997
-11.7594653773848
-11.2628297846724
-10.3327367870862
-8.90324244723106
-7.12004500808098
-5.37373515306833
-3.92076702763517
-2.66592922366869
-1.44284814454892
-0.257242531452625
0.84783056711803
1.90418250786267
2.89741329942282
3.73492959985827
4.38407156699062
4.89439894527055
5.29230567738108
5.56710321183159
5.69818050465165
5.60406741224522
5.17453768861106
4.44049072843042
3.6090888111839
2.90775356938846
2.50102443081771
2.48924727680969
2.82197134112647
3.27860896821702
3.6536069929258
3.87986598595451
3.95853315172432
3.9360916837967
3.9283095527945
3.96792711099286
3.8771833507423
3.47440467230858
2.82600800457301
2.1507624640241
1.59053350280872
1.17409874003229
0.87101026596173
0.623071040288974
0.424310787373748
0.326247074547874
0.278474712976256
0.123271648916075
-0.143022163893558
-0.315024105425891
-0.290905297735892
-0.222628336116314
-0.287424363331282
-0.520685939731646
-0.892679278090663
-1.34152670415879
-1.73726941489956
-1.99836806466505
-2.21288781158482
-2.493016693915
-2.78370828932182
-2.96045923876194
-3.02169378798016
-3.05361488586245
-3.09636985289209
-3.12343824682682
-3.06592347791153
-2.85647847673273
-2.53725022932846
-2.25289254483322
-2.0597550989259
-1.86875931558667
-1.62824759356889
-1.40062249140693
-1.22972782657462
-1.08598908694429
-0.931527721925403
-0.724654965387552
-0.430964008834394
-0.104814220680842
0.165604104171019
0.419343935087266
0.746142808558704
1.060113058541
1.17286907625815
1.07084320152885
0.917735184968343
0.838950379713622
0.865731786376659
0.993168680592687
1.16942625749364
1.32603425803515
1.45407408537819
1.53758245424455
1.47172927464714
1.20917616361511
0.89541873667657
0.682556314247411
0.520082719636499
0.300857010167354
0.0710543211374176
-0.0844874703079139
-0.209152010821323
-0.354216250988533
-0.449834744150566
-0.440501083036312
-0.406282431538559
-0.456207390411216
-0.606432935964955
-0.772774759940928
-0.806684655928713
-0.608290767133507
-0.264643415214358
0.0260714145976471
0.182218486725662
0.269203240440258
0.346345955867465
0.431139526227751
0.553643895236035
0.717250581672205
0.87810053644373
1.02567548038781
1.16969515438718
1.24556234259702
1.1869536913666
1.052066819056
0.925172980361272
0.790517478342026
0.639955984320236
0.550732843250005
0.536345183295909
0.497204912801162
0.401131611032847
0.329485405545245
0.301834280978018
0.229487398511515
0.0565797879670512
-0.195643020497647
-0.49420232769449
-0.776601352165944
-0.934287504587975
-0.933218339290036
-0.867794564104634
-0.811589976993963
-0.734886757871279
-0.623666626078306
-0.534341782800211
-0.50428991234194
-0.539955308176168
-0.664720711270967
-0.861249213821979
-1.02985650577236
-1.08246569337233
-1.0018830614145
-0.805588393130835
-0.556379702031067
-0.358563828449699
-0.232995137127049
-0.0844756723654382
0.127540788125526
0.326069988488087
0.472880795538781
0.610529593710204
0.732983980508874
0.800519961800966
0.848112233087214
0.902014968932731
0.888065356781992
0.782217690317847
0.695086177776942
0.674270046967598
0.616619084512917
0.475161367624278
0.346016406177386
0.281138051904934
0.203863510238096
0.049139152939234
-0.162166192856183
-0.386152200599045
-0.576408415535265
-0.683547277163759
-0.721424410916088
-0.758398281955315
-0.797205877287858
-0.782897852850434
-0.733423896866046
-0.702316764240354
-0.644310178634832
-0.493377319156104
-0.310129071896165
-0.196561321781062
-0.15991018515892
-0.166428986066306
-0.196796633658639
-0.190728702190685
-0.0891411151566236
0.0562578607833758
0.15571696572142
0.217443710274625
0.291582640016576
0.38002079905228
0.494924106568224
0.66302201619831
0.811062946186135
0.81247592910642
0.670026967791647
0.50067258949468
0.38226221812959
0.345683671791957
0.409385336311726
0.509414758239316
0.529278238874189
0.453932788102992
0.341377008622084
0.162794014881132
-0.132053240761504
-0.437027655632163
-0.585417869496964
-0.572906038158506
-0.507908842176906
-0.424338825399721
-0.308398181378384
-0.207347150581896
-0.171006909343487
-0.191190432794199
-0.268561711576267
-0.403016695680904
-0.511353765022317
-0.51080685975611
-0.445438449471295
-0.396986338203592
-0.362146535427174
-0.313922303275661
-0.255546844707089
-0.164811183099595
-0.0241856049478778
0.107616459027694
0.18894278430451
0.280061014500204
0.413091865647346
0.512687146405026
0.547696948113489
0.59263695157456
0.671543055733636
0.721003483520325
0.725040407978821
0.715751153469925
0.681238378112134
0.614002869776197
0.552496124708958
0.480873988398534
0.337099141462741
0.164958771071337
0.0728888952400106
0.037739927761287
-0.0507584017975994
-0.177827079185083
-0.241120352786362
-0.258022538668028
-0.337425661804309
-0.490008401291773
-0.633818948799957
-0.72408243636326
-0.752583418948213
-0.718992859174361
-0.685612387195518
-0.731727216595117
-0.822270315911853
-0.85896058377787
-0.826655575655133
-0.752099771391851
-0.613432690563504
-0.423519037506255
-0.281330220621477
-0.236428103795324
-0.221816053429108
-0.1650542201329
-0.0484979987603952
0.125170959385041
0.318984982372188
0.468702662818763
0.567537220558469
0.645363054654912
0.668636016397247
0.620130163310833
0.617833089660878
0.748796860376067
0.880814785279919
0.850817348201601
0.711224886645243
0.599964015703803
0.520297581578069
0.407646295258102
0.267149314472848
0.13780515527056
0.04088685671329
-0.001253311632492
-0.0003567562182048
-0.0227044685275612
-0.0741777897713466
-0.0607481245726785
0.028979735552518
0.0503643779156338
-0.0667639103707628
-0.188761157242806
-0.192046351436353
-0.1249786796217
-0.0814787238974182
-0.0911896076450256
-0.164457543973423
-0.294760463726835
-0.429598276592072
-0.527439995862888
-0.574177811626075
-0.525056153415506
-0.362276812923868
-0.189029321126714
-0.117117126858287
-0.120901903100446
-0.127297035500205
-0.129160743605647
-0.106445640757744
-0.0024490953014123
0.14619409440379
0.233963385908975
0.252575164340707
0.251619094886684
0.200421979116995
0.0798029022261692
-0.0038753229234274
0.0309107020278323
0.113364779546634
0.160599409207051
0.185942151656273
0.201352724185721
0.17850410504408
0.131873380693397
0.0890687013760401
0.0082473027078785
-0.124417886167081
-0.193154455762025
-0.112640433365659
0.0076293390140678
0.0072196099924349
-0.133702290917674
-0.346512246590555
-0.560079215924458
-0.672619749899888
-0.610853644109018
-0.443558586097674
-0.297277664871227
-0.202575535671046
-0.132382926571474
-0.0874281180684878
-0.0543052886541888
0.0028762470626824
0.0693439345930075
0.113988645727313
0.170211509792096
0.265850631178372
0.346264702915254
0.365397286781271
0.346756261384132
0.299923295651948
0.21670251507567
0.158274819934332
0.190520306607493
0.268864186280613
0.323821905761688
0.364629738409204
0.388903079929816
0.342332041173304
0.255018856940989
0.237911682828505
0.287224584877331
0.282442292016693
0.203537775937641
0.152317032762244
0.148424960431167
0.0967732854656734
-0.0404339253511936
-0.201465881985385
-0.324523318705093
-0.362284727486205
-0.277549687000045
-0.128050239843992
-0.0481388233496914
-0.0874232224172743
-0.184035377273261
-0.282877635509516
-0.344069709609611
-0.301588004090079
-0.155285915132574
-0.0239006709081813
-0.0090932920225347
-0.0971708444846119
-0.224523268804618
-0.327376055074189
-0.344137812155834
-0.277801893455508
-0.203336833136682
-0.145200475162889
-0.0526917209865719
0.0743670784819123
0.179517097559631
0.258378844355581
0.325122191290476
0.342067249359624
0.322503818518352
0.365091748744508
0.456918224091331
0.430249728873271
0.230808134054152
0.0234505052120376
-0.0606493161269557
-0.0784720557666667
-0.114868273296328
-0.164273635473465
-0.214344262040448
-0.271695988122114
-0.293664748422114
-0.249163828551466
-0.207887805575225
-0.222816184869247
-0.213201742014189
-0.10522503584112
0.0246965771849104
0.0586653540172157
-0.0245773237041375
-0.170217348173296
-0.29589007610945
-0.330098218039314
-0.293472723413034
-0.281931920345451
-0.313529957612829
-0.294703088522688
-0.164831755195178
0.0379453211991522
0.240311566517178
0.36251828137119
0.35019681212877
0.263699481968706
0.232905158676257
0.273449783197058
0.286774789402869
0.249438536190097
0.233524316009836
0.26183062646267
0.302739581366378
0.349078660188134
0.378468339665831
0.33951313320134
0.259353390125505
0.22876354366075
0.242401065272011
0.209974033104758
0.126545549860346
0.0638732297036639
0.0165550250703261
-0.074218868912518
-0.184794680786483
-0.248150712026462
-0.258206013656504
-0.218272681750357
-0.111362100846002
-0.0101756812359487
-0.0389106642951576
-0.166207429277454
-0.237770444386953
-0.228469896555648
-0.253836683259956
-0.354935875246349
-0.452725015720705
-0.466456184757238
-0.365104616349618
-0.186168807816936
-0.0429166936835337
-0.002398405520009
0.014063499105918
0.0901015370376562
0.170153500168646
0.176487522653154
0.134596587165746
0.0852589726231722
0.0287513371310782
0.0029857382033651
0.0469496593652041
0.098900805395491
0.0959717489523203
0.0997639892084388
0.176367226142863
0.276785484720125
0.34875398519646
0.40703069454682
0.423789079618478
0.337290453324629
0.20728450715396
0.163727569597463
0.190153314888223
0.156139059242425
0.0419860882206317
-0.0745441871898818
-0.200004061290447
-0.378982935854409
-0.536317392403606
-0.558177966376259
-0.453283853894299
-0.309449809788146
-0.197414135425282
-0.173433315092724
-0.243233085908446
-0.311242887724204
-0.282118596373432
-0.180313799368595
-0.0938024015092846
-0.0727868133814591
-0.116648043419633
-0.172786827556319
-0.166517603827068
-0.108008282712988
-0.0834579850164469
-0.0828064094638965
0.0074050587746219
0.19391711186003
0.354434748197247
0.439011274787215
0.482585958340058
0.456129349153323
0.330318213304759
0.2112819450333
0.204542886509383
0.245164136983035
0.223258441825791
0.148940946060052
0.079035930292749
0.0212157071824024
-0.0182624329284314
-0.0275748550726966
-0.0531768958305542
-0.139176102075237
-0.226932157783528
-0.245754825147966
-0.235345860471322
-0.253584858962613
-0.276935532176932
-0.300459329426827
-0.377601039243764
-0.47320572696436
-0.454361004769095
-0.28000219486176
-0.0421267266847039
0.168820437674885
0.308620128356423
0.366656765153084
0.409012168688441
0.52035838312918
0.658234979737599
0.711194412823536
0.690722627621202
0.695402056399351
0.730605815561996
0.723810168201174
0.643309902522831
0.483068174990491
0.241043722224229
-0.0161726784815917
-0.196277791153518
-0.299822516528917
-0.37259200721095
-0.41043339813868
-0.43523977221724
-0.531139909882933
-0.684938592196869
-0.752484823119837
-0.675926881829565
-0.55953911661345
-0.475664312517702
-0.382736718553974
-0.263802933357266
-0.157953035992602
-0.0493720280906359
0.0965072016651184
0.212395251209973
0.206789960209034
0.104355580108275
-0.0165166278209517
-0.125943951997087
-0.198149776058407
-0.197728732109784
-0.156288752961313
-0.138059850428992
-0.143203984342015
-0.146425473409042
-0.152492318424628
-0.136484958535469
-0.0514625826580664
0.0588732544735485
0.0935845712785561
0.0446742130219811
-0.0140360289382924
-0.0371483097255672
0.0001048400611679
0.111386280525473
0.218078449023498
0.207395505477594
0.115463469628731
0.0802666821188214
0.12401701344751
0.170141650440448
0.213901215094542
0.287458814428348
0.34435016328319
0.333347612722121
0.284171803756008
0.226439820800179
0.150015600623095
0.0897267856255582
0.101703912383048
0.138893453433324
0.103421389427089
0.0150286047591178
-0.026972413778964
-0.0162625361697286
-0.024247677973145
-0.0684132281162474
-0.116390576177849
-0.135428688983493
-0.070086875832857
0.102731047875268
0.276126629862722
0.312811061310898
0.215795134875008
0.0780697925589467
-0.0503547140929793
-0.144285920226052
-0.176741090425591
-0.179068763445297
-0.200272790855812
-0.201653258883088
-0.127176107339228
-0.0289747688530544
0.0090774780334247
-0.0110094682681552
-0.0547183800526006
-0.106212015968946
-0.122413323044852
-0.0819649558721592
-0.0649718720070067
-0.128222894815604
-0.176895699174252
-0.110955547276309
0.0203028675285968
0.125565937429313
0.176019151548052
0.13255355855176
-0.0403955588315902
-0.243795398347338
-0.320162718366419
-0.274486783057066
-0.23405885617058
-0.220010644544699
-0.161563373263288
-0.082607681879395
-0.060778190983823
-0.0615628000781377
-0.0014760722833531
0.0972166706708928
0.151391699807189
0.125577399959551
0.0294903913565692
-0.0812895019993771
-0.101467023104083
0.003157212909864
0.111801218097729
0.093259502392606
-0.0325270746971798
-0.143090764914545
-0.138748630936481
-0.0071350076240324
0.145931751779819
0.173783333624321
0.0775159472813617
0.0153255228648131
0.0723254612832982
0.185534823796184
0.313235922131206
0.456403354293701
0.521314624440281
0.404908662336812
0.187022151130399
0.0304440001316307
-0.0279829603968935
-0.0256834309610327
0.0395577881861828
0.128406104767029
0.127929638286941
0.0178132714937712
-0.0829117272938427
-0.103365920899063
-0.0997955700141251
-0.118932842896818
-0.14530984016002
-0.182990082224235
-0.23507042640646
-0.243538783488936
-0.180897815044352
-0.110636377623313
-0.0611465196598077
0.0230915434812435
0.147388653819808
0.236974288554318
0.250460072644134
0.190553239736813
0.0585219517173724
-0.0919044659845519
-0.158619891258226
-0.126543933630706
-0.0821659070690567
-0.0748865201813053
-0.0861647032186166
-0.095393339601185
-0.0676895049516216
0.02184987170368
0.0739767956362457
-0.0550039887899915
-0.302850294890093
-0.434050111276243
-0.344177210364674
-0.130195034151863
0.0944062246147869
0.244754191620531
0.223914141827882
0.0479315970212493
-0.0906469144401849
-0.0452420224227478
0.110231160442186
0.227541152510481
0.262595668286871
0.235631044582826
0.165120956767559
0.100437430865827
0.0911694475668703
0.10876147041721
0.103714640783447
0.0819450582851565
0.0260030694947343
-0.128388744043249
-0.336088276285296
-0.429174341390459
-0.343114150061149
-0.196094302800418
-0.114563901584437
-0.124025702097563
-0.183615457866626
-0.21408797220534
-0.160470838647221
-0.0817866544341661
-0.0701650906835123
-0.0949369659943687
-0.0742834238712406
-0.0345579026787742
-0.0324828264755528
-0.0227785705536995
0.0415621616559021
0.106980168529711
0.133493789935747
0.161857288916626
0.205946232539275
0.235120963913908
0.264666578093767
0.317147351850047
0.349895544900164
0.339693571724781
0.334265950821895
0.337359515799257
0.28832824428828
0.207903802217482
0.18956956823524
0.211395391637617
0.146301113970487
-0.018556212063322
-0.164863689962503
-0.239008993933131
-0.265487318689741
-0.205354747623292
-0.0157459522740549
0.19259897045616
0.240660124634037
0.0849125955519562
-0.162443186689368
-0.348557306057253
-0.382500689423283
-0.299667739455219
-0.210953707060467
-0.156793122634523
-0.101625484308955
-0.0667057492939329
-0.104025571752127
-0.154368305640474
-0.119296154977849
-0.0378209316357096
-0.014050974959009
-0.0431401362415155
-0.0643120440959603
-0.0787398674441669
-0.0958198428968017
-0.0889423795739798
-0.0642528362604736
-0.0403319117724585
0.0220126199619234
0.132094052095735
0.200466889788141
0.188328072639775
0.184044373535863
0.218196990623545
0.182491063163524
0.0336727550999345
-0.112297075023371
-0.171375584052758
-0.186755275931751
-0.18018501617188
-0.106000076815443
0.0113597797735316
0.0798866368413005
0.0833979146373657
0.0700140421248925
0.0508402235051576
0.0289933000271425
0.0276138889561349
0.0163558262264555
-0.054423280942091
-0.129601646000035
-0.115666358903022
-0.0433118614873062
-0.0142624532330142
-0.047483008343162
-0.097753481903226
-0.141138510847427
-0.165217785886038
-0.166690000770319
-0.17520579533307
-0.191512918829695
-0.154989642506651
-0.0497524443904981
0.0716149697245488
0.214182655160942
0.414473378127297
0.583080885671838
0.592549587813077
0.490186494355849
0.402464615584645
0.318024693860796
0.182179481454566
0.0719618115872708
0.070165367152963
0.106327164440254
0.0871747981232283
0.0384819564855967
0.001358426803165
-0.0524688441735236
-0.120337281174951
-0.145452233500899
-0.133884572588214
-0.138819670239973
-0.146467106576662
-0.130690712304395
-0.147167997149089
-0.233000663098276
-0.322814443137137
-0.360580585916415
-0.355892226284635
-0.292860564689221
-0.146665768837733
0.0123902196257583
0.0818274379453865
0.0579986039021731
0.0024341579891193
-0.0449820705748337
-0.064234752200935
-0.0626426809902299
-0.0812560416391396
-0.104015146060554
-0.0445736731896349
0.0883218047120245
0.165747539734596
0.151358362391295
0.134336200173262
0.115031788739694
0.0068051652487646
-0.143433662943843
-0.189466842554417
-0.113635268841742
-0.0107695078498735
0.0738095258330598
0.122539364688269
0.0889298277138911
-0.0017264679990779
-0.0367011128991531
0.0082044956730549
0.0350317034405885
0.0137584579753986
0.0186797536495493
0.0502260132558265
0.0279159106217207
-0.0258146241100276
0.0071532986600376
0.151511664816104
0.305815863177786
0.362785103968378
0.280147777934945
0.112145167553458
-0.0025238930836201
0.0175540273656431
0.0942482182271187
0.118111995211321
0.0917847394397808
0.0662879228710485
0.0527450723217608
0.050594890435277
0.0430076470344137
-0.0300232528968354
-0.168414352921266
-0.247942862603374
-0.185821823381356
-0.0644668217978481
0.0058635946383625
0.0056133045136464
-0.0584485404062239
-0.161991796275425
-0.209371139500674
-0.145206740539781
-0.0620985840859638
-0.0452176903644304
-0.0310472909087408
0.0400220460930446
0.0902556733253193
0.0536845996230341
-0.004453165098251
-0.0221047376638626
-0.0345254683354334
-0.0623480657553482
-0.0647079124730006
-0.0406206277737505
-0.0300090455367845
-0.0342180700160638
-0.0654973726551731
-0.176773411465969
-0.319456756396142
-0.331397376656738
-0.176330853420062
-0.0167050031138841
0.0190228233634619
-0.0320690372426747
-0.0793041697553357
-0.0691034440546066
0.0039276182833854
0.0742161242321948
0.0671737930490903
0.0229577815948029
0.0429591643597167
0.124092169571984
0.180212696304408
0.17486400325243
0.116206790919008
0.0287475236165885
0.0114428652039615
0.152202012058005
0.338973940282805
0.370414639850228
0.254448915192139
0.162589883582383
0.139932781866872
0.102408130068603
0.0404860825246771
0.0055530072388341
-0.0148040447863364
-0.0430643408599237
-0.0440102318964401
-0.0189267005726144
-0.0300313230757305
-0.0676570748334673
-0.058928373196563
-0.0311728545393175
-0.0708818460464311
-0.13213217331152
-0.0972252887714818
0.0125118343271316
0.0804696419094217
0.0780520538302764
0.052842543852269
0.024287474902785
-0.0160791131590902
-0.0826314196497867
-0.181494665524867
-0.24979862516414
-0.190048648338678
-0.0279174569134628
0.096203317685298
0.124513350412083
0.10853294168225
0.0645208095886451
-0.0033211552824871
-0.0078671199486461
0.0862061703498332
0.140088772479743
0.039848168551062
-0.119366711306078
-0.191041978789358
-0.161674863852773
-0.0917209134548905
-0.0342684913757656
-0.0409010766980631
-0.10756487460907
-0.146192138793081
-0.117407654442449
-0.0966461089118558
-0.118815720395639
-0.0973838512551338
0.0108870303075113
0.111793360745298
0.127498367947992
0.0990572574495825
0.0802871213415189
0.0668242650800066
0.0422806299697814
-0.0226251252711541
-0.16003938094354
-0.295430475395919
-0.274680988955859
-0.0854386562259493
0.105517590046974
0.179106758377637
0.162354955443432
0.114570824100792
0.0813083934472877
0.110001602605016
0.180991350899695
0.208924606019286
0.182062031952245
0.172133413255885
0.19132491269664
0.192975552064591
0.17838656103907
0.152071867174306
0.0648086053159008
-0.0660151016638926
-0.125835108186104
-0.0897339886168135
-0.0546767680619639
-0.0431273466450176
0.0057855218235525
0.0514297977691313
-0.0091943321117851
-0.141569969591205
-0.21822596515286
-0.21579547301718
-0.20076556337758
-0.189863859254439
-0.163575046408712
-0.137705500777626
-0.118173353674069
-0.0804553252002865
-0.0529563516400486
-0.092549626427469
-0.149460919868141
-0.102997293163907
0.0624918303092729
0.237720771073364
0.309746864519114
0.232253772819868
0.0577769779133563
-0.0743368922001015
-0.0807831709066993
-0.0313813216399478
-0.013619486487399
-0.0091611138175497
0.0072886840801754
0.0041176323981351
0.0002070078036891
0.0590337949013747
0.142253644881324
0.151276040373184
0.0971902327704736
0.0541988879452352
0.0147337772272973
-0.0518241431682674
-0.106385995257022
-0.120625799057047
-0.112402664848431
-0.0565285573831778
0.0683229629872772
0.157996232440857
0.0986138459791979
-0.0429194050101391
-0.11485275769095
-0.0878947581186827
-0.025806901929234
0.0426799803886001
0.100430234907235
0.106711121983168
0.0786659999542288
0.0878617997141965
0.129525808781662
0.134803396454132
0.109905196775847
0.103586161472921
0.0861334763158168
0.0203246811570429
-0.0421393582257409
-0.068719786010463
-0.113597439363644
-0.182923415064915
-0.193734092306695
-0.121304948829903
-0.0364742687199599
0.0087691618994669
0.0128423924537965
-0.0139055168812177
-0.0381240617255171
-0.0289112466761367
-0.020551792534872
-0.0534829368236909
-0.0837258794020921
-0.0551512133645513
0.0193985959739948
0.130770107195639
0.284169688948135
0.383023693542211
0.29547453618253
0.0661215473857393
-0.135556482110033
-0.245627156094621
-0.290008888744938
-0.241670639391532
-0.100148013620465
0.0126255363866524
0.018517998481057
0.0029508953113847
0.0298322142295819
0.0158112108281358
-0.0866587570252215
-0.17498259714028
-0.17139595049229
-0.121873152645614
-0.0603548592932949
0.0305635070014133
0.106880526786833
0.0931081172061611
0.0067261362777221
-0.0739503415176616
-0.100456620455079
-0.0522824684944181
0.0457430849433853
0.0971439481517075
0.043709653499112
-0.0438444272968858
-0.0824589170756476
-0.0819704948772027
-0.0650426878310034
-0.0240942025051366
0.0075783099644419
-0.0025370907037286
0.0096121685036768
0.100711588358192
0.189349687915292
0.176042288345728
0.0860170551666122
-0.0156355464876541
-0.106334265772828
-0.144303202181165
-0.0917127553261726
-0.0114152038397339
0.0169676388016098
0.0302008709490668
0.0875614773226988
0.13992844470026
0.125018454965515
0.0805064852704094
0.0591142709885821
0.0563962671274201
0.0877918035047654
0.187441466091256
0.292275804828396
0.288874672426989
0.178790309194206
0.0469019194717792
-0.0696857081407859
-0.13679454343874
-0.081108672894333
0.0660573937444326
0.143495530227761
0.0794807648563084
-0.0303681613102272
-0.0997209937812997
-0.135316978437949
-0.156918623326434
-0.176848079616516
-0.210158037039069
-0.223306482865834
-0.167256344589007
-0.0839927498486512
-0.0540542170026255
-0.0691115109058512
-0.0843270544260157
-0.105296868218143
-0.109582244231337
-0.0303862338382532
0.0957443998980297
0.14969080142814
0.133748063205451
0.148174046859679
0.187053077508281
0.174114980219943
0.133161594536816
0.117853501518903
0.0757512779186589
-0.0353614705739174
-0.12436005596771
-0.119081943686136
-0.0987297062111899
-0.140135646454923
-0.186329619112022
