15.1068533821853
13.5802004183424
11.8957486250981
10.0589779091558
8.19925532353605
6.43294051180963
4.81465103566043
3.29062380729282
1.79542580282627
0.397468712345275
-0.834443400534758
-2.0132153077901
-3.24991814988817
-4.45225071757521
-5.51835631882014
-6.49532636537231
-7.38235829865208
-8.0635949920981
-8.52810328291334
-8.86456020972948
-9.05749513341408
-9.07168015667756
-9.01120446837241
-8.94708059157496
-8.80846611430825
-8.64892410326158
-8.73624385659194
-9.19293411039268
-9.78860361147051
-10.1687634064694
-10.0650322621463
-9.32208962106523
-8.00682763546913
-6.46240081126639
-5.03755560027412
-3.85657186474664
-2.9734621236903
-2.47564493145452
-2.26284486382278
-2.02925866890484
-1.61600249289523
-1.1143998306778
-0.607573458832903
-0.107652632290321
0.315058648264795
0.612370136384856
0.854001745042685
1.07968692551104
1.25018028880427
1.40584198137495
1.62078612367261
1.82810274596498
1.94276158885
2.02402381156129
2.09847787741533
2.06491940676773
1.94640877455106
1.91796652462047
1.9808184877774
1.96396021341225
1.8608311350913
1.79965423785395
1.74687543056488
1.56566737168307
1.22751626088229
0.711882139542478
-0.0869530825077596
-1.14156570822916
-2.19548761213888
-3.00629760163855
-3.47283883386893
-3.51215965434484
-3.08302802896841
-2.33631164321626
-1.51052924092479
-0.720700687872724
-0.0080496343699562
0.545728781135992
0.879800135673691
0.960659739107996
0.73774758788703
0.341461667783267
0.198413966681295
0.617588211274933
1.41786375272456
2.24012989975819
2.96263653953322
3.56292949670587
3.91579129837039
3.98640890675596
3.95350670373336
4.00576647125986
4.22049902871308
4.59922961872342
5.00682309815535
5.18737495498862
4.99277452555925
4.46828239787416
3.74705559510195
3.08885108360961
2.84308339063292
3.02944064345996
3.1524620220719
2.73126187031393
1.76181361945298
0.462147400394359
-1.06315275027773
-2.70476119494713
-4.24679110045431
-5.52082799674392
-6.39442142573351
-6.65717514221706
-6.2636817443584
-5.5929984065012
-5.09963679683544
-4.80586281284003
-4.42787338921201
-3.81498462330883
-3.00218318431929
-2.05580739385466
-1.08052287471858
-0.186200611646357
0.618832584897666
1.31532912736845
1.74481223506281
1.80223486586092
1.59777540209798
1.28496012341408
0.956485054216398
0.745517891297367
0.7105578112095
0.640907474582556
0.301159682429989
-0.225153387541761
-0.695614352556975
-0.996188298787781
-1.07301512362333
-0.912415500419504
-0.748499543271099
-0.910077467378168
-1.3458336767348
-1.63525208026839
-1.47874648760014
-0.909377845811805
-0.143235102871673
0.539870207609402
0.940559812010754
1.14018668849984
1.39093582305453
1.76961285809187
2.15722915931037
2.5048922669178
2.83440782043435
3.04672246808248
3.01789033970207
2.80314744678698
2.52491338135507
2.21711917097032
1.9453066116489
1.83341551772001
1.83372172877193
1.73011621123308
1.42343410188102
0.966694208636939
0.38430425615356
-0.294988776856645
-0.958922150195665
-1.55177875256015
-2.11041041745171
-2.59703263809875
-2.95215628577966
-3.26796711669659
-3.60301424263009
-3.76331088969157
-3.58985320819152
-3.26878280551352
-3.08809983869003
-3.13341511271065
-3.39014720540838
-3.83420030964705
-4.32633840154435
-4.70589482875014
-4.96276486874829
-5.07285548273972
-4.83673545304787
-4.13451649379366
-3.13390150714465
-2.04449516729346
-0.865839345543017
0.507654670364855
2.10949215604047
3.82824915200766
5.34246698563302
6.26537441515938
6.58971751583239
6.80153650198868
7.30135259983358
7.93669599649872
8.31249259289811
8.25756285589039
7.8005856932897
7.02641756394766
6.11686088591388
5.25839168852654
4.46370486324693
3.68175582101333
2.9569770471668
2.29164084774441
1.56260270600649
0.711208953406032
-0.233476141068412
-1.35805348822854
-2.80049530042375
-4.49434006928144
-6.20110483436074
-7.68090702923238
-8.69338344171007
-9.09046387385056
-9.03558890390598
-8.85509537256252
-8.63750208894639
-8.23967026282775
-7.56799345869531
-6.5583067942476
-5.08799282736981
-3.21635321710491
-1.29715192323901
0.377520651710704
1.81584254738559
3.08308496119509
4.10321979655473
4.80741448109027
5.22551718217096
5.37643097280736
5.27328395853343
5.00301346614668
4.63307919800062
4.16972202971147
3.72862920481534
3.50143250048151
3.44821681171665
3.31550218719518
3.01345219428223
2.68301660821701
2.42235479908271
2.22179443116542
2.05863736329787
1.83706674201758
1.41162876297678
0.799691020745207
0.143125207482484
-0.552178155760175
-1.3639562886572
-2.22860132989033
-3.04571794177699
-3.83571653734464
-4.55891979281363
-5.02019013905475
-5.12511405082373
-4.97895722043363
-4.69031604985315
-4.33227431055939
-3.99311204965026
-3.60614208024928
-2.93592814209189
-1.95165509941778
-0.927484962438392
-0.0137661094099942
0.935711130711317
1.97170799068567
2.84275888979109
3.30073132655736
3.32285888491882
2.99698815628089
2.45607295270416
1.88866059533448
1.37273345630807
0.809637613900103
0.212920491188541
-0.147155768185495
-0.0634763303993345
0.357994896844472
0.840511953060588
1.10581214511362
0.961455851508386
0.482612203005695
0.0109995230966471
-0.206875295013097
-0.214708801576722
-0.131381674807508
-0.0315647866337954
-0.0338267165238778
-0.168335678776812
-0.200045531515499
0.117399883925834
0.707097367745536
1.27254654977353
1.54377008943124
1.36663995652893
0.868419153390939
0.523492412036755
0.681620553994834
1.09026751174969
1.21163424240452
0.855693924432767
0.219883354001787
-0.456108818922168
-1.01975119764055
-1.43077915496499
-1.82708291805999
-2.3389738670658
-2.79322841957868
-2.8733037949397
-2.54965461810992
-2.06036167048026
-1.55817972717019
-1.08150489562298
-0.726773620152966
-0.552106524131208
-0.467367798293138
-0.406708037401047
-0.389195084450819
-0.33076079595767
-0.0867788516123458
0.293266994888408
0.616352465906721
0.797598371680174
0.871418174902788
0.897251210959909
0.97647361826255
1.1782294649681
1.42956199133018
1.66211651925566
1.93006172126176
2.18416953725898
2.21242885436505
2.03048732898886
1.96754927463986
2.14805251391709
2.27293133939851
2.07532055449203
1.62982622897218
1.13890122450354
0.723060310887285
0.399315574989346
0.0417506924426445
-0.520322905969025
-1.23715645954574
-1.87566699039807
-2.36460475598094
-2.81207345030558
-3.16492509851398
-3.18863532335622
-2.81778930232127
-2.23664432980235
-1.63031891927194
-1.10137295047013
-0.737139139419663
-0.537584727428774
-0.393978409229803
-0.24968630674912
-0.107047651909867
0.103962302251258
0.406208874116682
0.625092929560999
0.626429361334071
0.526372275227979
0.437808058524274
0.278532863502841
0.0236008612511541
-0.161700734946917
-0.181046024433067
-0.125131084257707
-0.103894836517997
-0.184716523849589
-0.399355180918996
-0.64217747441033
-0.739098912568774
-0.673734399931029
-0.495534408589721
-0.102228917052174
0.533180425791989
1.1055797201797
1.33979816916995
1.38220475129078
1.49499323698397
1.64467976385681
1.66648298867516
1.52613354496922
1.22300206285651
0.750976928775729
0.271903720707679
0.01345593670509
-0.0477026668555292
-0.105814796392438
-0.184349300308808
-0.173583176485158
-0.0865657069286807
0.0039035163724621
0.119351872669912
0.248912466507744
0.264311653743471
0.096897031293937
-0.177564484855982
-0.432243717030281
-0.513034190524362
-0.312703589349869
0.0300404831199368
0.226150648770701
0.215828479045607
0.175122437344261
0.156794287706025
0.0610392521216299
-0.111287858542406
-0.299372489030399
-0.531349889068494
-0.78068597547494
-0.90586981634211
-0.904411463763476
-0.939201354872185
-1.04458166410119
-1.11788513882963
-1.15498309424615
-1.18070177933761
-1.08662005680138
-0.822268805803309
-0.549498424047939
-0.388137999533009
-0.243695296861912
-0.0330966305201331
0.176691663480468
0.340302734355982
0.487074171673099
0.581077427003846
0.57413741017345
0.548226638566784
0.577387081842844
0.586858766478371
0.561591010573887
0.671570664704781
0.985878427224153
1.30268018481666
1.39962542467316
1.23158598851029
0.87407099172441
0.493016043861206
0.279995979849182
0.244157921719936
0.238871314104437
0.251790721327104
0.376598306795089
0.519778735494685
0.502194595558191
0.366337680253077
0.221595902501707
-0.0289803568590954
-0.460523375544842
-0.885217738190252
-1.1365542300023
-1.29934985634999
-1.45699160408239
-1.53404185174209
-1.50201196138711
-1.4392549750593
-1.36520064467047
-1.24914612664085
-1.09427673593585
-0.833024201617778
-0.316042572510955
0.433551744429612
1.13996428566398
1.55292015790194
1.6284980235129
1.42173192871475
1.02866243635144
0.633554452679375
0.405705529080216
0.359308808341007
0.393870132433984
0.35152303787128
0.0763078526633947
-0.307976025390771
-0.293798157181486
0.433338139326462
1.4338194514444
1.93892995567916
1.6913056885963
1.03149933452472
0.387647191968808
-0.0178301610904046
-0.194521952774803
-0.337959694358407
-0.598516803252764
-0.908229454668014
-1.2019941834266
-1.57104208783672
-1.9554124118977
-2.03606885332329
-1.71215508240046
-1.32618363545713
-1.20273412538808
-1.30869307632713
-1.45641306754807
-1.49095502803098
-1.27386886771466
-0.79159544954976
-0.228885473319316
0.263922540084302
0.734795245913267
1.24342557268119
1.72372346757152
2.10842027280706
2.36542632953719
2.40282704955543
2.1777357680777
1.83700263409396
1.50935843222654
1.11007379158417
0.593080869812569
0.151270003318305
-0.099411749912886
-0.381892589769191
-0.973369163054624
-1.83812190938707
-2.61205435517627
-2.80768798477731
-2.16355583842665
-0.98425225164491
0.047999752285388
0.521212889538413
0.531818587489855
0.341200590345942
0.192494585689728
0.373077621460169
0.987528228153014
1.71670558775626
2.13517611460876
2.12850294575404
1.80497057257848
1.28745691739812
0.748818951556464
0.343382054303094
0.0272239907314877
-0.308404001805402
-0.609769158211982
-0.787334485232369
-0.873008473312542
-0.862980832903063
-0.66065039329727
-0.322292796848862
-0.0837415471177141
-0.0447311818635407
-0.0894080519918404
-0.142541436240802
-0.234012147699155
-0.339479660031832
-0.411410253232586
-0.488886823287897
-0.588390986607207
-0.649947976952872
-0.702829876811906
-0.828943674417138
-0.923997200569107
-0.812964940895984
-0.574563699385188
-0.428848463032576
-0.403313075859378
-0.386177480782147
-0.326878832683086
-0.173673285487104
0.137598669372824
0.498296173686985
0.703368728071035
0.744583169909232
0.757994983621385
0.757937842391116
0.68174816641434
0.554423063616006
0.419228140071031
0.293788791740252
0.257692374669319
0.335725105790477
0.347748815140437
0.154786836354391
-0.0886429373452962
-0.188833827353773
-0.196490415910743
-0.209991676325974
-0.167814176684271
-0.0357242457510421
0.0636157156615338
0.0576439329757946
0.0335729099397667
0.0749541266081157
0.189406446110903
0.367793091569185
0.525103373338765
0.509016606284482
0.342195637259038
0.246167174735039
0.292124360414685
0.310552537645845
0.216505778022687
0.0959393649554914
-0.0259483645031509
-0.173041613454922
-0.268000928798855
-0.286764761236293
-0.388940460452284
-0.666387631889013
-0.997184174114097
-1.28986403024665
-1.6021143619415
-1.96493450594444
-2.34306001764809
-2.72511546141603
-3.06622930693706
-3.28818624633344
-3.40543277543021
-3.37955395159962
-2.90492740304847
-1.75568861707622
-0.263259469052261
0.977096161235322
1.74759094239165
2.20220514659581
2.44377450636566
2.44837191053317
2.23099686528556
1.88275592504659
1.61241571404688
1.75746312067412
2.45174120397948
3.30601839607828
3.76717572021213
3.75738811851444
3.63201721110547
3.61967858699619
3.65183577210034
3.61796179981435
3.47875575232445
3.22960766177514
2.92067511316842
2.58822728064787
2.15063637370829
1.54280930635319
0.868426193958619
0.25805829495091
-0.24742334104782
-0.560314942647668
-0.565415019667
-0.363842715083241
-0.224367477952967
-0.293042121729722
-0.587709511816935
-1.11500121291702
-1.73311705746871
-2.16263347493422
-2.38522358584382
-2.73534788205187
-3.4236876848547
-4.27162000176673
-4.96895709940977
-5.30508013754147
-5.2306128166963
-4.97032122829964
-4.90040323828448
-5.08338039371367
-5.16532715736523
-4.89279846499506
-4.41849299186227
-3.96810885806208
-3.55242936687662
-3.12618336500042
-2.70352579382789
-2.23151139799249
-1.61889082699765
-0.895863881091345
-0.15363441051401
0.553225161383993
1.12146644359925
1.47834212428065
1.83918038947407
2.55809248704538
3.66852018510079
4.87018479035955
5.89851216072555
6.61357010694554
6.900270345785
6.7743990712996
6.41502164132444
5.93210951277457
5.31183550183055
4.59659369139634
3.84151340278668
2.97423482944475
1.96920178640165
1.0081234774716
0.263267737014729
-0.264594600723232
-0.605715223176788
-0.805731857420076
-1.03697575862587
-1.40125682251621
-1.69711470245316
-1.67144083287077
-1.36813703151447
-1.0163672760154
-0.77258005873302
-0.71567318260037
-0.852674100477168
-1.03516199718564
-1.11587637532231
-1.19994744717371
-1.47129440480438
-1.83348628838741
-2.02970453593245
-2.01449632956903
-1.90627211466362
-1.7200446310636
-1.41133882696549
-1.01094698924201
-0.539056584815034
0.0180108030356253
0.582600569143434
1.0535095239816
1.46438503887604
1.87972217544058
2.25239275965178
2.51300139610719
2.60192769270242
2.38456960637098
1.82190382155826
1.17884842090212
0.747880032505438
0.491652803931277
0.237264042063287
-0.0225716863218205
-0.274876129623457
-0.61839683652418
-1.06248338321293
-1.51136090730242
-1.99596992623436
-2.58915498318306
-3.17044934648618
-3.60235935111486
-3.9690760989882
-4.35224020076591
-4.60640753613136
-4.60329300609741
-4.44912115397183
-4.28236733676424
-4.10168636035161
-3.8834122360491
-3.61976037254459
-3.23617139067547
-2.70959354907722
-2.1660324031386
-1.62811306451706
-0.875778324795554
0.207462304003918
1.41125832122872
2.50426352658745
3.4732832144659
4.35301175995693
5.10744703934752
5.70883873807711
6.11348821760613
6.25585013265896
6.22540197578758
6.24454691339247
6.37272402316584
6.48853534152043
6.56440926735012
6.66637818681178
6.76336257474178
6.79711110921265
6.75818652898593
6.49965131599624
5.77091291897622
4.5779051619541
3.17812337730785
1.68599532427143
0.0451153941173854
-1.66407488908569
-3.23352106587635
-4.52148375362654
-5.38549944287532
-5.67410150037152
-5.53615124321319
-5.4597890706053
-5.77785892029773
-6.37504770679184
-6.98445607921986
-7.46493396728309
-7.72923159063073
-7.7389616319778
-7.62033598417057
-7.51963602615323
-7.37919163339576
-7.04019038690431
-6.4339365162928
-5.57006996910869
-4.53841600528395
-3.53171767413924
-2.63577650297884
-1.68739767900427
-0.557057131696259
0.621331742901753
1.68397397301205
2.62856095417637
3.44558393326596
4.06324199614667
4.51090793696938
4.85615689433876
5.05353664127393
5.10955855298645
5.20719779658957
5.45894223327416
5.80148073573046
6.23472543396494
6.80798248568669
7.34450795628838
7.55979500872644
7.40078617261185
6.92916539886667
6.0321584368948
4.58638305566021
2.73492707633524
0.750782077110672
-1.1782031670399
-2.88434307181027
-4.20864562119432
-5.17500812334389
-5.92719955474577
-6.46248406548817
-6.68326133837105
-6.63568603122235
-6.39905957700559
-5.86502208634617
-4.91378001984367
-3.66821305763854
-2.38527119053843
-1.27525673395387
-0.485444615808322
-0.0143401611356392
0.34942693276555
0.783638636593998
1.23351156765979
1.61043692820456
1.96540459713362
2.34019679924632
2.70304505399601
3.07970690213279
3.50683472605779
3.93155620256631
4.36407892206002
4.89893890466666
5.38585762882594
5.41405283636557
4.81171983641215
3.82633706382715
2.73190107238558
1.61573203596364
0.548720446530275
-0.381592636387142
-1.17887855548659
-1.86627533583329
-2.44613008449629
-3.04941162454206
-3.86207597085662
-4.78449321820611
-5.44963326413837
-5.66930128697085
-5.58600506326169
-5.36919615513735
-5.0655370280707
-4.72293169474091
-4.38016304762014
-4.0078417967484
-3.64853271553938
-3.41537463935916
-3.20405380846911
-2.68427831052155
-1.70247411418413
-0.451865270743416
0.765915197045153
1.73176916430295
2.37078434190466
2.82523107979045
3.32649630672265
3.91730267316707
4.51205725781626
5.16674390851823
5.95635048488519
6.68848530070743
7.08809003112272
7.14345366622876
7.01591885047471
6.80441733315073
6.54064821177953
6.14484796972731
5.35853385204474
4.04493206023376
2.48816547165335
1.06504592615708
-0.22934527043427
-1.62099158557724
-3.13259493382371
-4.60833221163935
-5.9609493106182
-7.1704891579481
-8.21784577740153
-9.14174547321283
-9.96916034866546
-10.5640018892972
-10.76203611863
-10.5981001664784
-10.1819661237172
-9.50316008249237
-8.57697898235744
-7.56875491700367
-6.58345836858944
-5.5464747301494
-4.37291532265525
-3.03754100916834
-1.52559489884463
0.0688037294832579
1.54426020386995
2.85993406692261
4.15941783710625
5.4308254730066
6.45797624499635
7.14184712629491
7.56585424829198
7.83909308433746
8.15612309483142
8.75835376980022
9.54977831033484
10.0831967611209
10.1507402815323
9.99686158168805
9.81063445999804
9.42904127964298
8.61060633287029
7.2429849040817
5.3474475504837
3.22281861380172
1.45537506616028
0.478651698806333
0.231060055067702
0.385544838182747
0.689416678113341
0.979112986358809
1.13882265951241
1.14258659803564
0.954372423233742
0.479964422707744
-0.156526877729279
-0.516929942453859
-0.344028357808581
0.0260653236242417
-0.0565603230558477
-1.03714021627135
-2.88771760268529
-5.02858019538695
-6.58573907936925
-7.06189270060598
-6.67496964787464
-5.88718696656003
-4.91740199645288
-3.87533084864839
-2.94655737361105
-2.22993117951663
-1.72361309158537
-1.55556461911501
-1.93082975656947
-2.86435540226
-4.16982841048459
-5.57913072595001
-6.77008299824148
-7.52563395434357
-7.91450195176456
-8.07871848284143
-7.9549461090507
-7.47859934297645
-6.84374881394783
-6.25870705188594
-5.67342858440521
-4.96887141378126
-4.12228060960965
-3.01281811956146
-1.42530717938956
0.541999133464861
2.36785443733943
3.55361202797381
3.9477972020916
3.62800424790549
2.76105335156068
1.61780696657748
0.575207894073977
0.139429229984747
0.871014995529737
2.90820640453894
5.54147546307195
7.66181969625683
8.69934354937248
8.88426498087549
8.73286557184809
8.5862968909877
8.51199005168094
8.40579490638615
8.2511394206415
8.2454278406975
8.47096630193364
8.62338851442142
8.38907630549336
7.86607862572509
7.28443675175443
6.58682717920826
5.58094052221618
4.22142216724237
2.5373947821276
0.559961910426286
-1.57944245653312
-3.71415097142136
-5.78630008542305
-7.75454342940055
-9.50761901250478
-11.0175515122287
-12.3601759164832
-13.4695189863365
-14.1330839863841
-14.304125688597
-14.1286135398673
-13.6484584038567
-12.8107888521183
-11.7377830024883
-10.6191044553146
-9.37534768745035
-7.74459810292566
-5.6373343610232
-3.20330648639371
-0.689213695496126
1.65189487215343
3.68526759081576
5.46443145688455
7.0461946019483
8.35704754378395
9.37443041408103
10.2154227212595
10.9341407642897
11.5021635654936
12.0175033390115
12.6044522998991
13.1348115587746
13.364484032243
13.2413348450852
12.8182150365929
12.0603036343803
10.94419825188
9.51742146883397
7.7764835299252
5.74777530302554
3.63927150942551
1.61955848544791
-0.411676887838042
-2.54802676838761
-4.58088453953757
-6.23979126375896
-7.47788361234516
-8.28184570890539
-8.47053223844229
-7.9246359802249
-6.80073782621809
-5.35044116814961
-3.7269138221815
-2.08786469642659
-0.760955092695113
-0.249200678903484
-0.983977057555996
-2.7991153149477
-4.66179226115647
-5.32118040162255
-4.31846447834057
-2.1426750501914
0.408532818129245
2.65311939028352
4.08019608274149
4.46854266951293
3.89743500291234
2.51849482064369
0.573187386460039
-1.38961159384966
-2.78218970895843
-3.53178990936933
-4.06219841336617
-4.84220975670911
-6.17690205132963
-8.08908213604213
-10.0985904599292
-11.4653898914373
-11.8620628370632
-11.4714352481515
-10.4188656228393
-8.60728055422034
-6.17015533795306
-3.66812137773108
-1.78393055971376
-1.05378950808468
-1.75937149492668
-3.77786957327496
-6.55612988147999
-9.32783429169194
-11.3135373046463
-11.9118994482703
-11.0660622676527
-9.32172210937132
-7.14090784944621
-4.34101528678751
-0.617638275541729
3.61043702530779
7.30988389798703
9.66853679262674
10.655285987406
11.001234581433
11.7134183820081
13.316158928959
15.4819877035041
17.4792986877453
18.778904659288
19.1562216161186
18.6331528330481
17.5498024056684
16.3697575941805
15.2770373452162
14.182360736724
13.0218786801985
11.7648224606004
10.3058780922471
8.60947681061668
6.76580028854933
4.78562192914994
2.5962395182886
0.240252440604321
-2.20549678936863
-4.80020624441892
-7.53567093772178
-10.1283536194603
-12.2606001500615
-13.803552690245
-14.6041256758334
-14.3589475748622
-12.945859999993
-10.6538170790858
-7.95041961719036
-5.24952535927272
-2.89807864322443
-1.03850286386259
0.567369375136734
2.33523005253798
4.48517218871119
6.93548426468252
9.35291185635908
11.2430416068086
12.2502788054249
12.4027894029161
11.8988111588886
10.8417830429584
9.41331734248455
8.00883675658815
6.8833812808954
5.83053385794785
4.33924096767723
1.92269510591327
-1.57247082029033
-5.69165694288436
-9.58593328688741
-12.7641030320123
-15.3989494821125
-17.7657836098405
-19.8010082824668
-21.3501518498815
-22.3820048526929
-22.8030060753248
-22.4385517155077
-21.3103599345779
-19.7156778622619
-18.0414600839543
-16.5684267439996
-15.2436196218267
-13.5468213314825
-10.8546514490465
-7.08301488027223
-2.80393600389049
1.23989152951509
4.49242784660804
6.61917172532976
7.62152385362784
7.90818378391608
7.98163507919539
8.12789952091867
8.46466873390395
8.88467474970618
8.7941636188446
7.44678119129079
4.90580458127688
2.3833804376782
1.37020482623317
2.50903163553545
5.24811781357275
8.37158453362467
10.8865737796665
12.5258172987712
13.4776603300363
13.8928277201031
13.8495498113983
13.4822786172553
12.8169016713606
11.7335158179536
10.3241015395789
8.98969278948816
8.03866609672296
7.48007865490646
7.19559390781854
6.97673056006664
6.52662930249381
5.82978876860379
5.41412223018095
5.91457750577481
7.41401641786433
9.25780003528735
10.2868724484498
9.37271534917415
6.31098343511774
2.33019796370742
-0.757358227633981
-2.08298159692442
-2.22259926729066
-2.44010814090826
-3.81329227980466
-6.72276272810692
-10.5815987179724
-14.1398296023277
-16.3743374435704
-17.0855538379942
-16.8021835895223
-16.4825949181878
-17.0856567778869
-18.8185506653759
-20.7936564226197
-21.79762294009
-21.3443970992856
-19.8505455795051
-18.1273334925651
-16.9070909823104
-16.4773570373814
-16.4578947742772
-16.0553057207552
-14.645938928884
-12.1221467632087
-8.82291805271938
-5.18830842924664
-1.33079172689685
3.05733075213328
8.29800587953055
14.4155476072975
21.2863079344068
28.6651369764054
35.810516823819
41.5097806636624
44.8653038320739
45.8591080324574
44.9855327045935
42.6374910462453
38.9814437952639
34.0684228446908
27.9025451076335
20.6530292896917
12.8237038606527
5.00866999380263
-2.39454389969223
-9.07125739646017
-14.6962265708749
-19.2091379411807
-22.9933745741783
-26.6740419782074
-30.7998332794161
-35.4482865862421
-39.8849395175883
-42.9540535125228
-44.1175992967795
-43.8169459401483
-42.6781936468073
-40.7826784624488
-37.8190840105193
-33.5243328651635
-27.8982201372883
-21.285745693739
-14.2030598849536
-6.90538722621791
0.683400807897447
8.52865402275178
16.2702850556666
23.4795353197003
29.829009329455
35.0892057127158
39.2956453986065
42.790026529472
45.7161216560257
47.529808640866
47.3080725546032
44.5618740195442
39.6542562244487
33.5371653634572
27.1687072984116
21.074823865683
15.3973468215456
10.2532645141677
5.70885001184404
1.36515561261154
-3.46106615909236
-8.89898864050782
-14.403657781875
-19.6634428697879
-24.9848080266577
-30.5072162564664
-35.605638712806
-39.3755287466188
-41.4036331281561
-41.97763338299
-41.7592286649442
-41.2126717278575
-40.2245272036193
-38.3430459789126
-35.2724784186696
-30.9125129362627
-25.1855798610003
-18.2494252022997
-10.6966021830187
-3.19756207421394
3.90080423320711
10.5213083607401
16.753319747185
22.8673224160744
29.0024046981853
34.7310735473767
39.2530539211422
42.0964409056865
43.5242493618565
44.3844149878974
45.5424972339767
46.9945039824226
47.3959010768606
45.0911577640929
40.029452956431
34.2221344189951
29.9274499991522
27.7166103634057
26.4489064510683
24.4603119574823
20.3227559575432
13.090354136994
2.81509780118577
-8.93546830898762
-19.6576707481555
-27.6232519079279
-33.0471328159744
-37.2946012584287
-41.1236474378975
-44.1834454812083
-46.0092563194714
-46.6884357428397
-46.4474483315495
-45.2883421107578
-43.2092938397105
-40.2798367272682
-36.4523104215317
-31.6946916224832
-26.2298940236879
-20.3745350520576
-14.3711991731509
-8.53351105577281
-3.15115298074639
1.90014070348571
7.00531351155127
12.126609431359
16.6815102943958
20.1896411755285
22.6414517359601
24.1417258535465
24.6206891665513
24.15142524938
23.2670543335393
22.5349114761798
21.6879038066352
19.4282511415335
14.5007042820798
7.10451771909775
-0.987763502588852
-7.80327076208588
-12.4477180100186
-15.1884261521175
-16.9161867893034
-18.6658856368535
-21.0572094048207
-23.8144638690219
-25.9707659453691
-26.5883083128816
-25.2573063229266
-22.1971036895529
-18.0769807869287
-13.5100644567328
-8.65606755178152
-3.52593958753739
1.58598937497415
6.46541871666152
11.4942309290312
17.1720015785359
23.2611514820159
28.8785732164895
33.2558953284214
36.072937938735
37.2861016096044
36.9330341673951
35.0182438600595
31.5761306640949
26.9978918282677
22.151658798306
17.8961442262417
14.5147354458012
11.7571125142186
9.29502656790651
7.03211398958328
5.17346714805404
4.12842959337059
4.17183338591099
5.07855529864491
6.15671659504054
6.65797625930868
6.26875303633587
5.48685272529606
5.39631977758292
6.54698741631433
8.1214409760542
8.81725039506185
8.43308037678749
7.84843265992556
7.51001925982221
6.68419141162012
4.25395965258349
-0.222563308252293
-6.13861560853391
-12.1508490755631
-17.0708455331752
-20.779117282896
-24.1747032745101
-28.1891564903692
-32.9776402460095
-37.8505098046448
-41.7093882223054
-43.8161702117479
-44.4595021296144
-44.6732521936877
-45.119963825117
-45.4375667801005
-44.7162220407101
-42.4136400029681
-38.8318877733104
-34.8199883604467
-30.8842401950806
-26.5533461458402
-20.8591900301213
-13.4282096346834
-4.76890418057963
4.41898002051479
13.7273354095661
22.9061684103058
31.7629621394264
40.0313492103732
46.7312107635869
49.9138355923192
47.9708188258682
41.465471543487
33.2351336339919
26.4432806931928
22.489222647695
20.5583734085361
18.9114004193503
16.5150187058421
13.4750425732599
10.2525268795195
7.04718052992215
4.0007169519118
1.41285667070861
-0.502971713649842
-1.73964669288246
-2.28895527126329
-2.09174636608177
-1.14019765393627
0.575685559742651
3.00989138420547
5.74756027611432
7.99763949167483
9.04616408202704
8.57090347091095
6.6656341094533
3.90606824165191
1.22753362726846
-0.689661473336854
-1.88612910028372
-2.77651082106918
-3.50431087854559
-3.79097235939451
-3.19811951512892
-1.48154144864428
0.959884951606032
2.93736970058441
3.24222389808734
1.79510258840453
-0.161319370834346
-1.06843568890794
-0.22522401213389
1.76744291009451
3.50597313082847
3.84341814348198
2.52790630851977
-0.17183259339337
-4.0288806264398
-8.63995012211861
-13.0186086142425
-16.0008119407372
-17.0118926812663
-16.2171714256729
-14.1576622623512
-11.420158610723
-8.43520689493769
-5.50956549204901
-3.13277698106176
-1.94737174353172
-2.09564918729279
-2.85277136092262
-3.18760503656857
-2.51921453166656
-0.946511661201536
0.853344293121141
1.93639405300636
1.72841273512179
0.449916540222611
-1.26308372885597
-3.00721262965933
-4.67382054862339
-6.16419568942504
-7.48148444927545
-9.05331456511224
-11.5965021504588
-15.4220666021932
-19.7703538566283
-22.9067825701182
-23.2295182737454
-20.4888809643153
-15.7098849820816
-9.97003005372438
-3.78162888286146
2.36743110273712
7.74233353532632
12.0237223784688
15.7019776526671
19.4857828919836
23.6049309532322
27.7661616185985
31.4837109127157
34.346229628932
36.0718856236999
36.4040788210512
35.1892946160031
32.7222224324839
29.7104471460398
26.625468711712
23.3877624321259
19.866181279292
16.2147217339646
12.4869627746065
8.41075303900229
3.83035330284866
-0.912555405650169
-5.13794604022185
-8.23754294669615
-10.1471176491574
-11.6119179556028
-13.5997036151426
-16.1407558309058
-18.1905845277802
-19.0745485621441
-19.6484055023819
-21.4188701073689
-24.6708536061612
-27.9824928335007
-29.6284907739912
-29.17377538616
-27.6279593663862
-26.2251817152126
-25.2573153598989
-24.0957881130847
-21.9761553725968
-18.431297101277
-13.3158065152005
-7.03148195896597
-0.658400372899325
4.63648332853624
8.33252755856229
10.4910665804858
11.2630139678148
10.8500821798065
9.75480861295468
8.66130871519852
7.96100827105658
7.39207364883271
6.17837366260478
3.75689865582313
0.460965222180597
-2.74822898922629
-5.19753535387784
-6.79195775656263
-7.52583694487437
-7.30330526626507
-6.33924814477586
-5.28843244543299
-4.77916642446881
-4.90327488217335
-5.08234328479265
-4.35388324681542
-1.9482829678486
2.31873037329937
8.20790189769934
15.231306979476
22.2432756650498
27.268671119264
28.644057565147
26.4974626170311
22.65284546082
19.1312948533417
17.0665487622359
16.6506655162403
17.3675144113293
18.2335554489986
18.2402507772168
16.7792574754124
13.8155259341128
9.89986730408111
5.95217411481565
2.7905031877598
0.8433655546443
0.21508734638703
0.680996281935093
1.62747799482795
2.44556684277557
3.10405272121927
4.04874783280578
5.46826643548721
6.75903822766599
6.66934017140636
4.12123381169926
-0.729390749085498
-6.29347591819803
-10.7795203421221
-13.5843917522508
-15.2868781873978
-16.6691716002274
-18.1784381284016
-19.9900389284517
-22.0598673403772
-24.238207761131
-26.5425907661739
-28.9622068882233
-30.8239684599796
-30.9548748845947
-28.8869889389396
-25.4588796197717
-21.848934683745
-18.3284463893047
-14.2133270464087
-8.80724387539607
-2.25902299220821
4.35287220153011
9.72021982965564
13.1595834629119
14.8967191448515
15.7283211129497
16.3928646278807
16.8604186180746
16.1388768519042
13.2804171600084
8.71582505819518
4.07279745823694
0.610272132775156
-1.64386710962685
-3.36019069962834
-5.27095881953511
-7.96676359850206
-11.5265140788519
-15.23666101488
-18.1179672693378
-19.6910258790002
-20.0033685749483
-19.2051938262234
-17.4297512188749
-14.9135741648602
-11.9980487811519
-9.03332684799942
-6.22995036516493
-3.46154757196793
-0.303014289343683
3.56174638796361
8.03686621950253
12.7935945192747
17.5678954875924
22.1641545744178
26.3407286844776
29.8308657297573
32.4748105568493
34.4291022214231
36.2571054863515
38.5304135834257
41.2270005993793
43.7671649887237
45.6358311922809
46.656912791961
46.7822647589504
46.0989270426388
45.0464693091035
44.2063078484712
43.7235992433592
42.984062467318
40.809711508973
36.0997030637223
28.5803616847112
18.9504295677897
8.23385632475937
-2.74717848113261
-13.2096256507006
-22.2933549464811
-29.5651392966893
-35.5728503015528
-41.8370608423972
-50.1709959106731
-61.3275626422867
-73.7688180135741
-84.2383754434321
-90.2502183563517
-91.9208769967171
-91.1181468837852
-89.2823319297938
-86.5127801581745
-82.2985548191393
-76.4136764252519
-69.0643411971647
-60.5136148742042
-50.7676427249757
-39.8424298593038
-28.4589153069559
-18.0857994088617
-9.82850296493944
-3.37575342682694
2.74623606128962
10.0577484947807
19.2299301582473
29.7540767896449
40.2235950505951
49.200278818617
56.0111591887447
60.8595832688761
64.5567289058947
68.1839733486357
72.356223138434
76.4107042013446
78.7059251364733
78.0559370934577
74.7471359968882
70.1315104170681
65.3092436471979
60.0204144420767
52.8529519453344
43.0323368909969
32.0286597231389
22.6939504041612
16.5616474151387
12.5234837629204
8.32211459990533
2.75525916785279
-3.92778407519944
-11.3197888643124
-19.7666636316941
-29.6016429425748
-39.7255072289515
-47.6514511052566
-51.430540503414
-51.3135356426959
-49.1997485606203
-46.7708987462701
-44.5377536527319
-42.2486147430981
-39.5259551375858
-36.1949092144295
-32.4557253490661
-28.7439013821397
-25.2936314202933
-21.9643109159867
-18.4339202925287
-14.3091355801153
-9.22006468410339
-3.19964141552189
3.07995222933617
8.64527340949545
12.7425317161494
15.2101841960171
16.7569060096207
18.6452089173818
21.4794941365757
24.5140783050978
26.8204125648914
28.8274968406996
31.8010954007303
35.7711622272274
38.6871522696605
37.9516353485627
32.6659949550598
24.3119142301805
15.3113979660745
7.10911916491845
-0.167873909478219
-6.52081646171495
-11.3620777374259
-14.2418867854452
-15.6881204745942
-16.8845076329113
-18.7738979570121
-21.5936261062908
-24.8530537307277
-27.6054920881033
-29.1431762038681
-29.5941277373339
-29.6419847531869
-29.7330556947834
-29.7611301659599
-29.3650583728551
-28.3214057589954
-26.6817323360441
-24.4386683372799
-20.9461131752037
-15.0962800321961
-6.63711615773754
2.80902313601826
10.5245801225636
14.629242828371
15.2841361614744
14.2691580615923
13.4837339693175
13.6260501077384
14.1104881453394
14.0348189596651
12.9559582927909
10.9762920543792
8.75150742273496
7.42263420827803
7.8196253321358
9.52777047178031
11.2355233422593
12.1267857671035
12.5798339389682
13.5217222653085
15.4039392820734
17.6731552742621
18.9445587129253
17.9647982495586
14.8763791274118
11.422250445292
9.5194823648912
9.63701405723369
10.6878620135836
11.3105341457466
11.0985734744714
10.7188311671998
10.9748996567517
11.8675615045726
12.7144404090572
12.9813856208675
12.4806115275643
10.7395647333907
6.77403182864647
-0.160252177877469
-9.67190988445347
-20.0583481130814
-29.0027131931339
-34.8133048551636
-37.3031453491613
-37.4211088994685
-36.1156747407246
-33.7818083069639
-30.5218331065331
-26.4130654798968
-21.5807979851014
-16.3230334409673
-11.0153595359434
-5.72944614637248
-0.23323163999529
5.50686036747117
11.1528317546655
16.4246699194574
21.4044100889513
26.3177021387603
31.1877796302004
35.6879268627583
39.1838118015968
40.974637892651
40.6031545274494
37.9366906099511
33.1385257680021
26.8602688211983
20.2917381482342
14.545180239274
9.9276387387161
5.94879181496235
1.78489335761666
-3.37768954572874
-9.91291435928963
-17.3257640316697
-24.6301042704289
-31.3026165261664
-37.431088276706
-42.9068405850796
-47.0231469215059
-48.9980483357474
-48.6034140161251
-46.3483618339643
-43.2077448195052
-39.9182734632656
-36.4285086756077
-32.3316162425529
-27.7600771824934
-23.3898090712787
-19.628824913044
-16.2411374123151
-12.6886669632141
-8.51034495229811
-3.50051049612754
2.20218182234359
8.2212462245082
14.1465207192226
19.5238351668803
23.7901346235466
26.534236913267
27.8704171852362
28.3967552646488
28.7062374925581
28.8636385274837
28.264679723167
26.1657019057385
22.6201009768707
18.7389489316835
15.6895918884233
13.6322246711779
11.9979453839294
10.4489849080942
8.98703741972681
7.38711045640018
5.22977279696569
2.59888099688977
0.401196239014017
-0.202206051875654
1.22458327796911
3.92908081362008
6.61532488085439
8.56687463494046
9.91943708627089
11.0216680838311
12.13535076731
13.7075601493568
16.1330834236644
18.990699011198
21.0572943167796
21.3319894920285
19.833661679141
17.4363296016272
15.1320964359718
13.367210768684
11.9635519284047
10.6308365269975
9.22560850741455
7.25907104576359
3.66637492710896
-2.21665579129945
-9.5670964727939
-16.535541313285
-21.7698541102277
-25.1377737111459
-27.1837253647794
-28.3953714106272
-28.9451865672412
-28.7384925785467
-27.592228927042
-25.4114277092835
-22.2030163628953
-18.0794473462049
-13.3736183001792
-8.57527400136431
-4.06889385221365
-0.105164173197951
3.03072233907442
5.01673381360099
5.44658887621635
3.67725852020399
-0.644551512379389
-6.48214103872805
-11.5347991175151
-14.240418925208
-15.4243184687708
-17.4761166879251
-21.95527702691
-28.081123875514
-33.3642881334826
-35.7245840154779
-35.1334684940456
-33.0810437539498
-30.5663182590843
-27.2130022099855
-22.4656557782082
-16.8753475179161
-11.6741106552118
-7.45592486400237
-3.7259672089868
0.375751817449613
5.16139933378982
10.1666988290247
14.7169560904321
18.6805679024784
22.6292786068003
27.3440319239581
33.3140017806444
40.5098420953444
48.1997608301966
54.9841818469247
59.3584943265547
60.3106808717092
57.4441624713063
51.0685293415541
42.4543736867958
33.4510178048251
25.4214172526828
18.7865778025706
13.5456229051308
9.57869017598211
6.33165795317568
2.89407590767274
-1.22804579164583
-5.61637358949633
-9.32306524802078
-11.7425988325916
-13.232045147931
-14.7952668956521
-16.8925034628421
-18.7016213496733
-18.9495154253232
-17.4353523301968
-15.4187441768916
-14.473295699398
-15.0704544293393
-16.2517817619413
-16.6251934134684
-15.6229422175309
-13.6898885938045
-11.3919124180379
-8.73544422582639
-5.39728590466205
-1.22320695532475
3.50976110380063
7.78330942051837
9.75333109589059
7.77759314745572
1.99994249314008
-5.46156461968416
-12.1066558345642
-16.5057509018327
-18.3017487963792
-17.5757998479765
-14.6977031492433
-10.5752569098853
-6.58449855542322
-3.84393306257101
-2.37423051283557
-1.17345166358323
0.703039140167427
3.337700544423
6.21382831237139
8.74628615014637
10.3698033624733
10.7058516492156
10.056158002046
9.37851693373306
9.38431799738291
9.68298321774324
8.89889575386195
5.7495216279644
0.328916308081797
-5.53832847181751
-9.44331685777962
-10.051701093942
-7.75637422211137
-4.17672074926824
-1.33479463987408
-0.747283011741366
-2.51227882052194
-5.33364408788792
-7.96666325370391
-10.5656470784895
-14.1420359569772
-18.7932010472993
-23.0172018420336
-24.9631498811225
-24.1436557300653
-21.7499740046557
-19.2517707788642
-16.8490933248715
-13.6479919253446
-9.29101274878382
-4.71861211529948
-1.02690526128742
1.76086023106327
4.29451382294703
6.77834561212017
8.83976496483156
10.3391442868881
11.8742178660399
14.3315874516299
17.9211448180644
21.6856216500359
24.0993549748653
24.200210642428
22.1651058540965
19.0750263458749
16.2990233144178
14.7102147434283
14.1339852150566
13.7782359577054
13.3181641677216
13.1827854319443
13.7626054977233
14.9030274666888
16.3079486004255
17.918242449988
19.6608548238079
21.1339802302567
21.7499999542577
21.1757970213738
19.6871184430026
18.0056802316687
16.4600330419692
14.3542215407869
10.6894749537897
5.55348831263892
0.182928581692541
-4.46742712539059
-8.6025493061
-12.8469834931124
-17.1021046953195
-20.3770657187785
-21.635942313361
-20.8199136049275
-18.9955822575617
-17.3127589556498
-15.9664618601989
-14.4592444858678
-12.5685584977023
-10.6005636378173
-8.95690461654716
-7.85026737596837
-7.15671466882823
-6.27838993756526
-4.56569054167848
-2.13094577349792
0.148831200156155
1.5751326642679
2.13512914374631
1.90660836530129
0.279595472996847
-4.00324820913653
-11.8991298065392
-22.8677897672186
-34.5199481705277
-43.7645098664819
-48.6270812902837
-49.1389309518725
-46.7448530713113
-43.0236589757245
-38.7002333503698
-33.5296581859332
-27.1283720411869
-19.8996291204845
-12.8710964796407
-6.66207883791199
-1.05132164181317
4.42475162991542
9.91919247005442
15.3674892263544
20.747245469232
26.1535043954557
31.6530238676847
36.8419442195463
40.6414575300867
42.1453318411884
41.7972083870611
41.0586105195302
40.555346667954
39.0016314532622
34.401590709181
26.2832893768032
16.5683643081542
8.11523990663488
2.39124318430768
-1.28039487032159
-4.28740930942993
-7.12201705547593
-9.40143324207095
-10.7921822344789
-11.2912291713995
-10.8638594108673
-9.30164583899113
-6.45372906206065
-2.49344120108243
1.95203472221421
5.9640932164024
8.84626682254745
10.5852756696053
11.806287732862
13.3471617276748
15.8405975565278
19.43531469761
23.7407161666709
28.0954520684391
31.8524932791249
34.3593361401046
35.0292682570328
33.8145617900998
31.3543252106342
28.2865623036256
24.6579749564051
20.3192047376056
15.631007605322
11.3912933903296
7.9053022256439
3.95671159816027
-3.10991801142074
-15.3683742206277
-31.7871906027807
-48.2758118229226
-60.763353334369
-67.8716007027153
-70.5795271866038
-70.3474466226182
-68.1520030045207
-64.6196915947642
-60.3671720314645
-56.1513651729699
-52.5387055968078
-49.2319365676864
-45.1335936522132
-39.5010580110849
-32.7435868417205
-25.8046953721378
-19.1663669834418
-12.7254734727531
-6.18436193894934
0.753141883364089
8.14905225452483
15.4977678955503
22.0560028393762
27.8257859708967
33.7464452170954
40.3540858971543
46.3981646962715
49.3864029313735
47.8543759667662
42.9406115013397
37.421153984477
33.3010458632858
30.6707200304513
28.5943076087281
26.2567685459121
23.105508931404
18.7032092596435
13.0077884700422
6.58495458041686
0.33844192605953
-4.90901158064502
-8.69953611841322
-11.0005760013923
-11.9365328372846
-11.5625935351217
-10.1770339567084
-8.57623172304761
-7.33692164974997
-5.8453684702594
-2.59467216039732
3.41673985591503
11.7354703318749
20.6630600187942
28.1730960924882
32.9567548064421
35.0447384961855
35.5064564484207
35.4517646837983
35.2180842370871
34.2610403797901
31.563191918514
26.2529089024432
18.2180411287427
8.38246384158807
-1.57090395288349
-9.84787226282867
-15.2788694157318
-17.9029602976641
-18.9831936072067
-20.2909724707063
-23.2504949526345
-28.4931085148804
-35.6297127860264
-43.2053727158612
-49.350051960415
-52.8561290610463
-53.5034689326733
-51.4639425117096
-46.9155683779359
-40.3089424762158
-32.587832181761
-24.9692115939208
-18.4386938918649
-13.1074978913702
-8.03189074812166
-2.24957684139077
3.76314427011419
8.10810178425116
9.15104651663413
7.00698988139405
3.50064452203075
0.959158292101533
0.7867866537894
2.72997714334323
5.40794372418364
7.56163363558021
8.76390612325699
9.25337194710316
9.56288861048433
10.2483413341971
11.5938255930163
13.5988788279452
16.3900066702954
20.2338868142928
24.7094156998498
28.2205299794565
28.9243111966829
26.1084488152099
20.4133794512119
12.9771516545112
4.80863497162137
-3.06423353242872
-9.38521224261067
-13.1491775049319
-14.3383003057515
-13.7795185526843
-12.1556852766443
-9.62302095962972
-6.49120374702742
-3.47920480626639
-0.852876100732801
1.97265727999741
5.37944981395521
8.62174048820086
10.5578995082733
11.1466589720035
11.9405964570127
14.9867831766092
20.8798243120868
27.7519781675916
32.729030636361
34.6630363848396
34.9292730676815
35.4661180641158
36.7765044852895
37.9575059322665
37.8418892978249
35.8498766718499
32.3718399787665
28.4711862013411
24.6200463628798
19.6133800516139
11.2047978847995
-2.15079592356458
-20.3812410183536
-42.0009245420693
-64.3477167018513
-83.8307559305815
-96.9810633398719
-101.958623640743
-99.3074739048924
-91.4572352262152
-81.4020057760382
-71.4015331486499
-62.5206651603716
-55.0213906279314
-48.7528218948969
-43.0821798225404
-36.8422450911373
-28.7012199434661
-17.7949330146854
-4.32805857383531
10.2716408856134
24.024405993359
35.433933124769
43.9829846307636
50.0944235589855
54.9915849563368
60.0494960137286
65.4932133121766
69.8250492997802
70.9559581446677
67.8371654650264
61.065544366129
52.4826794553847
44.2921109668904
37.9127275291756
33.2962278832266
29.4902902899606
25.7926133945992
22.1371265694011
18.658049481077
15.4061518465755
12.4755012308799
10.0783828728398
8.43008896042379
7.46038329763869
6.30123569104578
3.21774304395152
-3.18651876563694
-12.4355420422463
-22.3498534491979
-30.8727365148686
-37.2463364923197
-41.4200176182541
-43.1667161455741
-42.397822121982
-40.042317137802
-37.8952924203975
-37.2142725088134
-37.6342289770192
-37.7528146708786
-36.6377513222974
-34.5025402091702
-32.2980187580916
-31.2031320539191
-32.0602415872726
-34.3427061301332
-35.742891010535
-33.5972701020328
-26.8821024220136
-16.5811071343174
-4.55122057345895
7.38467401782207
17.5982926062618
24.8090503280634
28.5504721807952
29.5511732996647
29.5222547185792
30.1457578191861
31.8743051444233
33.7785644709749
34.7046358375399
34.3515884165086
33.1728769937719
31.7887982291897
30.8212579840336
30.7872148877042
31.6642912807872
32.7250108941559
32.9384485215387
31.379542202266
27.475290376414
21.3958180040751
14.2332352081928
7.39891458481947
1.73809862633752
-2.64797565073845
-5.81505410078204
-7.47594322360529
-7.31692863601289
-5.8844649227386
-4.75614476129681
-5.2330451614182
-7.02125012990353
-8.93937051816179
-10.8118221701544
-13.6994008476553
-18.1173117558724
-22.9327867975096
-26.410888308887
-27.8627928976912
-28.0648873912516
-28.3470903280468
-29.2939552470134
-30.1610803310878
-29.6494809087718
-27.3150833110428
-24.0046265880997
-20.892740466511
-18.4281918504052
-16.2846083999671
-13.9045106944353
-10.7612020112254
-6.21999863541142
0.529444684545491
10.049215364833
21.8153104544474
33.7134665444346
42.6369027782858
46.0355344056548
43.4408097935496
36.8594217268008
29.3660685610639
22.705507910681
16.3653752926575
9.3379445005501
2.12811921034612
-3.87896782722721
-8.44561450511535
-12.6024880246733
-16.9149977497841
-20.7434339550635
-23.23643743753
-24.1409704745663
-23.4606939772264
-20.9825349716185
-16.6156401185147
-11.248507853437
-7.02064019727773
-6.16305688366267
-9.18801515690795
-14.4320878295965
-19.399079260854
-22.0156992290437
-20.7233227703875
-14.7355141262369
-5.21501607380908
4.44562195156588
10.703609825048
12.5550093083892
11.9504071207837
11.6399185757738
12.8262336635483
14.7507418066028
16.0507646007139
16.1069923355168
15.2354114822711
14.2869934635913
14.4051336079626
16.5398891342595
20.575105973637
25.2285697646811
29.1265945667332
31.5668875176508
32.1728992266879
30.6780212083689
27.4776549677691
23.692842908723
20.1757149705777
16.8061688520695
12.9862054951136
8.45229070563661
3.40281065204044
-1.89240227352542
-7.30187004192369
-12.5445703897814
-16.8292410916221
-19.2038691129224
-19.5022451414677
-18.6045228157552
-17.4493060848074
-16.0786178246592
-14.0094511865677
-11.4155015130829
-9.67393508949917
-10.6306571576819
-15.1765348980871
-22.4131993202568
-30.2264629430256
-36.5485792767478
-39.8755985065693
-39.0829694632087
-33.9086434353803
-25.993548007274
-18.4918726874786
-13.8021099484845
-11.8229445659458
-10.581227954269
-8.1645965396046
-4.03695540267634
0.908173654283404
5.33019693663577
8.72807082022754
11.7771861518809
15.3302872195825
19.3774119472119
23.1291801470151
25.7773455727174
26.9668320174991
26.6778082625481
24.7535860770074
20.7857865361616
15.0151312083005
9.32412180679801
6.37022742543049
7.09703105543127
9.53825430399056
10.5179339433048
8.30672881060571
3.5953365309826
-1.53199663530033
-5.18879234966184
-6.56269442434672
-5.80614931776196
-3.56444291378199
-0.772246937582022
1.48310037506118
2.43380547111044
1.96755945173744
0.232005093798873
-2.85910968411039
-7.28402416791031
-12.2921814820898
-16.6737408560846
-19.5867825295945
-20.7459257389039
-20.0055400346366
-17.2437991895652
-12.6400709280295
-6.79620768804386
-0.571998517113546
5.16441964032145
9.77682976207042
13.0732353850669
15.5133579279412
18.2436924672723
22.4552800873195
28.19190072423
33.9599645008172
37.9108505806601
39.2521633591149
38.3152910241134
35.688604949355
31.626482507462
25.9441201124826
18.2533412633361
8.66446355306733
-1.5654810080953
-10.3806230384646
-16.1585156469263
-18.8024838545833
-19.9529837166761
-22.0091748836995
-26.2839556375661
-31.8310515386229
-36.3384113816824
-38.1971812027975
-37.5754328237409
-35.8733131862043
-34.589217415945
-34.4104324586383
-34.8715844961776
-34.928011363517
-33.9792479005729
-32.116868091456
-29.5147989898954
-26.116566480041
-21.7808015389313
-16.0954673969464
-8.29425348841508
1.80586003875165
12.8824427859506
22.8401090141887
30.4137831736762
35.6286482468121
39.0014202046076
40.7865858434043
40.7974249422738
38.6883965483225
34.6320548723018
29.7480198474275
25.462826511024
22.3168710224993
19.5825515516148
16.0268630277498
11.0059354305082
5.0275827273936
-0.677735363074277
-5.22775355270907
-8.59152664354835
-10.9903913111269
-12.2906796383393
-12.3488736084598
-11.6267975148948
-11.0973762444032
-11.6289872169797
-13.4706481076299
-15.9901250069816
-17.7434792169844
-17.1180679473037
-13.3765864050204
-7.34610623792618
-1.04036316751353
3.77963032259876
7.03614298687458
10.1427957980124
13.9441789716103
17.0627140049203
17.0064336151473
13.0108874291651
7.23839871996661
3.02424464623649
2.2478997545324
4.30709985495077
7.0983088969447
8.73418096072183
8.57498197440095
7.12833409777899
5.4279293318535
4.43660646374805
4.38587950037742
4.36657890129104
3.05853663683896
0.258935195285797
-2.59191578526939
-3.59641758506863
-1.93000677520248
1.60171653919624
5.03661556196767
6.45140216879951
5.32178218773327
2.88074745805939
0.971494247861426
0.53108570876231
1.05792003070498
1.21896858943691
0.0282655430678579
-2.16870125131703
-3.88470719687173
-4.0229323683414
-3.1739452808296
-3.06236673490467
-4.86260273925494
-8.45414224304778
-13.1179457941313
-18.3624436727124
-23.9446194658088
-29.4387259904779
-34.1121365936608
-37.3871414662948
-39.3161292105786
-40.2238120782324
-39.846013265245
-37.3428902851901
-32.3574246720302
-25.6344287465737
-18.5251082175869
-12.2701292330839
-7.44376451847208
-3.22008050145155
2.68075963058482
12.2224777112175
24.8095715294105
37.2382233539204
45.9987098608848
49.5056797238279
48.5383124739243
45.1923911645798
41.4587205619869
38.3608070004804
35.9435962141021
33.6223182356255
30.4630515371399
25.6608888217081
19.2738237900343
12.4514025990385
6.70361521515683
2.86957641447838
0.639198212352083
-1.17917126641754
-3.8398492824658
-7.73559122513752
-12.1478201317747
-15.9445010017033
-18.3756689628787
-19.1912762249628
-18.444056576795
-16.4749530766446
-13.8495383850308
-11.1361814546689
-8.84586237507799
-7.42211904502081
-6.98047935458983
-7.13689334925651
-7.20540247136246
-6.33320134448147
-3.52012330856056
1.80611028145651
8.81929169273551
15.2072347791361
18.516611951045
17.916213309835
14.8514411761694
11.7487769922689
9.63197468260275
7.17500460095466
2.5416690916098
-4.26748995374935
-11.5745429223738
-17.9604764457633
-23.036272986668
-26.6615736067924
-28.5382127543561
-28.6501266319084
-27.3827956456311
-25.0920667158962
-21.8849793763815
-17.7425683195881
-12.6718470967902
-6.91170148163388
-0.972400848287351
4.91778030215576
11.2772173481679
18.5814921074662
25.9334249062335
31.2177469991197
32.8587154558433
31.084664454111
27.4151978866181
23.2443127130216
18.9889726822558
14.340793140641
9.00960565439986
2.97307890008187
-3.83845653110089
-11.5151522532896
-19.5791019215556
-26.8028686451867
-31.8689990642309
-34.0957104202391
-33.6560130388418
-31.3961669410126
-28.2482575326021
-24.4554882436875
-19.4924766356939
-12.8721959867258
-4.70179649516043
4.60682291584693
14.5622423389225
24.1442623760519
31.4978282319986
34.6623458128743
32.9971051585846
28.027264752303
22.6297723125495
18.9326395485774
16.8813574140111
14.9503222487384
12.0561916099931
8.52501121840179
5.46691208865504
3.6781174332945
3.11056798644232
3.10337842596673
3.14639523103373
3.45571152846721
4.53492484430474
6.20288049783652
7.55168771973918
7.9080616921598
7.3081512731231
5.98784686275462
3.93195154294397
0.997976971303333
-2.8701189239499
-7.50543796810668
-12.351024565085
-16.5839431312216
-19.5977934352977
-21.2645160366342
-21.8008600405785
-21.6421559589613
-21.2665794892261
-20.7123975320824
-19.3397222271399
-16.4745872756622
-12.4036908243071
-8.59241077020232
-6.7208304339455
-7.23438441353374
-8.81770150085354
-9.63949747368484
-9.18488481945409
-8.4908596085824
-8.62676695805362
-9.52681082904616
-10.3543856114906
-10.3308905232926
-8.99194640824417
-6.2268044467601
-2.39296042284108
1.98415687524134
6.81972201669159
12.414121719808
18.5781035623489
24.0514386805376
27.0521569069598
26.5878837574388
23.4266553149705
19.7181218908189
17.3777326073916
16.7739306296652
16.9603766209672
16.7936336722779
15.6184734347208
13.3748478136509
10.5459104515374
7.85932326129625
5.7843361817968
4.3441041775788
3.30722925708378
2.36371511968843
1.31150695075983
0.324363933702328
-0.171709416443751
-0.0572414219889509
0.318108706889635
0.617593132738949
0.825920112074159
1.02629993821145
1.2028912656093
1.31626817050835
1.35921022253296
1.34340927067006
1.31233460441163
1.24937190232533
0.937732496910357
0.0696757888005726
-1.52377562198487
-3.93397509326743
-7.37715688383842
-12.0792937519443
-17.9897646714331
-24.7323245522974
-31.6312599759525
-37.6202477188345
-41.4439305116438
-42.2815048800883
-40.1485320305832
-35.7626379163388
-30.2311538063783
-24.6063371055403
-19.1953630243589
-13.2754664047924
-5.85012873553542
3.17104505238561
12.5062660084905
20.1277340382873
24.588424868196
26.1231368846559
26.4087786882189
27.0523009714821
28.4343454628907
29.9161450051848
30.5516107969487
29.4951995551342
26.4744023610746
22.2362393291943
18.0943211451292
14.8748972777325
12.5761552725365
10.8259537595443
9.16904612108203
7.12552645636194
4.56048993339812
1.98784870874245
0.140963232586717
-0.763819558764651
-1.17722697553289
-1.75335601865332
-2.90099169134426
-4.70747434901149
-7.12307542048863
-10.0429124814278
-13.0539541395609
-15.2877682589453
-16.0173367924303
-15.4838086699441
-14.7177048756998
-14.4846888247636
-14.7630509372758
-15.1333925291797
-15.1724616924711
-14.5186362937972
-13.0087002558445
-10.7730310016275
-7.98888086246983
-4.66435392551386
-0.784307374811827
3.5174121281357
7.97763427247299
12.2104976550803
15.7251340780643
18.1062780450121
19.1789540307214
19.044047001369
18.0582862118785
16.5321521020538
14.1747917297414
10.1899359479909
4.34681411075616
-2.33887660283998
-8.36301291964403
-12.882267013837
-15.8673981762974
-17.5392340304066
-18.0158931945071
-17.2729686391859
-15.1866194647241
-11.7078901410522
-7.03270848098136
-1.52057727122275
4.37120051106026
9.89548733778553
14.0949007720647
16.4662578853246
17.3894325379914
17.6762215806152
17.898761092103
18.2336259421937
18.5929639692587
18.7068924100278
18.2318361408585
16.8347849813611
14.2213615518821
10.360768597641
5.71447902734001
0.880934017492547
-4.03724612442699
-9.41067642208172
-15.5148272925472
-22.259562806122
-29.1979589172125
-35.4133500772974
-39.7072563150533
-41.3489857319929
-40.510530829513
-37.8151387183665
-33.7243636746539
-28.4118112238175
-21.8687066349418
-14.0135949639785
-4.94181660303145
4.74098197503591
13.7285441086789
20.2213232040474
22.8275959151332
21.7504783406906
18.8869074754631
16.3176209640987
14.7922581352724
13.8595102262133
12.9895361727059
12.0713880008931
11.1696391172328
10.359672007491
9.7132741946843
9.22301142630394
8.90408503619963
8.94184489734027
9.4028054575852
9.90584744018431
9.9574914843956
9.44673648756292
8.49424020695966
7.12319407723244
5.43215321194737
3.79823169923533
2.6105174842214
2.00258519649897
1.92770087397621
2.24013479188296
2.6952914102302
3.06718805861015
3.1934524079364
2.87139121649636
2.00920352328608
0.924828537802582
0.12392194510342
-0.276256896808793
-0.616840865968291
-1.26767259307154
-2.39584048356759
-3.98675288984153
-5.78369494384995
-7.32944512904919
-8.32651876214305
-8.9236677117626
-9.55234413100793
-10.5334329435347
-11.8206069328342
-13.0154393873079
-13.7009461283127
-13.8696625072795
-13.8658256892194
-13.7818547717451
-13.1738112098943
-11.6006400684183
-9.28734773142349
-7.12198376818855
-6.0439678561703
-6.27778372291485
-6.99317930056741
-6.96495222822972
-5.76896668310348
-4.04647249892579
-2.50697709723558
-1.12068230455828
0.628895679550254
3.2165244263746
6.84663771887519
11.1831476408153
15.2183972563316
17.866775400955
18.779742102629
18.4108211630531
17.4819511466956
16.5595478473085
15.8595266480102
15.2411712136228
14.4733819834612
13.4416724162644
12.0220705846297
10.0860985647673
7.86433645350845
5.96626498792005
4.77262102074453
4.06850997917213
3.40421080018569
2.45911605005766
0.933826395399063
-1.45764768249546
-4.59498084120472
-7.78859249407471
-10.2371534349102
-11.6664358313522
-12.5959405517257
-13.94596212664
-16.1032803733604
-18.3462548105084
-19.4981300171357
-19.1445284616719
-17.9315416444685
-16.7799343398746
-16.0858650990984
-15.4995610472314
-14.2104749921154
-11.651409487871
-8.14029988392991
-4.687320754732
-2.13735027059548
-0.61232531469374
0.465609013420238
2.07449020055034
4.92548913924015
8.63733729240823
11.83545785506
13.4419909301856
13.6761964279776
13.5918172932014
13.9009441826914
14.4681546090407
14.7916621200331
14.7311021813648
14.616300666322
14.6497770216318
14.4667321248003
13.5254647532
11.7619639593769
9.5953811751406
7.47331111908733
5.72409129372095
4.64196315871334
4.2812373750913
4.23739565098112
3.95626138324042
3.18802846005604
1.9606545480927
0.316529311630523
-1.72654032952585
-4.09730364296276
-6.59240758908016
-8.73118590610478
-9.85927013512846
-9.71046687121802
-8.78573418047085
-7.9975435169513
-8.06543788598515
-9.22747338888992
-11.1351743937946
-12.9328406809074
-13.8176392258613
-13.6544486326257
-12.8460483503828
-11.6750805933757
-10.0206713988338
-7.6873661922817
-4.9148797923465
-2.57210045180924
-1.61430619286255
-2.09021006008131
-2.97833295718226
-3.34935634783703
-3.31047224164055
-3.35061022431297
-3.1789195473195
-1.90638123028423
0.702343644327349
3.68741108054728
5.70748047457488
6.16935323870381
5.52149378021182
4.59211488385169
3.80727367955414
3.19367257079807
2.99356785158772
3.77756530310614
5.75966022087928
8.38884463608281
10.8134083466554
12.4374420188468
12.9830409085477
12.461631975539
11.2696302108379
10.0626376333917
9.37204899752843
9.23765784273989
9.00149671149511
7.57474803597397
4.34440221062645
-0.151328404433
-4.74398509857946
-8.68508025247198
-11.8781675348947
-14.3872531969932
-16.163732728168
-17.0418621572587
-16.6709321559761
-14.6848282280817
-11.1812954890571
-6.80554224156325
-2.21194007760881
2.32074933085534
6.63622474854183
10.3242950541681
12.8253506247098
13.8809092093445
13.7529294362258
12.9177654731596
11.5602557152754
9.48583353466593
6.57830134491983
3.16218547784983
-0.221529242585994
-3.16763483476868
-5.34354938328122
-6.39424904104579
-6.25124349097622
-5.33803988943568
-4.18708362414023
-2.94355252201508
-1.33479465248995
0.944512945192885
3.70736127738835
6.0361860495866
6.85029380756934
5.89214288842596
3.8774054524671
1.58735897580357
-0.833515534541607
-3.67152095698746
-7.18744177206775
-11.4224296172188
-16.0858938311528
-20.5476401784828
-24.0658251252028
-25.9593192818746
-25.6446698521585
-22.905440801855
-18.2204618893282
-12.5133408681425
-6.49020679477463
-0.380008894223517
5.74393333069923
11.5505667193051
16.3211469844119
19.2608577716255
20.1503295677739
19.6787832050875
18.8873170272591
18.2802480100437
17.6647839148674
16.6947417993673
15.2101336020672
13.121840219146
10.3261018677663
6.80692763901419
2.7687124735751
-1.23604655421579
-4.42694579671998
-6.37623826877577
-7.4167040122796
-8.19347767372232
-8.97849638740103
-9.67402479256408
-10.1443893245283
-10.1783897218146
-9.42866078465335
-7.73781010753551
-5.35219833824862
-2.69255023670174
-0.110929232120587
2.19988913413505
4.35966060886975
6.72186613622423
9.26613973527132
11.1493419735171
11.1922066228378
8.90092562445759
5.02594967635523
1.18553339614262
-1.2031669885336
-1.86445708746957
-1.59486869507603
-1.32824512758042
-1.46293459360362
-1.98461726585895
-2.7479539085517
-3.41054323517374
-3.39633446796375
-2.26106017814637
-0.130744551096029
2.29776003345355
4.25713936270997
5.49107364813819
6.31465902418116
7.02923181823567
7.46436834132477
7.3099380248148
6.59824133745079
5.43870969690266
3.53973483829684
0.50332348767048
-3.55787368011257
-8.0897510556697
-12.6024224684178
-16.810937654584
-20.4861879671341
-23.4169541533499
-25.4258829188041
-26.4118075106041
-26.4704714143689
-25.7585670483201
-24.0620034755394
-20.7858845487457
-15.5222420191686
-8.33616493349297
0.421186484565732
10.0232652714719
19.1281602497687
26.2377962905462
30.5042157851949
31.8509210148207
30.6214845558759
27.5391709971373
23.7129583063022
20.1741665492019
17.3878267759038
15.2446212474132
13.255588771571
10.7595074340248
7.38730998502794
3.481441086993
-0.205208856674414
-3.21695334695985
-5.56457944484767
-7.38860042196323
-8.83559804296003
-10.1334975379974
-11.4371803613036
-12.6080387098704
-13.2521386938017
-12.9281024520496
-11.4198659523327
-8.97657709060045
-6.15962231600844
-3.3418193459822
-0.571591989153529
2.04535326926148
4.20848205877751
5.76469073137137
6.88526584010357
7.84912487668101
8.7683701175347
9.30844944403406
8.57199868857168
5.73277972214152
1.07686251536004
-3.96656044474855
-8.05976121005549
-10.9289120755624
-13.0550598651351
-14.7542328481845
-15.6736491489984
-15.0349338131773
-12.3810655630398
-8.16042947581257
-3.5045155798034
0.59388481203953
3.83990759097128
6.53780468910596
9.12049559216366
11.5986086566358
13.2265374234638
12.908698512365
10.2438642006674
6.06493847968259
1.82329500272344
-1.32199219039604
-2.80951395027278
-2.64708725764951
-1.44701909310098
-0.246032772640263
0.0310938565570032
-0.901023383554216
-2.4954503232267
-3.71896319474782
-3.89267046218133
-3.23239475191321
-2.35672032383778
-1.4783860811754
-0.459348442553351
0.605243973422535
1.38521701361872
1.84047887458146
2.45018233666099
3.86026139956042
6.12733384529761
8.15859875170241
8.38392271709148
6.42995711604411
3.63069466706838
1.44283395108206
0.0144683725897818
-1.19929256285545
-2.24543045923
-2.86179088741393
-3.25572331593403
-3.91415769663955
-4.89360092314647
-5.75532236445694
-5.97950296820769
-5.22794865420898
-3.53857666397299
-1.48937224323607
0.0271971100003846
0.292306130970913
-0.944901228668782
-3.3424766407305
-5.98853056324373
-7.8936029698628
-8.62204195753502
-8.21910885208105
-6.67818421292451
-3.97731464279267
-0.596114142991117
2.45485485837589
4.20151790278737
4.24408114322722
2.98720909793719
1.44029094812514
0.496375727136325
0.309475782539778
0.50190946722234
0.758006918376994
0.987197728119096
1.28843539474095
2.11294999387868
4.10543800421277
7.39915370947872
11.2484587716242
14.5205205145036
16.404454279096
16.7169314915604
15.8229135085524
14.2828318587688
12.4259474970214
10.2952361696054
7.969646504015
5.65677465599787
3.3936777816637
0.939474880543666
-1.92112474339817
-5.11536822772287
-8.23490865978671
-10.5433499215173
-11.2476928473903
-10.1196248409484
-7.79959252897588
-5.35905796016542
-3.67823429129189
-3.16917428961845
-3.77653112148423
-5.24733259413414
-7.56937858223127
-10.9201733317461
-14.9826896574527
-18.6578720198299
-20.7529751948952
-20.8084485065955
-19.2985110546077
-17.3203947263646
-15.8362677355347
-14.6892888032871
-12.564014322852
-8.43910462353117
-2.90043217921852
2.3735108322926
6.16067533297379
8.42972245091043
9.95836430917587
11.7340174845519
14.5455216407112
18.5703627695646
22.9983803712385
26.1732838575601
26.5727689672977
24.0355431004318
19.9512242691466
16.0050886653741
12.8701711408717
10.3721207147123
8.5724244738975
7.98480397443928
8.66974417129273
9.67610379497174
9.62189827554727
7.66759734710502
3.96450271767996
-0.666225319714678
-5.50270980073505
-10.3610642917692
-15.224345477791
-19.7199739464591
-23.2483183256242
-25.3660747400563
-25.8000888873354
-24.4882788386503
-21.9159676353802
-18.9683523151501
-16.0733953890047
-12.8028590676771
-8.59168636435756
-3.64194840329982
0.999610097660858
4.15175324695153
5.40994641366632
5.52226571796143
5.71507704424917
6.55174497978862
7.59652734115296
8.10116264819469
7.73656772449284
6.78127899622477
5.97292171860334
6.16626373791176
7.82262833305327
10.6454440262888
13.6440076748856
15.5679578613098
15.5387249773739
13.5222486692736
10.1116491395708
5.81508095466043
0.927564420847917
-3.82407397188298
-7.22032612308375
-8.61344953067564
-8.60665884285227
-8.30640001187256
-8.26145793763527
-8.27663807913261
-7.78142459294848
-6.25552451898959
-3.74866843784415
-1.10507533380932
0.603679836476776
0.894374172102252
0.0848869993912717
-1.03673566789923
-1.65679960330671
-1.35103531814963
-0.212867845483874
1.46077680540723
3.42195022979599
5.33799786285908
6.78120263676111
7.53749589599492
7.66051428795418
7.23472938634813
6.39792429093631
5.42119011124231
4.37681457867257
2.95341323554619
0.959594978874851
-1.27670700512253
-3.32385609539484
-5.13032770354766
-6.84105875914958
-8.51871987197239
-10.2794328423699
-12.2711966317891
-14.2360908044206
-15.4283453622242
-15.1602128500477
-13.2065722702797
-9.76519047093093
-5.4436272271418
-1.23495751204718
1.93005717740331
3.70792595061063
4.33235752211802
4.24340393696542
3.84004463551595
3.42509518823197
3.25954982282422
3.62497861760554
4.6801124544542
6.253221958965
8.01132041274114
9.79604949983331
11.4930809906897
12.6631442012981
12.6521647245214
11.0103342305259
7.64291462012253
2.83406011256759
-2.67310813576249
-7.9304798913538
-12.2945995581018
-15.5019054913271
-17.3824769362366
-17.8858117280559
-17.2517224872257
-15.7532048900506
-13.3791165934907
-10.0842646127743
-6.19415100135992
-2.24209536476657
1.50944400149171
5.15767294088324
8.83748567761172
12.4708391524511
15.8038677647437
18.5817697676514
20.6001082445467
21.5650973000413
21.1504544493507
19.495748725491
17.4290430637432
15.7344237312743
14.3540785688933
12.7657757898128
10.9183740883546
9.27404136615937
8.10728613300362
7.20819495306783
6.12446635605805
4.42616141216419
1.97710743973718
-0.849993731498122
-3.46301166630956
-5.66439790812076
-7.81069021647702
-10.4001526911962
-13.6163568578841
-17.1130659826093
-20.1693003737151
-22.2377589186623
-23.2984423941908
-23.5646093411214
-23.2333382760027
-22.8097732741975
-23.0926551850903
-24.2825442374135
-25.5009842717378
-25.6091728898346
-24.0816752519084
-20.8133254068547
-15.7420617036357
-9.17246456392472
-2.0120394237946
4.68959034121906
10.0747663675602
13.3310167757907
13.9693889594612
12.5992236894219
10.9482082539739
10.766468126154
12.7275430661044
16.1877031430608
19.7137254870777
21.9399583338201
22.2127431069011
20.6886109100973
18.1619473940462
15.8685793432449
14.9469920341512
15.6265008302929
17.0056327786772
17.7012306537961
16.6076211933026
13.3148780613759
8.32273495085284
2.81734386752595
-2.11931408139004
-6.03927396914794
-8.83966639902626
-10.4270029690292
-10.9564116287426
-11.0083128565572
-11.1746406486623
-11.5870994896369
-11.9398047288566
-11.8635185905077
-11.2849564591242
-10.4765177098068
-9.68978023821723
-8.79035874389546
-7.44695792812367
-5.62776264536999
-3.66058009923018
-1.8410499603843
-0.185472090785551
1.55228689476141
3.75678822086267
6.49874195001884
8.98114065893388
9.90714970822456
8.78473305357359
6.56455599450265
4.771588622033
4.28036029735361
4.91797878723355
5.78782406356233
5.87644955759523
4.68870208172744
2.45937245530828
-0.201321511980068
-2.68296695103857
-4.50991818319808
-5.57074249101082
-6.31351482423702
-7.38576031227267
-9.02148741194274
-10.951936601375
-12.7860144937488
-14.2886503951448
-15.4269023690712
-16.241907225327
-16.538755593666
-15.7601814974782
-13.4120097627479
-9.62674411916171
-5.20276083835015
-1.11274816859919
2.10581141108628
4.68482598783284
7.30322906405754
10.2116184567799
12.777661341182
14.1515177957522
14.2421881726179
13.7678463076783
13.5334375104164
13.910143168907
14.6972916148443
15.1472137583751
14.4447694629749
12.5089940507106
10.1061882879894
8.07400055995705
6.76067984591519
6.16991761378064
6.14925255944553
6.3899316035976
6.60801650390149
6.71668035823801
6.6515390945484
6.25351675566046
5.50070659253266
4.60546789102706
3.75962873723701
2.95214556106533
1.95712332339613
0.299865578828007
-2.56743863616888
-6.81956490998618
-12.1450435482504
-18.1277035110917
-24.4388068733439
-30.61361882269
-35.9632622971349
-39.7875968946924
-41.5406028889714
-40.9226436079947
-38.0335585349002
-33.3455159072137
-27.3473517112786
-20.2178815990781
-11.8343534154429
-2.06444604344688
8.7167938278406
19.1683118957899
27.3670386327914
32.1454576454876
33.9505009272903
34.0674183057969
33.2145489368841
31.2046958650005
27.7116061742913
22.984304738073
17.8525338575879
13.1702088452565
9.2671061604233
6.01694137869726
3.36589261346643
1.46799842827539
0.322352097801399
-0.286924713177072
-0.484368727348498
-0.343200329400863
-0.101518675439802
0.132963168312149
0.720345705645769
2.07237364141431
4.06613980617623
6.15353205944303
7.7484743740635
8.30324510699817
7.40158264154789
5.01761969498357
1.46849551708308
-2.88203977151089
-7.63838904649598
-12.246118488301
-16.1858983893211
-19.2645826873213
-21.6100322999079
-23.5712750074406
-25.605350509048
-27.6838317516542
-28.4863475139922
-25.8070242350713
-18.6009083106652
-8.67785460909587
0.188607733942841
5.26054625695228
7.00879624982132
8.16011855489
10.5840834429209
13.478293263215
14.7819827271268
13.7399507793386
11.4593236855884
9.42202982548247
8.24137508908179
7.66527690005961
7.10536471028026
6.1415829947546
4.85856572252947
3.75525042758254
3.38266661752864
4.15730244606564
6.17840557116418
8.86414710768553
11.1009194167503
12.1742635446703
12.3293595448716
12.2031445594257
12.0392092834179
11.609551100479
10.5423704128743
8.57224455083196
5.69377393262328
2.10171363666261
-2.14616194403677
-7.24877668307536
-13.2088503983225
-19.3554854402833
-24.551262960737
-27.947069641494
-29.5792488622684
-30.2706621005686
-30.7529500133175
-30.6803368586748
-28.7213782545458
-23.8997495784156
-16.6908905332146
-8.67872719498168
-1.41539184400108
4.37244782883282
8.94632651665444
13.0696028986373
17.0147506756097
20.074779591056
21.3411635656836
20.7535743937661
19.0827127916067
17.1707926880971
15.4462638320413
13.8504605398156
12.0191224283988
9.75083946451269
7.28058090777335
4.89740152603146
2.56147610333236
0.203597745532456
-1.90571612588383
-3.39739119564012
-4.17724824641147
-4.39788643279353
-4.27658989845855
-3.9624939831699
-3.3694909941646
-2.19802960884118
-0.302926427712033
2.05963020759308
4.45622671950049
6.57977913287212
8.26112881901717
9.37956580635291
9.81108993664866
9.34558072987638
7.84097858621161
5.71154088532663
3.93935505213381
3.13070929093381
2.74623994377095
1.6584940697258
-0.66925466461825
-3.77846382287556
-6.75898270054161
-9.00762501886295
-10.5804608059941
-11.8619232945895
-12.9355868876956
-13.547089578323
-13.6801861514302
-13.6855277820778
-13.7044394662576
-13.418110433469
-12.4955369550035
-10.9174322232471
-8.82586434459958
-6.37331431301197
-3.72132491118725
-1.06629869702333
1.22951892864157
2.7155360669566
3.51509876817426
4.67313071099876
7.08510096488921
10.106047308396
11.9351755294389
11.4453858133563
9.12330556848293
6.33035515019832
4.23330995380999
3.3159072337894
3.20136982917059
2.80710061158415
1.14806585605335
-1.78185012313592
-4.98150014345622
-7.24403189619455
-8.02953579715818
-7.76311515791001
-7.31968347021006
-7.15063640610722
-6.95571419080343
-6.06607558908377
-3.85266830508526
0.0451979482645217
5.32601650169647
10.7772905646542
14.7860368525653
16.2597701363057
15.13497946736
12.2932109450765
9.05009604820809
6.39667963355348
4.59737880889841
3.55595954214906
3.25400821481237
3.59668470001372
4.27264399489165
5.14298774059012
6.38172965576576
7.8968640676252
8.97367511029199
8.81182816873295
7.24359452180855
4.83327341497948
2.42972860329511
0.584475385088891
-0.772603457274413
-2.1069227506562
-3.77746578489527
-5.90161975490158
-8.54595799485117
-11.6334712479476
-14.6985181777573
-17.1882080417579
-19.0279905268646
-20.5034266779719
-21.6576445771928
-22.1990766614957
-21.8749953709171
-20.5859785371223
-18.3186215905456
-15.2702997402102
-11.8802763266423
-8.55445261553076
-5.4316601297481
-2.33537363161327
1.17906548984665
5.50069581787846
10.4904510757658
15.4925998424917
19.7696279729805
22.6266702899799
23.3650254006542
21.7472063174996
18.4810702039506
14.7781877082757
11.4776001746713
8.82191205555312
6.77370657404377
5.22292605026415
4.08682639985252
3.39462540750622
3.16919779777153
3.26829942255264
3.45002960870544
3.42406559437188
2.80434131168984
1.38917871991435
-0.405779195542745
-1.8402506374392
-2.73951603970407
-3.66920216880129
-5.08720694103708
-6.76121277281301
-8.16061572340138
-9.02410042321466
-9.4124738759623
-9.44929513484994
-9.03086434639992
-7.74129685127655
-5.27611954521424
-1.97080916615421
1.38387668263849
4.15548822541917
5.98054875993392
6.59661723683277
6.11285451326259
5.20064196997569
4.51444572200753
4.1143301813257
3.74239205101864
3.32552009987481
2.92828076772192
2.49342482495675
1.81677286358987
0.665140217703333
-0.987884017128572
-2.73728630039643
-4.0272942950557
-4.77290092048908
-5.39769880788756
-6.24566939412263
-7.31815430038857
-8.49240758668659
-9.52444492333986
-9.87842908739425
-9.01587576698388
-6.9739979017895
-4.49177997896815
-2.53182651412813
-1.60021513932739
-1.32478349787285
-0.795366285666726
0.390331797819492
1.5886968610749
1.9374933658344
1.39214596628476
0.543754595235758
-0.0841787148707998
-0.001969822420438
1.38262900863274
4.02835768855967
6.6469372420956
7.54641710359687
6.1827154505165
3.67386228090613
1.82666811704915
1.67820268522312
2.84603612680602
4.1960950209527
4.97274429800351
5.11883027023467
4.82408572642951
4.31143676385599
3.98078439422989
4.23812375242495
5.08473085368506
6.07396714030063
6.63683273091392
6.45485234738179
5.72859994723984
5.02377669281747
4.62901434604356
4.2281274936987
3.37049735664747
1.88279555642888
-0.427551668256957
-3.94015755966885
-8.58609615164677
-13.3361187597479
-16.7667917794048
-18.0577669829366
-17.3154800497317
-15.1902583344315
-12.3359550250945
-9.03594322244177
-5.2615014867153
-1.14661802538362
2.80169671058814
6.13250480072066
8.81507803849839
10.9730477604265
12.5108139216373
13.155587701504
12.6802750666214
11.0782904054276
8.68561017392842
6.00625500706777
3.27986145796742
0.461539317606843
-2.26553859391935
-4.30185238150959
-5.12128021120199
-4.758973637912
-3.84941694457654
-3.34621966640415
-3.95273763838313
-5.53612030028542
-7.27523382751575
-8.51828263683784
-9.28422022479253
-9.97186974209233
-10.9034455117726
-12.042523039839
-12.8139985281321
-12.3734491560208
-10.4101740050495
-7.51284678698658
-4.45747513974209
-1.37500444388007
2.0919658098682
6.07044103026071
10.18327668331
13.768322870555
16.1659703008263
17.0434349938594
16.6544574234311
15.6548815204927
14.5236319927565
13.0911064338444
10.566273468488
6.2581446311268
0.642890898550552
-4.47324503661695
-7.36861546493308
-7.9051025353035
-7.24134826547528
-6.33521328544505
-5.2357170397087
-3.61026453905276
-1.42853471417517
0.839191723214044
2.46622433629244
3.03389001987847
2.85913633521237
2.73888636954362
3.27197452453612
4.4384822594708
5.59482776608713
5.83812997060181
4.74294932969667
2.85097106757395
1.16737042655431
0.203828398064559
-0.239708181562132
-0.550024030683722
-0.91443366355548
-1.30251273487177
-1.54299918118782
-1.57917217733596
-1.82590734150149
-2.99906805701425
-5.39352369841636
-8.56015437036639
-11.6980445353209
-13.97407241423
-14.5776375168929
-13.1676637077463
-10.4428459248433
-7.78658733381869
-6.19776973757789
-5.76849538892481
-5.96587301202423
-5.96961251828871
-4.87003478805699
-2.08623750469352
2.1212533834769
6.60469967172013
9.9753891342484
11.4988459070903
11.4135293209429
10.3644892093125
8.75050293489592
6.8070886582278
4.95725266984462
3.62110904281846
2.86487621534791
2.58395781696638
2.82332022826708
3.64039832360255
4.84647770993792
6.05685805018375
6.87447213451339
7.08100545857623
6.84608988521021
6.60946154522132
6.55015253730001
6.36325369890955
5.7289072633585
4.72184538392438
3.58042809057111
2.41159015407812
1.33121560559743
0.541565292966866
0.0294004791745491
-0.565701085454506
-1.65956016907676
-3.43997365035208
-5.72378180325607
-7.862309275542
-9.05186897723767
-9.06428410651366
-8.50849538478535
-8.22981350746617
-8.66963175253808
-9.7912908610464
-11.2565294135024
-12.6033381350471
-13.452788558871
-13.5200782805431
-12.474926780047
-10.1924016956875
-7.23133984822604
-4.6468156982343
-3.20933197057032
-3.03040554306021
-3.73831394145902
-4.62988543102843
-4.89126776296932
-4.07385053312401
-2.20566454812763
0.663486713624347
4.58389467882205
9.16682344503555
13.34800410433
16.0105462978815
16.7435217296814
15.9682401624187
14.4839334039662
12.8562471668762
11.09210331151
8.93429267246558
6.47514268255367
4.2837196594724
2.91789652874145
2.54628608268313
2.98058353872901
3.75970437501401
4.28331265597663
4.20631474944603
3.71996145332641
3.34603171931081
3.53497384637074
4.33137130298145
5.14149246735957
5.04590274406511
3.76708476032541
2.11738679688311
1.09166439032544
0.785423838367788
0.552931819241517
-0.12218715780175
-1.27577929263452
-2.68646457803782
-4.15775112149681
-5.69945664625643
-7.45475538554801
-9.3407740855255
-10.9073301553871
-11.6578649328767
-11.3462392808534
-10.0383571926296
-8.20681281899502
-6.6222002811664
-5.70431349079448
-5.0358097851468
-3.85860166965919
-1.957893658515
0.194705028523864
1.98628107486149
3.07751909431367
3.42370009393247
3.08925942900681
1.97676266161307
-0.19257556124167
-3.38287392390145
-6.87420227066571
-9.74532695143331
-11.6075874854896
-12.6229934968296
-13.0574116539502
-12.9922020658556
-12.1160785650227
-9.73751391070615
-5.49831963972718
-0.11567050822995
5.06472507393708
9.18461082635778
12.0967080542426
13.7391868594236
13.9346463375209
12.7953220203002
10.9189592497175
9.10078259796187
7.8563647561909
7.10057438378101
6.38318960205528
5.55665188961529
4.95086199744947
4.75637830450444
4.63025624923992
4.13311644579777
3.2494333975476
2.33838726835372
1.8083456830524
1.87346074177155
2.44925578127557
3.29391090843177
4.25578091603639
5.18642261542981
5.68311399992209
5.36604817005865
4.49391252352148
3.84649961923701
3.82746899771039
4.01076660715152
3.64399150490417
2.35210229060677
0.434503023756821
-1.30019387927531
-2.19044737003326
-2.43270141695015
-2.95755154815846
-4.5453650467484
-7.26928419699933
-10.6158516453635
-13.7385069380436
-15.7651652266445
-16.2841020851903
-15.4718943923657
-13.6860149789261
-11.3104027929577
-8.98471868343468
-7.30675109838129
-6.1002815939056
-4.51400638210877
-2.04543755079449
0.844076093849002
3.14099865445928
4.11481526804
3.91596746057117
3.52389842495734
3.94902653312988
5.41788002658886
7.39391893930865
9.13887106430126
10.0163330673314
9.60195657775087
7.97859689373441
5.84884620590832
4.07379797571124
3.11057445144407
2.86596240199066
2.81410004436519
2.27742517244447
0.972481898920759
-0.710928308186829
-2.25651360404887
-3.66388253370177
-5.20937074905194
-6.85031826204906
-8.24698126819938
-9.10424558883826
-9.19440040144617
-8.34269126148163
-6.65828204514604
-4.60086429920777
-2.72562249624222
-1.44280963705741
-0.856069920132544
-0.654387520232201
-0.311638174874646
0.548983280478735
2.11867678641082
4.47312658938872
7.28848334598821
9.75271204762335
11.2209279989365
11.7690392863134
11.8270452453352
11.5948756064703
11.0369791755847
10.0735609777122
8.58313544631262
6.51196022119932
4.07807442464437
1.6761146304397
-0.387098015557286
-1.97296850171321
-3.16200344105418
-4.36288723649297
-6.0475791242661
-8.14820420973725
-9.95476579786071
-10.7506949370232
-10.3552964081623
-9.10130674495693
-7.58850527100858
-6.33536485954483
-5.32010831965628
-3.98379024916699
-1.9407349367937
0.484969553120684
2.56217584250907
3.75950674696396
4.02351557539256
3.71150143720724
3.21861677667317
2.51885458679153
1.26065764958299
-0.621837151861098
-2.75851846964238
-4.81635193968826
-6.62579509702592
-7.84637042040026
-8.08274769376617
-7.3835069041263
-6.18790077683884
-4.81759329622059
-3.3275665443401
-1.69189503978449
0.123437485472842
2.12356770813445
4.20664766894151
6.24258176279569
8.14195425262899
9.67962803338443
10.4705389478763
10.3612681712462
9.58827472269806
8.30750863141727
6.33653904209708
3.74033882364039
1.3397471396509
0.134142659939195
0.285138098848666
0.966572376335438
1.22595026721145
0.886860247800363
0.559274256166422
0.765846442520494
1.30283649254957
1.75507735249514
2.34097187209373
3.64124347187575
5.5906366257322
7.32968031524885
8.06141991894088
7.67003938689245
6.63861300142639
5.71095398530364
5.43109995882965
5.66297230725147
5.61126441501311
4.36966099590125
1.38049393133594
-3.34714567980315
-9.09344452858326
-14.7145001828057
-19.4362522089832
-23.2390339937066
-26.3600676564459
-28.7593465384293
-30.1920710342601
-30.4178602800075
-29.1648238292144
-26.1990247953892
-21.6300139743855
-15.9444459433585
-9.49921015517164
-2.05902899457446
6.77048998847419
16.2751688454471
23.9905460475277
27.1476846318702
25.2778596606973
20.9346794684541
17.3293609283941
15.6145927854792
14.8182980966466
13.721034968715
12.0447015245358
10.1945125818571
8.58993409008129
7.32143289027599
6.23490937817345
5.26597534802181
4.50995599193778
3.89337103663391
3.13190979674477
2.16938783195157
1.25454733399641
0.464132093991128
-0.390364881784045
-1.29528235124419
-1.92464692315502
-2.05922530708063
-1.80670877246743
-1.46880532966961
-1.37181555915121
-1.63516020321684
-2.02493821021702
-2.2834946731746
-2.52668900478631
-2.98040022326605
-3.50592469962568
-3.80323109388195
-3.89527033692817
-4.00835797383444
-4.19626439204436
-4.47342946927727
-5.04372566944913
-5.93991397720154
-6.63884086171824
-6.47641333299774
-5.40023444204875
-4.09376850605744
-3.39048370954864
-3.56867683566781
-4.11063795973985
-4.20447786213575
-3.5172989324287
-2.34837816439921
-1.16609583926286
-0.329940608395282
-0.0720762252551595
-0.266647768093315
-0.346978801464415
0.13964395063922
1.06156203585471
2.03096808547119
2.86079639403595
3.49339676296173
3.89862315869176
4.21632986619748
4.61810721334934
4.96612755506015
4.93667154593187
4.44575692393412
3.75067196805448
3.29408059990253
3.50462638969301
4.4102343064031
5.40563672030704
5.7734662241263
5.44844892658451
4.95728596526825
4.70548473739758
4.64597069227784
4.50266766153657
4.00153246520458
3.04247324751768
1.91558573997406
1.16022215342309
1.00895719509861
1.18438891223862
1.32873599741005
1.33732407819506
1.22136897548774
0.929798611223318
0.326355012126141
-0.81441060015483
-2.66647194791378
-5.09331685361078
-7.67892520344151
-10.0081314988851
-11.7647443736456
-12.7872465938086
-13.3491917390483
-14.1420266477697
-15.6108919850953
-17.4295791684507
-18.7697902631074
-18.8788628338931
-17.4244929144423
-14.626120326897
-11.0202173988734
-6.83321218948915
-1.79510647067003
4.13316229428024
10.1535998351138
15.1156464288859
18.4165261138979
20.2150157263471
20.9830813424887
21.0413453068184
20.4096224552608
18.999691541467
16.9397334283551
14.5948978924756
12.2292240649123
9.87125052231708
7.60806374036957
5.72769356586561
4.42272699675307
3.60305704113815
3.08331095298529
2.70488289291921
2.26609246492012
1.56724750648047
0.490612046378401
-1.07041426831123
-3.1887500914521
-5.77722989430361
-8.73774809120667
-12.1618067877106
-16.0177793869881
-19.7058349870618
-22.2704874869019
-23.0429823287802
-21.9806015171383
-19.5942015970027
-16.6137639041914
-13.4921996516168
-10.2366584643106
-6.7649792853043
-3.00202147893772
1.50023895150167
7.21705179143595
13.4069957524809
17.9371383697768
19.0521637057906
17.0097729338939
13.6587613497099
10.7790182139674
8.99212552843387
7.8236656823812
6.504397642725
4.80244156258493
3.11579660353689
1.80232788199516
0.749225736952663
-0.264527347848043
-1.16730910056498
-1.76020466476266
-1.9395365865109
-1.62870721107532
-0.843864278902805
0.11191178164974
0.842129270104136
1.22440797369301
1.34633620208848
1.22419431066765
0.811900455350921
0.151091430313487
-0.596648279708155
-1.16563861736197
-1.33431748014188
-1.2048346267772
-1.1223699091571
-1.212459863573
-1.34005965012107
-1.55125766178744
-2.02892460366493
-2.55363172733323
-2.59193832105473
-2.03822090610925
-1.42446245445847
-1.34663536733885
-1.94570178193109
-2.82366843594818
-3.29160503722243
-2.94102247960248
-2.09383932172628
-1.44605316750072
-1.28233958169627
-1.33759912469353
-1.33068004798992
-1.25856935869195
-1.2234961187133
-1.30098515578239
-1.52297892063105
-1.73874553149117
-1.59361771243846
-0.857795236980358
0.300909360758842
1.45002731400827
2.20870869203927
2.5047804575161
2.6421113173108
2.95072232214975
3.29330809784022
3.20111295235977
2.53446145761915
1.64475934006739
0.898695464868269
0.439345408847541
0.337926715554105
0.590018975977042
1.07198151938531
1.75664444183493
2.71977367828108
3.77207568593181
4.48589445832751
4.73652613620866
4.80244347818714
4.83388525658297
4.58836663187684
3.7390461853751
2.24942308978768
0.545547199760761
-0.637455493619705
-0.871055551946193
-0.523685485424269
-0.341350876480117
-0.637948317354524
-1.2368721096505
-1.99542103868887
-2.91122588582123
-3.82733633070708
-4.45221470777557
-4.63427893665635
-4.41514032729209
-3.99347467069846
-3.76384194634915
-4.09139048826562
-4.91758050074043
-5.84317366293327
-6.591003354847
-7.13436795591126
-7.51141638214628
-7.76330020702196
-7.84832802884491
-7.46766158539487
-6.29924131343927
-4.50449803087451
-2.64776863808096
-1.08651170731439
0.2327195199338
1.48261864749452
2.82303322202924
4.43871843236466
6.40000024850818
8.52665935230202
10.4358709050429
11.6101715091611
11.6091402776728
10.5176352573235
8.99779680974069
7.61951473689643
6.34904804070117
4.86684940538154
3.09094049716046
1.23689587368275
-0.378551763784924
-1.50443751729289
-2.08487082133119
-2.18103223233208
-1.70354081643398
-0.489904093123453
1.19124672546443
2.54111029975608
2.89856130273865
2.31483609896696
1.38340328889156
0.768706109489668
0.85397260239971
1.43515927429736
1.76685875087745
1.26121426157325
0.0875011343152629
-1.10840752407841
-1.82637048084389
-1.92346775406894
-1.61919427740099
-1.46922291609635
-1.98331908895795
-3.17019037367844
-4.65306665656258
-6.03704676611848
-6.92079253274965
-6.92034824337084
-6.04597811101068
-4.79365752426451
-3.68163911761318
-2.97547067645623
-2.8476361952606
-3.37731818517122
-4.33859422681127
-5.23867214260517
-5.52574325078868
-4.75348842860461
-2.90381123858766
-0.647039780458786
1.1036549614097
2.01564315794519
2.44625029603498
2.79441794212981
3.10795836168006
3.28446961583398
3.29817956361111
3.22432363810459
3.26228060670454
3.64980033291988
4.39458639392006
5.20937971722608
5.74791252989275
5.74514239666276
5.06770863101412
3.92096384563628
2.84049133902451
2.18996476885112
1.83584364295778
1.46451122543263
0.946296991497515
0.323614774592472
-0.22755075724795
-0.425409384251196
-0.186263621405156
0.179740573054673
0.314579671053371
0.174308002772071
-0.088472304203323
-0.307476089385167
-0.302486937565958
-0.0330056790298127
0.26867449091789
0.41219325968635
0.505788887047577
0.600913191486064
0.398719960868399
-0.357336639289325
-1.4953381505372
-2.67095252405504
-3.73848877478056
-4.73922223768548
-5.78558710438294
-7.0041574727295
-8.36973793472604
-9.62483683143297
-10.5108539694994
-10.9212331997242
-10.7208720349201
-9.72361687060033
-7.98419964121895
-5.75358896038959
-3.06187096368206
0.219460551794636
3.82091390993589
6.99106159234524
9.05740524088996
9.88606988670746
9.90345327507083
9.74963162166406
9.65092773019696
9.15249929815914
7.81374703020951
5.99951114850094
4.52553344862988
3.74102796598192
3.41948260757557
3.27290807601814
3.13435388058895
2.90188223966105
2.64238336651752
2.55163482988097
2.696935490153
3.00388486096917
3.42581243473002
3.91525092811343
4.40354857641565
4.942872489214
5.58634696133525
6.07757910351853
6.04752357455927
5.56374550252721
5.08566840197914
4.81875823020816
4.43679071613981
3.46803278230319
1.71557908031551
-0.672098366410149
-3.37369374645132
-6.19758067971615
-9.2353323144119
-12.5428101523241
-15.7835177571871
-18.5143457789217
-20.6497885084083
-22.2387954398673
-23.0170254574553
-22.6303969903766
-21.0615923828236
-18.4181766806261
-14.5321103743829
-9.16601350903525
-2.57918464119832
4.23006229722814
9.8791034803671
13.4196693751022
14.9399325047084
15.1809486564007
14.6513586992473
13.5031941866272
12.0398250149602
10.6435314866218
9.24551605824855
7.46689127166385
5.22938746031717
2.78743344271802
0.343405421795198
-1.97660779846063
-3.94950924678062
-5.32240410249933
-5.91825627404139
-5.65705361353019
-4.70506845467434
-3.51103726241391
-2.38444468484161
-1.14851696936022
0.501021715368752
2.48665251468337
4.49773554222495
6.36466292800197
7.90552220284983
8.6529374550996
8.15186081783053
6.4883237043576
4.37017768768777
2.70109154119566
1.96559624608302
1.89789565157011
1.85677223301083
1.49253333546497
0.791450891866756
-0.34197995017737
-2.0119826261191
-3.91600411541376
-5.49788908370678
-6.45604710762008
-6.77272945014405
-6.46899702627007
-5.64297312788174
-4.50294707072669
-3.16940557598504
-1.70219299879002
-0.337621435095052
0.637907359935015
1.21345226239744
1.58939918798569
1.9329811423965
2.38150722855093
3.03242789815459
3.75332411494889
4.22597628904495
4.27451253900722
3.9980727678774
3.64356960875402
3.50527245930245
3.75977676447166
4.17904832427297
4.22231112603321
3.64654001529356
2.82909427645644
2.33932701825966
2.42872372654863
2.98319383195126
3.64863216910946
3.98249007172813
3.77398282552061
3.17221340586463
2.34644186743695
1.2842707753883
0.0861115862407074
-0.924462541298707
-1.61190744471818
-2.26870609436848
-3.30994769589182
-4.87949622355268
-6.71225149886189
-8.33151810325415
-9.61799749515602
-11.1723341447977
-13.7192156317795
-17.1568619974512
-20.5584719955045
-22.9598248706389
-23.7913892589788
-22.8883705535495
-20.5671179384741
-17.4395013291866
-13.8391169371128
-9.69027250531593
-4.97554556170768
0.135923531765073
5.58720802236544
11.2600313408138
16.487117081177
20.3384854128722
22.5218778741616
23.5886147484075
24.1658124426274
24.2454824747347
23.2371741323387
20.6242992516367
16.7007300542202
12.6400375902095
9.56925886982793
7.62682347548779
6.15849617041358
4.57402956802933
2.67933595952947
0.505667543097687
-1.75613460559673
-3.81454649169137
-5.4698522964672
-6.6187726420349
-7.18138214081395
-7.31882503134901
-7.52233746578835
-8.13176479731125
-8.94427179693117
-9.49731758643342
-9.43798634378391
-8.51410567061
-6.62229036601955
-3.98775700476983
-0.996691389267287
2.09216267433864
4.99650987367536
7.17736134227195
8.09139685362785
7.60333794484271
6.08381155794772
4.27551467650643
2.97276162472
2.49496476983856
2.46306145633974
2.27382546498753
1.67219380507652
0.721812955774441
-0.504581238072536
-1.96180460343876
-3.59391581923613
-5.41600790885861
-7.35831418718186
-8.97368314668212
-9.67690655649801
-9.3237330795347
-8.22043096517768
-6.6460198117191
-4.76359194893111
-2.93874581504794
-1.76034744718663
-1.59187138896926
-2.0651765399758
-2.04968426495836
-0.484301389434827
2.49260030335224
5.56063599972551
7.58381732932805
8.53789765154861
8.9211082954993
8.86532232268006
8.12318577759822
6.40258170110196
3.48062898793653
-0.569165059462334
-5.11630562525843
-9.21158594032334
-12.0488665080841
-13.1137191181217
-12.307774370253
-10.2494152425613
-8.11547921823767
-6.81579235124681
-6.33733010870932
-5.85490209480946
-4.35157635274255
-1.36714155095123
2.54601765763423
6.30054210776203
9.4538809953626
12.5631649040783
16.0455347373184
19.1222477368946
20.3726928222764
19.1150574074943
15.9580470008177
12.1923775727741
8.81618917582229
6.06461021361727
3.81079630793662
2.18372618598003
1.37333606372702
0.951366498553675
0.0296501139979344
-1.78568671811814
-4.03603350075376
-5.99898280923873
-7.26303192305468
-7.83277481992085
-8.01547734535042
-8.12500215851332
-8.15556821088639
-7.89500870655906
-7.30525685558075
-6.54578480747093
-5.79684007625375
-5.31032443065504
-5.30161475575831
-5.51623918285073
-5.35533077971664
-4.75203394812211
-4.44187143452071
-5.00329297426782
-6.06146213292325
-6.81159623057168
-6.98940413241801
-6.97100010152306
-7.13075736042062
-7.38140679551145
-7.25188197444879
-6.25967804156643
-4.21282257315409
-1.21011597916597
2.48583629390941
6.41795952542054
9.99236724327771
12.8725571294459
15.1517787305253
16.8937548831891
17.7725240534905
17.4369811108523
16.009650953731
14.0683928704999
12.287392412177
10.9788528995147
9.71620631245966
7.62036306941214
4.30116455554595
0.250181476933827
-3.84518565111011
-7.68988783912537
-11.090438871124
-13.6244642405512
-14.8934808226509
-14.8076861496961
-13.5819346860434
-11.7119539666069
-9.80442088489498
-8.1057408735269
-6.27794167234485
-3.77391787566025
-0.336052346446807
3.75334590790349
7.61755509942759
10.139284576592
10.7907667313113
10.0736792516088
8.86781264902024
7.52710408634741
5.91000592390597
4.00379291111954
2.05993999981593
0.248609624516692
-1.44038824864147
-2.95954257669934
-4.04636554255382
-4.36846914803648
-3.90625364117663
-3.14918053199527
-2.64629145013329
-2.39540043921719
-2.08394985286528
-1.88426252708868
-2.43795115580631
-3.9653252658968
-5.87890721641964
-7.38826707668715
-8.168542251454
-8.40861533184061
-8.37570298891955
-7.91177640000173
-6.46904995699223
-3.90706122957385
-1.02702045503589
1.16663973949984
2.56588284836273
3.84065142942472
5.38438109457047
6.82817183881529
7.55469379151683
7.44950947508599
7.14025744453563
7.43321861766826
8.37368706731096
9.05056991551075
8.60110826732291
7.24234653812598
6.04083608090808
5.81410945693491
6.4372285249816
7.00554188473207
6.54200913217562
4.80882172781779
2.51577161954006
0.539098318841021
-0.915742393609561
-2.11816805570635
-3.14912657488725
-3.88797532491265
-4.37250280801046
-4.79432538094073
-5.38886401094675
-6.47441870959437
-8.17860652274839
-10.0044711017921
-11.0806247553101
-10.9106479203531
-9.60671980373271
-7.55807979813576
-5.21075747671928
-2.99831611769403
-1.20903188684319
0.0118038364560628
0.597021951458634
0.776380906840533
1.21870975734766
2.5621584460999
4.81563586448214
7.34321819970189
9.2117246063929
9.51699248621388
7.83347318418985
4.61485619534748
0.937307081793624
-2.27742646333408
-4.69437901987445
-6.37671945807964
-7.45493043479638
-7.95182981884612
-7.77298427946262
-6.9359728805652
-5.81257957215516
-4.9236286038428
-4.53474144935201
-4.68168791847591
-5.30011402707682
-5.86748686543297
-5.27008887372181
-2.70278197765251
1.40565920150942
5.76143153963239
9.26504077634096
11.4418523162908
12.2351610837133
11.8090939249939
10.483020215417
8.73047751114066
7.16582769613266
6.21657603248346
5.6697115347373
4.90677005907258
3.76199916495746
2.81819028803525
2.75826769647668
3.6804879043198
4.95886669381074
5.51608199300607
4.48083411350177
1.92986306557731
-1.14683120912488
-3.73701486243907
-5.4466935833637
-6.31140241810939
-6.42486436499692
-5.89743506632438
-4.91628571898666
-3.7557674646799
-2.81343125332172
-2.49599992562372
-2.91674462572812
-3.83657337584702
-4.89625353120913
-5.5995398029243
-5.17875462333672
-3.09024633456523
0.226685951373818
3.52735589425528
5.73330490420673
6.43430472457554
5.70557251297494
3.98200667974662
2.06770731545146
0.899781536133895
1.15241943990299
2.87453506308648
5.27895110298658
7.12646068235982
7.71177213542008
7.36128638624564
6.77962524740368
6.17800699103953
5.16468762050937
3.13928233416388
-0.267827401833686
-4.77187714181858
-9.41435334320074
-13.222010499954
-15.8053477698385
-17.2332545296851
-17.7084618144919
-17.5742701055265
-17.2573193545996
-16.9356743663689
-16.4234929696269
-15.4154644408819
-13.7194666478739
-11.4358320683236
-9.1286012951314
-7.53074653777947
-6.70825367059334
-5.69285360773849
-3.25911424309542
1.0263738525331
6.59928992903631
12.3982275628003
17.338509740918
20.5279995404465
21.4097898893562
20.0373933513385
17.3803268626429
15.0134306771975
13.9337307031449
13.7259739975903
13.3000038478831
12.2151768781816
10.7837168412198
9.24587951297206
7.56447375117698
5.85355857233617
4.41590189031188
3.43449657867806
2.92710462597316
2.82081185474987
2.92654941730009
3.05056659705102
3.11097188263258
2.95685348618833
2.31531106976508
1.18645909746753
-0.0108698720287944
-0.962158172573685
-1.84475966270743
-2.99936618917699
-4.50747206864172
-6.26073532707666
-8.19869523131682
-10.3259329265005
-12.6220077249631
-14.9648490007033
-17.0638967320966
-18.5570093123832
-19.248604980686
-19.1252240007375
-18.1652698825822
-16.3677533802511
-13.887609272534
-10.8778806118961
-7.36775794250788
-3.55753317927955
0.0442769637558566
3.05051648417708
5.48393894498071
7.50962341852403
9.24951156164157
10.8823026405415
12.4590338107075
13.5988095669094
13.7697768801832
12.8479061959245
11.1795949373011
9.31588394841001
7.83023489682181
7.01313227636184
6.57040887893438
5.94859211451894
5.00655772596492
4.08038641284828
3.48354880569027
3.24109305346014
3.21299308094209
3.28327607099678
3.49697009308091
3.97345617690221
4.51810698564874
4.51139877605667
3.50674520075531
1.78432246224237
0.0169161855625927
-1.38845305291387
-2.30946753110712
-2.61974250064244
-2.38665199830613
-2.19829981558054
-2.8656656267551
-4.78486619793276
-7.68910629544025
-10.8771475097407
-13.6137619132323
-15.4129844293825
-15.9781705643008
-15.0604171645957
-12.7847815351865
-10.1218644908366
-8.53657373806177
-8.89171831623189
-10.7471120685454
-12.6252367842338
-12.932147676251
-11.0302228565361
-7.67282788623532
-4.18109274106333
-1.21814888888982
1.35832282602088
3.79143843186683
6.18788005644191
8.70741427487571
11.3577673812522
13.7966349294594
15.747889849613
17.262806994961
18.2505548890294
18.2612637683276
17.1393911578344
15.4605507785829
13.9224859375818
12.5954345657245
11.0932340455182
9.2993144289537
7.64714663267206
6.65016162661285
6.20797955034698
5.50043916955681
3.73214531074372
0.860553391902387
-2.63508136744194
-6.38900019369547
-10.0638112260241
-12.9362562206065
-14.2729449330011
-14.1208122977326
-13.282822792804
-12.4885620275704
-11.7540405520902
-10.4650074220437
-8.07135751699161
-4.81716258520258
-1.64800949259324
0.685451877842394
2.09966394861393
2.74930590843346
2.78853864186646
2.75808488331541
3.47227177455659
5.08065288742903
6.66033336351841
7.02154779529007
5.70680104523896
3.21721547804555
0.533488231310874
-1.60663758631364
-3.12733861871072
-4.34347879846576
-5.41515221819256
-6.27308177333313
-6.88374132818772
-7.21920160876953
-7.05596802935417
-6.14218652799332
-4.54654680671459
-2.66327836661861
-0.962875094389889
0.23396340745508
1.04185436880002
2.13922585081698
4.21906969658805
7.15777305294034
9.97019911320809
11.5841869977726
11.4983742294169
9.93587358376089
7.66383107925956
5.47812798336677
3.66604821855855
2.1094020159057
0.804168885040419
-0.10868885310405
-0.718525362818254
-1.3031386130086
-1.965276836528
-2.62691077343878
-3.26935162904046
-3.95745175372308
-4.73297590643483
-5.50557541205789
-5.89713854479771
-5.40025455506699
-4.01934088728892
-2.55466874673826
-1.91888565178307
-2.3248512994969
-3.33660357889193
-4.49966852521926
-5.72169287343766
-7.06657366673905
-8.1519593681817
-7.88202655310012
-5.32352997247976
-1.09998234409183
2.67662575282846
4.37956424787578
4.36469524152085
4.07532346572949
4.19841405178967
4.33068201835143
4.07318850475483
3.71541119637001
3.77563934609657
4.20140128409869
4.21545949610108
3.04645960957721
0.759390214404008
-1.83478842067472
-3.96218413479929
-5.22289000840386
-5.3850546598294
-4.46902636522918
-2.97544692699576
-1.4755617786319
-0.0055850560855918
1.73558157333562
3.72414049502833
5.49333506388167
6.56044369320948
6.79165039984614
6.47739804778609
6.0730490789156
5.72538591548388
5.14737832430545
4.05001080373687
2.48712812867104
0.758800212163194
-0.6890283527895
-1.30346825461739
-0.843419011305268
0.161559804557823
0.765041943894892
0.502377663177884
-0.305461501089858
-1.06392573756142
-1.43813713131364
-1.46619444569217
-1.37040833068505
-1.19753209709214
-0.663999632775453
0.395815877495787
1.56220192663026
2.23286459443672
2.36410519441969
2.38193730416536
2.54534951102745
2.82832649328933
3.22456752503251
3.75414883165469
4.26547030654738
4.45414809793588
4.05173679661828
3.05965440098487
1.88871026906478
1.01568517794198
0.316088443522363
-0.987785077082806
-3.56440699264881
-7.39253180086524
-11.8752609105867
-16.1589958263022
-19.4345954862877
-21.2966318827196
-21.7437907288093
-20.7334627275548
-18.1372548282474
-14.3107619386036
-10.2010298007465
-6.58363893939298
-3.53030312979087
-0.784924118992368
1.73847407223632
4.06346275198981
6.45231550179191
9.28351320360189
12.590886565125
15.7622704748213
17.803409112156
18.0895702928486
16.8225127600727
14.5935390658309
11.7354426972455
8.426242596787
5.1066666663429
2.27599541958376
0.0130751163901964
-1.96439397138328
-3.92262085353206
-5.9227121887127
-7.71813058660744
-8.7834497213373
-8.74092315930542
-7.72775534530648
-6.15003991414614
-4.31800704079286
-2.46828934112488
-0.661612832798395
1.56585750717379
4.87692175706765
9.14111844598547
13.2068422341277
15.8854456324054
16.8434818855165
16.4813859967754
15.2887683202494
13.4511283334182
10.9881860356763
8.19291863694691
5.71103629983579
3.96546536327222
2.68614239353525
1.27223252555804
-0.580913515763944
-2.85111922180704
-5.45874088348818
-8.21009350249497
-10.7333890735303
-12.7959257859019
-14.4742675992267
-15.8390797051561
-16.7585833941567
-17.1062803098807
-16.8771009397325
-16.1384088635902
-15.1313687042561
-14.1986297274006
-13.3053529509197
-11.9365491804461
-9.75467545661064
-7.01347927076136
-4.10793462249866
-1.10739344009111
2.06948748461262
5.34219342594196
8.47591280378726
11.2200906869611
13.4016310119897
14.9137619020683
15.5501388829235
15.0002841620968
13.245645979004
10.7773823128868
8.17846511871839
5.75595414996392
3.78630794800605
2.69408240259995
2.64285346306316
3.21085782423455
3.66923638646807
3.4061217205848
2.14762577586536
0.10917448212426
-2.11510217580888
-4.12066313593795
-6.04007717602821
-8.06461488989604
-9.88955046943707
-11.0081075917806
-11.3238053953961
-11.128346995562
-10.6527017958157
-9.83869232597501
-8.37884420363243
-5.96602624860322
-2.74142483696595
0.570118617751718
3.18047494035248
4.78584955223231
5.57561652240612
6.04894862668935
6.86350478625284
8.39397965057274
10.279642129043
11.7264594177378
12.3212073487191
12.3279412810645
12.2362567213936
12.2004549739157
11.872256774109
10.7587267862537
8.82920762549722
6.63750178653768
4.73866312607942
3.2592556179457
2.12402814550597
1.23633177032557
0.263478783792235
-1.24566944308788
-3.28386531497652
-5.2971834217359
-6.79046116253748
-7.68997765639494
-8.12211951877479
-8.23818182860123
-8.287275699439
-8.54467872790992
-9.14196035261422
-10.089749672424
-11.3068137114455
-12.5561519704933
-13.628214329349
-14.6070066105139
-15.6144623494836
-16.328578304647
-16.1254771003087
-14.6566611043925
-12.0293936732751
-8.59830472017099
-4.85097992917445
-1.3323169330676
1.53117150346678
3.48752751815033
4.43014495473473
4.51992772024838
4.21614288355253
3.97479005455563
4.02329508942573
4.46292877415203
5.3106174997864
6.4411242977383
7.82799376551779
9.75848609693282
12.4050991264348
15.2774637455696
17.4628474418748
18.3080402239825
17.6606770787475
15.7329235646415
13.0473571008477
10.3438015788943
8.26752394148289
7.10181947722066
6.70942931314731
6.59423426453754
6.1759109253494
5.24888567113075
4.08282956645105
2.96586527110924
1.90285290665652
0.871267687538167
0.0005424485581079
-0.675854714097871
-1.31297124301569
-1.96801425110284
-2.47277227617235
-2.60774039978839
-2.24562322741256
-1.51080420161764
-1.01240659122414
-1.68250695707618
-4.1018473223513
-7.99892404358854
-12.3778422592529
-16.0792235456187
-18.5044762830359
-20.0300442974716
-21.4480434142075
-22.8501513808569
-23.4270014267309
-22.460797351873
-20.0767234505641
-16.9617907604291
-13.8045888014103
-11.0448825010899
-8.71147310708759
-6.32588781758961
-3.11670782303871
1.54767952393409
7.69294233171612
14.3671697756389
19.8247332624644
22.5457654522966
22.2961618243498
20.1458758495818
17.5772054712759
15.6487283607991
14.6191638685117
13.9659185646601
12.9191100952576
11.2231569001002
9.26093801602432
7.47276576269143
6.00031252304168
4.83309062748101
3.86252591988116
2.79300600335976
1.31693924478177
-0.644571274086674
-2.94904090598137
-5.24741478947457
-7.00749179846793
-7.91987890786391
-8.31060418984981
-8.80971655592706
-9.63498449055817
-10.4237586198709
-10.5968643261373
-9.73601558407771
-7.92766991885653
-5.90683258800462
-4.5364057326862
-4.00723945622495
-3.77537724490969
-3.25312168516744
-2.31881710024094
-1.21843473011568
-0.183220765241542
0.807443741400202
1.82479355073947
2.56498758518631
2.50549665189577
1.76002872742276
1.35674887239698
2.16896742911503
3.84268342242563
5.27319255699182
5.91063677366396
6.1089465330543
6.35412223108703
6.59862867652241
6.37147453452065
5.39255448411902
4.06553154636191
3.20450201553266
3.13624949345999
3.36215041052733
3.29396018001791
2.92988886181151
2.60400623599559
2.53712968384931
2.87350078605597
3.74993802715048
5.1183227435956
6.73097311342669
8.29050013605663
9.43268881505185
9.75056059322141
9.03719225492012
7.32354185577667
4.64302071250393
1.04558869285424
-3.1887191986936
-7.6485405205283
-12.0241654887026
-16.0675077993739
-19.5838885785771
-22.6517466836853
-25.5034202413111
-27.9381424956475
-29.1338879212862
-28.3120463067174
-25.5178092683278
-21.674207853532
-17.9040353382124
-14.7073767684636
-11.6944595289693
-8.1770069048844
-3.94593090684443
0.789362597177449
6.04995110845694
12.036507816378
18.3028030760555
23.5634221032269
26.6323317400826
27.3066671819293
26.2805514620778
24.4484500593227
22.2921079157696
19.7894340388118
16.9301769521534
14.1884776024024
12.1862354032083
10.9935015006373
10.117914578491
9.07360095914487
7.66007322208468
5.90781839971023
4.09627981366539
2.6557239912836
1.81072980604175
1.40986035425026
1.08504820950127
0.416509157191431
-0.883500883669017
-2.73330584315609
-4.83418339130198
-7.1509522874678
-9.87394201881889
-12.8349939052277
-15.4365911405411
-17.2826249171982
-18.4416254205106
-19.0027388071312
-18.8211488522749
-17.8226924504843
-16.214900345105
-14.3226828070703
-12.4123241358254
-10.5618741987954
-8.52740355190057
-5.98239817925357
-3.06808323950465
-0.420321062168007
1.47865126566011
2.70125300365916
3.6142315480767
4.50162172194975
5.40326489015756
6.10901635752642
6.40560719127911
6.40506096188931
6.42138164632621
6.54461825026076
6.64205495720894
6.71390736125421
6.89866162683313
7.16911289335233
7.30161721138092
7.14587442152271
6.83626769233772
6.74426798329708
7.07318746810412
7.40941099514285
7.0018743916652
5.68308589196875
4.12765747786453
2.96711216125341
2.05101934112224
0.830369375446705
-0.894024377527355
-2.84913986636563
-4.62451669999911
-5.89977893038379
-6.50045086902036
-6.3915961742196
-5.62122645763359
-4.33221424825653
-2.84109946304108
-1.51715322511851
-0.547022732286425
-0.0071179848246353
-0.0451779885471295
-0.647303841297163
-1.38884058247449
-1.83507811472852
-2.02239838843582
-2.15315179553264
-2.0295729729537
-1.19405374865842
0.458816194539179
2.40772002251414
3.80292191931551
4.14743260767829
3.84549580345023
3.84215859240785
4.52871396653779
5.33603520934603
5.56427404317678
5.16156687774131
4.52428322163886
4.02094342172793
3.87350157648786
4.07346133565507
4.29331419675175
4.18109406365818
3.74032199673198
3.20668035889009
2.65390134159484
1.89075724530505
0.635334891521923
-1.28279458404381
-3.77139356058585
-6.54055570165812
-9.41670818428804
-12.4110914976283
-15.2938809169636
-17.3929613912896
-18.1645810555127
-17.7860757039519
-16.9174840347953
-16.046658169306
-15.2214503917502
-14.2173217460201
-12.853182483286
-11.2139974437693
-9.42800318098495
-7.15776582199595
-3.70324839844878
1.13082816508644
6.57039402063046
11.4309941542962
14.8558043070636
16.5412200110503
16.7168345524885
15.9974036915989
14.939493023929
13.7236042757099
12.3841053733509
11.0899259792481
9.98898805901652
9.02101835631223
8.05465545389565
7.04434985778111
6.03199541770859
5.1495935885924
4.55382963847973
4.24107121631563
4.03971640703802
3.82943744805258
3.62044412516647
3.4521226309427
3.40575437005944
3.63236495438216
4.12583374649135
4.52991551623565
4.36438716845733
3.35532326618655
1.45340130950379
-1.2167397160004
-4.27327951788666
-7.20255269284455
-9.68173653185811
-11.5777484552427
-12.7187758802372
-12.9951394764966
-12.5989707501346
-11.9012557358592
-11.2181189166168
-10.7738590177271
-10.5439277204536
-10.0566716588368
-8.78445550663878
-6.81250622342619
-4.73120782981883
-2.89159366085297
-1.16159410395706
0.646674808236485
2.44045091007711
3.86678871657535
4.53853876002204
4.45400998477287
4.23786261473361
4.66967890560435
5.9334698353365
7.52739858814826
8.7986611658288
9.37203626589391
9.24539261168127
8.70528829610907
8.06910029324152
7.41435441008414
6.61797216541982
5.5926500421366
4.33443924308418
2.83466580724002
1.13077623230838
-0.643370664541713
-2.39109490582712
-4.10325945548068
-5.71520957280219
-7.11530314445953
-8.2650311163194
-9.03946794393412
-9.10056734321519
-8.31082874105553
-7.08234525543729
-5.90732996886406
-4.75395115133048
-3.29282043958275
-1.49084599126555
0.317578478670937
1.74586466177711
2.56663224636858
2.7681083916174
2.44392861106227
1.60067461471712
0.309443713187829
-0.917284111790302
-1.35409494618064
-0.838682990100241
0.0575002135798329
0.699807511327172
0.872401562963213
0.661714333704046
0.26462183631821
-0.138393536123342
-0.569143053241726
-1.15238499308027
-1.71055195834959
-1.80157342914828
-1.31933077153395
-0.650751684965621
-0.0149827670516135
0.962595805173273
2.72543652894531
5.08903690622305
7.29872578130683
8.65821654942853
9.04193996069033
8.90530625133425
8.78833274216023
8.78427134152593
8.58872344854785
7.99013857918539
7.09750546304008
6.1585907971272
5.31471310206347
4.37768029926336
2.77569675216954
0.0460725496415205
-3.49879124748847
-6.90347192840074
-9.41159029338042
-10.9180872880731
-11.720636476291
-12.1656690616371
-12.3954086945552
-12.1670739019789
-11.1022718964322
-9.26785250243258
-7.25291100495183
-5.608055094726
-4.48035722707273
-3.72171039279082
-2.98435095810438
-1.75962582549002
0.317184357156747
3.09946394295554
5.93239679123902
8.02492084972141
8.92939220309513
8.81594427515313
8.20004028257677
7.30563334117222
5.91692979275456
3.9942436348771
2.05710061722618
0.628762942432639
-0.391853327421491
-1.46952166350032
-2.80401894972286
-4.22113913622634
-5.44926463363312
-6.3216361504623
-6.86083319704734
-7.17955313786311
-7.20166947551559
-6.66250078379616
-5.49252276307304
-3.92753683470095
-2.17749525087506
-0.32141402708506
1.47914065174882
3.04019013556419
4.3701370496236
5.48052924394933
6.12533643726608
6.05196441790241
5.36206160561484
4.42321385404565
3.62315649583945
3.29984240000763
3.64894917288825
4.58504305864103
5.77559892690909
6.75092067066339
7.00616600128055
6.29164945244637
4.88907667495446
3.35861024902796
1.99751867112712
0.778317949015557
-0.268485516969196
-0.929505207805047
-1.03303887023864
-0.57240181728907
0.28562698131849
1.13364994747339
1.47225471408338
1.11659335648188
0.260553476121839
-0.894409694719175
-2.23545334282255
-3.48531387867126
-4.31346585221566
-4.77414274942269
-5.3008692750912
-6.22447742811784
-7.44387586257166
-8.46532671981372
-8.72315861059679
-8.08783804982499
-7.03739592568409
-6.06257975423464
-5.02386479665725
-3.42338408043093
-1.19329995086354
1.06182831211205
2.51992830953868
2.76513600316809
2.1402948598799
1.43206473061419
1.00590698471492
0.45925250700702
-0.639862389403195
-2.02759166341957
-3.08483511615081
-3.57780057520099
-3.74376359677299
-3.86385988815733
-3.92925040684199
-3.56536889541902
-2.33056350842646
-0.365520973808774
1.39893482062742
2.09094737649985
1.85235022358734
1.58244452915679
1.92622685114365
2.91618465951548
4.39183672829281
6.3209756215255
8.73863560391939
11.5350293191039
14.2367175422751
16.0884832810993
16.588158511856
15.845329157726
14.2613900585642
12.1118049119015
9.62272947437437
7.1608414520658
5.13928897219727
3.87664356861538
3.5151984907258
3.88198866012219
4.52490325990355
4.9871246127949
4.85035753926222
3.59653401821663
0.924245655425896
-2.76293080855203
-6.63117160490039
-10.1671350188743
-13.3390605918251
-16.2571535673563
-19.0623971890454
-21.839450291118
-24.2096316621502
-25.3150021151752
-24.683805809886
-22.9528394238746
-21.3464531703942
-20.4856061086416
-19.9114064930597
-18.6851664634898
-16.2754024802859
-12.8680907158196
-8.92741728552171
-4.65748799918983
-0.0957791761823924
4.43511362168474
8.36447799769184
11.3283720896474
13.2991611617293
14.4212801849864
15.0186488156698
15.5352187823811
16.1706158326691
16.767546751364
17.1583374522718
17.2981908308075
17.0423734859444
16.1995024073007
14.8142446540463
13.0898704857051
11.1733113591808
9.2771621563346
7.72367286313496
6.59143034321889
5.6161541540788
4.63172841943565
3.80853914785664
3.35027333121074
3.20994236207602
3.13048487838503
2.82194935036004
2.19723663700497
1.49617649915344
0.982418981256075
0.523149400188952
-0.244778985709
-1.34444279938142
-2.37176349668323
-2.97236936019004
-3.1327284179009
-3.08063611254245
-3.18652439999936
-3.84222539451758
-5.15060511074779
-6.8304382107848
-8.56098486543774
-10.2086128135322
-11.6351320456964
-12.5634195038985
-12.7420652233699
-12.1116533981593
-10.8757589040789
-9.51589014148557
-8.55723993933819
-8.18846888996693
-8.20280956748484
-8.21863688324035
-7.79329898524123
-6.59792586242922
-4.80182435362466
-3.02813872990027
-1.65567607682592
-0.450327847307283
0.952617644300352
2.57347360635636
4.19250231934769
5.5510931126488
6.42544449396697
6.8047836131899
6.90546611485303
6.81395788728092
6.39009542630383
5.70792083764089
5.21916329861392
5.26679012734199
5.76599121702198
6.47169719846216
7.16092415016861
7.44820769887566
6.85174060666407
5.24435389521927
3.03582452193715
0.885035254883651
-0.66577013096604
-1.47830828442035
-1.91912874901541
-2.47206176100643
-3.17191585649896
-3.65222936893496
-3.69811427212516
-3.4485440996869
-3.15197516304212
-3.0104492832557
-3.1284814865305
-3.39224597547755
-3.5552469198481
-3.5592636814728
-3.60530759881398
-3.90828540985497
-4.50526689975197
-5.13117408019931
-5.18219319289646
-4.16413951524332
-2.35026012469786
-0.639645025719108
0.330632371898374
0.607804873944023
0.590762135864208
0.7631864284267
1.6330092544814
3.40287650427075
5.67297042063008
7.7589740253797
9.26559062908505
10.2433258073718
10.9803205319148
11.7526493399299
12.5905811638368
13.2370750555503
13.4749686341417
13.3751505833774
13.0145694071489
12.1815717107114
10.6678509993649
8.64141740647706
6.46464600454765
4.35383758457987
2.38372451752238
0.569330404362253
-1.20296708972535
-3.15175172464599
-5.44174525696099
-8.05435877635006
-10.6494630094438
-12.5625326867526
-13.2465640324025
-12.7726727360178
-11.6917676498004
-10.554837126953
-9.84452854379922
-10.0680171322423
-11.4103302744963
-13.3501159009003
-14.8762317447383
-15.0525010199585
-13.4858151314142
-10.6553174954757
-7.82547610780741
-6.2212994832876
-6.06463356817277
-6.46649932889739
-6.24976083261194
-4.9115337482488
-2.94799044574538
-1.26496373982219
-0.228600545996757
0.526481258655323
1.27167009325857
1.57751103312764
0.899690230499656
-0.512028667782772
-1.69861493062381
-1.80547414402998
-0.528416588790792
1.97287788284991
5.22328060312922
8.54439085932031
11.171191477681
12.3673737766235
11.8064734752734
10.1301465077615
8.7751327728922
8.80058224467439
10.0009244552592
11.2987809721365
11.6890254382724
10.7392291651982
8.69219129338651
6.36866380665302
4.69966511609825
4.13856038958484
4.49289292236845
5.1491053280986
5.41234771198274
4.92267992292146
3.86480086300792
2.62707499886786
1.37905507150117
0.168687783286143
-0.895064712668231
-1.88463982339946
-3.14593124944505
-4.79826978314901
-6.41598385085191
-7.48977098512768
-7.98822411593321
-8.29203082547603
-8.75411295538883
-9.3526498245232
-9.56534390336182
-8.66240400116219
-6.40542656844465
-3.40447893054784
-0.621859248497178
1.31334665694868
2.26373265293512
2.48927890808496
2.5847973780192
3.13882324699837
4.23931538175319
5.46895765119801
6.33483742924726
6.53188876881601
5.9996340739546
4.99216312443381
3.96820790061763
3.27627755626303
3.02100878190412
3.10333194885152
3.16379896285206
2.69255889692628
1.48576119444667
-0.182750880211421
-1.98436626884006
-3.81317351889715
-5.53150920794512
-6.82536186987485
-7.47808934008691
-7.56995561280174
-7.38478990123515
-7.22471389390047
-7.17220635383551
-6.98488839348155
-6.47225175247188
-5.94234506094946
-5.89129056491104
-6.27325604315958
-6.52190046603075
-6.30798782338387
-5.84885018828772
-5.44842052905625
-5.11163442765143
-4.64584599126855
-3.89854953458405
-2.91922944817584
-1.96526460716093
-1.19701500384631
-0.396283047975863
0.766138203610358
2.27579127853089
3.83935908482029
5.23294382249878
6.38352912080979
7.36587677612682
8.43913939147887
9.7120342032826
10.7019159212332
10.6620302866746
9.37556679111737
7.23204427001192
4.65788247060058
1.96359121161049
-0.383047840716641
-1.8406203261324
-2.18376607154823
-1.64029617283595
-0.749292523319832
-0.0820640249225817
0.150071402173444
0.217511115293657
0.443280367034361
0.812407266861185
1.20594279000346
1.78288515422041
2.82109872957479
4.28207095025272
5.77050361238277
6.93046394167636
7.80310305256903
8.76110156261612
10.0064898023131
11.1627407041677
11.6430616321372
11.4766022049906
11.3472641313503
11.622223992606
11.7428619576443
10.791939673142
8.35111993801816
4.70799988423265
0.541874445770902
-3.52816496654901
-7.29723304545234
-10.8787835231407
-14.2513088588704
-17.152808677723
-19.436152602763
-21.1801642401066
-22.4161396905523
-23.0489447402793
-23.0349120879853
-22.4444356116858
-21.4792122006984
-20.5098547423457
-19.8046012122564
-19.1326205218571
-17.9019058188562
-15.6663237060972
-12.2863688744489
-7.84267876777241
-2.74952886509707
2.23689378642997
6.40914968765826
9.38536706605925
10.9977055328786
11.3219176655097
10.9707074222178
10.9746395737155
12.0898440230048
14.2520956128031
16.6004900872018
17.8949900558497
17.2181771912817
14.6602818123129
11.2478759921844
8.09833802134043
5.8247739659871
4.60630603126238
4.29145698535694
4.41378879736679
4.58015855726806
4.85420212130588
5.45377651892556
6.26038937545459
6.95167789987223
7.40968555006675
7.73337533895996
7.98986566265527
8.02807663047335
7.43326409747047
5.8629935645776
3.6421708573343
1.71211271099627
0.70927895305302
0.382545519812147
0.0833368053979123
-0.523579740936981
-1.33476937380207
-2.03069208736353
-2.35221633597306
-2.38370145299526
-2.51792366392521
-3.03806478620139
-3.92453405956228
-5.10272398508413
-6.53068730585236
-7.94738342083376
-8.89668859171968
-9.15623284844097
-8.9002897771529
-8.38070259976108
-7.67594049087664
-6.78700527745811
-5.83350395777315
-5.15312329415762
-5.16594464893182
-5.96067501025772
-7.10234483268674
-8.09413172777049
-8.86570831301198
-9.54157105505139
-9.9961069768416
-9.94430269768505
-9.20959403845564
-7.71924910558119
-5.61036630491694
-3.46870046996758
-1.99945808930446
-1.29270016763055
-0.756312755946698
0.18554864137517
1.59936791818824
3.1311945319335
4.30824736083769
4.86308262265122
4.92967866977018
4.85430830877583
4.89636864336741
5.27894557862516
6.26989698631132
7.84739568639349
9.43949866976665
10.3163983576438
10.2009473297913
9.40172586317597
8.48260693363859
7.80798265097276
7.21012200579856
6.12613723637334
4.25751603325179
1.99873095943065
0.0241982115493975
-1.37241730538241
-2.36655350165864
-3.31742633892428
-4.54538837568536
-6.03545514430959
-7.20968128250046
-7.32125555725835
-6.16147723583401
-4.16401660055692
-1.95391386346398
-0.0438344109263143
1.299008275737
2.21648551592685
3.12007054646334
4.25315161192486
5.58660538609568
7.05146095402877
8.51220215631903
9.63901873712101
10.2052195908421
10.4021236678844
10.5873133565385
10.9200754000398
11.4207805670671
12.0624628650914
12.5639861437486
12.3379767274157
10.9005905459469
8.3402120013882
5.34265959259146
2.68425120234562
0.60923819955031
-1.22268677442198
-3.12823163044088
-5.02562607428968
-6.88206097736652
-9.15538183445252
-12.2939367322675
-15.9595369441113
-19.1924172790848
-21.2535416021276
-22.0058833275846
-21.6901076095072
-20.6598487539475
-19.167634155554
-17.2101599660428
-14.745442189413
-12.0457687710976
-9.5494349986928
-7.46068167255479
-5.83645044214229
-4.91581969656096
-4.95400196919907
-5.75687884356371
-6.61956358032331
-6.71529055193205
-5.52487973903996
-3.04564794576357
0.3302727279571
4.0958814766835
7.65663465444619
10.211819292569
11.0612002280241
10.1806017491549
8.26534775740531
6.20013381026698
4.60799508714629
3.64434698640644
2.94137969394985
1.97750372660643
0.730099478862899
-0.241462524216549
-0.429070608868237
0.244770456103589
1.74181443085985
4.16145654197664
7.43440113914601
10.9814423877653
13.8405918223931
15.1383298001499
14.6637961844189
13.2049393224256
12.0861887545623
12.0699319433179
12.7943594072508
13.331773189684
13.0501620305324
11.9477926517284
10.5111160961057
9.33193640642917
8.67110334065599
8.37017573966323
8.12649943244351
7.59181711365929
6.30183104175158
3.9982217716901
1.06945417300526
-1.71237589844996
-3.8806762803209
-5.43109144907177
-6.47878291212078
-7.06843043112276
-7.17739679647652
