1.2140798541051
2.34104310322842
3.40848462289919
4.31894654613199
4.9420098622822
5.19355239164814
5.07593518714736
4.76191811185409
4.49828320751407
4.3109236677404
4.00660673127978
3.53202866134424
3.06405193231233
2.72771112916071
2.51005879718544
2.3912237249659
2.27858437490925
1.93863973265274
1.23018884184126
0.246740962877105
-0.867166009088957
-1.99301014477761
-2.95268900478736
-3.67341367456714
-4.35895523475722
-5.1776361325801
-5.92237761078451
-6.23564442832681
-5.96956449519511
-5.20109881472273
-4.21448540217498
-3.51614311773114
-3.46638772550322
-3.85537058108454
-4.14123791659533
-4.00168072093224
-3.40887475996782
-2.418131737839
-1.16113689844532
0.181460815314541
1.58478260456552
3.13190434972641
4.68483516178412
5.86273620162073
6.40726033061278
6.36887409176434
5.96016485849897
5.42472142621503
4.96916080213801
4.62645741040382
4.25919275272487
3.77854498038665
3.21385113207161
2.58422688243364
1.92478182553472
1.36302955911468
0.941532831752229
0.514808400992175
0.0155091903572773
-0.401290311049725
-0.629133362076556
-0.779500285012738
-1.02087576568468
-1.48896122786864
-2.2868273432646
-3.31790860646551
-4.26250709840907
-4.92290816929252
-5.37078850760278
-5.64281507857306
-5.61289070427563
-5.23973288753891
-4.6335431723139
-3.90400908362978
-3.18851876246137
-2.63916605806461
-2.15176743328861
-1.40774691896412
-0.37953539796383
0.57341550818145
1.26399010908347
1.92810376532107
2.77743587769761
3.66825386964471
4.31512124357589
4.53605668230465
4.28357669049337
3.71620349520194
3.18066762142362
2.88305473797554
2.69469933231433
2.43562568999139
2.13134833902814
1.87828246839432
1.70153544916659
1.59635351985953
1.50593920479008
1.31756073183007
1.03127250810129
0.764011305160552
0.500029221394938
0.0973475728520395
-0.426697835218634
-0.913889174762974
-1.33655067605687
-1.76625035620899
-2.17401602560516
-2.5004329385761
-2.76820852162306
-2.97377763382693
-3.06596816128352
-3.06402867086263
-2.96342911649527
-2.62670829430996
-2.04295679430939
-1.50486287310914
-1.24500405457534
-1.11983561639973
-0.878015133179859
-0.491054346658606
-0.0657793266689282
0.312507773130463
0.563991905916742
0.676975557428878
0.787353047055544
0.978200642085474
1.09222570020165
0.973580298675875
0.746406606655266
0.63724896254576
0.719242874458714
0.988094618616526
1.4149622619893
1.80416626545542
1.89288241820356
1.65808285783164
1.29464139179366
0.958487942773719
0.725246944187112
0.626904203581066
0.572929815222275
0.439305408796018
0.27742336772361
0.205565763274675
0.189783735860902
0.188080009395061
0.299042048638195
0.504775282951787
0.554188393145604
0.332095944146646
0.0247451929925122
-0.225028891687731
-0.47883754669833
-0.7519304336937
-0.930267474146485
-0.950019429064054
-0.839526616996413
-0.677428136422297
-0.634393481714176
-0.859160196799713
-1.24421697141958
-1.52575834995829
-1.61994123035834
-1.61550239038445
-1.49641355487169
-1.16604204665833
-0.692815599282459
-0.270467584639282
-0.0061717458223852
0.0812341280466553
0.0291639702816907
0.020521832508695
0.240308419242081
0.561829581961424
0.672835643805732
0.516685676936674
0.301720804901642
0.152792806429124
0.0501169947731571
-0.0043996386168851
0.0193845353956955
0.155847651940594
0.484167192474107
0.997870024806813
1.47579597239239
1.70652918655799
1.72510129906611
1.65485005518415
1.53095592597424
1.39142853783365
1.2552547975509
0.990592137150394
0.53882565128522
0.17858447031637
0.190482974764971
0.407560917735649
0.440660165276963
0.153514420066306
-0.345201252960307
-0.928930723902102
-1.47019928930898
-1.86905684809614
-2.17033010653328
-2.44201226805914
-2.56130990356612
-2.36877900491927
-1.9495546239424
-1.50365597966381
-1.06724183221258
-0.6056005153854
-0.21125170670128
0.0028163675180413
0.0367317311448645
-0.0669390019059991
-0.221023781948212
-0.237189295865642
-0.017765016284103
0.272352925556543
0.431192421995623
0.462983190492059
0.455998524174854
0.452614676249653
0.542711399915635
0.842659802925749
1.33379116638498
1.88962357270492
2.37258423994266
2.59371726141892
2.42494529897663
2.0565365797823
1.82982922957434
1.76615573671825
1.60292411742407
1.25056376892148
0.849631804578004
0.481960905160528
0.146507318234576
-0.13984141758609
-0.44392892150311
-0.889566045217686
-1.39647676340177
-1.72874331568312
-1.86149554913246
-1.98414183347447
-2.14037536394451
-2.20488293567271
-2.18033956101031
-2.17538030940935
-2.15309272940444
-2.00801851390661
-1.77655385666713
-1.51343385932976
-1.12796405813801
-0.551051422657628
0.0971361151217983
0.604266134251829
0.79365703482857
0.617302821303434
0.278983934539934
0.120152630171828
0.26216617367263
0.546934516842405
0.829245095071146
1.04610756265174
1.08091100431801
0.914010192184248
0.807586178267107
1.02248574828905
1.48540529114025
1.94361337591366
2.22432881953431
2.21959815718121
1.90612291472595
1.44838065175973
1.02735130797861
0.620533147996542
0.171770093604415
-0.200194388172509
-0.388660911523476
-0.495677684338335
-0.677752265926956
-0.984149236790563
-1.40037274152704
-1.82780452514354
-2.03391601049959
-1.8683279101636
-1.48227691603976
-1.12929177174873
-0.887785224790826
-0.763354553180762
-0.806174587047956
-0.914019722801457
-0.816575807488338
-0.448105454789287
-0.0565740694848442
0.146430784821951
0.171857220761763
0.112449966514975
0.0733551515610088
0.149383876467832
0.287165893429947
0.326917362287409
0.26276069479396
0.253528563050575
0.402926536439147
0.760831104479363
1.39556022233145
2.19944305073273
2.8183685120265
3.00402964954417
2.82712514646736
2.44065768139772
1.91793039717775
1.36045757253889
0.877258448535164
0.472530257430373
0.132274591435524
-0.144124383015699
-0.51817551719719
-1.21876739830299
-2.15211244358283
-2.92234925000278
-3.32173053560371
-3.49836029553132
-3.63188253949643
-3.74898267815217
-3.80559762653855
-3.64610477278573
-2.98867857099177
-1.75825339416213
-0.331071958814373
0.757278205311127
1.21286789471515
1.06589666588232
0.642785129209586
0.44752017459783
0.742607514011516
1.27274004272689
1.62838787640619
1.71632562381377
1.68293770649192
1.64184169454173
1.66624490643515
1.80584867322884
2.00440940852921
2.17832470275987
2.32095721069582
2.37237825491404
2.17734200079744
1.72786437232579
1.22534082950764
0.848203819686598
0.704093305098417
0.897763289564198
1.30494644564914
1.45823676855973
1.01459335074363
0.147283028797015
-0.769237081029796
-1.57813791608324
-2.25361415540461
-2.73517529608279
-3.03837617222873
-3.25882583715913
-3.36850169791266
-3.25390555065725
-2.95950241359566
-2.64300825305784
-2.35076237669983
-2.06539914196322
-1.83181128764688
-1.62573180340675
-1.30052641681004
-0.832235264188839
-0.388572081427212
-0.0642899721670525
0.221111226559334
0.559250630460393
0.981213809970481
1.45729321728365
1.83335937477835
1.94564149259605
1.86969282304562
1.8372007914776
1.92953375087695
2.09050400916154
2.31340397609583
2.56469035577031
2.71100769683586
2.72267794449021
2.71041590703784
2.65521845101108
2.40071761803588
1.93995272681732
1.40377107323738
0.824967938879028
0.191783323274088
-0.403080517788382
-0.89963579791629
-1.38530488700398
-1.93134442521114
-2.51368301299132
-3.13480068593927
-3.77122273872322
-4.20765941524648
-4.20443259444563
-3.81404870819836
-3.29045575863347
-2.76217314439574
-2.21170772532705
-1.63634295869073
-1.04017421315051
-0.436068168024253
0.0589385499720488
0.362473529380315
0.64166285118429
1.09712416253021
1.62301141012282
1.98008531659485
2.15627031683719
2.29395147802291
2.45281923689869
2.63906310071621
2.86524584056445
3.08341233581502
3.23785709740378
3.34852357031061
3.39654444040361
3.30151205484902
3.12102048485104
2.98501302667706
2.77224005127495
2.21614746183978
1.34306582237439
0.43634708455028
-0.365558776019845
-1.09928862623602
-1.76308045179751
-2.36196825797199
-2.96555846788897
-3.5336566345297
-3.94024892287889
-4.25942634362688
-4.69302771782097
-5.14527947084638
-5.21594105385268
-4.68248966073057
-3.71749500864067
-2.65973889814708
-1.81642705207082
-1.36552935199023
-1.20641807917164
-1.04081079976326
-0.73014867476489
-0.380758556361879
-0.0812734396342657
0.164490563887232
0.315472052075501
0.386128507980311
0.527783846804428
0.804478092707958
1.10432490891646
1.40706711179823
1.84861197556948
2.44383945940673
3.0379473655221
3.5189666034533
3.81465075192397
3.79756440150097
3.43707479959321
2.89513367584452
2.33751557856711
1.84174537437622
1.47480361403346
1.18665002215216
0.719609512319302
-0.0901854925665171
-1.06075945747188
-1.92343772469541
-2.61092541387288
-3.13685074169726
-3.46851328069952
-3.6314852118156
-3.66700534696448
-3.46262155093922
-2.92872219410382
-2.2985219315712
-1.90586652322681
-1.72844378558557
-1.47472357440935
-1.00377017045034
-0.370950935769615
0.357348083779392
1.08008616767305
1.64655452406813
2.02389239993788
2.30747470861607
2.56852560831534
2.88520463983201
3.39364542427666
4.08766955132401
4.73374620366059
5.13876643979232
5.31149170580885
5.32994102965313
5.29808105315846
5.37495375180966
5.57597300030794
5.65061483605355
5.3583388752407
4.6911060846718
3.73274549811428
2.57601964316498
1.4091207278027
0.382139916162182
-0.577914601204224
-1.57653830742641
-2.53726487178682
-3.38803427935397
-4.2104581046238
-5.00917446415293
-5.6038997747461
-5.90594144264305
-6.049278102925
-6.165310451392
-6.27212435966251
-6.38563372827846
-6.48343542280573
-6.43201566542601
-6.20274642787462
-5.98928386362136
-5.8522592636436
-5.50881315844819
-4.75011149480645
-3.78585612549934
-2.93110566993685
-2.19998072164381
-1.36683328470638
-0.253511256447625
1.05988288839618
2.19723011945811
2.78808038365831
2.87513585518258
2.80410098198613
2.72118696676719
2.47814180247695
1.9687550556963
1.24518877053003
0.421169523412511
-0.281074822480705
-0.595707892514403
-0.520643880484437
-0.298729502934659
-0.0163603208024684
0.435147505233068
0.995897186609931
1.41957787255181
1.60888486747466
1.66688973012405
1.69202640884514
1.75013656094702
1.91179074996277
2.12929652641649
2.21317576605051
2.04457644814473
1.67059981225883
1.16590897813389
0.59198519110597
0.0841198556036363
-0.223915945542502
-0.336204736093796
-0.331511860372688
-0.278629541875784
-0.261764795274414
-0.27404879805616
-0.101020624554362
0.412410253289787
1.05824943847029
1.51184516865456
1.72966987151561
1.86053997449849
1.9981107183264
2.21257239554363
2.54172010697254
2.83241531898197
2.87679072324279
2.70729772347481
2.49484237637957
2.30363959146828
2.20721153678598
2.38870175347823
2.86965394423368
3.41036897895346
3.83944929466626
4.21016546684937
4.60840987535892
5.09368448006935
5.74456261432872
6.46771879315442
6.88604333809408
6.66872851177795
5.86330719306681
4.77600604367495
3.68541584377492
2.72890288469031
1.8620614411542
0.873142375291407
-0.413747200168185
-1.97351431418522
-3.70749472497944
-5.56476741611897
-7.43086835968334
-9.14480337737217
-10.7072032231339
-12.1870180752131
-13.445832381332
-14.3091207160267
-14.9091427805908
-15.4684346914941
-15.8795844009446
-15.8333886466707
-15.1865100869971
-13.9956494041369
-12.4563304706213
-10.916664162779
-9.61648841249979
-8.36312323737651
-6.76509485194369
-4.72079034490932
-2.43174072955872
-0.136645245507469
1.95028637817887
3.69375254944738
5.16092528379981
6.44148888633497
7.40114573501004
7.92669791656338
8.25439717839001
8.72335218379735
9.40004129827555
10.1990712463544
11.0937163149189
11.9728552612613
12.5807643212841
12.8015423753298
12.7517864972383
12.4853635939991
11.8781309699415
10.8601636423229
9.51443902783804
7.97715993729441
6.45848099708965
5.21909932898748
4.30531127683312
3.47917254726596
2.54988514465675
1.56868413400994
0.666000457243852
-0.0564732946361226
-0.502992032897336
-0.670029620755027
-0.678997315089443
-0.632910193736946
-0.625946595771163
-0.879224509476184
-1.57068132348083
-2.58449616177505
-3.70858680418722
-4.90265962213647
-6.08992127504328
-6.97313579353229
-7.3704420542235
-7.47236576709527
-7.56791901683537
-7.77490235617545
-8.08241833548285
-8.35485785589294
-8.30927685577337
-7.73512802572506
-6.67310678969122
-5.29224515936116
-3.81446876780452
-2.57480194604296
-1.77169705407791
-1.08770332927663
0.0371783565168386
1.66717182656871
3.2736411471417
4.39134315193957
4.9652871879057
5.04297430646728
4.54750192344798
3.44688139058973
1.93194500833795
0.427935254216502
-0.543919244008511
-0.71816631923104
-0.329005673889254
0.186016878437771
0.648794988010761
1.12742786838399
1.64928642350776
2.12326202989307
2.36198662344035
2.10494707150281
1.26977648476949
0.180364426898482
-0.706164552489896
-1.20577113201246
-1.3489421846424
-1.17914023288353
-0.837524234318757
-0.555960311377736
-0.376109541480188
-0.117051696557006
0.35313844454137
1.05725728544996
1.97883798039931
2.89917979389272
3.36828146604471
3.13451643891416
2.40654998780773
1.46742744888054
0.256082450282168
-1.47147909257187
-3.74514272465865
-6.23907122333732
-8.35307150107023
-9.47230055670845
-9.39811517328939
-8.47540210392071
-7.12699402098955
-5.4795443207859
-3.63189544655105
-1.922743252878
-0.605096057265137
0.502993292550669
1.80134920039564
3.45857570437475
5.20507805123771
6.46662797266359
6.82912400621921
6.48857199538991
6.08457748016678
6.07124125619055
6.44292228530897
6.93928460317094
7.22027859850759
7.00996275457384
6.34824113437899
5.51906238028225
4.63805991539109
3.67126495524531
2.86155961777043
2.60839686953374
2.88141009926016
3.22950783100634
3.35711010463854
3.32854212176275
3.37821153067018
3.87480362652708
5.21412010989268
7.33451656599787
9.46353604007818
10.5911001901585
10.116303299437
8.06466781830548
4.99419974375518
1.7007774232483
-1.34029000585246
-4.28373414487751
-7.43635305109489
-10.594697240337
-13.1292579477172
-14.6067386762021
-15.1612780734336
-15.3983977970087
-15.9711265864269
-17.0564197095305
-18.265373324804
-19.1423995731843
-19.4978448995883
-19.1578730140215
-17.8388376601054
-15.5344405035337
-12.7114660836802
-9.95679714182063
-7.64698387245699
-5.89889875918009
-4.53482534862805
-3.16195624609597
-1.49106457574195
0.531424618630294
2.89731309523786
5.52846207618761
8.12490207774789
10.3663150487531
12.1809797701309
13.4953611681571
13.8891164478079
12.8775915669359
10.5155952993457
7.57812288168593
5.2095545577936
4.31340565887531
4.95826051996579
6.3117176319209
7.39468121478706
7.93750768571507
8.39660376060007
9.35359957593436
11.1169618921217
13.6124190617922
16.3525190520745
18.7026992831565
20.3039743528923
21.028313764512
20.661762882311
19.0839790216324
16.6493193004226
13.9003332650714
10.9308459907713
7.35434109496142
2.84800052855485
-2.39519178774059
-7.59518633407352
-11.7639511413628
-14.3915054584836
-15.7437058408195
-16.4117969590937
-16.8380673698238
-17.3568665408927
-18.2213203960524
-19.3499474789223
-20.3866584130246
-21.1293012528703
-21.6477831804115
-22.0636775805439
-22.4696689230006
-22.8558609024422
-22.8602910770931
-21.8719046879004
-19.6423068477069
-16.5595089862994
-13.1698975087838
-9.70247050428812
-6.13213178568964
-2.37918185822457
1.61611776941429
5.72097943668491
9.52595913732765
12.6896037212933
15.2452612643375
17.3314183448406
18.831996212899
19.5292525140827
19.4385249510204
18.8562904676438
18.2052616521473
17.7848606353666
17.5240003496391
17.1051354377628
16.3703470827964
15.3198486976907
13.7833162468451
11.6135406554937
9.18862500802992
7.14672322067949
5.60622470237388
4.15402513542273
2.56329849142904
1.05632618503512
-0.130302460428708
-1.13140005496058
-2.39330648017444
-4.27050816019928
-6.58979459247067
-8.72542809679826
-10.2490658011753
-11.2920198111923
-12.1331348034221
-12.7715622364616
-13.1012977952789
-13.1414482342938
-12.8443504544715
-11.9686072616646
-10.3654316787605
-8.19137472623363
-5.74171600828258
-3.26706608397193
-0.944305543390899
1.17785948177058
3.15356734472153
4.96366915713665
6.55920066847029
8.10489966669546
9.83225122850756
11.607414816812
12.9960523633268
13.7442218736486
13.87388738666
13.4162112720141
12.4000174126996
11.0146457699032
9.49907668741306
7.85889357821441
5.7450776191365
2.65130397731906
-1.51413617603302
-5.96974417350783
-9.59580625932911
-12.1067798837634
-14.2268932292508
-16.5772152787469
-18.9664112572926
-20.9141731990153
-22.260788202968
-23.0675935168499
-23.3836045799708
-23.2524654940311
-22.6684061871608
-21.5299051773183
-19.8110874093579
-17.6376680485197
-15.0537322784379
-11.9302635173358
-8.23654680234201
-4.19170209368111
-0.0963926150156504
3.76432935565206
7.12069815375992
9.91329515742362
12.3828238669346
14.6942835024795
16.6323020084521
17.8998241520043
18.5411675589694
18.9195933269105
19.4140373013292
20.1114951210279
20.6447662338156
20.5004065749983
19.6561527591542
18.6831425816338
18.1192378324379
18.0489613743661
18.3080083148551
18.6818417791074
18.8643992972488
18.5653763043052
17.6609049020825
16.0972310922347
13.8715560246388
11.2002830497719
8.35295707325825
5.28746240873641
1.87454719100829
-1.55191303642877
-4.35138567861546
-6.28889752779873
-7.75869738376219
-9.40194670376726
-11.7488850146728
-14.9970847080915
-18.8185466554025
-22.5126665759888
-25.518691673667
-27.6522725492311
-28.8850219886451
-29.2245893316807
-28.8262246790001
-27.9314894443607
-26.7122665465982
-25.3157336594788
-23.8324922438664
-22.0613524969897
-19.6217529996278
-16.4652044124342
-12.9999687151431
-9.64325151464624
-6.48503627699073
-3.34201010454578
0.0497261944251311
3.7652604492841
7.52800711008238
11.0341552155446
14.3749089424423
17.7708078974864
21.0163586355802
23.642643979878
25.4977600697136
26.7406783234719
27.4170421240732
27.3917499568267
26.545514038864
24.8280383956251
22.2811442224763
19.0785091099502
15.421534050102
11.5372056885866
7.91795107942328
5.22156865428204
3.64846995617716
2.74209559309286
2.08528054392108
1.82741099175523
2.19666580674694
2.84517917364805
3.05725268588989
2.37508829126162
0.733816574854658
-1.81123012715202
-5.17898243843097
-9.06038242078767
-12.7621172472226
-15.4895436552358
-16.974494902016
-17.6492140963646
-17.9639923910917
-17.792216550614
-16.8037234717021
-15.0696662317377
-12.9129080783615
-10.5050911018116
-8.00201198258082
-5.79147659297933
-4.27301159654704
-3.52598080749651
-3.28130656726091
-3.10478857708395
-2.7316734604581
-2.35658382817434
-2.35963082400339
-2.67986667333355
-2.83240724242523
-2.57232540109843
-2.07590994876814
-1.44677080321057
-0.55168558966841
0.529543706420028
1.20691340725422
0.647430983959902
-1.64532054240464
-5.27905211061507
-8.93229571124643
-11.2010643635225
-11.6670593163263
-10.9605307977766
-9.86109918747758
-8.71995926049938
-7.64497246617881
-6.65257853139854
-5.51508274464005
-3.88311673322781
-1.69846637423511
0.713894389609237
2.96049212891106
4.88420536299199
6.6321621468541
8.44964874476363
10.367696516426
12.2197842581592
13.9629853837879
15.6437820267036
17.001428901488
17.5691394443519
17.2907141150117
16.6151544493018
15.9320823318594
15.3404756501842
14.9833652692998
15.225753692931
16.4693178392105
18.9188915611241
22.3410533954649
25.9833950373184
29.0424875476884
31.30458064991
33.12750600064
34.915692675286
36.909735347441
39.2801202464223
41.8507851904507
43.4781279813177
41.9865182298161
35.305248717212
23.2077966083214
8.0046900860219
-6.86186064065129
-19.1503454170172
-28.6994257840236
-36.3373377129705
-42.7507650013741
-48.5495666082465
-54.4291171040606
-60.5415197810442
-66.1265958222168
-70.1999854863548
-72.3075369689711
-72.4891758516342
-70.9999823768863
-68.2657270743348
-64.7361183642632
-60.5814806448226
-55.6299728282818
-49.5600740439477
-42.138577571113
-33.4720855640759
-24.0499984271858
-14.380274288456
-4.69370683801743
4.84392257540733
13.8801902250302
22.0295889517682
29.0486720830069
34.7746173928252
39.1115830346088
42.0026098182073
43.1745743379079
42.1510808459554
38.8904800013453
34.2882943827623
29.8530735973758
27.0246794769758
26.6817653978848
28.7036176841414
31.80580546418
34.3030303256679
35.3333115780605
35.1769495036369
34.5538451576698
34.0382199737417
33.908197939804
33.9304471329687
33.3247815127719
31.3283839676255
27.6915659713157
22.5035653091005
15.992292256392
8.78987754426135
1.97511209174944
-3.55163065040206
-7.66307959415472
-10.9183366308084
-14.0057808262707
-17.2438521847023
-20.4998555687886
-23.5141520956767
-26.1448417928396
-28.2459291702318
-29.6232925588444
-30.3139129342097
-30.602630218779
-30.5685226121398
-29.9155945901048
-28.3810803591082
-26.0335647121474
-23.1479897880602
-20.0484179163719
-17.0009847695473
-14.0307272195447
-10.9787751206241
-7.89410523531055
-5.11937203493786
-2.82510720747192
-0.745217896444612
1.4721762188495
3.94786988072496
6.64818536213766
9.272582976464
10.8838843480101
10.219510721185
6.86101915434207
1.98839472565722
-2.24307977022882
-4.13462025264093
-3.40315309557552
-0.921795001214455
2.34864020832768
6.01116056293046
9.89531013330523
13.5778851278814
16.5558344904816
18.5844167148491
19.6178507357429
19.7297544680617
19.2235867548499
18.4798278110657
17.6204096328671
16.577839268708
15.3628930236226
13.9556740435996
12.1114699388704
9.53687751860748
6.12007292934752
1.99784805156506
-2.29378786306439
-5.89180881282112
-8.34154005525594
-10.1935018223737
-12.4350720817364
-15.4098806157206
-18.5723914823126
-21.0401815102616
-22.0654901287723
-21.3012247814199
-19.0829929594862
-16.3559979552873
-14.0206037432021
-12.3234948040358
-10.8553511401789
-8.99163857353173
-6.48437944017792
-3.90200229794898
-2.32502996744946
-2.28877836001059
-3.10847738878342
-3.41812382849191
-2.31380386340525
-0.0711303612495453
1.9749097321568
2.33322342407607
0.466586485883738
-2.89788161888238
-6.45874788229319
-9.08057990734626
-10.0565985156567
-9.30523419892057
-7.46396337210806
-5.36363801937454
-3.32366552981156
-1.18109778316185
1.199560864585
3.7628126199526
6.38330783202705
8.88151362897032
11.1031929148049
13.139584036183
15.3648503273745
18.2460781033309
22.020336336692
26.1032084308827
28.6829659588089
27.5999518297241
22.2987049095279
14.7105637786937
7.7512521345796
3.0643909696816
0.464209273901223
-0.824875548386891
-0.995753801542185
0.282178349895068
3.0799315463238
6.81000292674939
10.6581406792432
14.1809084136994
17.1790359952808
19.1270479059885
19.2305822285617
17.2032307497089
13.7813026771292
10.4420550120888
8.59086104133379
8.66614426892795
9.84253802304381
10.8591483171112
11.2029219004247
11.2360357145931
11.2941491969192
11.0323109209985
9.53356643995991
5.79744014569961
-0.567621773036192
-8.78955661904061
-17.3207410998365
-25.0146490295474
-31.7161258591564
-37.7349908584873
-43.2124196472718
-48.1103712179762
-52.4135053622539
-56.1032093528103
-59.0238034256331
-60.8425235320456
-61.1894493631234
-59.9284420102642
-57.1876341837286
-52.9465830705634
-46.8233546944976
-38.6618896150212
-29.1582701750363
-19.4585704987355
-10.2736093698213
-1.76472028728179
5.95125615391105
12.6162037569585
17.9593669956702
21.7372290360029
23.8899944556934
24.8326772538522
25.3509213452101
26.1547902057668
27.7024466898806
30.2382170744018
33.6193828580194
37.1924579940134
40.0963239434556
41.6902614274677
41.8013781658147
40.8461049934477
39.6260104487971
38.6985775741963
38.0168282633622
37.2946185622418
36.3890464199461
35.1135134106098
33.0196214948864
29.6420923122699
24.8576214054748
19.0017188379854
12.7683180270443
6.89112054415222
1.7792761614141
-2.440005219005
-5.55303309190232
-7.26630057081856
-7.67449637593709
-7.41920905698013
-7.29140192273734
-7.90967115153236
-9.67694994311625
-12.5775292689744
-15.9563700035134
-18.8533081438892
-20.6273422523392
-21.1611438909731
-20.7016329386763
-19.7265372169078
-18.7630251920333
-18.1457520477095
-17.9958131411141
-18.2988558215169
-18.7804098573752
-18.8483299827028
-17.8932569572071
-15.6210353931366
-12.1797261787462
-8.22737958231244
-4.76451555341873
-2.56184228559999
-1.77176219709216
-2.10703340400749
-2.98067140809332
-3.39803732296707
-2.33908626814047
0.448070224755089
4.34137512592967
8.47191912940449
12.0879385622421
14.6187830846604
16.0300423986626
16.9985064034707
18.2507612835848
19.839518972177
21.3140067269915
22.2036986788451
21.9492412278255
19.804461532579
15.4243160207291
9.46080225413538
3.22704817748987
-2.20585001688917
-6.54390758033184
-10.184334632032
-13.7858968651142
-17.8370748319885
-22.4991886713141
-27.6383835740883
-32.7564548584782
-36.996911334797
-39.5570160876117
-40.1438122367587
-38.9418491349915
-36.3112568271615
-32.6127238796608
-28.0692356229569
-22.7154374446266
-16.7165221064051
-10.6580790637438
-5.19030862401333
-0.493098584865292
3.63146887085181
7.35208293757652
10.7183742908428
13.6798748555843
16.0480303712443
17.75782694584
19.1196515018781
20.3354645480869
20.8473392700832
19.7347086835492
16.8056296493501
12.93572527797
9.40413214016271
7.18490801053969
6.6922222588676
7.80868614338285
10.0867416136358
12.9194170528875
15.4100867323518
16.3931524592692
15.219744184207
12.5519095141339
9.86940657447644
8.13359445790254
7.24433620193576
6.64087517297569
6.02687571047802
5.56036251743034
5.57107184923098
6.08353103152511
6.63966453872588
6.69701516402229
6.08442544708314
4.99176008304641
3.77601013550727
2.86561094318871
2.5375855022205
2.71844072348302
3.24924410863425
4.20987922471704
5.67834859795484
7.4396125559518
9.28120609086134
11.2532460246635
13.3189473073578
15.1068728599392
16.2845647393463
16.8819200688179
17.136051769576
17.3418031161656
17.8901876624987
19.1276237081136
21.0763551180509
23.2924421902049
24.6997104779768
23.4839489225662
17.83717104074
7.54086666614941
-5.27087519933201
-17.3781374078737
-26.6486216238209
-33.1042796284186
-38.2486867418685
-43.4889309920802
-48.9254410425589
-53.4176723951213
-55.6857046324979
-55.249288001204
-52.5481966155562
-48.6195991653464
-44.6302871458214
-41.2647889784896
-38.4230043231083
-35.6142045565431
-32.5129832103455
-29.0803217857869
-25.4509750918686
-21.8076916657168
-18.1269064993166
-14.1115560118428
-9.65176655641634
-5.18130422306171
-1.30606366140623
1.68444556823368
3.77922665494224
5.13921538866994
6.23254651495733
7.68062805693474
9.81330960638176
12.6691994714147
16.3291058853474
20.6917099664941
24.8443954494452
27.2425304276956
26.9886816850877
24.9406888864713
23.3665317478517
24.2557694271429
27.6943143332903
31.8492732022708
34.6827215850808
35.6275880161969
35.5525734967079
35.5164709473878
35.9196521295828
36.4821387841731
36.5200455419942
35.3763974821391
32.9081734907139
29.5156194179993
25.7153942532518
21.9222951446331
18.5512648263849
15.946559148778
14.1158361342144
12.6381920040773
10.8274893802583
8.14205510311388
4.72366518571213
1.38395540856848
-1.31592523869503
-3.83731335214981
-7.22611354267418
-12.144080706286
-18.534596184237
-25.7737106697217
-32.7561889773563
-38.1832514911366
-41.2297582732692
-42.0054663537832
-41.4225285793975
-40.6939950653902
-40.6763015640567
-41.3107432952905
-41.7209250931222
-40.9942377512003
-38.7411294565254
-34.9194169471326
-29.5768403670373
-23.0080684922873
-15.8423112759934
-8.75426099692443
-2.21535677750508
3.55574544727749
8.65054722887087
13.3518345045971
17.7137620745276
21.3757228035709
23.9022469792308
25.1558604542945
25.3621932466598
24.9700647567042
24.2392571307429
22.7511660564264
19.7020762120258
15.0489935973855
10.0350770594211
6.18590883643363
3.96259923103983
2.58813586633445
0.977025476495393
-1.2693483754229
-3.57956664241925
-5.01247961719172
-5.129111157651
-4.21021929582148
-2.82164929547792
-1.51196961811027
-0.730376326952225
-0.506151259939381
-0.245260377103007
0.755990722678369
2.67581459977617
5.27703588099777
8.23807817542651
10.8243383256273
11.5304584344723
8.84292609573919
2.65738279977161
-5.2112191786151
-12.0166479345115
-15.7616952496445
-16.3025785212497
-15.0096729978946
-13.3351633457962
-11.76006302628
-9.98967747745878
-7.70692333069762
-4.97812097192264
-2.23200651817912
0.0788042386599634
1.97967705654243
3.99526426630083
6.48164628419978
9.23014722575277
11.8854783367077
14.242559511191
15.8352997646912
15.7689812323275
13.4583100277363
9.39124419532427
4.96632150494889
1.59818710559578
-0.134451450438533
-0.612212256123319
-0.431583637530756
0.310437329864986
1.69687328737861
3.1657962740801
3.5795424843053
2.22108390323517
-0.59277431901364
-3.87763169989173
-6.67507174092503
-8.42578839791694
-8.92484940793277
-8.00045827855114
-5.36798906483363
-1.11190555293337
3.76859898245925
7.84708485074079
10.4727409853447
12.1412722937925
13.6544820984964
15.2595570539506
16.5962821739743
17.2421852130579
17.347042519163
17.690854213707
18.742668365736
19.5944182403759
18.229306584098
13.0570683231922
4.16044516650427
-6.76369093721318
-17.5120484577982
-26.6440743305962
-33.8442019850769
-39.0532921807205
-41.6751237751221
-41.1829258006303
-38.1963218088115
-34.2359115343917
-30.4794437390572
-27.2319772381895
-24.4107955904396
-22.020340428174
-20.1538913377418
-18.7618922151533
-17.3958686968223
-15.2299605465278
-11.6070842085005
-6.62164155327553
-0.992934951578842
4.59946365361253
9.92228673871342
15.1189379846448
20.4424548565213
25.8371092028827
30.5683691679479
33.5216706668358
34.1001954297672
32.6950915722905
30.2985734978611
27.8943852819717
26.0104310533755
24.3626568378764
21.9616285901667
17.9785146945955
12.6242097159053
7.10265049786134
2.72350936650371
-0.0391788231744824
-1.81268833509398
-3.625487326176
-5.87501886115114
-8.12635599337286
-9.85509918802471
-11.027045714952
-11.9695828429402
-13.0422188441865
-14.3711926532236
-15.5900298415897
-16.0051221785339
-15.2939436050555
-13.8141795425212
-12.054632394291
-10.1141812913459
-7.84011329712152
-5.08685324879479
-1.7384131983637
2.12094045073223
5.94276624926772
8.95842352503812
10.7856913004132
11.5705590810214
11.5908454383133
11.0474980315376
10.2395916461558
9.62774430921125
9.5715644049058
10.0012456871656
10.357236754865
10.0358627155919
9.05833451039365
8.09350756169137
7.64403873376262
7.48459582777237
7.07387316628479
6.20572207010506
5.09586100995503
4.0903687548332
3.35363837591711
2.67430161974126
1.70145622075928
0.485630312039495
-0.561569273867055
-1.41618326724126
-2.7157605410312
-5.04302432574258
-8.22716936699992
-11.4187661198827
-13.5952561686764
-14.1199224294635
-13.1727731326469
-11.6100998202483
-10.2356336519799
-9.2887493652255
-8.62297505569175
-8.12751516595472
-7.89679704868821
-8.07820701151899
-8.51336953975491
-8.57843960864382
-7.69608243659761
-6.10606693117353
-4.79856372509243
-4.55689857898875
-5.39753201136479
-7.00120267154215
-9.17548492667467
-11.6524330574811
-13.8184165556469
-14.9023258010502
-14.3093521139408
-11.8460004926445
-7.88486671823872
-3.29626464413559
0.928128618185628
4.03574341212357
5.7641444794162
6.61588679123018
7.75421161349292
10.0735695771184
13.1046241268013
14.9772641647357
13.751524591694
9.19822294694453
3.50323988439713
-0.181254428345956
-0.421317171789336
1.33820947312914
2.50738991460807
1.87084061642649
0.129617924629286
-1.399801840354
-1.91526327517631
-1.23888332571114
0.480440470309511
2.89399663304141
5.35708182500317
6.9004749118995
6.70594138742298
4.94829027469075
2.99954129868686
2.43416644825122
3.81630579490304
6.56711735456233
9.80527247653735
13.1214531062394
16.7113305547548
20.8448543441576
24.9827601497669
27.4786591600878
26.6197454961841
22.1735001820983
15.8025113247476
9.97838998102684
6.43047321893477
5.23979068914371
5.15111007152666
4.83864150643399
3.86866067929752
2.4434685873278
0.695891490547291
-1.33761690130441
-3.44605548351519
-5.53055132802347
-7.99899559277797
-11.4061059004885
-15.6733755967189
-19.8566742509851
-22.7484406215477
-23.7704866025169
-23.290728555603
-21.9873195475383
-20.0705029662797
-17.3987121831108
-14.0680102673434
-10.3334271149217
-6.12786123709923
-1.31735961103802
3.55547969650967
7.31301012385519
9.00796431798057
8.47267965900986
6.15640355656029
2.75055725504409
-1.21328744133275
-5.74791828187692
-11.2548658576089
-17.6973678463192
-23.9648542151417
-28.1877439198689
-28.8623363758967
-26.088037314818
-21.8526665704252
-18.6185884042749
-17.281628218228
-16.7534544011643
-15.5439605351414
-13.2481660196825
-10.43617846766
-7.69430167456492
-5.07187369212614
-2.20318724015549
1.2485633021077
5.32193973582815
9.92969437800707
15.0230254544664
20.296031287599
25.0220170804263
28.5817669396546
30.8831341272569
32.0137989835073
32.0518537406143
31.5887314787941
31.7017775375249
32.7345957578149
33.5346796195789
32.4694500775654
29.0010154947526
24.0044766904675
18.8348427562961
14.3449342423004
10.6312618642009
7.53991301048576
5.39519252801187
5.08623989343603
7.28862952932106
11.7092515485536
17.0884704438547
21.6012907048945
23.2320756808796
20.3995074000557
12.8708750894061
2.22233598527523
-8.77831347554979
-17.6287681674538
-23.4081769230702
-26.8571033068931
-29.194121755857
-31.0934081137602
-32.8466833775763
-34.8169894672375
-37.1104657273766
-39.1910324646818
-40.4423020393685
-40.9336424571368
-41.2360334526622
-41.6590047283951
-41.8929684765211
-41.1779922244477
-38.6876385317402
-33.9996505224834
-27.4185972847319
-19.9202828187018
-12.8251159331144
-7.28385719901617
-3.59926104177778
-0.926260886371154
2.04947118271621
5.97148490306982
10.4251880551787
14.5846019344578
18.0202556834612
20.9264685895614
23.7793442805826
26.7982214539375
29.7055998614469
32.0926818571133
33.9139448023832
35.3736515175876
36.4829319967465
37.0903617286544
37.1911454192111
36.8531991797925
36.0317575969745
34.7297412113365
33.0548297775648
30.8840838485893
27.7728952068949
23.3739284458882
17.7734922773412
11.5091640998614
5.48208826015863
0.591802899917426
-2.86825282872241
-5.2930051390672
-7.18514806147792
-8.83349792195823
-10.548478342395
-12.7730155131953
-15.9177636233306
-20.2624788453739
-25.6826236351799
-31.1531881278239
-34.9588577402221
-35.920522981687
-34.3325507251196
-31.558220115928
-28.9466146719792
-27.2118402447067
-26.4817884550181
-26.5949442650151
-27.2354183436118
-27.6800341292251
-26.4988760486679
-22.0627472907833
-13.9072654771559
-3.55596126204746
6.35378964179468
13.9176781228964
19.0843317228395
23.1991279214211
27.477464673165
31.7354272397468
34.5079331736131
34.3432593842269
30.9520819264933
25.3749820368232
19.3468348350633
14.2369485807346
10.1277869422553
5.9992019672543
1.08405858297108
-4.12307502178303
-8.28927326958288
-10.2778676240294
-9.69608637671578
-7.00279430946233
-3.35312407149568
0.0366521630668919
2.58977231716011
4.32609054134341
5.25487068306098
5.11027259652707
3.72380309966994
1.53828514630165
-0.394757276280451
-1.19584037168786
-1.02380115910844
-0.838068689679211
-1.12840642787783
-1.29897700304071
-0.674989255462921
0.184380565375078
-0.410690730025306
-3.96236148907709
-10.6323153275682
-18.9096366704892
-26.1053250853307
-29.6974688008013
-28.8847535080888
-24.9726628817154
-20.1782692084485
-16.0731623117151
-12.9497089244657
-10.21110819
-7.10444891970714
-3.16131531325589
1.75132220463515
7.40798146298829
13.1800528072971
18.3397117265013
22.4196566381436
24.8909435145168
24.7952300424421
21.6859570163778
16.9247311881673
12.846044164111
10.3046009589474
8.1198662240027
5.38311041529924
3.32929450745223
4.22108584813189
8.80138678349499
15.2939480289261
20.815218504958
23.6972076936347
24.5482317559956
25.1121406273447
26.2800749592219
27.5030906429654
27.9315801310888
27.3848041944944
25.861280117616
22.6138277682551
16.4128896763538
6.95598280767441
-4.2007753944573
-14.4975011088228
-22.345984629747
-28.0552577292942
-32.7029526959572
-36.5653430710234
-39.0259939967806
-39.6097558489828
-38.6453543273388
-37.1585931003267
-36.3926628523909
-37.1561165602496
-39.3935641908813
-42.4272574679791
-45.4140174152984
-47.3591102570651
-47.169675551008
-44.3886602173696
-39.837728855646
-35.0154698199173
-30.5817967118379
-25.4714353951066
-17.7888827356769
-6.99523507798611
4.87967676948361
14.8265090273116
21.7148598842607
26.912109845724
32.0834782400457
37.2830705080829
41.3883502380041
43.4753500705387
43.3194561881107
41.2316416213084
37.9928102916444
34.7304610954037
32.5003216290298
31.8456729054466
32.4792043578779
33.1628558347885
32.2427734789329
28.8348620617241
23.5759567555752
18.1438661532762
14.1495015286851
12.3879980441613
12.7267446658267
14.4269958704631
16.5360020684233
18.0628738629275
18.2331685800886
17.1623681696215
16.1666382896935
16.7417878241359
19.0623099468687
21.7870924779267
23.2633935085786
22.678895540676
20.312683874811
16.9882945930754
13.0943560171361
8.04010387802487
0.948366662896085
-8.23990130424651
-18.825111856181
-30.2649296266481
-42.2637595165625
-53.9619190718191
-63.7774135961971
-70.3211652287183
-73.1834431446869
-72.867427367767
-70.327334441868
-66.5280174138207
-62.0047105759774
-56.6273522440195
-49.8774324810971
-41.412325590586
-31.4018493659675
-20.4418609870005
-9.19777651561204
1.89883126361903
12.6041483419949
22.545908339155
30.9605553879715
36.5884074574843
37.8813949278273
33.9366838634799
25.7713773944996
16.3869388810087
8.9403234026633
4.67734471783733
2.70904809605811
1.56150772825176
0.627643775035464
0.118068369466882
-0.0445582448277963
-0.691204710861672
-2.40777474570897
-4.46252464157743
-5.39508648639132
-4.5962051351631
-2.77685168439458
-0.957142505374161
0.604919606125581
2.66690527879564
6.49694772123778
12.7804226777028
20.6453006432484
27.934313751684
32.6181184047671
33.9396837888308
32.5546147110535
30.0540152976943
28.0967550841926
27.3206558055622
26.9955485541755
26.0112186824049
24.0539174353858
21.6298728962917
19.3742033982257
17.7111073647058
16.783682641338
16.3012383075444
15.740433862419
14.989394667622
14.5322692827861
14.7039571950586
14.7866161704548
12.9749607440324
7.50578238945376
-1.79092009673343
-13.005610264061
-23.4495938315079
-31.4379972129442
-36.7354174927167
-39.7749493150726
-41.1305393083364
-41.6768862915815
-42.5803791179929
-44.6213234203843
-47.3593690641813
-49.0519429064682
-47.7521464849268
-42.7789312833074
-35.1037948495202
-26.4742810349241
-18.5674956361575
-12.711503797354
-9.36475602927654
-7.37938679959786
-4.43981266497117
1.06146249719282
8.57147384301006
15.870200521045
20.7748546313725
22.3879173770018
21.2924411299131
19.1385068764901
17.9785700792387
19.2562759474922
22.5731708391001
25.329386656141
24.4452977362638
19.1636985553327
11.8619839489108
5.76896119918823
2.39639887478537
1.41043757892689
2.0145845957906
3.70518482630251
6.30818332952627
10.0052706861296
15.0370013333748
21.0209303578083
26.8854580160777
31.7469711631016
35.6341134310065
39.1489900362112
42.449767164967
44.6872309902199
44.6613375043071
42.0220028518231
37.2343799823591
29.9822643616963
18.3715759600998
0.841514163464525
-21.0350898957907
-42.4069010015592
-58.3001730063662
-66.9414213323391
-70.0056379762972
-70.0241661479743
-68.155909912235
-64.558607110008
-60.0334682180063
-56.2090984860702
-54.0538474247982
-53.0438905412638
-52.1154390245068
-50.7931017408921
-48.9557739045428
-45.9962551903424
-40.8449603670971
-32.9192546604838
-22.9037697039349
-12.3571379772681
-2.19278138382593
8.42130489028101
21.124190938367
36.1131707952142
51.1189256311929
62.6555724259755
68.1728092149123
67.5118293170791
62.9896734775824
57.9314974240873
54.4772265505467
52.5957941754737
51.1074737702637
49.1181561287232
46.2322792822811
42.0689719069232
36.4074020560275
29.9302858421684
24.3929786793666
21.499872120387
21.2473523226007
21.5421843968923
19.9111482143031
15.6277609292504
9.92373489294594
4.41152043525008
-0.0973316264014397
-3.3929787707105
-5.36729327530175
-6.07549218555388
-5.9630644929827
-5.93846210426372
-7.4455466166094
-12.1556908518232
-20.8094412245792
-32.0686537395369
-42.8813871489194
-50.3865373086181
-53.6535075355949
-53.7033406326474
-52.0267003503293
-49.279006737263
-45.3398896805042
-40.0886524844282
-33.6736360242207
-26.3647709657638
-18.6841635456108
-11.4874799059411
-5.47805444575439
-0.795363162592979
2.74252544758054
5.40513127852499
7.70748924113923
10.1928531010063
12.7893766026424
14.9151885082787
16.3686795724493
17.4576238542202
17.9937503775459
16.7965400285075
12.7212094142265
6.05617188462427
-1.3278031671743
-7.22500711001419
-10.5578209045318
-11.8590047089393
-12.5472294732095
-13.759157271665
-15.6640636107187
-17.5691646675977
-18.5284477913024
-17.9598507156093
-15.7720806817566
-11.9423795272453
-6.30028579151689
0.892925102098232
8.38398235299628
14.5009422305121
18.2714560605049
19.6441223588089
18.8796355033849
16.3143969067
12.6800176576134
9.13757655818998
6.75502587490923
5.94577493120248
6.32345831333689
7.07929021028569
7.63801902638185
8.04918573227991
8.86580854640413
10.8104584163123
14.3698637962969
19.2274093093923
24.0383522549837
27.1919733186964
28.04059158324
27.4810595417097
27.5929828216408
30.5127257000496
36.7775570452055
44.3968829717827
50.1538740932894
52.144624682569
50.6594169894244
46.7306290233727
40.716183692618
32.5208222530121
22.439284780358
11.4069064919767
0.848591622203162
-7.62644809085027
-13.0252809926662
-15.9822266465364
-18.9428353368623
-25.0571268767456
-36.3590926751768
-52.365591777832
-70.196505291206
-86.2220947695263
-97.7437965414128
-103.4693577148
-103.248990378997
-97.9047564761116
-88.9650713969187
-78.065933405805
-66.4247613406298
-54.5742786772986
-42.4150147239685
-30.0599869481226
-18.9692783509237
-11.4415974183706
-8.25341612085019
-7.3437264725558
-5.3774859819708
-0.0953423074109996
8.99284195759545
21.0319622449878
34.1645139669953
46.2689703709868
56.2312940688545
64.2266983869571
70.4218308939082
73.9735875600735
73.9613429192062
71.0791600082596
67.695089470239
65.9468923302916
66.0141471366767
66.3487471788006
65.081892516897
60.6982607034771
51.8949368638486
38.1063640757493
20.6122032847973
2.3046346850925
-14.1584466292905
-27.5604874568052
-37.5383423864369
-43.7856013976275
-46.3783367653157
-46.3154715297498
-45.0575719568674
-43.397019517598
-40.8720801728907
-36.4553577130199
-29.9942812522209
-22.8158351629548
-16.6055538058396
-11.841293516043
-7.65500729614615
-3.01619925579014
2.33187265578424
7.88273421228157
12.8742287315475
16.8496299476689
19.9104124587634
22.2230908851172
23.0822206860227
20.6904972247168
13.2899384293037
0.86936493453285
-14.0333048633445
-27.4103137302943
-36.2605173921722
-40.4098149074207
-41.849933916109
-42.3628185643939
-42.1119619622846
-40.3358555745354
-36.5710658061038
-30.8577073401809
-23.3497448797209
-14.2836495327159
-4.22083662486215
5.9703279462212
15.4597126433601
23.8119220283595
31.0262566958287
37.221005982671
42.3093702336835
45.9471756055204
47.6658190626463
47.1454924217965
44.6258829351158
40.9509143269908
36.8578123897852
32.347654143626
27.1598595811296
21.654480084358
16.6410969133912
12.378530776194
8.25962957715354
3.58542535732297
-1.65313720584977
-6.93450537174073
-12.0881027917736
-17.7069734713932
-24.1870544496397
-30.3733576208187
-33.9543614953815
-33.713543683399
-30.9639476030626
-28.3308958837645
-27.4048559855148
-27.8135653626189
-28.1444564882927
-27.319211756732
-25.2054798711309
-22.2384602595241
-18.6458304341349
-14.2191138297657
-8.84107109782191
-2.82165390686747
3.56378866978962
10.5233691402467
18.4093145526316
27.1379916190663
36.0731287466598
44.2137830316522
50.462535446877
53.9352955398638
53.8476380646917
48.942889737127
37.7636284053232
20.4548310571353
0.21662936155207
-17.8699548899756
-29.9583684432701
-35.5389388405103
-36.8027787108417
-36.3347636453425
-35.4629339451794
-34.4022483234981
-33.2275117857575
-32.1832994548964
-31.2701912752564
-30.0006588614074
-27.5476390423743
-23.0227161726151
-15.9570398618798
-6.75334870338428
3.57634779636175
14.0879996434946
23.8910314506504
31.7015287670447
36.3152470149463
37.676498450845
36.7354461410756
34.082551482457
29.3853663090831
22.3031396619608
13.3523343821315
3.77851756292281
-4.87992236317685
-11.0693504023898
-13.7208175014912
-12.9168336280342
-9.97916765368867
-6.64785858915171
-4.00274122447313
-2.18077282333411
-1.13549782348502
-1.31487659978812
-3.21259723618423
-6.56787245109145
-10.6000365817856
-14.8253514748842
-18.996984899856
-22.3754287342384
-23.7354051983456
-22.2404511569511
-18.1210645981004
-12.6063348106901
-7.19645730212459
-2.63488861009908
1.46745365643385
5.75215766495801
10.1093923448355
13.9574097895066
17.1649503887935
20.100239635298
22.9446040457447
25.4381914744717
27.1901053570642
27.9081638592245
27.4411015348436
25.832576115329
23.2137497800446
19.4545485306318
14.0279007949714
6.46898049125142
-2.81971295732508
-12.133508368798
-19.125053246542
-22.4270285733183
-22.7061943693819
-21.7914489131312
-20.8518126668422
-19.7839744887361
-18.0565328541864
-15.4359189054202
-11.8880064640389
-7.28350083475822
-1.31352556188381
6.34760681410547
15.4395188667475
24.4579022674638
31.0184703840177
33.3853010506445
31.7952498515838
28.2959477157345
25.1691005791448
23.152700627991
21.0011375597375
16.9260237900109
10.4920199580118
2.9250531033795
-4.35361061570887
-11.1936918028786
-18.6016396521344
-27.1576820303898
-35.6332496700362
-41.5793945094372
-43.6009862644682
-42.7616133356283
-41.4110807153238
-40.9207640347878
-40.815016433159
-39.5619783100093
-35.6847249859966
-28.6251137918196
-19.3377335440634
-9.92597379319595
-2.10609304057877
4.05546348081199
9.78667224983588
16.1843724886579
23.0194967114659
28.4009562458767
29.661836290615
25.4755368424187
17.6698528491214
10.4958160539614
7.36028294490847
8.09704612575178
9.68483514108367
9.62295088026966
8.22188612320023
7.54068887632799
8.76103267166867
11.1920687520137
13.4487947383447
14.8374860494146
15.6418455214861
16.6394886628688
18.3612784661363
20.4479693304088
21.7576030692352
21.2426728749916
18.522641509834
13.6941350713136
7.25425649332072
0.456298887248015
-4.89544473387839
-7.59497724976893
-7.99688115996542
-7.78243651967323
-8.77749218240758
-11.65191185152
-15.3341602918878
-17.7847030624877
-17.6723187665249
-15.2916785348168
-11.9145384466718
-8.74682568568727
-6.59917739458084
-5.79544202137358
-5.86342514159034
-5.66456750826819
-4.23166396255062
-1.51880026671403
1.4950941749966
3.31718796944699
3.00895814581933
1.14397531961546
-0.628116371051226
-1.28971823512649
-1.45005737373355
-2.52489039683794
-5.32067588762425
-9.49595447627992
-13.9623958482567
-17.6334251059368
-20.0199640421598
-21.2496832451558
-21.5717541294589
-20.9237828705587
-18.7935722749574
-14.2562007273941
-6.45821840030607
4.33509203924526
16.0938945066308
25.8080600227544
31.2107374142897
31.937607596423
29.3162058622383
25.2312798084856
21.0829084302622
17.565429820795
15.0831211139456
13.9282352201166
13.9194218519788
14.2701513758866
14.1511577905828
13.2143232751105
11.4378738627481
8.76892701164755
5.18257597782958
1.02846311376837
-2.80691964315008
-5.2870092289132
-6.08761652179761
-6.04673151464105
-6.41082382140746
-7.64922569468069
-9.28034348641725
-10.6351274326517
-11.3782097463229
-11.5599082347227
-11.6879602647916
-12.5401316306255
-14.3383033838638
-16.1118649647863
-16.2856670241559
-14.1355124882944
-10.723132262415
-8.2523587000658
-8.11503672870428
-9.49418233288533
-10.3262571358831
-9.69734785669649
-8.69557473945897
-8.78540275600965
-10.0632385808708
-11.3880943869696
-11.5154913946267
-9.66289214123334
-5.60198674325488
0.0423079067271214
5.68467680469705
9.5793533888112
11.1568884382031
11.6497637575929
13.0969551982251
16.291379491404
19.7918511629083
21.4814602477011
21.0406755084476
20.2008277470082
20.4811371987313
21.3883888447342
21.1204793726033
18.5473207930695
14.225225130662
9.80118790435949
6.75414632188253
5.64308479507966
6.17899394225583
7.5470521506151
8.56751642236616
8.01630837177347
5.24914989712444
0.578759446298117
-4.89597252870356
-9.72016213955675
-12.7248523257919
-13.9102616758731
-14.8131930309128
-17.559130103616
-23.1339657231782
-30.3538720042451
-36.5319092295668
-39.5102551915529
-39.2988655701902
-37.4936201314861
-35.0558414007346
-31.3325020243581
-25.5733432588526
-18.5144028830633
-11.621321126068
-5.37399966108622
0.75154719758532
7.05635978705143
13.4168909292515
20.0388121287433
27.258035412087
34.3224284091316
39.0808922967394
39.4132347806335
35.0325302538348
27.8856025409511
20.79659478694
15.6395679425472
12.6453200960537
11.0826194640111
10.177342977021
9.43922076420066
8.63883625138287
7.79584635441488
7.09472924178453
6.67728519659126
6.44237247396268
6.00409505935156
5.04596398503842
3.91089471262749
3.4998792612027
4.21028702142767
5.35731027190654
6.05829327616071
6.15999055462864
5.77456372620853
4.54625391368656
2.17355663057762
-0.670709276224387
-2.57981186651975
-2.45181373780601
-0.113052117098687
3.57652691583425
6.87169596698964
7.91701026201814
5.98258018196537
1.82966481407342
-3.44530927033534
-9.78148207784359
-18.0427041713541
-28.4940090072097
-39.6707499673103
-49.0914884529221
-55.0830842646399
-57.63028618647
-57.5466108620379
-55.3840414189448
-51.2802913064115
-45.2803676627855
-37.4511795732526
-28.0075595771069
-17.604331832265
-7.34409686953115
1.70991718312538
9.21828478952066
16.0402123910344
23.8400087080993
33.3908467668966
42.8697603892953
48.5206414066304
47.766466740634
41.6022057745803
33.6509142857102
27.0787738715062
22.6529774506163
19.4318959648083
16.5912388857685
14.1212698653476
12.0562338106652
9.85912283964563
7.00213561507948
3.75557271950454
0.966405735744377
-0.663481067973163
-0.708348198232579
1.13937816535851
4.67773872396838
8.7609627116801
11.8398889592204
13.0661314373129
12.7246758583439
11.7287774872349
10.8192595144176
10.0753073671079
9.09598118252631
7.64407321053922
5.87197085611758
3.86048125040064
1.43034217229895
-1.31957581340035
-3.7312411363529
-5.15642856094831
-5.56003576195665
-5.49971552855262
-5.76131803571294
-6.86571782227748
-8.58912930463542
-10.1525123124989
-11.1696482455831
-12.1443578633348
-13.7988068818481
-16.1980249985476
-18.6627700030785
-20.2585607221794
-20.4363730143042
-19.5951964012352
-18.8654411212976
-18.834859412613
-18.6591830980314
-17.0366110831667
-13.9401066760518
-10.6567961909633
-8.03129557630397
-5.43487791365063
-1.92157439818328
2.09482471316819
5.01297992166068
5.85578993236932
5.26676360344695
4.42303537492857
3.54772017488077
2.0961697643236
0.0284212991278884
-1.84221258514797
-2.6591158197676
-2.13591570826838
-0.466628329973087
1.94963912554609
4.76364989267118
7.87369830198684
11.2599893177254
14.6436830304112
17.5999980162954
19.9407524219825
21.6248711812696
22.361760854735
21.6812710204401
19.4659432452189
16.3118931594204
13.3526144356676
11.5235486909648
10.727463541175
9.91326710833642
8.28129170637739
6.17417686365219
4.49965765507714
3.60335969587038
3.03255732683815
2.12909866262939
0.59913273893231
-1.29387259095605
-3.0592859892529
-4.81056879269446
-7.64102493808053
-12.5806173069984
-19.1153516190357
-25.2573610437503
-29.1680670853176
-30.3675480998965
-29.5074954334706
-27.5141936179041
-25.0304566910641
-22.3537628388351
-19.6983211005284
-17.2890139790326
-14.8826518807902
-11.3114914552503
-5.1374499513639
3.73332889419834
13.1307013550269
19.746067155436
21.6452284622339
19.8067402956167
16.9881715403108
15.0746647670008
13.8205935532752
12.0318777251861
9.28516217791798
6.31905668172163
4.37102050187117
4.35107343863481
6.07065589388544
8.04407572176082
8.57764415490525
7.34041265708192
5.59859413459859
4.8452390738637
5.40593550585488
6.26313990873147
5.92930614841077
3.55440319318639
-0.474435080388341
-4.80432552037442
-7.94153032528424
-8.97257506757418
-7.94789224519044
-5.93511798364387
-4.43322499294655
-4.23465957439805
-4.86032847618105
-5.2837227056062
-4.94075266703507
-3.79698572000454
-1.844637187646
0.905565558649705
3.91109626796665
5.91613665391729
5.6423297913717
2.92323443728832
-0.926784331534212
-4.20453824546671
-6.2618234925075
-7.54848587738143
-8.40323738653493
-8.39659987740456
-6.9261458339382
-4.01652040694463
-0.470240857829666
2.52759851631406
4.08338429143864
4.17378518280792
3.55677691374812
3.07912500754046
3.14159493331916
3.65633619347608
4.24424002380501
4.56139492884061
4.62321610251931
4.71084245487494
4.92002207138835
5.03748474523847
4.89029911425554
4.52822577951714
4.03398489271016
3.44821181114593
2.88667668617909
2.45163069209092
2.06603250890373
1.64147908713964
1.31241997240221
1.31708528920373
1.79978417880171
2.79107570959632
4.08801073709584
5.12292261008166
5.29556869889901
4.43835098070716
2.67552308281577
0.0106216857379961
-3.5284395906012
-7.46088487592269
-10.9722055218439
-13.4848639107251
-14.9824812766303
-15.8584360372952
-16.5050310772882
-16.9646150670379
-16.9799709870829
-16.3716741117068
-15.2000023208037
-13.5233314770389
-11.1327915865588
-7.5074657007154
-2.07462270306865
5.0711921920949
12.51736303993
18.0921584751394
20.4760853267826
20.0144299188384
17.8128740720851
14.5249925970274
10.2852296466492
5.30083971316705
0.0323124752401472
-4.981281676832
-9.20084629503745
-12.2045094163126
-13.8838282186045
-14.3416795176831
-13.6134842944265
-11.7622589660706
-9.2101633617152
-6.67767624407297
-4.70054574152552
-3.20903047134833
-1.49486383520812
1.31884884454484
5.51522267877269
10.4284878258301
14.9075541564175
18.0524275237587
19.5330667538646
19.5036288798837
18.3714930363909
16.514986389715
14.1663606835093
11.5699471228921
9.04867797465811
6.80989253774315
4.9070642128382
3.42376202296307
2.38921572117651
1.51747580205131
0.382831493508771
-1.12183155109851
-2.71920029880181
-4.03024434998833
-4.75881362150546
-4.83303711334731
-4.57527623019323
-4.50800463420071
-4.79303490692901
-5.03728493325303
-4.77467739298644
-3.98352877326025
-3.10497891436929
-2.71915101324957
-3.12010050723144
-4.00252093872966
-4.70815367507139
-4.94559901512813
-5.00282089378122
-5.1084050864922
-5.0027156096826
-4.40828208529538
-3.59817022058917
-3.23542374655672
-3.76033078230935
-4.94190245218033
-5.92112617815106
-5.82798441795594
-4.49029491012528
-2.42509665578521
-0.188123393077597
1.97877649742669
3.91477597623985
5.3285117351937
5.89129171463829
5.41639464536633
4.0580825856129
2.39798702617392
1.08585680719225
0.270250478750176
-0.47564629067238
-1.68093388582944
-3.53106165346913
-5.72973988974453
-7.66002085233398
-8.8093728753079
-9.06154399542536
-8.46238993508538
-6.94398560053037
-4.64507200707618
-2.24809415045598
-0.433799126810784
0.916855570927629
2.48809752343019
4.57382045394399
6.76593021671519
8.46943037791961
9.38307196589604
9.62677762269699
9.63073646798829
9.71525744792747
9.70887486520131
9.23808454876309
8.31702512039105
7.29276815556625
6.34618102622126
5.44477482994867
4.63000529692379
3.95997091182305
3.2863425338121
2.37499925344661
1.15159617412053
-0.323307064488452
-2.02637255649131
-4.05162914747357
-6.51392142586082
-9.26282217701922
-11.7353599662106
-13.3394117571075
-13.9484895498632
-13.7751293433822
-12.9222242671232
-11.4164474922414
-9.52584900075865
-7.63320157820502
-5.8058541141034
-3.70496646694796
-0.882125173335951
2.85179454127053
7.10854208597144
10.9034022892889
13.2376070173834
13.8160160141332
13.0458535832727
11.4962842409903
9.70314985532054
8.25105902436644
7.45665019033724
6.98707137880424
6.20097140775388
4.8488218152051
3.22374429265518
1.76914994123646
0.712455065329417
-0.0513227946587796
-0.81994049732271
-1.78162745618715
-2.88724384591475
-3.98977577772477
-4.90494436628085
-5.38334245994896
-5.32945887018389
-4.99549086760049
-4.64659424342516
-4.15403028250318
-3.2424101634873
-1.99358994118735
-0.837939771896102
-0.209502118517336
-0.360057523865689
-1.29429603009706
-2.78677686390174
-4.59838418801144
-6.58334040931446
-8.42921964529704
-9.56305842145251
-9.65460444657069
-9.08394626098063
-8.63761738779262
-8.74301936255324
-9.01267661153092
-8.41415850322946
-6.00897053908513
-1.85486359001419
2.82655701234027
6.59613589250751
8.81455130044026
9.64529087768349
9.49077433827301
8.76818096076817
7.91313394085061
7.25353049100364
6.97047157152985
7.14653885236865
7.58723952763757
7.75248149883266
7.26835812829048
6.41575447779541
5.80747682289484
5.71704796984068
5.93301764267801
6.0754252693076
5.90169556150086
5.48875964504718
5.18446414653599
5.24822336184873
5.58478542474708
5.87845598082192
5.77798217868525
4.91992123531289
3.08902849451964
0.431766905190472
-2.72227443071444
-6.20244164149834
-9.92786980603434
-13.6217228554064
-16.8370762280631
-19.1601860653521
-20.2682665926348
-20.0328206244428
-18.7359902224375
-16.9164410165427
-14.7897415864271
-12.0359376459132
-8.35684137671523
-4.11184510044395
-0.233175737851414
2.57549964151703
4.61746101722058
6.97499721580188
10.1468656329215
13.0720365671738
14.0435988384943
12.5659178058103
9.82816944116474
7.40992240861812
6.01054967215497
5.39180416376651
5.0406873550298
4.70790474139933
4.4785446179337
4.45213276177664
4.49199861276637
4.39660668936132
4.13766614300813
3.75425699714117
3.22501604629361
2.61379953069604
2.0956487782794
1.68846081538889
1.17522393659921
0.374032408675163
-0.665467634497366
-1.70414956712075
-2.46478422403894
-2.89794999351914
-3.33986983733584
-4.1135838523336
-4.90532590553861
-4.92485860558334
-3.86175922406732
-2.37639693017468
-1.52149897713946
-1.93989802358546
-3.56857357381079
-5.68502666269731
-7.25302333758995
-7.68380759823959
-7.31945433197343
-6.90051702203057
-6.67368835540419
-6.28915502913546
-5.40153941596226
-4.07802893550869
-2.66823010139595
-1.42515414223848
-0.280319428385203
0.986514982977355
2.41775022253625
3.87179026081913
5.23480405865649
6.35993131069481
6.9224696100937
6.69661900980929
5.90467351168762
5.02814103376117
4.41637399444073
4.2483512457005
4.58393277828944
5.21733107961118
5.70072455566896
5.67931276481626
5.10431074736956
4.1548607279172
3.07652879295554
1.99449040644237
0.816308536989081
-0.508000153238467
-1.65630179524865
-2.2030521838901
-2.23384989966257
-2.27906881195674
-2.57166693390089
-2.80467816762609
-2.70604079002212
-2.42228654304347
-2.23721897599406
-2.26425483802131
-2.46952535613834
-2.74239806539204
-2.9306593382368
-2.90724697058364
-2.55648065667491
-1.80978360073574
-0.900723814697696
-0.348951210084196
-0.324985327581889
-0.237399444252094
0.671903638365291
2.46790694500616
4.48938047564472
5.97813978869069
6.60204522708946
6.56129000636783
6.25891462465447
5.78427821437845
4.85610950046798
3.34402870989566
1.55007486934916
-0.127303639554848
-1.48256645156988
-2.40575620094992
-2.86104286904545
-3.0476586033872
-3.34156577052999
-4.04186528089917
-5.23272132018577
-6.71334306603352
-7.97321649871538
-8.49469821238913
-8.22447973960403
-7.55755855667149
-6.84257342381147
-6.1684197562523
-5.57303731072609
-5.07125393030452
-4.47926527044083
-3.55573830817271
-2.32392297548317
-1.06117420234332
-0.0575038380830037
0.55485244957001
0.946257874021711
1.57205445907551
2.77462859882227
4.45382471518781
6.24476376814222
7.71501768983701
8.24750166756859
7.26872691264168
4.94803625035568
2.26535532725891
0.123566472437519
-1.27095476864955
-2.09585786204339
-2.44153741120289
-2.26373498115903
-1.54045319619381
-0.478906380607946
0.395138702756188
0.649164338748122
0.508222660951291
0.645470643082861
1.39696633064654
2.59562740013146
4.14123037677505
6.19349678001266
8.65347721327977
10.8563892614592
12.0238290593757
11.8932061105714
10.8159937629622
9.30887917210262
7.5629103947797
5.46648457886255
3.13394486471396
1.14445798685261
0.0075385958486461
-0.380667856334523
-0.491053960592153
-0.633655011866283
-0.90999512009155
-1.39369811436167
-2.11425344113959
-3.04000209784369
-4.15344551137445
-5.41822317783379
-6.78208201808115
-8.32077069590276
-10.1197734395519
-11.9182903784516
-13.2163058595319
-13.7975051981495
-13.7992370975327
-13.3347309620391
-12.4561200010738
-11.3764766669436
-10.3396617857704
-9.36873728748257
-8.3238812666445
-6.97792800312341
-4.99948127458773
-2.24216101232132
0.929695406118644
3.95453392815841
6.60724641399191
8.84615219534334
10.3462730705684
10.7105531559153
10.0768732706752
9.09157774479959
8.33151329786175
8.05566994460673
8.35835960822433
9.16651181318096
10.0864778120417
10.49662038521
9.91691296650178
8.38983381266281
6.52712842529775
4.99611749429072
3.90166645289227
2.86799393627447
1.65216986545263
0.348013575239928
-0.919111085017228
-2.14224983376648
-3.37926687744586
-4.79108202207983
-6.50936755329334
-8.29679572524293
-9.66245693100208
-10.4133571123106
-10.7264936620696
-10.7111948285217
-10.3441581374101
-9.73467800412961
-9.01181551575208
-8.09044176317369
-6.87633040937287
-5.46100284183765
-3.88165736680297
-1.99878776754511
0.230546153481191
2.66056911527159
5.180385981898
7.70994514483965
9.97505645467953
11.5811435516379
12.3039615927793
12.1320166819811
11.1631473854402
9.65747538220617
8.03771794170153
6.68283033201618
5.82988279628627
5.60165186625651
5.84322402234848
6.02904114914758
5.65610520297839
4.65500330245432
3.25284029254379
1.68224451816181
0.174424149648989
-1.07959066702914
-2.12423892263977
-3.19136181132367
-4.45608235352855
-5.98478069438539
-7.73868430693134
-9.46499174701706
-10.8259578500486
-11.7199393130087
-12.20813968575
-12.230465519036
-11.7831333156206
-11.1541922697421
-10.4971820851108
-9.43181464211269
-7.55875028415429
-5.11703141339538
-2.73483584036277
-0.780530100810397
0.790254278049525
2.24801499469899
3.93739597645461
6.0209245186939
8.22428055498288
10.0382377510591
11.2076450741601
11.815671338543
11.91035543932
11.2939438247193
9.74392496796355
7.37409792197985
4.78686093152497
2.77515151250048
1.69876218695536
1.23690009322659
0.886818922346694
0.505912901108344
0.242801146543131
0.227441275666739
0.446587415371357
0.65788760606429
0.455303575168033
-0.278280113375067
-1.13192310886755
-1.68250400108813
-1.99761561301622
-2.37083833797711
-2.91939003799159
-3.64237644626769
-4.44916514848916
-5.02809636525685
-5.16041010422133
-5.16512510113218
-5.56185232713912
-6.38667452984249
-7.23475785582077
-7.74257195430418
-7.67893151189549
-6.89284320454312
-5.52873262591481
-4.04852161383633
-2.84672773459335
-2.07116315340163
-1.82915641533813
-2.20017531499502
-2.9467671265046
-3.4421226887996
-2.91855301944674
-0.780462484689525
2.97086165544524
7.37406534259541
10.9037397871584
12.5759209347075
12.5931626857918
11.9147845173842
11.4131872584833
11.3431581268421
11.316951253622
10.7607042144133
9.43075866182974
7.4130757776676
4.84580749599801
1.98326987458794
-0.695419442328739
-2.85465658065328
-4.59631245372959
-6.11980822357092
-7.3949068568467
-8.35949290993979
-9.04063767598103
-9.34660971258947
-9.14505990489259
-8.56785709379234
-7.85064737244613
-6.97113899847139
-5.78925789338486
-4.33978959753525
-2.70705895490534
-0.879956053839322
1.06432798520486
2.91442437397962
4.57788663323497
6.11393265009877
7.48007074915192
8.48844743055412
8.98563383109418
8.8736838142083
8.07179413624356
6.68081582627243
5.06094731989845
3.57421714636938
2.3707110801342
1.45357095148465
0.739311190046375
0.0812563823044244
-0.56633769019716
-1.1220554479534
-1.6331136478552
-2.2820416541263
-3.0261190999198
-3.56367825339243
-3.74502750440689
-3.74241840560544
-3.8709022423908
-4.47169453861758
-5.72583364751287
-7.31265240721939
-8.55058803050539
-9.08169162090483
-9.08973197937603
-8.78756616275789
-8.12759335117591
-7.05160026369996
-5.64054242584425
-4.04837241507927
-2.51647903885741
-1.244207491998
-0.0914216234768146
1.27701238008437
2.88248835303777
4.4412229208194
5.85398943789158
7.23136333511525
8.44843665906954
9.13624107791276
9.14932943591036
8.68428925986544
7.94976205221737
7.01974198982975
5.96232409994253
4.88485489167195
3.91419585943806
3.19806396666379
2.76287268468237
2.39803364217376
1.88353746049354
1.22741258308158
0.523196782731166
-0.200954599235075
-0.872057402454957
-1.40660429737428
-1.91571744791683
-2.5863007091107
-3.40892519304439
-4.27017901029799
-5.10255804506094
-5.71767804899945
-5.83454033112701
-5.48503885494957
-5.01884173767611
-4.60184937887869
-4.09794894083723
-3.40545134444747
-2.50943837291229
-1.35983551922498
-0.0570621935996308
1.09341921261311
1.97350952492233
2.75902952014342
3.46712072258269
3.79796054717065
3.55987942253787
2.90862246203086
2.13009919571419
1.48536187029514
1.18674529979695
1.19190593929352
1.11575438722963
0.635011268715532
-0.141649497020749
-0.874720973123423
-1.30807390677927
-1.25750941633866
-0.651357493621658
0.241847364396755
0.898233349630877
0.957810047464481
0.455584999826475
-0.246504439416927
-0.679599759470238
-0.65788407412316
-0.500039536385931
-0.613228116873497
-0.927681025904551
-1.04095655529286
-0.787426146357284
-0.381146796380832
-0.156489768829225
-0.33687187974675
-0.833265980629366
-1.2274117602627
-1.22253895954625
-0.996771360184391
-0.80690511753117
-0.524814094167498
0.0538409728977457
0.767161277013284
1.31992324397895
1.66167171847315
1.89052138550538
2.07796181745827
2.32066255713552
2.68762032946812
3.08037774595696
3.37716570173075
3.61947986380634
3.80924196703406
3.70864954738168
3.12766399596253
2.20547818376968
1.16176149429414
0.0141436503508012
-1.27428035484645
-2.63145076441039
-3.94656390719688
-5.05382080000665
-5.70777271468327
-5.84532987529086
-5.73930339412399
-5.66385849735293
-5.57194975973894
-5.22854655138457
-4.48532566387169
-3.42497842068658
-2.38441497877045
-1.67259077065026
-1.14219354563335
-0.348544659163943
0.780992821494993
1.84543997103009
2.55661458521773
2.95194308410552
3.07228562860346
2.92858760726269
2.70970822181441
2.60490432000054
2.55245666806651
2.43972902996084
2.32005822421724
2.24593751119017
2.15608864739637
2.03308253019405
1.92106097555481
1.77498797203674
1.53376411848328
1.29263929581238
1.18433930987283
1.18911563191616
1.23570462664609
1.31911150290246
1.38696608944437
1.33409582282852
1.16220896801733
0.881025592370573
0.333942961612823
-0.53282252619259
-1.3787982337821
-1.80097608914073
-1.78364809329265
-1.57989641578146
-1.40399530027961
-1.38756859739781
-1.5420299930828
-1.69840710833326
-1.72067841847451
-1.68052613426664
-1.63071451205762
-1.46850601217314
-1.20029348673704
-1.00274177213075
-0.90410079112514
-0.760263685563074
-0.556115964934344
-0.387083221952524
-0.242901367797196
-0.0913217204630044
0.0341268679309067
0.208240605703586
0.548931908319081
0.886736244461961
0.907439263510327
0.662012216669874
0.502116579530818
0.511357286343144
0.434379952632051
0.159630780585434
-0.122169425719551
-0.223444321254215
-0.122738719825659
0.0913589399922758
0.219792228389281
0.0688337213522813
-0.276091018802146
-0.502668698264928
-0.453276756663755
-0.224996782387033
0.0489949701667387
0.274293039156056
0.3773498059413
0.394162653884785
0.403938509934358
0.32410861068049
0.0295777785458992
-0.363145897648238
-0.623192600026202
-0.714091992920722
-0.731695526456944
-0.711209493711527
-0.649667946129912
-0.486920196649002
-0.0616466163536553
0.604040374130177
1.12385009361093
1.23357455977269
1.21381896933597
1.43607691528204
1.79941945824717
1.97812418502074
1.9012197841442
1.70289306567436
1.49141127589267
1.32081711455594
1.12461150991608
0.664189604327816
-0.177809905318787
-1.12620957743399
-1.8054155058238
-2.1454671492505
-2.24254916656763
-2.0849697844675
-1.71706122891892
-1.38930339249289
-1.27135706243947
-1.26047585457771
-1.20040957139956
-1.03183296216274
-0.73418574769828
-0.376879708678085
-0.132697256175395
-0.0580608233280639
-0.0449334405394508
-0.0631282202116803
-0.170668135040019
-0.281272552552503
-0.209826958077978
0.132600911857638
0.80070055293003
1.82122372050236
2.93860914143233
3.69393702385038
3.9244466808411
3.85550620506434
3.67211715802901
3.3568294511712
2.87587208429781
2.19436400435468
1.24741561301811
0.110149409329673
-1.0309566157207
-2.15707230487199
-3.34352288802814
-4.40111591829632
-4.95022977141972
-4.82737946820364
-4.13298718686152
-3.04567318294556
-1.91225128071075
-1.26887915159712
-1.36728821196079
-1.85868520634014
-2.218865155786
-2.2284796650543
-1.87672195095614
-1.20266078312757
-0.427041242029538
0.115219104719404
0.298191519815702
0.234995319643311
0.062557603109489
-0.101771683399301
-0.159152215931332
-0.109819480661926
0.0711934217561412
0.596994339878793
1.5921547610057
2.74790338134599
3.56751993666669
3.82866925941762
3.61239231271036
3.12649788061183
2.62957292485642
2.23752866705616
1.77621094032831
1.09527339423969
0.389368105210245
-0.0655581533792572
-0.240197121313716
-0.185912853975806
0.10905075690293
0.506589589118811
0.737306770885784
0.766701800615871
0.798301469202729
0.876317839209485
0.834514001695193
0.623863578186677
0.35820821578373
0.0898498252918598
-0.171451298145828
-0.327255700072876
-0.310273668149255
-0.180362057765744
0.0103131714139494
0.203064476407269
0.179636442039961
-0.245646799023091
-0.917950570040028
-1.51651538099459
-1.90029728849918
-2.04994001068801
-1.9174683897723
-1.55838052025253
-1.18691786176583
-0.981839166658108
-1.00222352982832
-1.21975285347812
-1.46363415319583
-1.53021024775524
-1.4723428519966
-1.49917687680768
-1.57268569578469
-1.47374289558455
-1.18060843380183
-0.776615673986275
-0.195558593328984
0.520791612982698
1.01807555007133
1.07952194661023
0.946971290462512
0.902072053402476
0.899335286380665
0.804170549958755
0.597002645968999
0.223589131368865
-0.357537687763602
-0.901382882453
-1.00613736506241
-0.544623197343753
0.290126195322327
1.24093033171136
2.02294807447326
2.32163710657979
2.04621898393846
1.43944663687101
0.815394572052844
0.352872786186423
0.102661253653541
-0.0144600356087251
-0.118589706696234
-0.1674243009622
-0.0565196025187366
0.0738286302089358
-0.021277614969576
-0.279060594552595
-0.427726196878743
-0.405938358452493
-0.355980930513462
-0.362841703467301
-0.448327649360133
-0.600559393203191
-0.682285739735445
-0.581551431142217
-0.431015261501203
-0.36735410354766
-0.241604593647589
0.0909677706364793
0.449687886668678
0.60972950345754
0.60409561952383
0.517816100135122
0.319074749374416
0.0531298827099721
-0.113763433944817
-0.106637216706054
0.086411674210003
0.576111948911938
1.35652188042879
2.03993190732456
2.18028983390658
1.77733539807263
1.20253315156711
0.792434801211838
0.677759888784341
0.756808083212133
0.746822753394535
0.531915275250689
0.414570887830798
0.721467641453864
1.29099797331819
1.63442898150081
1.45085768689693
0.818498211253657
0.0725530633562349
-0.460694511274321
-0.787440630255724
-1.18821420880891
-1.71194327544658
-2.07740800075791
-2.23096545655041
-2.50650839039106
-3.05364935558053
-3.63398874057742
-4.10208816360889
-4.56857612052678
-5.06158550406219
-5.48364816118636
-5.796019584475
-5.85985317126938
-5.33653738619474
-4.1068259429505
-2.53574021733023
-1.06711015227656
0.18437256453985
1.32234205747508
2.48136918931204
3.8134056204279
5.30620822451993
6.57589922341093
7.14914883364875
6.91794543752786
6.09551374766432
4.94830366412326
3.84365964034132
3.27443092602522
3.49931799836199
4.25642956630521
4.91838534162317
4.86367750366128
3.86831611586151
2.31503378424668
0.856668666835203
-0.180614136356695
-0.85199490743473
-1.22221361511761
-1.35666281197601
-1.51589596294252
-1.91662009108114
-2.46177799061694
-3.01942813970108
-3.67414634150607
-4.43704245974349
-5.04283035680815
-5.21749265596762
-4.86590646461308
-4.02278937895091
-2.92901739939284
-2.0083631379443
-1.4886206889618
-1.24298419399545
-1.11577944409792
-1.04486782405096
-0.817748790667987
-0.187630941103849
0.6763135412248
1.27484983296903
1.36005411477069
1.09792350381919
0.75705031853711
0.611924669346819
0.987158550450504
1.97475153973831
3.19869190520196
4.10363859283971
4.32889709222543
3.76463762250033
2.58666021949633
1.29008853898449
0.38097897232144
0.0217392876584657
0.108904733690949
0.471221069668068
0.840301891069965
0.916077982400405
0.597856157465048
-0.0408065150455823
-0.922614894194584
-1.89433781133629
-2.71521220638986
-3.32967043676798
-3.83903134436868
-4.1086769733517
-3.87615815132562
-3.2980272334375
-2.84817091653171
-2.66731267619685
-2.50874798228341
-2.21707801502615
-1.80125777457257
-1.22389001648231
-0.516041588756154
0.110499777702391
0.542548555454353
0.915970318599588
1.32637702412285
1.66911623809067
1.8623598208871
1.95673834715433
2.00424216737143
2.05669553664252
2.19392941705062
2.33470765582131
2.24503817315092
1.94345345459681
1.78986264017073
1.98825047748802
2.32183727550792
2.49519581828218
2.45660308733977
2.36410689914405
2.43570979949868
2.7479562848776
3.0855145394248
3.16152022623414
2.9524027939141
2.56693034966571
1.94635857339467
1.01194328688617
-0.0997198876442012
-1.20312590884174
-2.1647123341949
-2.69980734857594
-2.52946666376452
-1.86862575817537
-1.29226583935872
-1.06574019151786
-1.00978616225316
-0.915995621863468
-0.698720476799672
-0.325084816980916
0.0623954937308049
0.163072049506774
-0.120505789558944
-0.581803159831856
-1.07623365077643
-1.69029543713911
-2.48427623062261
-3.35640118985005
-4.17155080037353
-4.77873819796931
-4.9943959639253
-4.80211316201417
-4.41721199418233
-3.99920511764021
-3.52360988029495
-2.97730626943016
-2.37473263826934
-1.63229446141518
-0.755197521426677
-0.0085329856251725
0.3999278914293
0.609214853723384
0.867484165552899
1.23812669354158
1.60637774089771
1.72135075372299
1.35646942455054
0.750893286811744
0.628720149522705
1.37663018838471
2.45420058861277
2.94804550043229
2.4731765425126
1.38531074294549
0.418505571263238
0.153153492082276
0.537490324757554
0.988836372303714
1.1417910299588
1.22488953332776
1.55683965094109
2.10738487047924
2.74066333062664
3.43213252592151
4.04865145637369
4.32816494332321
4.24799349375587
4.07897925563445
3.98579065008354
3.86022849649986
3.56105558145562
3.0800974692876
2.51224514374733
1.98751669732308
1.51164154925688
0.87984252825677
-0.0473934540439989
-1.10606686549408
-2.09171314674513
-2.99642746652771
-3.76223365203298
-4.20837362651576
-4.43567504241003
-4.80803102231018
-5.29389608211095
-5.32000662528808
-4.51156729946737
-3.21899285706184
-2.20132477778969
-1.99735680876114
-2.51224365611158
-3.05852082530269
-2.97247709523005
-2.22336142422312
-1.22084116099453
-0.249316953976162
0.542486219638634
0.932935142167054
0.910083933118278
0.889283782751988
1.23325265350749
1.81247266742973
2.31545097221393
2.67637565412353
2.96123738061794
3.12855098264507
3.09809373312638
2.84319094613296
2.34798828362232
1.67044003434134
1.00255650100341
0.4785208408611
0.0518140066185591
-0.307068772848098
-0.52930246179381
-0.64933487355491
-0.80143196898368
-1.00786224938837
-1.25588756897301
-1.68254977854277
-2.40007147685399
-3.28010413151278
-4.0797394945176
-4.57492477073063
-4.5593787697574
-4.02779556419063
-3.29881156884494
-2.65867204533667
-2.06927674607846
-1.46369607269622
-0.967227007380815
-0.60239804124278
-0.224446496794045
0.101215425306179
0.175924837637373
0.196782269726892
0.666640696167166
1.72529852785085
3.00097576359078
4.08526756467354
4.82726911854226
5.26038795012496
5.47142091844136
5.47018571473904
5.17200123275386
4.66441068464804
4.35156325760305
4.52239050765384
4.89712305413644
4.91810370646999
4.33658936340674
3.24210065293411
1.78232117061476
0.166116988277949
-1.32040070678994
-2.55736429068584
-3.62610492479965
-4.50099994538621
-4.9649571171198
-4.86804879308204
-4.27773347577014
-3.41272020961609
-2.51198258204408
-1.65956541316943
-0.79372531309804
-0.0380091370603357
0.261716631174203
0.151356236826233
0.359996607170982
1.527518802234
3.39378958159911
5.05903052048061
5.75375205680326
5.20873711192903
3.70030590538968
1.90447721963824
0.392927341689625
-0.777105573271824
-1.83883273755128
-2.94525327667669
-4.21580656191973
-5.77235508277396
-7.4518379102214
-8.77547481394463
-9.3987657922236
-9.36095538770124
-8.8397350499026
-7.9446248515984
-6.76869708326299
-5.37033668311207
-3.73927912300043
-2.01978125114032
-0.638561701027109
0.0586791910851529
0.220353754110785
0.402423201149429
1.13656526284803
2.51799019046324
4.06114482958527
5.08909976291767
5.38647837731932
5.27057007098882
5.03265905362112
4.69845908277824
4.32882127423426
4.09371003901088
4.01868467872721
3.99853716631572
3.96831415780652
3.82601204185061
3.47057297897815
3.13242155640112
3.26674123158748
3.902483554437
4.47171626919177
4.39372951383558
3.51256737087388
2.0513277177144
0.503892679526375
-0.576459968602794
-1.0194657799871
-1.14396934766524
-1.26689165268094
-1.35132404790493
-1.26011951767718
-1.06560547330662
-0.954745792979961
-1.01921997257633
-1.21253649447701
-1.40361300346096
-1.53078169887737
-1.76208198503204
-2.28964381691284
-2.91911492273744
-3.18456685342535
-2.8984736913113
-2.25669999034651
-1.50185030844567
-0.863246468232029
-0.623427058420793
-0.826019307015664
-1.12530566394853
-1.22991120751625
-1.2462759593121
-1.42878578128829
-1.89445554671912
-2.60894072712668
-3.33719288713461
-3.69124651316058
-3.4862867777027
-2.86363369061127
-1.94402184047942
-0.724644051875623
0.620454695756678
1.78195432188333
2.65716030449469
3.25240546221705
3.40599667806395
3.02506732694339
2.39242675463923
1.89985819703582
1.69605033185384
1.77036160645313
2.06388868715341
2.36677622099599
2.41531170108799
2.16352694691753
1.73029268429478
1.18560374455091
0.676064724392455
0.562609134851906
1.07503898631298
1.9793888597235
2.81177523712863
3.2230639091429
3.01218953674771
2.17355487167279
0.98146530362367
-0.265970319652425
-1.52198465347182
-2.78540973896633
-3.86901601548746
-4.61279914401355
-5.04338865676263
-5.17974713868172
-4.99772211007126
-4.59815845651914
-4.07057897521406
-3.30393499477562
-2.25715525390286
-1.1854883871677
-0.317594561061103
0.373295767520968
0.885021082145507
1.07538747153286
0.973882772586747
0.834003615906473
0.837060976145333
1.03094634742068
1.45607130314561
2.08290659567775
2.77840382004709
3.47041207241324
4.12562234869843
4.51978526190786
4.32772283127599
3.49342929617139
2.2534569157323
0.808432702823874
-0.774130388659692
-2.39107775689967
-3.87605893919036
-5.08570067437561
-5.93456969667542
-6.5160675052367
-7.1359184014316
-7.90248778190132
-8.36754099495859
-7.90741001880557
-6.31731123221054
-3.81889435552602
-0.848427648695511
1.95986676398622
4.1043764912919
5.76952235096427
7.55067220311398
9.50823750429335
11.0088675216999
11.5311588203622
11.1522362196111
10.2893029276745
9.32988747340073
8.39191612976866
7.25697486828744
5.76717989118719
4.28011214143607
3.33515504879002
2.90268728934961
2.340073967058
1.01566964169306
-1.26531190727284
-4.21864852783428
-7.20011287124052
-9.56412635472591
-11.0802678426595
-11.8751456875882
-12.0359985919758
-11.5790278417693
-10.735458083659
-9.85238430665616
-8.9611662775797
-7.73466983596404
-5.86884707716294
-3.33566934688633
-0.411871955043599
2.36988284293903
4.47205652316138
5.67824330647296
6.07595145324198
5.80527341051666
4.99737051864459
3.83374964340305
2.5286115039036
1.36283867045144
0.672438363544344
0.561739195461702
0.768149090286867
1.07310230913929
1.58149373807276
2.31105017946861
2.8775338054347
2.91155158696846
2.45910727186866
1.78883601511785
1.16184570839742
0.831219441275159
0.865170138427334
0.980979658707547
0.863414628078341
0.534118504792249
0.208507187788493
0.0208872111112992
0.0321920869800521
0.226612612189177
0.401140342068773
0.322385600564085
0.015608651454533
-0.349825520891538
-0.784858371238014
-1.40434053952085
-2.14367684248508
-2.82578565256937
-3.34720158756271
-3.59094169777773
-3.42156502903177
-2.95329733764995
-2.53951357454331
-2.38338362628571
-2.38847753507682
-2.32562692243783
-1.90662974252481
-0.899840249932781
0.550834537314042
1.91872659898127
2.77053469957591
3.06185329878216
2.99236064583298
2.8371623713374
2.79705618906808
2.75590152914879
2.38924972073932
1.6852329491243
1.04783351700926
0.795064744846239
0.919164160186585
1.30883224979976
1.78546311540499
2.02038978368066
1.82877393514391
1.43203261529809
1.14861801531642
1.01306897707697
0.886698650235007
0.713448957498404
0.538451126517617
0.477963091714244
0.697899887517773
1.20388749866186
1.68561628987277
1.79190928911262
1.4854593077003
0.940752834404044
0.255284482113418
-0.553162982416031
-1.44250558226417
-2.34013278095032
-3.06677084816169
-3.35961525927447
-3.23888956621408
-3.16734843416347
-3.56622461463191
-4.40992397515537
-5.46175816984777
-6.50989924123962
-7.23311701323941
-7.32391958295832
-6.91771236252626
-6.51332644803305
-6.37816689187526
-6.25144847701281
-5.52980752152156
-3.65780305835174
-0.69834273494614
2.35627858667198
4.24590943115427
4.52816426594268
3.76569031414018
2.84590183429902
2.46946883110473
2.96460492501427
4.09622222015457
5.22557575856657
5.96254370451864
6.47245457416083
7.00409747019019
7.4307064415855
7.43800141415388
6.91787463878198
6.04158996996099
5.11476150794758
4.38217261369977
3.83847931897713
3.31625734616729
2.83839401888467
2.64550255255852
2.79860073839698
3.05428436272485
3.16024688504438
2.96764269972491
2.33296287143294
1.25072325040375
-0.0185513457076398
-1.20997505990787
-2.30310853772618
-3.39333077336541
-4.51481116547631
-5.56935530733833
-6.20475495165206
-5.97143492968262
-4.93406836453682
-3.87490243407868
-3.53870428509385
-3.89365112517697
-4.34101560354903
-4.36164597679641
-3.83732668685961
-3.0551280880083
-2.47372410027417
-2.26812437530098
-2.16121785239759
-1.85934955416694
-1.48110686946713
-1.40779764931662
-1.88537713884508
-2.85196218495707
-3.97149791787536
-4.8099738685329
-5.15281920072997
-5.11531549983209
-4.8035950546469
-4.05853418681158
-2.77650174385124
-1.26565234756019
-0.000366421988976
0.815169899533182
1.2963723096455
1.74041322122122
2.51620432425729
3.80662136631905
5.38292963789267
6.76237172486333
7.50019132718821
7.32558992913233
6.33190023155098
5.09477354348195
4.22953838675587
3.79634205297772
3.44067408356501
2.96421283241013
2.40401302986911
1.79327450077122
1.21617728875011
0.863624676728196
0.780924248239582
0.822457023125183
0.953114481847134
1.26677470548365
1.69260437650605
1.98952851698299
1.97362655278909
1.56001306741247
0.790617672258527
-0.0281605307248727
-0.520505667987989
-0.715243503960274
-1.00790465750131
-1.55609103476094
-2.04992878370692
-2.15137239101336
-1.84114179160113
-1.31869100416645
-0.854787270087441
-0.68377374201436
-0.781039060180583
-0.855655796219094
-0.724961416048316
-0.519013394702221
-0.46089004767045
-0.669989470572834
-1.12992515908762
-1.61787114446703
-1.81666725067079
-1.70055027514907
-1.59114101931661
-1.71632353740137
-2.00084362971021
-2.30467600423288
-2.52254819461771
-2.5159956048219
-2.30474367575282
-2.20685243172519
-2.49650185127753
-3.08691031760843
-3.7024229677324
-4.09709987079113
-4.04495505022074
-3.43811239325349
-2.42321001137488
-1.23355014086306
-0.0214286252013633
1.01108161388407
1.63382205992745
1.91857724410777
2.22895226993373
2.74849968453278
3.3177960062662
3.79845073375447
4.28828195342011
4.91681750687617
5.62231985894522
6.06660024613607
5.67934853043734
4.10507645860635
1.78846522767259
-0.261420949856742
-1.44703768314676
-1.93508514563428
-2.05380670196115
-1.90002510020442
-1.55420214940456
-1.13212401061729
-0.573223570927259
0.270235245019279
1.40568765618962
2.75843809320322
4.24443590927379
5.6633051662508
6.75704244023374
7.39941626243251
7.55442481401822
7.21335996698599
6.54147811147674
5.80197673972879
4.99674334323968
3.90336775790281
2.48402543580416
0.885571985305967
-0.86215099413439
-2.71553188455564
-4.32935561568397
-5.35968003459898
-6.01407979939023
-6.98254318343785
-8.76679329014617
-11.1210599783525
-13.1326331378769
-13.9802107391497
-13.7510246944762
-13.3338976184485
-13.3458219131945
-13.4415025362363
-12.8913711693779
-11.4631731569665
-9.43111920379722
-7.0957467592038
-4.64934325329927
-2.26723027722878
-0.0983135282367639
1.73881790333421
3.23539783800186
4.71961041614731
6.71126869062973
9.28064976147602
11.8250306865285
13.6518584040803
14.4591261149172
14.191551323018
12.8793277262309
10.7615644380356
8.29093108107529
5.96925067506928
4.23492814544048
3.26834089978063
2.80874305671043
2.43485007082201
2.0351420775541
1.74155743440908
1.56523934253685
1.41118670541134
1.21954121948335
0.84309274438377
0.132499832928812
-0.644000089714611
-0.891353084000024
-0.410249891182391
0.372642970513364
1.02657038378162
1.51890857154284
1.87521621458952
1.9185176178501
1.55190204384671
0.973534617010591
0.480094956268613
0.245929885756405
0.269696181670001
0.390712971944675
0.440636236326597
0.419208852363274
0.393164478175069
0.316925148677114
0.132059410126974
-0.138477619710408
-0.559565576704009
-1.28105481359588
-2.23565394753469
-3.12644155275441
-3.73835914409546
-3.97554525782429
-3.76357234156621
-3.3146439154068
-3.25400570054233
-4.04422002966194
-5.47869715445456
-7.01855918657219
-8.34302738155734
-9.41107681831169
-10.3403522583176
-11.3076447487468
-12.2239415595741
-12.5234083246046
-11.5942652570644
-9.38580341296457
-6.43869922669552
-3.49747296834292
-1.17948232017216
0.296597598059187
1.24271016956502
2.17685387684967
3.34152619487535
4.74190019530514
6.49167101722726
8.70156688110024
11.0592014845241
12.8390837309482
13.3283068206256
12.2117148313466
9.84265101565342
7.23422981701486
5.44277668875483
4.79788361367713
4.83245681870922
4.83174535212702
4.34299024080863
3.46218969590772
2.80198598610798
2.89407306099574
3.54655668014044
4.05378058634181
3.93369223901468
3.15761648866324
1.92586623627722
0.61113575964984
-0.361270275347122
-0.926992192065709
-1.39835923678118
-1.88052213174812
-2.05057330429793
-1.67863162319221
-1.04407013599128
-0.733389506767971
-1.18792634628248
-2.34940847579825
-3.60783718789398
-4.29995506308843
-4.40325339290729
-4.52839628181941
-5.1340115457272
-5.99079846148034
-6.50329564340302
-6.33017222072477
-5.62282428222869
-4.82257951066055
-4.21702468125633
-3.60373689347495
-2.50480817585789
-0.727760588338913
1.48983587605422
3.77736406006196
5.72971672810252
6.89020160171366
7.08516086347517
6.65267934033588
5.97838867416883
4.94841549339981
3.11557807366642
0.286600115836595
-3.09500708918794
-5.99022283295236
-7.3860454028661
-7.20649248793755
-6.42239853024858
-6.01059946375804
-6.07097716742367
-6.09129066192802
-5.63892653811879
-4.64867813988684
-3.45714367315452
-2.62494661472952
-2.35934800355616
-2.1627390298544
-1.356153934061
0.207458617200312
2.17575636416744
4.14772290963213
5.830385080502
7.02100477219611
7.7046923984033
8.03464503630073
8.10791108491215
7.88334173838019
7.29286575501053
6.2861698101642
4.88763165052465
3.35938173800223
2.1115678436763
1.32372545376211
0.869029897016133
0.601131343252369
0.384911284569332
-0.0955851195248763
-1.15775824836729
-2.73405736214022
-4.3634617225658
-5.45023010294012
-5.50473228135393
-4.50962801952502
-3.15478040352586
-2.32829711536451
-2.28003328172519
-2.53824926427484
-2.5198422795938
-1.92019737092989
-0.737580620732217
0.720451615887625
1.98933190464948
2.77660205975157
3.00385234176285
2.63632199363565
1.82199306766696
1.06302854982452
0.822754173175947
1.02474274391609
1.25286442861502
1.34590039255058
1.53443089883765
2.06578825835727
2.8602313786319
3.49389207148883
3.52285616757925
2.96571213801106
2.41279064157485
2.46653715270037
3.12610179127144
3.82267205825781
3.86952838068391
2.80157072930121
0.601167868890302
-2.22441919411333
-4.96041885556157
-7.1155919609838
-8.49946498518108
-9.16284688683257
-9.44097912136492
-9.70583103505943
-9.8801137972276
-9.53137317055588
-8.52470240646133
-7.18708285047463
-5.80647279056812
-4.35082629577856
-2.63365921816837
-0.449758283777439
2.2883312933631
5.28005185195779
7.89127656103956
9.62118055524878
10.3407530248462
10.1921475926048
9.59367358376707
9.13329514512534
9.00973221029259
8.74683134180946
7.82571334738519
6.36839860958469
4.86156093216512
3.47900684283815
2.03634785003231
0.394483214557668
-1.42368355263326
-3.38892501000939
-5.51779062073688
-7.81177860917081
-10.1466981983218
-12.1372268288343
-13.2522253800159
-13.2351842774767
-12.3239293248173
-11.0375876559208
-9.89567908854289
-9.1869655456032
-8.66792019543905
-7.57650997304499
-5.25598479122645
-1.74286331963653
2.32312640559429
6.146521743829
9.1081336397019
10.9775463026959
11.9020965194032
12.0788371242971
11.5738259534855
10.5099858067823
9.03021796080232
6.96457488919101
4.10763899573714
1.0743375487939
-0.698199397130367
-0.226478967385492
1.96455591353301
4.22618068101989
5.10151596431241
4.34865807352174
2.92166711915251
1.99712409124146
1.98842999438415
2.51480946480914
3.10173518215863
3.57815271650684
3.89777189514476
3.96828535288074
3.66578482402084
2.79613533766653
1.218624222614
-0.76747457517067
-2.50486365347604
-3.77329803366987
-5.15232389148687
-7.24765071100919
-9.83326139328334
-12.0045839658387
-12.9559824462974
-12.495849698636
-11.0153084533506
-9.05369236528876
-6.88652785025339
-4.62129263158028
-2.53695088413489
-0.924594916900258
0.368704823477043
1.78437524594231
3.40632954002093
4.82670128260858
5.67790151000696
6.09066254500213
6.66422160298996
7.98998612120242
9.96327124811409
11.5565905617096
11.5518081232755
9.54475773533099
6.13660985877336
2.31476802915117
-1.19224378059671
-4.15034386696215
-6.63690318997419
-8.63591506305295
-9.91822251329078
-10.46090329101
-10.7396020506507
-11.2418239013295
-11.8387964358528
-11.9949179774458
-11.4451954978513
-10.340139975752
-8.90495290666192
-7.24693604624209
-5.35706406713262
-3.16657086370988
-0.726756622991517
1.76762989211505
4.31695094653524
7.16167824483643
10.1706968392359
12.5625236550181
13.6308609393841
13.4557883308848
12.6424601919437
11.694582580794
10.8208107852475
9.99347489930792
9.00923323685797
7.69514775421912
6.12231856562083
4.57125241694267
3.4087625904066
2.97443180248396
3.32950477634569
4.123643384527
4.89967055135587
5.39251044473109
5.37545400046173
4.53239477531615
2.77161881256097
0.442682593019919
-1.97466989424964
-4.23068665005841
-6.27479348908633
-8.07635018566713
-9.53507747242577
-10.4134500542222
-10.3999758566285
-9.42063520366327
-7.86274885472877
-6.43763064094021
-5.89077458872435
-6.63100343894524
-8.23457798876881
-9.46354019516161
-9.29889647533687
-7.92086922342759
-6.3225305400007
-5.19995104812884
-4.60896808141849
-4.3558542866831
-4.20396118444425
-3.87397101473391
-3.19667888860793
-2.18070229294356
-0.873798429296265
0.642938649808635
2.21759882145335
3.86690098281734
5.86482496571069
8.23738783915828
10.3421216027497
11.2909265802221
10.7253200793375
9.06529814464863
7.17917176923432
5.88703463759178
5.5583322794406
5.96004824542017
6.38334869718788
5.94386762540378
4.07249147640117
1.08636119112369
-1.79046405455503
-3.34403155051645
-3.40280866003743
-2.83365685740695
-2.64844461644702
-3.31219159364362
-4.68583958796532
-6.25371643992861
-7.40344713467334
-7.64970283537263
-6.66077292548031
-4.34318634193045
-1.2145793250771
1.5511324523266
2.90762012560176
2.70771392137868
1.54402631542503
0.173618589199312
-0.706968257679245
-0.604999654948881
0.493056163998626
2.21458220921651
4.20120070995088
6.10821070954642
7.36931325842608
7.47377872544332
6.48259013582027
5.00034935971881
3.74027879571438
3.18315620854993
3.32617169223862
3.64953400495273
3.60182923904306
3.11287272801644
2.42187908474157
1.61628646175308
0.650460555542673
-0.389070565028135
-1.33714017191278
-2.10719861327756
-2.59834826076909
-2.62859705137714
-2.12078507720641
-1.23799193037461
-0.320894835001352
0.200798354357422
0.0264074273700489
-0.648806760724956
-1.23441003636681
-1.49656769014959
-1.93526167289644
-3.129213354004
-4.95556845362925
-6.68262021413977
-7.64310153249736
-7.70818303146432
-7.25162394558332
-6.7018179132631
-6.14566183809842
-5.49090388790956
-4.87317316085596
-4.55241151386244
-4.50888432746361
-4.52972769061759
-4.56829617496083
-4.64676298082649
-4.60511335332165
-4.33021308830869
-4.04301825850772
-4.04831740184199
-4.34113827971967
-4.58895776133042
-4.34481050653593
-3.3074885002665
-1.56667900165608
0.499029328102915
2.69039300318118
5.13394765871664
7.81744319064243
10.2248062144743
11.6000515074526
11.4432435996475
9.78833324087205
7.27560333598964
4.92653978622188
3.524720579085
3.16009731957054
3.48149944129847
4.18660286081911
5.09516641056366
6.05268504421836
7.01148678169874
7.9826885779825
8.79083490265465
9.11881640625305
8.83119123536863
8.0469420669284
6.969832622978
5.82611944373429
4.78417076182445
3.71950399558667
2.20454014162414
-0.102424224191236
-3.07089995987502
-6.04612745686801
-8.20881515468534
-9.27194968281569
-9.85658563846624
-10.8215319763205
-12.2270869596257
-13.3676544489591
-13.7260700015807
-13.3906775570786
-12.5969409976281
-11.2982976335418
-9.15280717942581
-5.73216602309475
-0.99308283344283
4.25430926014892
8.65305633040887
11.3254530852016
12.471462965892
12.9740975676154
13.6523286239983
14.748013213619
15.7116866565951
15.5198797297947
13.5633832776675
10.2371916326622
6.52488733136414
3.19574867952516
0.5158906892533
-1.56950838458252
-3.18101452498295
-4.32273077364459
-4.97955434221922
-5.46471446293971
-6.38878697274591
-8.05747934343489
-10.1134598759148
-11.8701403027328
-12.7467001093078
-12.4644209611742
-11.2696537012663
-9.93119410381967
-9.07658773401222
-8.53550214869414
-7.63563016855326
-6.06290709863256
-4.24707386124823
-3.03118573219458
-2.98640722116296
-3.83723508315438
-4.6287585996064
-4.68765045955849
-4.25367195108456
-3.94376524498737
-3.86188998202557
-3.5267815175873
-2.47090502103682
-0.687820734263734
1.33294115428829
2.89637717076622
3.63787428766996
3.84199898827642
4.06683042006622
4.51492735582506
4.94216111261506
5.01053341058587
4.552732320251
3.72136672164994
3.02038478292107
2.94641295933288
3.54698710306632
4.54914307336926
5.79307281760483
7.23190855154935
8.65059831320861
9.65328552653719
9.81381787973412
8.81945606439153
6.80931672713066
4.60084004530821
3.19105650294605
2.96369730740295
3.58179937394606
4.46573317041164
5.11929444679988
5.27210824607841
5.02586299053766
4.69971474765223
4.40883123827207
3.98906604099224
3.31794604139502
2.4609555357084
1.53162060617603
0.558673137694433
-0.599632295177419
-2.20159859243317
-4.19998529231623
-5.89956098392775
-6.47827615348375
-5.94588212341821
-5.19265741797342
-4.99232724884027
-5.26608061907058
-5.31447946179255
-4.46975724583193
-2.60541007958113
-0.294386669979741
1.60079054141935
2.6243454043402
2.91644823150376
2.82174394741933
2.62208624408529
2.53576754419891
2.60290635373323
2.63130486930187
2.49356644705945
2.319270478472
2.2083091665989
1.94793279270407
1.16071394610263
-0.359071524189007
-2.40425845803509
-4.37431661261906
-5.76975868269084
-6.75775054813045
-7.91570140006338
-9.3809450552284
-10.7020542805444
-11.5391073581525
-11.9972576766891
-12.2561914481453
-12.3713828889776
-12.4699213927673
-12.7163727591176
-13.0087892561555
-12.9490287891021
-12.1618053341424
-10.6024649594484
-8.62248145609772
-6.67157241715807
-4.77527522798631
-2.44779643534763
0.652603501439798
4.18962912697678
7.49409586679646
10.1074090406851
11.7354258158425
12.1289383634772
11.3697919225455
9.91332588674488
8.11448654238271
6.0522096365151
3.90566760552514
2.13415414170707
1.22301030401967
1.44733606476748
2.73200341776863
4.55246515054485
6.20839460550299
7.37862278241904
8.23903557433595
9.04548108971921
9.86488982965184
10.6779418293211
11.4889052467141
12.3340536740744
13.2671282325205
14.2628748866327
15.1529982311265
15.7171132168655
15.65747886236
14.4570420557972
11.7017862844567
7.75177171870766
3.66533712323323
0.201653314601451
-2.75156549744988
-5.59281073443143
-8.26190604760172
-10.3133305903903
-11.4368819265902
-11.7203405787961
-11.5488303243976
-11.2219369291277
-10.5077086388563
-8.76630335393412
-5.77553374504448
-2.26813203951907
0.519384751953615
1.64848293812301
0.866495562756433
-1.3772449436653
-4.19889765168591
-6.87281916042914
-9.21879358651571
-11.269577450444
-12.7330640747728
-13.006184663294
-11.62837907028
-8.69926447967044
-5.03612967927365
-1.84506258348847
0.0229743852645324
0.488952843330979
-0.0345277941449263
-0.990093313868157
-1.75841198177661
-1.95184787672681
-1.79942521699364
-1.86867438945027
-2.37518823801009
-3.06588615928394
-3.64307074908821
-3.96682553775566
-3.98025447148259
-3.69462283597234
-3.13459095957216
-2.24438973502848
-1.08927139401065
-0.0900890289579972
0.360615438745602
0.496496864173657
0.921002142868456
1.72745764716718
2.29955123366023
2.02061908092996
0.882853777518705
-0.548861536939616
-1.54733030395489
-1.6886638858808
-1.05862127639136
0.0126834429855234
1.29491934605161
2.63735124149841
3.90614290082127
5.17857935682387
6.71918539945233
8.55476192336587
10.328263917302
11.6626646076207
12.4048979937818
12.5724743424265
12.4078075449535
12.3858639911861
12.7929897797253
13.320107494088
13.2771233261079
12.1828178412714
10.1664319131489
7.9354756407453
6.23807016959546
5.17251134826239
4.15521149316354
2.64087239815844
0.615960751534632
-1.63650525590386
-3.84529363841384
-5.70210716894868
-6.89488518166388
-7.39368286932982
-7.51074339442386
-7.63437315033506
-8.0306997973178
-8.72298972526214
-9.32872013905793
-9.26771744873349
-8.41153218845556
-7.27976306108636
-6.40865284270131
-5.84426700866377
-5.37155659347381
-4.85764189379422
-4.25918927352266
-3.61198625879825
-3.06513227797351
-2.72692779730911
-2.54740196638358
-2.45112699533698
-2.3903578000893
-2.22740012964615
-1.83144861062753
-1.30315138151524
-0.876918862499853
-0.686537029682133
-0.80470326857541
-1.31575903360202
-2.18021338812284
-3.22553405561346
-4.32741425531969
-5.37456425792207
-6.09588239425255
-6.17209436661806
-5.46788301259683
-4.03355580792321
-2.08217864763024
-0.0969452428831744
1.3071323875164
1.82965765600071
1.6665799751771
1.2371848497696
0.932289046158058
1.0293422496088
1.48751616908673
1.83495574478765
1.56379559474627
0.617810134880248
-0.659207347451791
-1.84532453853467
-2.5609850605868
-2.57708449394086
-1.9875636592534
-1.06271851149655
0.0767459565679233
1.399070032016
2.68171225476252
3.55936931302262
3.74294932880341
3.08974879653822
1.77801623090941
0.573518281479178
0.568114954291312
2.39961553420127
5.80047421577775
9.81646126144418
13.3080171860662
15.4985622826063
16.3607837169414
16.3956367889761
15.9786244520034
15.1240212677331
13.8254293714285
12.2686481868454
10.6625042759928
9.08858595050262
7.53373911048021
5.98836644006256
4.59986738925349
3.70443517743415
3.44285719959082
3.30453142163668
2.36958754512509
0.169852727443617
-2.8079724033697
-5.47514008030489
-6.93546527374268
-7.13976963650451
-6.90841464705438
-7.10830795567622
-7.7600896853688
-8.22854743656511
-8.20476683337585
-8.05240960741628
-8.22550174895015
-8.80086573913546
-9.5952813148948
-10.4037109186477
-11.1130294966062
-11.7422387613811
-12.3212383377945
-12.7683923808746
-13.0751217837661
-13.4743579527706
-14.1535362347922
-14.966665161288
-15.6461326928268
-16.0121469631814
-15.786603994375
-14.6168692823127
-12.5494607195813
-10.1463614439825
-7.93016426925756
-5.94488961863224
-3.92146498056738
-1.66144030652191
0.760843985944695
3.05231969225427
4.97805986387905
6.57563305419179
7.99118479576305
9.2457635828518
10.4143641304842
11.8166434324579
13.5902037976601
15.2302864710232
16.0440133336557
15.9702250073534
15.5421964314385
15.1741894831302
14.8326689577105
14.2603118521586
13.2553317516295
11.8311424940743
10.1975803987891
8.52023222161451
6.83592811460916
5.32397115492169
4.34629567984133
3.96835087173234
3.71469189397367
3.02043516508121
1.72885075783174
0.108963069871586
-1.34505390738315
-2.14853073225974
-2.13559842541768
-1.54448699534807
-0.721836347099464
0.110638017565404
0.813862556854983
1.33532035056023
1.74769507889108
2.05365259745995
2.06680003662382
1.70770542807107
1.20251950746937
0.717814963655651
0.0109778142786936
-1.27423173919818
-3.10147273516647
-5.00976694786704
-6.4494058701016
-7.0775417964851
-6.92502996455615
-6.35327151752031
-5.73501443439643
-5.22090303307558
-4.8726630453932
-4.8081455076647
-5.11027930888842
-5.81057187868534
-6.96205849793536
-8.43602586284581
-9.71297932097615
-10.2434244229872
-10.0133758603139
-9.52842323303705
-9.32114231028966
-9.55782672479786
-9.89213797419558
-9.65625472474018
-8.49476845184748
-6.81884352962529
-5.35844525601834
-4.35403082334686
-3.42689662226007
-2.04135872843875
0.109814830914125
2.86076126833162
5.47903829589385
7.11417335228525
7.55626758317057
7.38387795338092
7.30943777938524
7.52285036026476
7.63920962902549
7.18030622469116
6.20272612851016
5.49680472534667
5.96749897528068
7.73970296282165
10.0329165275188
11.8596399136292
12.5648212232966
11.8024198538039
9.50975569362798
6.10449613984509
2.48899250731702
-0.269369237134613
-1.36689483453601
-0.678204838616376
1.1374512815162
3.12776952212032
4.66493104483716
5.54040386263461
5.82184815912703
5.92801876588457
6.49253229454825
7.72877616882194
9.04329295106069
9.42742509053978
8.11664780532836
4.99815985722461
0.69722082047413
-3.81737152014254
-7.95471346685257
-11.7213617164843
-15.1749537057854
-17.970587536997
-19.5286203450153
-19.4215449559419
-17.7179816854063
-15.2086301681618
-12.9732449962361
-11.2903458040889
-9.23927472433259
-5.80692185853058
-1.18911978591034
3.30744767398618
6.3941642073898
7.56052174152281
7.03922469500807
5.43490691796798
3.36403828547487
1.31190954096005
-0.251421205971793
-0.923602144265869
-0.77783413683561
-0.445384087208916
-0.498420776188772
-0.924738841457299
-1.30529097487765
-1.21489612966422
-0.427966316989998
0.893230436293608
2.1606114612739
2.76941138295318
2.51575138445447
1.51372168066968
-0.0274288906454092
-1.77808232641169
-3.32263828138457
-4.36343479200472
-4.71398565569577
-4.17467019006985
-2.71534861495308
-0.71841643004234
1.1894427599107
2.50172123204812
3.04133892494558
3.07699343994768
3.23067626428115
3.94399393689813
4.9957527571089
5.76637538542796
5.91500847264395
5.58881212062344
5.0936665837174
4.62206331773211
4.25932011201233
4.05009021582155
4.00839057834253
4.0765625725244
4.07734900034903
3.85697298660431
3.5914820909915
3.7248899710503
4.40994550639535
5.25830687521919
5.8174439571832
5.9857790600379
5.80625690148859
5.21432771308143
4.18969090309358
2.92937745986919
1.78302538790023
1.10837093047273
1.04733624236037
1.32397329284671
1.46478074581365
1.25550099617733
0.699828412324003
-0.407990526085545
-2.45656255602823
-5.5636804192114
-9.42134398003323
-13.4368596831045
-16.7886223692221
-18.6515770992608
-18.737115930652
-17.5017580559851
-15.708280878485
-13.9270113820397
-12.3865102036244
-11.0056287310595
-9.57733355499258
-8.12306771126493
-6.9925924760452
-6.47298362772662
-6.44616021268328
-6.54596482953375
-6.45025419885415
-5.90696691946032
-4.69365986610285
-2.70529173084435
-0.0413330831058613
2.93074494526675
5.58383961032553
7.38305635789353
8.36636102220141
9.0498063750444
9.8459480867634
10.8411209479845
11.9963298136592
13.1527567404433
13.9611316042975
14.1916867666301
13.9980613261754
13.6365173027206
13.160562914875
12.575049625765
11.9983997878016
11.5321181745668
11.2187066315657
11.1301505734303
11.2472744389107
11.3377401806117
11.1474910376696
10.5290903696676
9.27073686552196
7.13840965513836
4.26789068634215
1.21520851173613
-1.57605189917906
-4.20049107673552
-7.08690849407908
-10.4141460251091
-13.7095310294575
-16.0829894532223
-17.0682767625699
-17.1960070835235
-17.3946949542919
-17.825606569839
-17.7541426641141
-16.6093292606983
-14.6153220634606
-12.2058158049847
-9.34175004437437
-5.76636622292514
-1.74523828282139
1.70352682455364
3.44080319343072
3.15623807045698
1.63227781987876
-0.0035069448055938
-1.10435922514354
-1.54009041550808
-1.3437894754354
-0.594440517608279
0.674735785021244
2.65713873694889
5.5643903246902
9.14535382184279
12.7235797259363
15.7339446678987
17.9469447342408
19.206652475328
19.1901211258809
17.476558259132
13.947638154597
9.27212089226347
4.76012064864645
1.38706370631829
-0.893963936461286
-2.6568856582772
-4.16089635853817
-5.32900825307112
-6.24013621047119
-7.22057412817618
-8.54641870626772
-10.2729733976977
-12.267182457097
-14.32884522953
-16.3753323958008
-18.4445403941712
-20.4026254305139
-21.8652641444267
-22.5764696268603
-22.5573737892991
-21.699364484796
-19.6074340194085
-16.1051171851291
-11.6206605743311
-6.95042524929381
-2.83402778060498
0.371214998473849
2.94038453557721
5.61097432422546
8.88947165137932
12.5913155332615
16.103529405503
18.8576299701821
20.5527827418283
21.2284317386467
21.142440877856
20.4333981145505
19.0841586267467
17.3414641747861
15.8338440649574
15.0591644665503
14.9730183894806
15.1267222520754
14.980838190372
14.171565844997
12.7613262237325
11.166458160342
9.67412923780749
8.19829736639236
6.61242623630052
5.01672146928473
3.50485937552902
1.95624173236939
0.227633313579082
-1.68129488207087
-3.7153712910399
-5.77208531531423
-7.64436245058438
-9.22040974427167
-10.7155034360073
-12.537243515529
-14.9769196280981
-18.0131021153781
-21.1754570467439
-23.6050360211821
-24.512984893044
-23.6458147858222
-21.3164574454966
-18.2237835024506
-15.2385076043372
-12.9188370068245
-11.0722611321269
-9.07404749807122
-6.57851197378913
-3.61052468583641
-0.198221777430779
3.58691642467325
7.38179759039222
10.7526285003459
13.5387502396306
15.7226543101122
17.1736150683465
17.7199094044866
17.2932647820699
15.9274583064475
13.7867045736689
11.1727970479318
8.34746782418209
5.44918468153666
2.74657415139555
0.830366292527036
0.340802147965444
1.51348180380308
3.98899486199772
6.90876580855008
9.19046764641239
9.90622095825232
8.51853472407216
4.92582811230925
-0.36978730864126
-6.12827019756657
-10.8868344295217
-13.8512256016017
-15.1424307410171
-15.3740641337435
-15.3636807678975
-15.910775875753
-17.1741121805591
-18.3244997221065
-18.2893911895469
-16.8329512777523
-14.7188661178357
-12.997057337113
-12.2395389149377
-12.2241062572316
-12.2476190849144
-11.8096443127496
-10.8751138030464
-9.52077828366188
-7.78954084777949
-5.99221260712208
-4.5763768797435
-3.41001334524802
-1.60030063856531
1.71543039815434
6.60375596580608
12.4100206940025
18.3566948655285
23.9908056660127
29.1570250226545
33.6050741370048
36.7717459032311
38.184855368133
38.0114070887217
36.8750822109056
35.1568232097276
32.8249165007229
29.9340198983278
26.9580960516681
24.5985174600296
23.341853808146
22.9744783098626
22.4383398705399
20.5100782491607
16.8133152578836
12.0109982237646
7.02993005340021
2.21641818654784
-2.94267763345668
-9.35267841824731
-17.2232058133676
-25.3773073710581
-32.0559383296137
-36.4285238235489
-38.9333085813712
-40.3515765823055
-41.1262432940754
-41.3973716542153
-41.0787521594775
-39.9238923337212
-37.8720106671641
-35.2404885203866
-32.4307578242322
-29.6320147524713
-26.834964145664
-23.9075942495241
-20.7386185376042
-17.54901943032
-14.8839068239678
-12.9933453559763
-11.3762951780503
-9.22023407708623
-6.20701039245995
-2.75547395708226
0.422909115466873
3.04027818627524
5.67497505109591
9.3000174953779
14.0855605620127
18.9270046107557
22.4744741680961
24.3534440664403
25.1192674533897
25.3575087907535
25.1334472786966
24.1559764339075
22.3277070763569
20.1044413447721
18.1108436230492
16.370680818895
14.2987022744276
11.5702368704464
8.61915746584746
6.18974702681646
4.71819434359256
4.11067627433958
3.82111547319071
3.28810336099535
2.55603331743852
2.25368981434032
2.8051276326111
3.96926418495934
5.23202864111442
6.26764957801015
6.95375528754402
7.3142982519314
7.55731799558854
7.96893073560975
8.74459246291857
9.93034531240339
11.2957669829932
12.2087734044462
12.0046352119083
10.6793486565072
8.95502267767341
7.53439388469542
6.52755095786925
5.62889618104142
4.56900493355913
3.34391662762357
2.15688009437392
1.14871700905166
0.281432535218665
-0.326038598383118
-0.264127239083839
0.382938720114879
0.286621203703331
-2.35970904836045
-8.1453441830311
-15.7964277562184
-23.1133638245848
-28.3388110229522
-30.9659012768316
-31.6835362297926
-31.5284516973941
-30.9811853267708
-29.925160001393
-28.2757636383306
-26.3018101089827
-24.3710038700357
-22.5952335015258
-20.7024927717672
-18.2605258575083
-15.1850551606991
-11.9561049416888
-9.13947154684264
-6.8384981192564
-4.82283614855126
-2.98610989114901
-1.41647557583551
-0.167995501366762
0.846654866576996
1.86492910188442
3.24184553960137
5.23491926314511
7.84529978125693
11.029438242085
14.8196553441726
18.920752404088
22.4969272431062
24.7693302209109
25.5978380004557
25.2310479978787
23.8627360795531
21.7301551203871
19.35515050075
17.4531775198423
16.686526435141
17.3819608060056
19.2337579762857
21.3478260376716
22.6897911681532
22.4134056132385
19.9736724762005
15.4199507521307
9.58639264893965
3.59519250137486
-1.84547642633459
-6.49419419285627
-10.2428416894129
-13.0698670348511
-15.1227361746234
-16.6040018338195
-17.6991165956647
-18.6510798718779
-19.6939109901713
-20.8634567010743
-21.9421762618773
-22.4722278043423
-21.7912567899914
-19.3705657530386
-15.3312368701036
-10.4531139335262
-5.60483028853952
-1.38846727307877
1.72704620793384
3.37776451100679
3.546072166305
2.60381332321913
1.13195786635579
-0.192739630721623
-0.795145713622686
-0.520360184685451
0.400582487514404
1.7205090029428
3.25047266319688
4.66156507055883
5.59334702955121
5.94760381869615
5.88417629529234
5.69342854214084
5.77774949358043
6.43978374994594
7.57055055881889
8.83888398360567
10.1723267160209
11.7116710837534
13.377784604615
14.8353378229696
15.8138399309005
16.2497941654042
16.2421653064842
15.967062268583
15.4930514687556
14.7514805050926
13.8782950806034
13.3020365833789
13.0317066593113
11.9932679790374
8.60225025224365
2.17266849232385
-6.35362223567454
-14.9932480811316
-21.9416728774267
-26.485791911961
-29.0510381610798
-30.443754637776
-31.0995853187703
-31.0589072657925
-30.3382239393231
-29.0449605608337
-27.3281591888227
-25.3982069955736
-23.3836112566454
-21.1241898649977
-18.3970266914565
-15.3208210635662
-12.2384206521504
-9.32746103953964
-6.62918768467414
-4.22858594661002
-2.03990195810783
0.402943547988934
3.62981819186968
7.76096881659068
12.3677863784459
16.6308757171713
19.7366083159832
21.3985104358093
21.9604731942157
21.8868924075156
21.3365905872066
20.3092208575924
18.9329494283181
17.4568394333497
16.0853797149431
14.8540569023652
13.6230613325042
12.2870560922255
11.004086470678
10.0351354802019
9.37079515855836
8.7665440928003
8.09353593900193
7.32068634322025
6.22794778199177
4.56342770440792
2.46363627344492
0.348994142639659
-1.5364937621289
-3.18460817943978
-4.57998310983975
-5.70603440769641
-6.70562453745129
-7.86967633200991
-9.48014103348216
-11.5320653860851
-13.4609445437741
-14.403095440859
-13.9828137075154
-12.6185589709979
-10.919648270427
-9.14840213587026
-7.42834610224078
-6.07563868183767
-5.47706580994757
-5.77884750089585
-6.68514708223892
-7.4755736320789
-7.44442729790756
-6.49571797454956
-5.14823320561082
-3.95957102392991
-3.17709134254818
-2.81874001426661
-2.72105621312875
-2.54438301201919
-1.97585282668856
-0.85358233495748
0.958199986514848
3.45838283921223
6.0843490179768
7.80065105383912
7.95643370788196
6.88737645201401
5.56780741724505
4.9187903697375
5.42694112134061
7.00370034906536
9.06516480945363
10.9570056758432
12.3531514166688
13.2460053324812
13.7927730929656
14.2562499019561
14.8280374901473
15.4177288976004
15.7913497982272
15.8362890568695
15.4222017423765
14.0766138158744
11.1201344740409
6.28950187804533
0.270088465945795
-5.42585631489049
-9.33758352876666
-10.988161875682
-10.9044735325285
-9.88837902491914
-8.65828241944821
-8.01431203103651
-8.59783179129644
-10.2734667432715
-12.2257713094232
-13.7997955734672
-14.9037708761366
-15.6394943895099
-16.0019110936214
-16.0135136241707
-15.8156596399891
-15.5221791165181
-15.1153636616795
-14.4340836653102
-13.1652409160032
-11.005063968226
-7.98566680147222
-4.58782753441657
-1.53871312659876
0.471851350591776
1.1630114534291
1.03447961124406
1.15582295906283
2.29143483064014
4.31742023885679
6.54656867611187
8.39316977846669
9.71108547421417
10.7550557654058
11.8477270696633
12.9638518200595
13.7046526234887
13.6120489048335
12.2530591478802
9.26102105895844
4.92941827852108
0.63987240908848
-2.04710701727897
-2.82512007653117
-2.7195841978317
-2.8471938204277
-3.52778652845023
-4.44517260373969
-5.20044445815023
-5.64974215060269
-5.88066754854468
-5.94609222714346
-5.74613597473122
-5.23485691083708
-4.52882223839693
-3.65929895626513
-2.42834276671812
-0.675749116257373
1.48146814058462
3.7460441655581
5.76928599643852
7.20620847871339
7.93780608459155
8.23787949584874
8.51971794181059
9.02202266573237
9.80596781987602
10.7097948547027
11.2438627443909
11.0484949143674
10.5571054090467
10.6405646951221
11.4729936297227
12.2463344407277
12.0763950472444
10.8212880123588
9.093070326273
7.80418946420402
7.53453367833632
7.97896896667859
8.02443278116762
6.47576021420576
2.73411243260938
-2.9600054749778
-9.62070386532183
-15.9401908553091
-20.872637656836
-23.8982663689536
-24.9570965892183
-24.4569541613859
-23.1971969114535
-21.8487834256459
-20.4972786378547
-18.898655472818
-16.9739189876403
-14.7659384453018
-12.1568400322071
-9.00474434423849
-5.45407880284965
-1.8957364529373
1.23373574015621
3.54057049118341
4.86401552852691
5.4912920992241
5.91764155049032
6.33360078549808
6.53826310060186
6.2768059605951
5.46111031283997
4.18253551156964
2.70206941992441
1.37217214013304
0.500671600070657
0.276882400480897
0.681207962081967
1.43595913601823
2.29445977664002
3.39799736591546
5.05157617057701
7.2239973721429
9.63867167219444
12.1801937181131
14.7422590563379
16.8526633221413
17.9156572237487
17.7094922339524
16.3891990271884
14.2462330373668
11.647152046417
8.90561139805701
6.05346312843749
2.94273864598633
-0.413205647984558
-3.77302570390429
-6.83457484370146
-9.30023813600859
-10.9511098868791
-11.8321976143075
-12.1945283279659
-12.160716155155
-11.6812509949909
-10.8567356404465
-9.99051531160547
-9.2805514013051
-8.73074172072204
-8.31098335682838
-7.93320482340353
-7.39638328147186
-6.62747841206883
-5.87566697164034
-5.52186890762747
-5.78561680084502
-6.53936474550772
-7.20087002682063
-7.01040039182553
-5.74099752377645
-3.94843097358219
-2.25983393945173
-0.701455197341305
1.00171633120167
2.77986805803125
4.20969358578689
5.04791419291956
5.61538464123184
6.5835817957065
8.21957701008693
9.86465450988096
10.4644082488304
9.61702262829511
7.76878998567603
5.4688545839349
2.90209575256708
0.167925250851132
-2.40377384869574
-4.34232507052734
-5.28974025954443
-5.21423254411084
-4.47493664760212
-3.53764719399173
-2.55906604283167
-1.43644284017805
-0.243459490489774
0.699694277511533
1.20328821956945
1.36726826222675
1.3978598268263
1.50027716252697
1.85082395320344
2.49873144231892
3.40659037966183
4.57343728917513
5.87583708376444
6.90629915371475
7.31923501699538
7.21550296123057
6.90422257323015
6.53334403787021
6.22398913469877
6.22674603178101
6.63961828961361
7.22365132920508
7.6360670249582
7.60921344199015
6.98631240832468
5.95019694317145
5.11278649399401
5.02645118573157
5.70101211659821
6.803664852115
8.12988335835191
9.68971405913322
11.4616377669504
13.08060304794
13.6356832892939
11.9591783796135
7.47998722315398
0.836279840433055
-6.47343675315889
-12.9754674796518
-17.7906442200067
-20.7014980171571
-21.9455455814373
-21.9183504436015
-21.0728984850838
-20.069233307504
-19.6431834731371
-20.0476950553014
-20.8705571405842
-21.556469541578
-21.78551296382
-21.3134735430695
-19.963840303627
-17.9163590548619
-15.5883369019106
-13.1702270358277
-10.5784599156308
-7.75482245673599
-4.74412938502439
-1.70415581602535
0.932282488557295
2.6147026893436
3.20949862483967
3.13182929989275
2.91669625960829
2.97749196222708
3.73599503296601
5.58071766482684
8.57677729933521
12.320835699842
16.0390907620017
18.8619790502827
20.2767381426912
20.4759389761113
20.2075396314289
20.2408157006799
20.8775794251129
21.6889676721716
21.5966111581262
19.5275536942893
15.3266538176675
9.98491798818643
4.88317053546036
0.902456154109388
-1.8512416393675
-3.81089654566718
-5.47737894591265
-6.95038745539805
-7.93773274438511
-8.27792774691672
-8.21434500803063
-8.09268763560408
-8.09694090962841
-8.30544975555472
-8.66907096624668
-8.9518970816497
-8.99391300866749
-8.95166708189581
-9.06774930087144
-9.38486706273201
-9.81206732855747
-10.1728281045108
-10.0873404327283
-9.13773163069407
-7.24005608841123
-4.64966843540999
-1.70684331094709
1.20354258763757
3.67946330613759
5.62784189465684
7.47359620288217
9.84734773219895
13.084753655415
16.9944660847721
20.9404891954646
24.1480416530497
26.0947555614314
26.6752304884572
26.009034668962
24.1917674782529
21.2347702333645
17.1168046544014
11.9507763988362
6.2765298943377
1.05331664092222
-2.89582217431651
-5.34237860341177
-6.4937095042967
-6.75058622506231
-6.75875652276047
-7.17619597854418
-8.08168193966606
-8.98410098309072
-9.6008655250631
-10.2940796468092
-11.6664972906321
-14.0150078881092
-17.1391973471555
-20.4286678937199
-23.2088478074178
-25.1235003120699
-26.065630761247
-25.8620623827963
-24.4119172612904
-22.0681647626419
-19.4545181438466
-16.8746222465963
-14.1490603268145
-11.0074228010143
-7.54653075970223
-4.39169817260823
-2.32508069465767
-1.5096944400393
-1.15560252143457
-0.203069054041205
1.7426664604514
4.3131259808104
6.96728390601658
9.38733462934403
11.4560025967031
13.1493099796829
14.4328009277327
15.1864980023635
15.3673341387538
15.2492931087169
15.2802870630341
15.6620729299659
16.1762257628341
16.3464259742927
15.7492510854872
14.3745643916706
12.6676103377187
10.9782869536843
9.11363809487388
6.73676115344481
3.93848375263803
1.01849114367148
-2.00313815441997
-5.23740541366256
-8.53656920410647
-11.5544478688031
-13.9757293412757
-15.5848559923001
-16.3939483833384
-16.6771689910256
-16.576317971236
-15.8269228033513
-14.197247729453
-11.9673068522609
-9.63192735376216
-7.33086691068545
-4.85029755768843
-2.02855388350637
1.04660235459976
4.16230074466121
7.1854996226922
10.1217871473394
12.9265595789151
15.3097376022369
16.930037027465
17.7892347891775
18.188054081923
18.3181980870333
18.2270289986916
18.1154284571801
18.1998132054023
18.2386907748567
17.6023358031704
15.9102810616268
13.4337013615076
10.9491415358586
9.27960755550878
8.76093746071808
9.03903185457359
9.4808071173006
9.67352519652228
9.42727602162295
8.65357443935862
7.51538681531391
6.34217571016086
5.1268341414068
3.44858706543799
1.09480735532142
-1.60148271493076
-4.28236637746824
-7.28867667740148
-11.7601915972911
-18.7918936268779
-28.0235124527041
-37.0775852137096
-43.0348033942961
-44.7349191421298
-43.3294494516989
-40.6943165565327
-37.8693061489195
-34.9962338725972
-32.0300946684894
-29.0941073994598
-26.3559395311128
-23.794630602889
-21.1501459179892
-18.1976093984734
-15.0499193093262
-12.004529033188
-9.16474673195293
-6.44693178419271
-3.75267406895106
-0.791566662039607
2.94845957341235
7.51927969581255
11.9517778252062
14.837099882088
15.5373997600101
14.7997780600786
14.313000717842
15.5167330292705
18.4807439654379
21.9148218393906
24.3804763567942
25.3612581472347
25.2281354700769
24.6337445332987
24.0530500469207
23.5230524934239
22.7494141565766
21.7149642251642
21.0358498160741
21.393791514366
22.7497626380671
24.3395820934379
25.2917121253952
25.1653344262404
24.1046262127929
22.5229752874366
20.497590947056
17.5824894102924
13.4040981817977
8.28228689894233
3.06394140388014
-1.48992117505475
-5.0132734170292
-7.5048890791594
-9.21952494705875
-10.4635346912631
-11.4308040257051
-12.3139045111078
-13.3906192257471
-14.7966573252222
-16.4342003158969
-18.2438531541342
-20.2087512305974
-21.9670815793556
-22.8858976120355
-22.7153510023082
-21.8331964532869
-20.7826219134962
-19.848457039745
-18.9949044629319
-17.9290702789378
-16.3447103407034
-14.2882513764877
-12.1268807939152
-10.140961431891
-8.41187692174921
-7.01606586539554
-5.96493916057163
-5.03715598658832
-3.96933800514071
-2.69610528817561
-1.23028916997289
0.478196874709992
2.42148462220271
4.4361724062957
6.22984822710062
7.37253392920039
7.45977758765245
6.56188634603155
5.35475960414376
4.55180375431014
4.34682854553915
4.5550413723777
5.01843540029054
5.66322418643046
6.39777497916141
7.11892324926901
7.66534734075845
7.78553267235848
7.35123225477171
6.5126958529441
5.49484053364192
4.42278044805678
3.42004732338604
2.57942419555812
1.78230211384405
0.866640258330678
-0.0201928978727193
-0.523207507105544
-0.467882222936702
0.065590146128002
0.875805402899044
1.6633662267314
2.14084667063111
2.25844590045563
2.1619013792175
1.97394839843907
1.810385750356
1.83061297208837
2.0255775788938
2.15647634748111
2.09898998476282
2.02289206548787
2.09771011547503
2.24557946984226
2.26777195266774
2.04786549008329
1.63370879142922
1.23733163878256
1.06737338000538
1.1022920740867
1.21755899746187
1.51198315668977
2.09733709028051
2.51147354985344
1.89126472777539
-0.0259391562953731
-2.46778931279955
-4.36727605469008
